13735.795168,-948.473924,9445.578986,3399.767387,6151.960033,-3938.980870,2162.330110,-1397.520470,-969.193991,18545.868223,2131.440000,6393.291818,9341.978650,6127.753094,-642.366784,8551.084525,-80.520004,-950.135986,-307.440002,1960.000000,0.000000,-1400.000000
-184574.044892,90857.203705,-99596.109938,57152.941186,51254.137010,-145011.121930,-38091.418218,-86792.002534,-142017.418685,46883.320437,186060.145326,115759.148092,-139136.256473,-35158.779938,-98111.149444,154907.245029,-80.520004,-950.135986,-307.440002,1960.000000,0.000000,-1400.000000
12876.638815,-477.477965,9281.986568,2585.202764,6388.642655,-3442.012184,2212.934460,-1214.593794,-1056.589312,18557.938165,2596.356284,6976.761756,10565.535494,6029.248956,-738.769858,8767.158838,-126.880005,-973.559998,-210.328003,1400.000000,-15960.000000,-8400.000000
12822.525242,-536.888902,9225.771931,2523.266080,6328.739980,-3497.489214,2158.418555,-1264.862867,-1115.955545,18504.383386,2491.794824,6919.742455,10512.338342,5973.548409,-793.464576,8728.646782,-124.928001,-977.463989,-213.255997,1540.000000,-16520.000000,-8960.000000
12759.023936,-598.825586,9161.443610,2459.451849,6263.338776,-3558.978863,2097.957086,-1319.445827,-1178.093395,18435.361199,2264.634045,6856.129391,10448.300594,5908.929516,-854.395432,8684.300921,-124.928001,-972.583984,-219.112000,1680.000000,-17080.000000,-9660.000000
12694.740319,-662.773927,9095.125985,2389.915572,6190.293275,-3624.044791,2030.655984,-1378.253267,-1241.952329,18370.518788,2106.115473,6789.007102,10386.430965,5841.024916,-919.416656,8636.267023,-122.975998,-975.512024,-214.232010,2520.000000,-18480.000000,-10080.000000
12650.349754,-708.907927,9052.747077,2344.452124,6143.041687,-3661.595721,1987.494765,-1413.233747,-1289.606248,18328.273991,2257.973225,6744.057744,10347.829503,5795.852041,-958.509857,8603.454662,-123.464005,-973.559998,-214.720001,2520.000000,-19460.000000,-10780.000000
12669.125219,-667.266627,9098.210525,2387.970971,6182.559572,-3622.368410,2024.486902,-1378.409729,-1249.238998,18373.312756,2357.282025,6765.850695,10388.375567,5832.732419,-918.008497,8628.801540,-121.512001,-975.512024,-215.695999,2380.000000,-20440.000000,-11200.000000
12727.686790,-610.470845,9160.817762,2450.444096,6245.166808,-3560.029395,2084.054301,-1323.759714,-1193.560802,18443.720751,2557.732470,6826.133350,10455.967242,5898.893583,-855.982406,8676.544866,-123.952003,-975.512024,-218.624008,2380.000000,-21700.000000,-12040.000000
12824.492195,-549.830562,9206.258858,2520.248594,6318.704047,-3495.455205,2151.131886,-1267.366262,-1135.513322,18487.999557,2765.558990,6920.211842,10505.342246,5966.775831,-790.402387,8725.808111,-122.000000,-976.976013,-218.136002,2100.000000,-22820.000000,-12600.000000
12887.926446,-482.350645,9274.163458,2583.995770,6385.021673,-3447.622472,2209.469939,-1226.820198,-1063.697167,18543.767159,2637.215273,6980.360386,10547.989374,6024.130407,-737.831084,8763.560207,-116.632004,-979.903992,-214.720001,1960.000000,-23940.000000,-13160.000000
12855.695230,-504.501224,9247.698992,2547.607130,6350.220007,-3482.155917,2177.037558,-1259.319634,-1083.858440,18525.416377,2516.672315,6945.044630,10526.084665,5992.525040,-770.889315,8741.007297,-116.632004,-981.367981,-214.232010,1680.000000,-25340.000000,-13580.000000
12790.472840,-571.891734,9177.693329,2478.361425,6280.504916,-3546.283072,2112.150444,-1319.289365,-1150.600749,18458.227033,2336.897235,6879.442260,10468.081888,5926.073304,-834.904711,8692.392253,-111.751999,-978.440002,-214.720001,1400.000000,-26460.000000,-13720.000000
12726.770368,-638.075249,9115.331962,2412.624945,6212.354447,-3608.376218,2046.458667,-1376.733348,-1214.929070,18389.495419,2105.400217,6813.057579,10404.290009,5860.493286,-897.847223,8642.816084,-109.312004,-979.416016,-217.160004,1260.000000,-27160.000000,-14000.000000
12660.899778,-709.042038,9051.182455,2341.054659,6139.554815,-3666.222533,1980.096338,-1424.990764,-1284.822975,18326.239982,2186.201773,6744.013041,10345.974308,5795.986151,-958.308692,8600.370121,-106.872002,-978.928040,-218.624008,1260.000000,-28140.000000,-14000.000000
12681.105755,-689.819537,9072.371909,2361.864133,6160.744269,-3642.037945,1998.804748,-1399.152148,-1265.131088,18344.702523,2309.024609,6764.040204,10364.436849,5816.035666,-943.958872,8617.513909,-105.408005,-978.440002,-223.503998,1260.000000,-29400.000000,-14140.000000
12742.416590,-624.105409,9139.158921,2429.701678,6230.235842,-3577.039072,2063.513048,-1340.657632,-1206.256593,18411.645998,2456.054384,6829.977850,10429.234556,5884.387301,-882.133947,8663.893779,-101.503998,-975.023987,-218.624008,1400.000000,-30240.000000,-14140.000000
12798.810041,-566.437908,9198.078120,2492.711245,6291.993712,-3521.204415,2122.767523,-1291.461443,-1153.014738,18473.560330,2706.393922,6889.008807,10487.371443,5943.060630,-820.800760,8705.423320,-96.624001,-975.023987,-219.600006,1260.000000,-30800.000000,-14280.000000
12876.057670,-489.413797,9267.949673,2571.277627,6368.347271,-3460.653539,2193.868422,-1239.225416,-1071.028539,18542.202537,2687.976085,6962.881322,10550.559825,6010.115863,-750.437468,8752.317280,-98.087997,-976.488037,-222.528000,1260.000000,-31640.000000,-14140.000000
12876.415298,-489.212631,9263.009937,2567.947217,6364.435716,-3468.990739,2192.504965,-1248.702556,-1070.402690,18538.961534,2546.467191,6959.886188,10547.922319,6007.612468,-750.169247,8750.842065,-96.136002,-976.000000,-223.503998,1120.000000,-32060.000000,-14000.000000
12809.941210,-558.771260,9194.233619,2496.555745,6292.328989,-3532.603804,2126.589671,-1306.660629,-1137.413220,18469.492313,2415.173044,6890.171098,10482.096432,5940.780752,-814.452864,8703.121090,-95.160004,-976.488037,-222.040009,1260.000000,-32900.000000,-13580.000000
12747.132808,-621.490255,9133.213357,2434.060268,6230.392305,-3589.958380,2066.932865,-1357.667310,-1200.512195,18402.437079,2160.251398,6828.636745,10422.864309,5879.425213,-872.857973,8662.776192,-94.183998,-974.536011,-219.600006,1120.000000,-33320.000000,-13440.000000
12677.417717,-696.010971,9064.168818,2358.399613,6154.664594,-3653.414983,1997.597754,-1413.323154,-1275.815222,18335.650067,2121.158197,6756.239445,10359.899445,5810.738303,-937.633328,8616.016342,-93.208000,-976.976013,-221.063995,1260.000000,-33460.000000,-13020.000000
12663.492580,-711.836006,9051.003641,2339.422982,6136.425571,-3660.813410,1980.923352,-1418.888738,-1290.813242,18323.200145,2279.117975,6739.632099,10346.488398,5795.069730,-955.134744,8604.259325,-92.232002,-975.023987,-217.647995,700.000000,-34160.000000,-12600.000000
12726.725665,-647.217112,9112.627400,2403.661895,6200.955057,-3599.681389,2040.557807,-1365.669234,-1227.088419,18386.522637,2390.586125,6803.178108,10404.759396,5856.112344,-896.997857,8647.018212,-92.232002,-974.536011,-217.160004,420.000000,-34720.000000,-12460.000000
12781.912122,-589.482557,9170.965454,2462.290521,6262.824686,-3540.046935,2099.186432,-1314.886071,-1173.287770,18448.436969,2624.698296,6861.113830,10464.684423,5915.858557,-839.799743,8688.525401,-90.767998,-978.440002,-213.744003,0.000000,-35280.000000,-12320.000000
12855.091733,-515.297117,9241.127579,2537.906472,6338.038306,-3477.551458,2169.549724,-1260.459573,-1099.079978,18519.291999,2732.254890,6932.639412,10528.409246,5982.846735,-776.767823,8735.084085,-87.840004,-975.023987,-213.744003,-140.000000,-36120.000000,-11900.000000
12888.753460,-479.936657,9270.006033,2576.038548,6374.873981,-3454.126829,2204.418445,-1240.410059,-1064.412423,18547.946936,2575.099775,6965.943511,10556.147761,6014.697971,-742.636710,8757.033498,-92.232002,-974.536011,-210.816010,-280.000000,-36540.000000,-11760.000000
12843.290012,-527.456466,9220.899251,2525.769475,6323.397913,-3504.462958,2157.032747,-1284.152422,-1110.479368,18499.153078,2473.399338,6916.881432,10508.739711,5965.300615,-788.323675,8723.997620,-88.328003,-972.583984,-208.863998,-280.000000,-37520.000000,-11480.000000
12785.734270,-583.604048,9160.147209,2466.470297,6260.902436,-3565.773793,2096.057188,-1338.154237,-1166.023453,18434.489481,2249.345452,6858.163399,10447.272414,5904.056836,-850.170952,8679.897628,-91.256004,-973.072021,-210.328003,-560.000000,-37940.000000,-11200.000000
12714.029874,-656.694252,9089.493345,2392.575430,6185.934685,-3630.079762,2027.996126,-1394.234764,-1241.058259,18364.103838,2086.133014,6785.631989,10381.759451,5837.023954,-914.499273,8632.713095,-96.136002,-975.512024,-207.400009,-560.000000,-38500.000000,-10640.000000
12670.153400,-705.398703,9047.740286,2343.289833,6136.671440,-3667.049547,1982.443271,-1427.628270,-1290.388559,18325.390616,2240.225940,6740.794389,10343.202691,5794.220363,-953.815991,8603.700531,-97.112000,-977.952026,-208.376007,-1120.000000,-38780.000000,-10500.000000
12719.640162,-656.448383,9098.009360,2394.117700,6187.544011,-3622.144892,2027.593795,-1389.630305,-1240.454762,18374.072716,2345.279139,6791.845774,10388.912009,5840.913158,-905.826796,8637.965755,-100.040001,-979.416016,-206.912003,-980.000000,-38920.000000,-10500.000000
12779.051099,-597.663295,9158.403773,2453.819210,6248.676032,-3563.516267,2086.490641,-1338.578920,-1181.334398,18440.144472,2535.716001,6852.642519,10448.926443,5901.396978,-844.292443,8682.311616,-99.064003,-978.928040,-202.520004,-1260.000000,-39760.000000,-10640.000000
12838.931422,-536.710088,9219.558146,2521.410885,6317.564108,-3503.859461,2152.227122,-1286.454652,-1121.208205,18502.416432,2740.837960,6916.009714,10507.644475,5965.904113,-780.500565,8729.764370,-103.944000,-978.440002,-202.031998,-980.000000,-40040.000000,-11060.000000
12895.727205,-474.013445,9271.637711,2584.733377,6380.886600,-3457.770164,2209.536995,-1248.099059,-1058.824487,18550.629145,2617.433979,6973.453697,10554.583139,6021.336439,-727.593986,8767.807039,-105.896004,-980.880005,-201.056000,-1260.000000,-40460.000000,-10780.000000
12860.925539,-509.306849,9235.629050,2548.232978,6343.670946,-3494.024693,2174.824736,-1282.408986,-1095.749568,18515.983941,2502.814234,6938.048534,10522.173109,5988.233505,-759.668739,8743.845969,-104.919998,-981.856018,-199.591995,-1120.000000,-41720.000000,-11060.000000
12795.412576,-578.127870,9170.607826,2476.483879,6273.933503,-3558.174200,2107.523633,-1341.305833,-1161.709566,18446.805292,2327.889482,6871.865019,10458.582396,5922.072342,-827.483931,8694.336855,-105.408005,-978.440002,-198.128006,-840.000000,-42560.000000,-11200.000000
12728.804377,-646.792429,9106.346560,2407.171119,6203.972543,-3618.054523,2043.217664,-1395.106482,-1229.815332,18380.197094,2089.530479,6805.167413,10398.210335,5857.028765,-892.795729,8646.347659,-106.384003,-978.440002,-199.104004,-840.000000,-43540.000000,-11760.000000
12666.465362,-714.406456,9044.231062,2338.372450,6132.044629,-3673.822126,1978.352902,-1442.603939,-1298.882222,18323.244849,2171.963712,6738.402753,10341.682773,5793.147480,-952.005500,8602.538240,-106.872002,-980.392029,-199.104004,-840.000000,-44240.000000,-12040.000000
12683.743260,-696.323895,9062.447734,2358.198447,6151.468295,-3652.565617,1995.049655,-1422.107389,-1283.124242,18342.109721,2299.011028,6756.105334,10357.127828,5809.754826,-933.498255,8614.429368,-106.384003,-978.440002,-201.056000,-560.000000,-45500.000000,-12460.000000
12739.510863,-635.102467,9123.266831,2421.453884,6215.148415,-3591.612410,2053.343004,-1368.999644,-1223.400381,18402.615893,2443.000965,6817.080893,10417.566945,5871.311530,-875.853106,8655.735392,-110.288002,-974.536011,-203.984009,-840.000000,-46760.000000,-12740.000000
12799.838221,-574.842164,9182.230733,2481.557725,6275.989863,-3533.654336,2111.323430,-1318.171778,-1163.363595,18459.232862,2689.361893,6876.558885,10476.128516,5931.169502,-821.113684,8696.728491,-103.944000,-972.583984,-204.960007,-420.000000,-47320.000000,-13160.000000
12873.844847,-503.137768,9251.275271,2555.765516,6352.075202,-3473.081109,2178.311608,-1267.254504,-1088.015865,18524.879935,2665.020843,6948.956185,10538.467531,5999.677598,-759.355814,8741.610794,-102.480003,-978.928040,-204.960007,-420.000000,-47460.000000,-13580.000000
12873.509571,-504.121244,9248.682469,2553.172714,6349.437696,-3478.803155,2176.903448,-1273.647103,-1088.418196,18528.545621,2526.820007,6946.586901,10537.551109,5997.017741,-761.054547,8741.409629,-101.015999,-976.000000,-208.863998,140.000000,-47880.000000,-13860.000000
12798.318302,-577.256152,9178.475640,2484.150527,6279.230866,-3542.058592,2115.234985,-1326.620737,-1164.838811,18455.410714,2395.883488,6873.183772,10471.546408,5930.074266,-821.091333,8696.840250,-99.552002,-976.976013,-203.496002,0.000000,-48020.000000,-14140.000000
12753.324241,-622.071400,9125.881985,2436.474256,6227.710095,-3597.513270,2063.535400,-1378.901467,-1203.529680,18400.939512,2146.281558,6825.216928,10417.276373,5878.084109,-869.862839,8656.361241,-101.992004,-973.559998,-206.912003,280.000000,-47460.000000,-14420.000000
12692.572199,-690.937125,9062.917121,2364.568694,6153.547007,-3658.913512,1997.173071,-1435.116104,-1270.719024,18343.316715,2107.903613,6758.474619,10359.541817,5812.749960,-930.592529,8610.920144,-101.992004,-976.488037,-200.080002,140.000000,-47180.000000,-14560.000000
12665.571292,-720.173206,9045.415705,2337.366621,6129.898862,-3667.943617,1976.408300,-1442.872160,-1304.827786,18323.177793,2261.683614,6732.770113,10343.515616,5794.332122,-953.815991,8598.559630,-100.040001,-976.000000,-199.104004,140.000000,-47600.000000,-14560.000000
12716.086235,-665.232618,9100.356293,2395.011770,6188.907467,-3612.913622,2034.411077,-1390.546726,-1252.569408,18378.520713,2369.664892,6787.889515,10394.030558,5849.965614,-897.579002,8641.050296,-100.528000,-976.000000,-195.199997,560.000000,-48160.000000,-14560.000000
12770.535084,-609.889699,9156.794448,2450.153524,6246.329099,-3559.492953,2089.843403,-1343.161028,-1197.673523,18439.563327,2607.912136,6844.059449,10449.284071,5906.671990,-844.314795,8681.171677,-102.480003,-970.632019,-198.128006,1260.000000,-49420.000000,-14560.000000
12857.259853,-520.885053,9233.684448,2536.788885,6331.869225,-3493.957638,2165.951093,-1286.722873,-1104.086769,18516.475679,2720.341411,6929.599575,10517.233374,5982.511459,-773.459765,8733.810035,-103.456001,-974.048035,-193.736008,280.000000,-49700.000000,-14560.000000
12883.634911,-494.085311,9255.879731,2564.549752,6360.032423,-3474.466917,2191.230916,-1271.501335,-1074.426004,18541.107302,2560.727604,6955.996985,10541.149740,6008.126558,-749.409288,8749.746829,-104.919998,-975.023987,-192.272003,-1400.000000,-49560.000000,-14840.000000
12826.459149,-552.512771,9198.100471,2504.490614,6299.034512,-3529.541615,2135.373907,-1321.055153,-1132.987575,18485.652624,2451.628739,6897.100138,10487.304388,5952.023679,-802.248812,8709.714855,-101.015999,-973.559998,-192.760010,-2100.000000,-50260.000000,-14840.000000
12758.465142,-622.630194,9131.335811,2437.211864,6231.286374,-3590.919505,2071.872601,-1374.878153,-1202.300334,18413.232972,2224.691477,6827.765027,10422.193756,5887.985931,-865.951284,8666.218360,-101.015999,-974.536011,-187.391998,-2520.000000,-50680.000000,-14980.000000
12691.387557,-691.920601,9064.258225,2369.553133,6162.532409,-3652.073878,2008.259536,-1428.455285,-1270.942541,18344.724875,2058.260388,6762.877913,10359.832389,5823.925832,-922.791770,8625.225261,-101.015999,-974.536011,-185.440002,-3220.000000,-51240.000000,-14840.000000
12652.316708,-735.685317,9025.612059,2323.352077,6115.884318,-3687.166117,1965.143021,-1457.534904,-1313.254394,18307.956255,2209.380532,6721.773055,10324.628392,5782.083366,-963.784869,8598.358464,-99.552002,-971.608032,-190.320007,-3780.000000,-52360.000000,-14700.000000
12693.019234,-694.111072,9068.236836,2364.032252,6157.883246,-3648.229378,2000.905812,-1423.806122,-1270.875486,18350.648087,2308.488167,6763.637872,10363.766296,5822.025934,-932.514779,8621.134892,-94.672005,-973.559998,-188.367996,-4480.000000,-53060.000000,-14420.000000
12745.545834,-640.310423,9125.300840,2423.800817,6218.635287,-3590.964209,2061.702557,-1371.145412,-1221.858111,18409.746100,2495.594620,6820.321896,10421.299687,5882.867382,-872.410938,8661.949177,-97.112000,-973.559998,-191.783997,-4760.000000,-54040.000000,-14420.000000
12799.994683,-579.960713,9181.493125,2486.273943,6279.700253,-3536.917691,2120.755866,-1322.865644,-1164.615293,18467.659470,2698.950791,6878.972874,10476.307330,5940.244310,-818.431475,8699.991846,-98.087997,-973.559998,-195.688004,-4760.000000,-54600.000000,-14560.000000
12853.862387,-521.510902,9232.343344,2544.947272,6337.613623,-3493.734121,2173.170706,-1288.063978,-1102.924478,18516.430976,2579.033682,6933.734647,10522.284868,5990.513383,-770.554038,8733.228890,-95.648003,-972.583984,-198.128006,-5040.000000,-55160.000000,-14840.000000
12828.828434,-548.489457,9201.341474,2515.532376,6306.455291,-3528.424028,2143.666404,-1322.016278,-1126.818493,18487.105487,2465.129192,6905.035008,10494.032263,5959.399755,-796.660876,8710.877146,-91.256004,-973.559998,-201.544006,-5180.000000,-55580.000000,-15120.000000
12769.015165,-608.012153,9140.052991,2457.127268,6246.016174,-3587.276171,2087.474118,-1374.945208,-1187.235258,18422.508946,2292.037283,6843.567710,10434.375457,5899.519432,-849.053365,8670.733413,-91.256004,-975.512024,-205.447998,-5040.000000,-55860.000000,-15260.000000
12710.788871,-677.391967,9079.859743,2387.635694,6178.871534,-3643.803733,2022.855225,-1426.398924,-1251.831800,18362.159236,2057.165153,6780.178163,10377.892599,5838.454466,-911.995877,8627.683953,-88.816002,-972.583984,-207.888000,-4480.000000,-56280.000000,-15260.000000
12644.046562,-750.236303,9015.777292,2313.003220,6105.110777,-3700.174832,1955.375308,-1475.639817,-1324.631432,18302.323616,2138.681965,6711.446549,10320.962706,5773.768517,-973.150250,8584.142755,-88.328003,-973.072021,-216.671997,-3640.000000,-56280.000000,-15540.000000
12658.686955,-730.164436,9033.971612,2334.237377,6124.959126,-3677.778384,1974.016663,-1452.796334,-1306.705333,18314.438261,2263.136478,6729.484407,10335.089008,5792.320465,-955.425317,8598.023188,-85.888000,-970.632019,-213.255997,-2800.000000,-56700.000000,-15820.000000
12721.920040,-663.019796,9097.472918,2400.040913,6191.030883,-3615.931108,2036.378030,-1396.559345,-1240.879445,18382.991062,2409.696866,6795.466756,10397.405672,5855.665309,-894.494461,8643.397229,-80.520004,-970.143982,-223.992004,-2240.000000,-56700.000000,-15820.000000
12778.648767,-608.392132,9155.989785,2455.428535,6249.056011,-3560.230560,2089.731644,-1348.547798,-1187.078796,18447.073513,2661.936302,6851.614338,10456.324870,5912.684609,-843.197208,8680.657587,-78.568001,-969.168030,-224.968002,-1540.000000,-56840.000000,-16100.000000
12852.275414,-532.060925,9224.520233,2533.190254,6325.074294,-3499.143243,2157.368023,-1294.814205,-1107.685400,18512.698235,2647.877055,6924.145749,10517.032208,5982.109127,-781.104062,8725.361076,-74.664001,-970.143982,-225.944000,-560.000000,-56980.000000,-16240.000000
12845.435780,-536.330108,9218.217041,2530.798618,6321.319201,-3508.553327,2155.289311,-1301.296210,-1114.435627,18506.551505,2503.954173,6918.758979,10511.600734,5979.739842,-780.992303,8722.276535,-74.176003,-969.168030,-222.528000,140.000000,-56980.000000,-16380.000000
12779.498134,-606.693400,9153.508741,2461.754079,6252.587587,-3570.892342,2092.749130,-1355.387432,-1182.876668,18439.384513,2374.068186,6850.139123,10449.194664,5914.830376,-842.124324,8677.975378,-75.639999,-971.119995,-224.968002,1260.000000,-56980.000000,-16660.000000
12715.862717,-673.815688,9090.767394,2396.151709,6188.974522,-3628.850416,2033.315841,-1406.818796,-1248.344928,18370.988175,2118.721857,6785.162602,10386.095689,5853.608948,-903.323400,8637.474017,-68.320000,-969.656006,-227.895996,2100.000000,-56700.000000,-16660.000000
12649.209815,-744.223683,9024.785045,2322.636822,6116.174891,-3690.407120,1966.193553,-1460.261817,-1320.272841,18309.275008,2074.599513,6719.560232,10324.717799,5788.118337,-966.958817,8594.581019,-70.272003,-966.728027,-224.479996,2660.000000,-56420.000000,-16940.000000
12638.995068,-752.538532,9012.692751,2311.751522,6104.395521,-3698.051417,1953.430707,-1465.760346,-1329.258243,18300.513125,2235.442666,6710.686590,10317.386427,5774.953160,-978.559372,8585.819135,-70.272003,-966.728027,-223.992004,3360.000000,-56420.000000,-17080.000000
12699.121261,-688.366674,9074.674138,2377.488002,6169.617912,-3638.618128,2013.221623,-1415.044238,-1264.237018,18361.891015,2346.888464,6771.259817,10377.087936,5834.609966,-917.896738,8628.510967,-63.928001,-967.704041,-223.503998,3920.000000,-56560.000000,-17220.000000
12762.153180,-625.267699,9139.360087,2441.302233,6234.281508,-3578.715453,2076.097080,-1362.629397,-1202.792073,18430.957905,2587.572049,6832.861225,10440.410428,5898.558307,-852.853161,8675.270817,-61.487999,-969.168030,-227.895996,4480.000000,-56700.000000,-17500.000000
12830.080131,-557.832486,9207.756425,2511.665524,6306.857622,-3516.287031,2143.331128,-1308.716990,-1134.216921,18499.018967,2702.839995,6903.358627,10503.509403,5964.495953,-791.609382,8719.817843,-62.464001,-969.168030,-220.576004,4900.000000,-56700.000000,-17640.000000
12859.651489,-526.651803,9233.125655,2544.142609,6338.462989,-3495.209336,2170.086166,-1292.713141,-1100.555193,18525.863412,2546.109563,6934.338145,10528.029266,5992.055654,-765.524896,8736.514597,-60.024002,-973.559998,-224.968002,5740.000000,-56980.000000,-17780.000000
12810.991742,-575.132737,9179.615579,2489.134966,6282.002483,-3547.802990,2117.961898,-1340.143542,-1147.873837,18474.901435,2440.564625,6882.258580,10477.067289,5940.400772,-817.537405,8700.863564,-62.952000,-971.608032,-221.063995,6720.000000,-57540.000000,-17780.000000
12747.915119,-640.578644,9115.331962,2423.309079,6215.930726,-3610.633744,2054.170019,-1394.659447,-1212.380971,18405.991007,2217.427160,6817.416169,10412.314285,5876.698300,-883.653865,8654.349584,-64.416000,-971.608032,-222.528000,7140.000000,-58100.000000,-18060.000000
12677.261254,-711.612488,9045.885092,2351.537627,6144.785123,-3674.649140,1988.254725,-1451.410526,-1285.270010,18334.085445,2047.397440,6747.008174,10346.376639,5810.090102,-946.171695,8607.880307,-68.320000,-971.119995,-222.528000,7000.000000,-58800.000000,-18200.000000
12628.422693,-763.066204,8997.784137,2296.619391,6090.045701,-3715.128149,1938.186817,-1488.447367,-1339.025955,18288.063203,2192.840242,6695.643866,10301.248467,5761.251540,-993.222117,8575.537333,-70.760002,-974.536011,-218.624008,7000.000000,-59780.000000,-18620.000000
12671.829781,-721.067276,9040.744190,2340.361755,6134.525673,-3673.822126,1976.944742,-1452.282244,-1298.569298,18331.202070,2296.217060,6738.112180,10339.134674,5801.261163,-956.229980,8602.135909,-74.176003,-976.488037,-223.992004,6580.000000,-60340.000000,-19040.000000
12735.420494,-655.219037,9103.262020,2408.981610,6200.619781,-3612.757160,2042.882388,-1395.285296,-1236.006765,18396.469163,2486.877440,6800.987637,10400.177288,5864.382489,-888.548897,8648.158151,-72.711998,-980.880005,-220.087997,6160.000000,-61180.000000,-19460.000000
12797.267770,-591.382455,9164.036413,2476.617989,6268.077346,-3553.860313,2108.752979,-1340.903502,-1172.527811,18458.539958,2695.352160,6864.086612,10459.275300,5927.012077,-821.739533,8695.297980,-78.080002,-982.832031,-216.671997,6020.000000,-61600.000000,-19600.000000
12856.231672,-528.283480,9216.138329,2536.811237,6327.957669,-3510.319115,2160.720785,-1305.900670,-1105.114949,18509.166659,2577.178487,6923.966935,10506.057502,5978.935180,-773.571524,8728.982059,-85.400002,-976.000000,-213.255997,6020.000000,-62720.000000,-19880.000000
12828.850785,-554.859704,9184.242390,2505.876423,6294.720625,-3546.953624,2128.891901,-1341.864627,-1131.981746,18479.818819,2461.195285,6895.647275,10476.910827,5946.838075,-803.142882,8702.785814,-87.351997,-981.367981,-211.792007,5600.000000,-63420.000000,-20160.000000
12752.787799,-635.214226,9110.146357,2428.271166,6217.517700,-3618.255689,2056.494600,-1407.645811,-1212.179805,18401.252437,2279.743824,6818.712571,10404.982913,5872.563228,-876.054272,8645.721811,-87.351997,-979.903992,-210.328003,4060.000000,-64960.000000,-20580.000000
12687.163077,-706.695104,9038.553719,2355.739755,6142.147618,-3687.769614,1985.907791,-1471.460041,-1280.464385,18331.425587,2032.444123,6749.131590,10336.296002,5799.070692,-944.048279,8589.976560,-84.912003,-983.807983,-206.912003,2940.000000,-66500.000000,-21000.000000
12613.402321,-784.121547,8963.362451,2274.289998,6056.965119,-3758.624644,1907.743741,-1534.380202,-1359.231932,18262.336345,2095.632505,6671.548685,10267.139705,5720.124331,-1012.981059,8532.733742,-91.744003,-982.343994,-209.352005,2520.000000,-67620.000000,-21140.000000
12616.330399,-781.662855,8967.855152,2276.525173,6060.027308,-3754.869551,1906.067360,-1531.563882,-1357.466144,18265.420886,2210.833396,6676.019034,10267.966720,5722.024229,-1015.953841,8530.878548,-93.695999,-986.736023,-206.912003,1540.000000,-68880.000000,-21700.000000
12664.476057,-731.840817,9014.480891,2326.168397,6110.274030,-3711.015428,1950.882608,-1495.644628,-1308.694638,18315.332331,2336.383144,6726.153997,10311.709084,5770.013424,-971.831497,8559.801705,-98.576004,-983.320007,-199.104004,840.000000,-69300.000000,-21840.000000
12692.236923,-708.438541,9042.264109,2352.811677,6140.314775,-3685.355626,1976.363596,-1477.025625,-1285.493527,18347.116512,2556.525476,6753.065497,10337.882976,5797.573125,-949.882084,8568.697699,-105.408005,-980.880005,-201.544006,-280.000000,-70980.000000,-22120.000000
12725.004581,-675.246200,9070.024976,2388.507412,6177.642188,-3664.702614,2005.689085,-1464.061614,-1248.769611,18370.362326,2505.585850,6785.341416,10358.267767,5825.445750,-925.786904,8574.755022,-108.823997,-981.367981,-199.591995,-1120.000000,-73080.000000,-22540.000000
12698.450708,-698.670828,9040.543025,2366.803869,6154.664594,-3695.682132,1984.790204,-1495.823442,-1275.256428,18339.338105,2332.449237,6761.201532,10330.350438,5800.635314,-941.701346,8549.966937,-112.239998,-972.583984,-202.520004,-2520.000000,-74060.000000,-22960.000000
12633.608298,-764.452012,8974.806544,2300.463891,6084.949504,-3761.284502,1921.199491,-1554.519123,-1342.289310,18273.735735,2201.378608,6695.241534,10267.474981,5733.960060,-1001.738131,8499.675512,-104.431999,-978.440002,-201.056000,-4340.000000,-75180.000000,-23240.000000
12585.775564,-815.168120,8929.276041,2249.591321,6035.507445,-3804.043389,1874.707863,-1590.572487,-1392.156052,18222.661999,1963.801916,6648.213464,10222.771492,5689.480089,-1048.095649,8468.517181,-112.728004,-978.440002,-203.007996,-5040.000000,-76160.000000,-23660.000000
12529.337410,-877.037749,8875.788316,2186.984084,5973.526057,-3847.003442,1820.616641,-1626.871720,-1454.428012,18170.716544,1933.403544,6591.887068,10177.330396,5637.869911,-1097.962391,8440.331631,-108.823997,-973.559998,-194.712006,-5460.000000,-77140.000000,-23660.000000
12530.164424,-875.495479,8879.454002,2188.034616,5973.123726,-3834.665279,1822.941223,-1610.532595,-1451.432878,18172.392925,2109.736456,6593.496393,10181.376062,5641.468542,-1096.822452,8451.395744,-103.944000,-970.632019,-191.783997,-6160.000000,-77980.000000,-24220.000000
12602.293504,-799.164271,8952.879483,2267.651530,6051.578349,-3760.211618,1896.813738,-1541.800981,-1377.582714,18246.690124,2234.906225,6668.933531,10251.515836,5717.486825,-1024.782780,8507.073940,-108.335999,-970.632019,-191.296005,-7700.000000,-78820.000000,-24500.000000
12669.058164,-731.170265,9021.231117,2334.907929,6120.980516,-3691.770576,1962.617274,-1479.774890,-1313.410856,18319.199183,2482.071815,6738.290994,10320.672133,5786.732529,-960.879142,8558.907635,-111.751999,-967.216003,-198.128006,-8820.000000,-80500.000000,-24500.000000
12738.348572,-659.421165,9092.577886,2406.120587,6193.310761,-3625.095323,2027.236167,-1420.475712,-1242.779343,18389.473067,2606.816901,6809.414245,10388.733195,5854.972405,-902.988124,8604.281676,-110.776001,-961.359985,-190.807999,-9100.000000,-81620.000000,-24640.000000
12771.630320,-629.782752,9127.066627,2439.894073,6230.682877,-3596.418035,2060.339100,-1397.006380,-1211.643363,18423.224202,2461.329396,6845.355850,10422.037294,5889.908181,-872.634455,8625.337020,-114.192001,-963.799988,-202.520004,-10500.000000,-82880.000000,-25340.000000
12715.750958,-691.093587,9075.992891,2380.080805,6175.518772,-3643.423753,2010.740579,-1438.915901,-1271.233114,18369.848236,2358.757241,6789.856468,10374.852762,5842.075448,-923.551729,8590.803574,-108.823997,-962.824036,-198.128006,-11060.000000,-83720.000000,-25760.000000
12654.797751,-751.845628,9015.442016,2319.865205,6115.549042,-3700.979495,1953.609521,-1488.045035,-1331.918100,18304.357625,2140.157180,6729.484407,10313.296057,5783.692692,-979.296980,8550.168103,-112.239998,-962.824036,-197.152008,-10920.000000,-84000.000000,-25900.000000
12594.604503,-815.481045,8949.705535,2253.681690,6044.157570,-3763.251455,1890.354084,-1540.392821,-1393.005418,18241.169243,1972.787317,6662.607987,10252.253443,5719.565537,-1035.556321,8507.252754,-109.312004,-964.288025,-196.175995,-10780.000000,-84280.000000,-26460.000000
12556.427724,-854.976577,8911.484052,2211.839224,6000.839889,-3798.880136,1850.366813,-1569.628903,-1433.104447,18206.144059,2126.746133,6623.805359,10217.943516,5678.974769,-1073.286065,8482.375262,-112.728004,-958.432007,-199.104004,-10920.000000,-85260.000000,-27160.000000
12599.410129,-811.725952,8956.746335,2254.084021,6045.275157,-3754.109592,1888.208316,-1530.446295,-1390.591430,18251.339287,2236.068515,6668.218275,10260.948272,5721.085456,-1040.384297,8513.041855,-110.776001,-964.288025,-198.128006,-10500.000000,-86520.000000,-27720.000000
12669.169923,-737.473457,9026.550833,2328.224758,6117.985382,-3686.070882,1958.526904,-1468.442555,-1320.004621,18325.949410,2433.568529,6740.414410,10329.434017,5791.381692,-968.501087,8568.071850,-114.192001,-959.895996,-198.615997,-11060.000000,-87500.000000,-28560.000000
12731.799511,-670.306464,9090.990912,2399.750340,6188.773357,-3625.318840,2027.929071,-1412.630250,-1254.066974,18390.121268,2645.239549,6806.754387,10390.968369,5856.849951,-899.925935,8618.095054,-107.848000,-968.192017,-202.031998,-11200.000000,-88060.000000,-28840.000000
12790.852820,-607.855690,9148.189026,2462.379928,6252.632290,-3577.597866,2086.803566,-1372.061833,-1189.582192,18444.614821,2536.431257,6867.327615,10442.869120,5912.952830,-845.365327,8658.037622,-107.360001,-968.192017,-200.080002,-11900.000000,-88760.000000,-29540.000000
12762.130828,-635.996537,9118.416502,2433.903805,6223.440912,-3606.498671,2060.987301,-1399.532127,-1219.041791,18415.557553,2422.549119,6839.723210,10415.778806,5886.443661,-868.029996,8642.190235,-103.944000,-966.239990,-205.936005,-12320.000000,-89460.000000,-29820.000000
12703.032816,-690.713607,9059.363193,2380.103157,6165.840467,-3663.652082,2006.717265,-1454.651529,-1276.441071,18351.139826,2253.592283,6783.150945,10356.658442,5829.849044,-917.025020,8602.538240,-101.503998,-969.168030,-205.936005,-13020.000000,-90020.000000,-30520.000000
12642.548995,-751.577407,8997.784137,2314.389028,6098.315847,-3725.409952,1939.930253,-1511.626126,-1335.315566,18289.024328,2016.082646,6721.706000,10297.001636,5765.699537,-980.526326,8554.504341,-94.183998,-969.656006,-207.400009,-13440.000000,-90440.000000,-30800.000000
12575.650224,-823.617080,8934.528701,2239.063649,6023.973945,-3779.747043,1870.528086,-1558.743603,-1407.109369,18230.820385,2091.363322,6652.504999,10241.166978,5701.237106,-1045.212274,8511.387826,-91.256004,-974.536011,-203.007996,-13580.000000,-91000.000000,-31080.000000
12586.937855,-813.648202,8953.684146,2252.698213,6042.414134,-3756.255359,1884.989665,-1536.011879,-1398.571002,18246.779531,2220.511701,6667.212447,10257.886083,5720.258441,-1031.778876,8525.491777,-95.160004,-974.536011,-209.839996,-13860.000000,-91140.000000,-31640.000000
12652.853150,-745.117753,9023.779216,2325.609604,6115.772559,-3686.048530,1958.392794,-1470.297750,-1332.253377,18318.148651,2367.474421,6738.358049,10325.142482,5791.515802,-959.247465,8581.058214,-91.744003,-976.488037,-209.352005,-14280.000000,-91280.000000,-31920.000000
12717.874374,-674.352130,9088.621627,2395.101177,6183.699511,-3623.016611,2023.034039,-1415.915956,-1262.582989,18386.254416,2621.613755,6806.039131,10389.023768,5856.648786,-891.700493,8627.572194,-92.232002,-977.463989,-209.839996,-14840.000000,-90860.000000,-32060.000000
12796.105480,-590.577792,9164.192875,2480.954228,6268.300863,-3555.559046,2099.633467,-1360.058947,-1175.522944,18456.595356,2618.082180,6887.243019,10457.420106,5931.169502,-815.369286,8678.400061,-89.792000,-977.463989,-215.695999,-14980.000000,-91000.000000,-32200.000000
12790.562247,-597.238612,9161.398907,2481.289504,6266.848000,-3560.342319,2103.097988,-1365.825697,-1184.351883,18452.996725,2474.427518,6884.538458,10457.174236,5931.437723,-807.836748,8677.394232,-86.863998,-974.536011,-208.376007,-14980.000000,-91560.000000,-32060.000000
12720.310714,-673.748633,9097.182345,2408.266355,6197.155261,-3622.703686,2036.802713,-1421.928575,-1262.538286,18385.405050,2346.799057,6816.656210,10394.388186,5867.087050,-877.887115,8629.583851,-85.400002,-976.000000,-211.792007,-15400.000000,-91840.000000,-32200.000000
12667.448839,-725.805846,9040.028934,2351.157648,6141.544120,-3679.588876,1978.375253,-1472.622332,-1311.354495,18324.809471,2098.895860,6763.213189,10335.848968,5809.866585,-941.544883,8586.847316,-88.816002,-973.559998,-206.912003,-15120.000000,-92120.000000,-32340.000000
12604.998065,-788.189565,8969.755050,2279.274437,6065.771707,-3743.626624,1908.660163,-1530.468646,-1371.346578,18261.934014,2049.945539,6695.621514,10271.498295,5740.576177,-1004.867375,8537.226443,-92.232002,-970.632019,-206.423996,-15260.000000,-92400.000000,-32340.000000
12601.198268,-790.514146,8962.244864,2274.804088,6056.562788,-3749.326318,1903.273392,-1535.810713,-1374.341711,18256.167264,2212.979163,6689.608895,10261.596472,5729.757932,-1002.207518,8531.437341,-91.744003,-974.536011,-209.839996,-15960.000000,-92400.000000,-32480.000000
12666.733583,-719.882634,9029.881242,2349.414211,6131.172911,-3682.919286,1975.760099,-1474.701044,-1306.638277,18323.736587,2327.353040,6759.078116,10326.796511,5799.249506,-929.430238,8586.377929,-90.279999,-970.632019,-211.304001,-16660.000000,-92820.000000,-32760.000000
12721.316543,-661.254008,9090.879153,2409.450997,6193.713092,-3620.133235,2037.763839,-1419.067552,-1251.429469,18388.713108,2562.851019,6818.310239,10390.409576,5863.466068,-870.332226,8634.143607,-89.304001,-975.023987,-214.232010,-16800.000000,-92680.000000,-33040.000000
12790.316378,-585.213373,9160.907168,2482.809422,6267.607959,-3556.095488,2103.455615,-1362.495287,-1176.618180,18456.818874,2684.176288,6889.992284,10453.955585,5931.460074,-811.748303,8681.283436,-89.792000,-975.512024,-206.423996,-17360.000000,-92540.000000,-33320.000000
12820.535936,-554.591483,9188.779794,2513.855995,6299.235678,-3534.794275,2131.149427,-1344.323319,-1141.749459,18484.467981,2528.250519,6920.949450,10480.397699,5960.740860,-784.166251,8699.455404,-90.279999,-977.463989,-208.376007,-17640.000000,-92120.000000,-33460.000000
12768.836351,-606.156958,9136.856691,2462.201114,6246.820837,-3586.203287,2083.607266,-1389.764415,-1193.560802,18432.164899,2420.716276,6870.166286,10431.357972,5911.276449,-826.746324,8665.950139,-89.792000,-978.440002,-208.376007,-17640.000000,-91980.000000,-33600.000000
12704.776252,-676.117918,9073.422441,2393.044817,6178.379795,-3649.794000,2015.434446,-1449.041241,-1258.716137,18366.003736,2200.819814,6806.732035,10369.845971,5844.534140,-893.823909,8616.686894,-89.792000,-974.048035,-205.936005,-17360.000000,-91280.000000,-34020.000000
12628.802672,-759.936960,9001.874507,2311.438598,6099.880469,-3713.541176,1944.601768,-1503.959477,-1339.562397,18296.221590,2027.213815,6731.049029,10304.377711,5775.064918,-962.108488,8568.943568,-89.304001,-974.536011,-199.104004,-17220.000000,-90440.000000,-34300.000000
12582.936893,-801.824129,8963.027175,2267.003330,6054.908759,-3747.448772,1905.843843,-1530.625109,-1388.468014,18257.374258,2173.729500,6689.228915,10266.849132,5735.167055,-997.536003,8545.608347,-94.183998,-970.632019,-203.496002,-16940.000000,-89040.000000,-34300.000000
12631.663696,-739.730983,9012.513937,2329.968194,6113.783254,-3697.313809,1957.141096,-1487.016855,-1332.990984,18303.083575,2279.609714,6745.957642,10315.285363,5787.671302,-944.070631,8581.907580,-96.624001,-969.656006,-205.447998,-17080.000000,-87920.000000,-34580.000000
12698.115432,-670.775851,9078.764508,2400.867927,6182.447813,-3630.973832,2023.570481,-1428.254119,-1262.918265,18375.793800,2474.963960,6812.342323,10384.642826,5855.195922,-877.574191,8629.539148,-97.599998,-966.728027,-199.104004,-17080.000000,-87080.000000,-34720.000000
12771.965596,-597.149205,9148.390192,2472.035882,6251.984090,-3567.718395,2089.463423,-1373.112365,-1184.240125,18449.845129,2697.497928,6879.688129,10450.803989,5919.613650,-815.168120,8675.092003,-100.040001,-967.704041,-204.960007,-17500.000000,-85960.000000,-34860.000000
12830.102483,-534.966652,9208.091701,2538.554673,6319.374599,-3516.599955,2151.333052,-1329.526464,-1121.856406,18502.729357,2589.069615,6943.189435,10503.867031,5979.605732,-758.215875,8715.414550,-104.919998,-966.728027,-207.888000,-17360.000000,-84560.000000,-35000.000000
12794.943189,-570.952960,9175.704023,2504.557670,6286.115204,-3552.407450,2122.432246,-1360.997720,-1159.854372,18471.191045,2471.521791,6912.701656,10474.005100,5948.156827,-787.027274,8692.593419,-104.919998,-965.752014,-201.544006,-17220.000000,-83860.000000,-35280.000000
12724.535194,-643.573778,9106.637133,2435.691945,6216.042485,-3616.758122,2058.238036,-1415.558328,-1232.609300,18398.726690,2298.429882,6843.254786,10406.100500,5879.760489,-847.891074,8646.973508,-108.335999,-966.728027,-201.544006,-16940.000000,-83020.000000,-35700.000000
12666.688879,-702.872956,9050.310737,2374.828145,6153.323490,-3668.725928,1997.821271,-1463.636930,-1293.942487,18337.952296,2060.316749,6786.570762,10350.176436,5824.663439,-903.882194,8606.516851,-106.384003,-966.728027,-208.863998,-16800.000000,-82600.000000,-35980.000000
12606.383873,-765.502544,8994.520783,2306.767083,6085.798870,-3718.592670,1934.297613,-1508.318068,-1359.746022,18285.537456,2130.076543,6729.886738,10294.699406,5767.062994,-964.656587,8565.434344,-109.800003,-968.679993,-201.544006,-16660.000000,-82460.000000,-36260.000000
12624.019399,-744.469553,9009.272934,2324.156740,6105.937792,-3695.436263,1952.827210,-1485.094605,-1337.774257,18298.836744,2258.286149,6749.019831,10312.513746,5784.318541,-952.139610,8581.795821,-111.264000,-971.119995,-203.496002,-16240.000000,-82460.000000,-36820.000000
12686.246656,-674.508592,9071.164915,2394.900011,6178.335092,-3628.068105,2023.145798,-1423.873177,-1268.975588,18362.852140,2402.834881,6814.778663,10381.267712,5851.641995,-883.810328,8633.562462,-112.728004,-972.583984,-200.568008,-15820.000000,-82740.000000,-36960.000000
12742.260127,-612.124874,9134.733276,2459.474201,6241.188197,-3568.366595,2083.383749,-1373.313531,-1209.944631,18429.885021,2656.594235,6868.132278,10442.623251,5913.109292,-821.426609,8676.567218,-112.239998,-972.583984,-204.472000,-15120.000000,-82600.000000,-37380.000000
12809.181250,-544.846123,9207.734073,2529.613975,6312.758483,-3507.927478,2145.611005,-1324.139693,-1138.486104,18501.432955,2657.264788,6933.578185,10506.638647,5978.957531,-762.842687,8718.521442,-110.776001,-973.072021,-200.080002,-14560.000000,-82320.000000,-37660.000000
12805.247343,-556.916065,9203.688407,2521.902623,6308.757521,-3517.136397,2142.437058,-1334.600310,-1146.376270,18498.281359,2511.643173,6935.142807,10503.710568,5974.978921,-763.356777,8713.827576,-109.800003,-974.536011,-203.496002,-14560.000000,-81760.000000,-38220.000000
12743.847101,-621.557310,9137.862520,2460.457678,6243.691593,-3583.454023,2082.132051,-1393.161880,-1212.671544,18430.421463,2382.383035,6875.888333,10438.778751,5909.600068,-815.369286,8667.514761,-110.776001,-976.976013,-201.544006,-14560.000000,-81480.000000,-38500.000000
12685.933731,-675.715587,9075.970540,2401.270259,6181.844316,-3643.848436,2022.341135,-1446.470791,-1268.170925,18362.963899,2129.473046,6817.192652,10376.931474,5850.055021,-872.679159,8625.046447,-109.312004,-975.023987,-211.304001,-14280.000000,-81200.000000,-38500.000000
12616.218640,-746.481210,9004.400254,2322.972098,6104.104949,-3706.567431,1951.329643,-1501.232565,-1338.891845,18292.444145,2071.559676,6745.778828,10311.530270,5783.446823,-944.651776,8580.164144,-107.360001,-976.000000,-207.400009,-13860.000000,-80640.000000,-38220.000000
12600.974751,-765.033157,8995.236039,2300.687409,6085.553001,-3713.898803,1931.615404,-1506.887556,-1355.499191,18283.548150,2235.532073,6731.674878,10301.539040,5768.359395,-972.725567,8571.961054,-105.896004,-978.440002,-202.520004,-13860.000000,-79800.000000,-38080.000000
12659.133990,-704.124654,9059.989042,2369.262561,6155.871589,-3650.173980,1997.106015,-1449.264759,-1298.993981,18347.250622,2346.776706,6794.952666,10363.341613,5833.805303,-908.486653,8622.051313,-108.335999,-977.463989,-212.768005,-13720.000000,-78680.000000,-37800.000000
12724.244621,-636.041240,9125.703171,2443.559759,6227.888909,-3585.599790,2068.273970,-1389.317380,-1237.593739,18416.138699,2582.073519,6863.259597,10430.083922,5902.738083,-833.764772,8675.494334,-108.335999,-979.416016,-206.912003,-13300.000000,-78120.000000,-37520.000000
12802.140451,-560.648806,9198.771024,2518.862786,6303.661323,-3520.645621,2139.285462,-1330.621699,-1156.211037,18489.720641,2709.880794,6940.082543,10498.636722,5972.274360,-767.737719,8725.316373,-106.384003,-978.440002,-210.816010,-13300.000000,-77280.000000,-37240.000000
12837.590317,-527.836445,9227.515367,2550.870484,6336.719553,-3498.807967,2167.426308,-1312.494434,-1117.341354,18520.498993,2556.078441,6973.029014,10526.017609,6002.248049,-742.346137,8742.683678,-107.360001,-978.928040,-209.839996,-13020.000000,-75880.000000,-36820.000000
12781.129811,-585.526298,9168.260892,2492.018341,6276.638064,-3554.195589,2113.200976,-1361.601217,-1173.421880,18463.658507,2446.107858,6914.333333,10471.434649,5946.122819,-794.716274,8703.836346,-104.431999,-980.392029,-202.031998,-12460.000000,-75040.000000,-36820.000000
12719.729569,-645.674842,9104.334903,2432.339183,6214.433159,-3616.892233,2054.035908,-1413.904299,-1232.363431,18394.882190,2229.005364,6853.447181,10406.771053,5881.056891,-850.617987,8662.262101,-103.456001,-979.416016,-212.279999,-12320.000000,-73500.000000,-36680.000000
12649.925071,-717.401590,9035.938565,2359.293682,6140.784161,-3681.086443,1986.086605,-1470.364806,-1304.604269,18325.971761,2054.371185,6783.620332,10343.426209,5813.711085,-912.845244,8613.825871,-102.480003,-982.343994,-205.447998,-11900.000000,-72100.000000,-36540.000000
12598.761928,-768.989416,8988.508164,2306.700028,6085.731815,-3721.900728,1937.203340,-1506.395818,-1359.969540,18280.195389,2195.634210,6734.267680,10300.220287,5766.928883,-958.979244,8579.895923,-101.503998,-978.928040,-205.936005,-11200.000000,-70840.000000,-36260.000000
12639.084475,-728.376297,9031.423513,2349.749488,6130.658821,-3678.136012,1977.525887,-1466.207381,-1318.350591,18321.099081,2299.592173,6778.524134,10338.486473,5808.212555,-923.708191,8607.969714,-101.992004,-978.440002,-208.863998,-10640.000000,-69580.000000,-35700.000000
12704.060996,-662.125726,9098.009360,2416.312983,6200.172746,-3610.901965,2044.826990,-1406.014133,-1251.965910,18390.590655,2488.553821,6848.105114,10404.222954,5877.301798,-858.843429,8656.562407,-97.112000,-975.023987,-211.304001,-10640.000000,-69160.000000,-35280.000000
12764.924796,-596.813929,9159.834285,2486.095129,6267.786773,-3547.981804,2110.384656,-1350.872380,-1190.275096,18453.309650,2704.538727,6913.796891,10465.399678,5943.395906,-793.531632,8701.511765,-94.672005,-971.119995,-217.647995,-11060.000000,-68040.000000,-34440.000000
12828.940192,-529.892806,9219.222870,2550.378746,6332.495073,-3500.461996,2167.672177,-1309.745170,-1120.627060,18511.357130,2601.810110,6979.175744,10517.166319,5998.939991,-741.407364,8736.358134,-94.183998,-971.608032,-218.136002,-10920.000000,-67480.000000,-33740.000000
12800.173497,-559.486515,9189.092718,2518.505158,6300.912058,-3533.341412,2139.240758,-1340.679984,-1148.902017,18482.501028,2486.676274,6950.006717,10488.958417,5970.597979,-769.637617,8716.487433,-94.672005,-968.192017,-227.408005,-10920.000000,-66920.000000,-33320.000000
12728.223232,-631.816761,9117.678895,2444.096201,6226.368991,-3602.922392,2066.463478,-1404.203642,-1219.220605,18406.862725,2311.975039,6876.491830,10418.528070,5898.893583,-841.252606,8664.609035,-95.160004,-967.704041,-228.872009,-11340.000000,-66080.000000,-32620.000000
12662.553807,-699.654305,9048.902577,2376.348064,6155.648071,-3667.384823,1999.542355,-1463.569875,-1286.342893,18337.326448,2067.782231,6808.363713,10353.730363,5830.988983,-905.223299,8617.133929,-92.232002,-965.752014,-229.360001,-11480.000000,-65800.000000,-31920.000000
12591.162335,-775.471422,8980.238018,2300.039208,6079.383919,-3724.851158,1933.582358,-1513.749541,-1363.992854,18270.360621,2130.657688,6737.933366,10290.921961,5763.732584,-965.662416,8573.302159,-92.232002,-965.752014,-232.288010,-11480.000000,-65240.000000,-31220.000000
12606.003893,-762.641521,8996.823012,2314.210214,6096.214783,-3703.549946,1950.256759,-1490.973114,-1350.090069,18283.570502,2259.828420,6752.774924,10304.958857,5780.183468,-951.804334,8586.690853,-87.840004,-962.335999,-232.288010,-11620.000000,-64820.000000,-30660.000000
12669.818124,-698.290849,9062.648900,2381.265447,6164.588769,-3640.383916,2013.288678,-1434.892587,-1287.505184,18350.424570,2396.129357,6819.249012,10369.220122,5846.232873,-890.582906,8632.333116,-89.304001,-960.872009,-238.143997,-11480.000000,-64400.000000,-30100.000000
12729.899613,-637.963490,9124.429122,2441.883378,6226.346639,-3581.107090,2071.962008,-1383.505927,-1227.267233,18416.138699,2645.306605,6881.006882,10430.843881,5908.080150,-833.585958,8676.298997,-84.424004,-964.776001,-229.360001,-11480.000000,-63840.000000,-29260.000000
12807.191945,-557.608969,9198.279285,2524.383667,6308.578707,-3514.767112,2145.543950,-1325.950185,-1145.459848,18486.501990,2650.358099,6960.579093,10498.346150,5981.304464,-765.189620,8728.110341,-85.888000,-958.919983,-236.192001,-11200.000000,-62860.000000,-28700.000000
12810.097672,-550.679928,9197.921657,2530.396286,6312.579669,-3518.075170,2149.813133,-1330.241720,-1140.408354,18487.507819,2506.099940,6965.719994,10499.709606,5983.405528,-757.634730,8729.049114,-87.840004,-960.384033,-231.311996,-11340.000000,-62020.000000,-27860.000000
12745.411723,-614.538862,9132.989840,2465.755041,6246.709078,-3580.235372,2088.658761,-1385.227011,-1205.943669,18421.212545,2381.980703,6902.598667,10437.907033,5919.390132,-815.346934,8684.569142,-86.863998,-957.944031,-239.608002,-11200.000000,-60340.000000,-26740.000000
12677.484772,-684.589229,9067.186304,2399.660933,6179.810307,-3642.596739,2025.559786,-1441.396945,-1277.715120,18350.513977,2131.596462,6836.348097,10372.461125,5856.246454,-875.987217,8640.022116,-85.888000,-963.312012,-231.800003,-11060.000000,-59500.000000,-25760.000000
12604.886306,-763.915570,8992.486774,2315.797188,6095.074844,-3714.167024,1947.038108,-1505.278230,-1353.688699,18281.581197,2072.073766,6760.396869,10303.438938,5781.569276,-952.005500,8585.103880,-83.936005,-958.919983,-230.335999,-10920.000000,-57960.000000,-24640.000000
12589.687120,-775.806698,8978.427527,2300.642705,6076.969931,-3727.086333,1929.000250,-1514.531853,-1367.077394,18268.460723,2230.882911,6746.561139,10288.038586,5763.084383,-968.635198,8573.100993,-85.888000,-958.432007,-233.264008,-11060.000000,-56700.000000,-23660.000000
12653.121370,-705.108131,9044.566339,2372.816488,6148.920196,-3662.981530,1995.362579,-1454.383308,-1303.754902,18332.319657,2339.355926,6815.493919,10350.601119,5830.318431,-905.268002,8623.280659,-88.328003,-963.312012,-230.335999,-10640.000000,-55020.000000,-22540.000000
12712.733473,-650.860447,9110.749854,2434.887282,6216.154243,-3598.563802,2062.574275,-1395.888793,-1253.485829,18401.900637,2572.618732,6879.598722,10416.225841,5898.245382,-837.877493,8674.890837,-89.304001,-961.848022,-228.384003,-10640.000000,-52500.000000,-21560.000000
12787.589465,-576.719710,9183.236561,2511.307897,6292.708968,-3536.403601,2132.557587,-1341.439943,-1173.868915,18473.627385,2697.520280,6954.164142,10482.878743,5968.027528,-770.598742,8720.108416,-89.304001,-961.359985,-230.824005,-10640.000000,-51380.000000,-20720.000000
12824.671009,-539.705222,9213.366713,2544.768458,6327.063599,-3513.828339,2161.279578,-1323.424437,-1130.148903,18505.076290,2544.768458,6989.837526,10513.008894,5999.118805,-746.458858,8736.827521,-87.840004,-963.312012,-225.944000,-10360.000000,-49840.000000,-19880.000000
12771.227988,-593.260001,9158.917863,2494.812309,6274.380538,-3564.008005,2115.123226,-1368.731423,-1187.123500,18450.314516,2439.603500,6938.227348,10462.985690,5949.117952,-786.177908,8705.132747,-88.328003,-961.848022,-229.848007,-10360.000000,-49000.000000,-19040.000000
12698.271894,-662.483354,9089.426290,2426.952413,6204.710150,-3627.777532,2048.157400,-1425.795427,-1260.213704,18374.586806,2221.428123,6867.998167,10394.768166,5880.676911,-850.126249,8657.098848,-89.792000,-961.848022,-234.727997,-10500.000000,-47880.000000,-18480.000000
12626.634553,-737.875788,9017.453673,2344.899159,6125.115588,-3695.838594,1972.630855,-1484.692274,-1331.560472,18302.345968,2044.715231,6794.952666,10326.796511,5809.352494,-927.440933,8604.996932,-90.279999,-964.776001,-232.288010,-10500.000000,-47320.000000,-17920.000000
12589.038919,-780.433509,8975.208876,2293.266629,6071.784326,-3736.764638,1922.607651,-1520.343306,-1367.569133,18266.806694,2193.533146,6752.327889,10288.418566,5761.028023,-974.826631,8570.038804,-91.256004,-967.216003,-241.072006,-10080.000000,-46480.000000,-17500.000000
12628.825024,-738.814561,9018.995943,2342.105191,6119.661763,-3691.301190,1969.658073,-1478.098509,-1328.095952,18306.570447,2296.127653,6794.930314,10328.271726,5804.278648,-925.853959,8603.834641,-92.232002,-963.312012,-242.048004,-9520.000000,-45780.000000,-17220.000000
12698.160136,-665.992578,9089.292179,2415.731837,6192.796671,-3624.111846,2037.674432,-1418.017020,-1260.347815,18379.705355,2481.535373,6866.925283,10396.533954,5874.396071,-856.608255,8655.221302,-88.816002,-969.656006,-231.800003,-9100.000000,-45220.000000,-16940.000000
12764.544817,-601.463092,9153.799314,2481.602428,6260.321291,-3560.878761,2099.141729,-1362.584694,-1192.912602,18447.431141,2700.805986,6933.958165,10459.901149,5938.657336,-797.823167,8699.835384,-89.792000,-968.192017,-234.240005,-8820.000000,-44240.000000,-16800.000000
12827.509681,-533.737306,9214.886631,2552.032775,6329.209367,-3508.329810,2160.430212,-1320.898690,-1125.276223,18503.690482,2599.820805,6999.895811,10515.378179,6000.102282,-736.244111,8738.325088,-87.351997,-968.192017,-236.192001,-8820.000000,-44100.000000,-16520.000000
12791.992759,-569.008359,9180.174372,2516.538205,6293.066596,-3541.544502,2130.992965,-1351.721746,-1163.005967,18469.201740,2479.277847,6964.378889,10484.331606,5968.139287,-761.792155,8717.046227,-83.936005,-970.632019,-236.192001,-9100.000000,-43820.000000,-16240.000000
12715.147461,-649.251121,9107.419444,2441.235178,6218.635287,-3609.560860,2063.580103,-1408.070494,-1246.422678,18391.931759,2308.912850,6887.667702,10412.314285,5896.747815,-827.394525,8669.258197,-84.424004,-973.559998,-229.848007,-8960.000000,-43400.000000,-15960.000000
12658.530493,-705.443407,9047.226196,2379.857287,6157.257397,-3665.864905,2006.717265,-1455.612654,-1300.759769,18329.436282,2071.537324,6828.279117,10352.769238,5837.850969,-881.128118,8628.756837,-83.447998,-973.559998,-235.704010,-8820.000000,-43260.000000,-15680.000000
12598.627817,-768.855306,8983.970759,2305.247164,6082.960198,-3725.611118,1937.471561,-1506.552280,-1360.863609,18272.171113,2137.094991,6764.375480,10295.816993,5771.488639,-948.429221,8582.354615,-84.912003,-975.023987,-237.656006,-8540.000000,-42980.000000,-15400.000000
12613.670541,-755.176038,9000.309885,2321.206310,6099.701655,-3708.534385,1948.602730,-1491.978942,-1346.469086,18287.884389,2267.539772,6782.145117,10309.697427,5784.810279,-941.880160,8590.378891,-83.447998,-975.023987,-239.608002,-8400.000000,-42140.000000,-15260.000000
12679.898760,-689.238392,9067.365118,2390.250849,6170.064946,-3642.127352,2013.288678,-1434.758477,-1281.201992,18356.906576,2405.584145,6849.557978,10374.763355,5852.804286,-880.301104,8637.272851,-82.472000,-972.096008,-241.072006,-7840.000000,-41440.000000,-14980.000000
12735.688714,-638.835208,9127.088979,2443.470352,6229.609994,-3582.627008,2071.917304,-1379.013226,-1230.508236,18419.759681,2652.436811,6907.180775,10434.978954,5913.623382,-822.343030,8681.574009,-81.496002,-976.488037,-245.951996,-7420.000000,-40600.000000,-14840.000000
12804.867364,-568.762489,9196.044111,2519.667449,6307.751692,-3519.528034,2145.700412,-1321.233966,-1159.630854,18486.099659,2657.443602,6978.885171,10498.256743,5983.405528,-750.504524,8733.050076,-79.056000,-975.023987,-239.119995,-6860.000000,-40180.000000,-14560.000000
12814.344503,-550.143486,9201.453233,2541.974490,6322.682658,-3518.075170,2159.893770,-1321.792760,-1149.594921,18489.944159,2515.375914,6991.580962,10504.224659,5994.044959,-731.729058,8742.013126,-79.543999,-975.023987,-241.559998,-6300.000000,-39200.000000,-14560.000000
12746.931642,-625.647679,9134.018020,2466.291483,6249.771267,-3584.079872,2091.832708,-1380.086110,-1223.825064,18422.553649,2390.317904,6921.485892,10440.455132,5926.073304,-801.533556,8692.124032,-81.496002,-972.583984,-247.416000,-6020.000000,-38780.000000,-14280.000000
12687.878333,-687.182032,9070.382603,2397.179889,6180.659673,-3646.441239,2025.604490,-1436.904244,-1277.379844,18355.833692,2140.045421,6857.917530,10376.327977,5859.889789,-866.331263,8642.078476,-80.520004,-976.488037,-242.535995,-5320.000000,-38500.000000,-13860.000000
12614.139928,-754.103154,8996.666550,2325.944880,6103.166175,-3713.004734,1953.386003,-1495.823442,-1351.475877,18283.972834,2074.264237,6784.626160,10308.870412,5787.425433,-932.783000,8590.088319,-83.447998,-977.463989,-242.048004,-4480.000000,-37100.000000,-13440.000000
12596.057367,-772.319826,8981.355605,2307.817615,6085.016559,-3722.303059,1936.197512,-1500.047922,-1372.486517,18269.175979,2232.134608,6768.018814,10293.850040,5770.751032,-951.223189,8579.627702,-78.568001,-975.512024,-240.584000,-4060.000000,-36120.000000,-13440.000000
12653.188426,-723.794189,9042.532330,2363.987549,6148.383754,-3659.226437,1998.782396,-1439.072363,-1316.763618,18330.665628,2339.981775,6826.312164,10352.545721,5834.095876,-889.398264,8628.287450,-77.104004,-976.488037,-241.072006,-3500.000000,-35420.000000,-13020.000000
12712.532307,-664.785584,9105.608953,2427.421800,6213.002648,-3596.060407,2064.049490,-1381.181345,-1258.269102,18395.664501,2568.774232,6889.567600,10414.840032,5900.167632,-819.906690,8677.438936,-78.568001,-976.976013,-241.559998,-3220.000000,-34860.000000,-12740.000000
12795.390224,-576.138565,9183.124802,2510.167958,6292.865430,-3530.279223,2132.669345,-1326.777199,-1167.833944,18472.934481,2699.710751,6973.274883,10485.829173,5972.989616,-754.214913,8723.349419,-76.615997,-976.976013,-239.119995,-2940.000000,-33740.000000,-12460.000000
12830.214242,-539.906387,9216.898288,2549.015289,6331.735114,-3502.987743,2166.867514,-1304.894841,-1131.065325,18504.808069,2548.970586,7009.708227,10517.859223,6007.992447,-720.061448,8743.689506,-81.008003,-977.952026,-246.928009,-2520.000000,-32900.000000,-12040.000000
12779.721651,-586.107443,9166.584512,2504.647077,6282.136593,-3552.183932,2123.460427,-1347.586673,-1183.100186,18453.354353,2445.593768,6961.562569,10470.853504,5960.383232,-757.992358,8710.921849,-79.056000,-974.536011,-245.951996,-2380.000000,-31920.000000,-11620.000000
12719.014313,-643.260854,9103.172613,2443.805628,6217.584755,-3613.852395,2059.914417,-1401.879060,-1243.025213,18385.539160,2234.682707,6898.843574,10409.117986,5896.367836,-822.253623,8662.776192,-79.056000,-975.512024,-244.000000,-1960.000000,-30940.000000,-11060.000000
12655.468304,-714.294698,9035.893862,2367.697938,6144.986289,-3676.929018,1989.998161,-1458.987768,-1309.901632,18319.847383,2059.154458,6831.900100,10348.388296,5828.843216,-892.773377,8615.748121,-81.496002,-974.536011,-248.880005,-1960.000000,-30240.000000,-10500.000000
12606.562687,-767.290684,8987.256466,2317.562976,6092.079710,-3716.916289,1946.076983,-1491.554259,-1360.483630,18273.042831,2195.522451,6782.212172,10303.796566,5781.122241,-927.396229,8587.964903,-79.543999,-975.512024,-245.951996,-1540.000000,-29400.000000,-10080.000000
12647.980469,-716.149892,9030.305926,2371.542438,6139.286594,-3675.654969,1987.986504,-1451.164657,-1316.137769,18314.214744,2295.300638,6826.870957,10342.688601,5824.059942,-887.185441,8619.100883,-82.959999,-973.072021,-244.975998,-840.000000,-27720.000000,-9520.000000
12718.053188,-647.105354,9098.791671,2438.687079,6207.973505,-3612.533642,2051.912493,-1392.848956,-1245.796829,18387.640224,2479.613123,6898.195374,10410.570849,5891.472804,-828.601519,8665.570160,-83.936005,-972.583984,-246.928009,-560.000000,-26600.000000,-9100.000000
12783.722613,-589.594315,9164.103468,2492.420672,6272.078308,-3550.731069,2114.787950,-1334.555606,-1178.339264,18454.986030,2700.671876,6962.300177,10472.932216,5954.795296,-771.224591,8711.190070,-81.008003,-971.608032,-245.464005,-560.000000,-25200.000000,-8540.000000
12847.872120,-525.265995,9224.766102,2561.398156,6341.882806,-3497.533917,2179.049215,-1287.996922,-1110.859348,18512.899400,2601.541889,7027.567271,10526.844624,6017.022552,-706.985677,8753.524274,-82.959999,-969.168030,-249.856003,-700.000000,-24080.000000,-8260.000000
12818.367817,-560.537047,9193.160736,2530.396286,6310.970343,-3530.212168,2151.981253,-1319.892862,-1147.672671,18484.803258,2485.536335,6997.593581,10498.927295,5989.127575,-727.862206,8732.647745,-78.080002,-970.632019,-242.535995,-140.000000,-23100.000000,-7560.000000
12750.262052,-626.251176,9124.384418,2465.375062,6241.143494,-3596.730959,2087.384711,-1380.533145,-1216.404285,18411.489536,2317.339458,6930.873624,10430.687419,5921.513548,-787.049626,8681.574009,-80.031998,-972.096008,-240.584000,-140.000000,-22400.000000,-6860.000000
12685.374938,-689.305447,9059.407897,2396.911668,6172.166010,-3658.175905,2019.994202,-1433.886759,-1278.072748,18343.763750,2075.046548,6865.561827,10367.521389,5855.620605,-856.340034,8633.785979,-80.520004,-969.168030,-244.000000,560.000000,-21420.000000,-6580.000000
12615.056350,-765.435489,8991.302132,2319.239356,6095.499527,-3719.039705,1950.234407,-1485.139309,-1354.001624,18280.038927,2132.669345,6794.125652,10305.919982,5786.464308,-922.836473,8586.847316,-83.447998,-972.096008,-242.048004,840.000000,-20160.000000,-6440.000000
12629.272059,-753.074974,9007.820071,2334.215025,6111.749245,-3700.018370,1963.064309,-1467.369672,-1341.685813,18293.941712,2261.996539,6808.363713,10321.230927,5799.830651,-906.586755,8598.514926,-80.520004,-973.559998,-241.072006,1540.000000,-19180.000000,-6300.000000
12690.962874,-690.467738,9074.428269,2398.409235,6179.787955,-3633.678393,2025.403324,-1404.717732,-1279.279742,18360.348744,2398.342180,6873.697862,10386.766241,5867.131754,-847.131115,8648.873407,-81.496002,-971.119995,-243.024002,2520.000000,-18480.000000,-5880.000000
12752.452523,-627.547577,9138.689535,2463.989254,6245.166808,-3573.753366,2087.250601,-1351.162952,-1219.287660,18427.426330,2648.480552,6941.088371,10449.418181,5929.940156,-787.139033,8692.682826,-81.984001,-971.119995,-239.119995,2800.000000,-17640.000000,-5600.000000
12822.502890,-553.920931,9208.315218,2543.762629,6323.643783,-3508.441568,2159.804363,-1295.663571,-1148.164409,18493.498086,2656.102497,7014.804425,10512.897135,6000.839889,-719.547358,8740.962594,-82.959999,-969.656006,-249.856003,3640.000000,-17080.000000,-5180.000000
12831.421236,-537.648861,9213.679637,2557.955987,6332.405666,-3510.028542,2167.113384,-1301.519728,-1136.541502,18498.951912,2514.884176,7025.756779,10518.127444,6008.014799,-710.092570,8741.677849,-78.568001,-966.239990,-246.440002,4480.000000,-16660.000000,-4900.000000
12770.959767,-600.837243,9151.251215,2492.599486,6266.736241,-3572.948703,2105.020238,-1361.198886,-1199.260497,18435.182385,2390.519069,6965.138848,10458.157713,5944.871121,-768.609437,8694.403910,-78.080002,-970.143982,-237.656006,4900.000000,-15960.000000,-4620.000000
12706.542040,-675.313255,9085.402976,2421.163311,6199.479842,-3635.600643,2045.318728,-1413.881947,-1266.472193,18365.333183,2137.631433,6897.837746,10393.181192,5879.067585,-826.656917,8652.762610,-75.639999,-968.192017,-238.632004,5180.000000,-15260.000000,-4480.000000
12638.995068,-745.140105,9015.374960,2346.419078,6121.561661,-3700.532460,1977.861163,-1467.861410,-1332.990984,18298.009729,2069.972702,6827.094475,10328.607002,5809.330143,-887.811290,8608.573211,-80.031998,-968.192017,-242.048004,5180.000000,-14980.000000,-4060.000000
12621.001914,-766.508373,8999.125242,2323.285022,6100.036931,-3710.993077,1957.074041,-1475.930390,-1352.057022,18281.402383,2225.518492,6808.408416,10313.787796,5790.979360,-910.095979,8593.955170,-75.639999,-962.824036,-237.167999,5180.000000,-14980.000000,-3780.000000
12684.816144,-693.708741,9064.057060,2396.352875,6171.338996,-3647.223550,2018.541338,-1420.028677,-1285.694693,18344.590765,2334.282080,6877.721176,10375.813887,5856.134696,-849.299234,8637.697534,-74.176003,-966.728027,-235.704010,4900.000000,-14700.000000,-3220.000000
12741.366058,-638.142304,9125.144377,2457.350785,6234.080343,-3585.219811,2081.461499,-1365.065737,-1236.543207,18410.886039,2566.159077,6937.601499,10438.309364,5920.708885,-784.255658,8684.166811,-77.104004,-968.192017,-235.216003,4760.000000,-14700.000000,-3220.000000
12808.957733,-573.858687,9192.624294,2526.663545,6305.047131,-3522.232595,2148.382622,-1308.560527,-1170.694968,18477.851865,2698.280239,7007.093073,10500.491917,5988.434671,-721.201387,8731.016067,-78.568001,-964.776001,-238.632004,4060.000000,-14700.000000,-2800.000000
12852.923614,-531.703297,9226.822463,2566.404947,6345.950824,-3496.975124,2183.944247,-1285.024140,-1121.543482,18513.569953,2550.736374,7050.075477,10531.046752,6023.035171,-689.908944,8754.641861,-76.615997,-965.264038,-236.680008,3920.000000,-14560.000000,-2520.000000
12803.772128,-580.005417,9173.267683,2510.279716,6289.400910,-3549.635833,2130.277709,-1331.873397,-1169.130345,18460.059876,2442.866855,6998.040616,10480.956493,5971.402642,-744.089573,8715.123977,-79.056000,-965.752014,-237.656006,3780.000000,-14280.000000,-2240.000000
12737.432151,-651.709813,9106.324209,2443.336242,6221.563366,-3612.354828,2068.318673,-1386.121081,-1238.756029,18387.349652,2226.457265,6931.700639,10414.325942,5905.576754,-805.087484,8668.475886,-81.496002,-968.679993,-235.216003,3500.000000,-14000.000000,-2100.000000
12670.935711,-712.618317,9039.313679,2379.074976,6150.998908,-3675.274989,2000.347018,-1445.196741,-1303.106702,18318.886258,2042.100077,6867.618187,10350.958747,5840.041440,-868.633493,8618.564441,-82.959999,-964.776001,-236.680008,3780.000000,-13720.000000,-1960.000000
12616.755082,-773.504469,8987.748204,2316.311278,6090.917419,-3717.586841,1944.802933,-1480.847774,-1364.529296,18271.545264,2175.919971,6812.699951,10304.198897,5785.883163,-922.925880,8581.929932,-81.984001,-965.752014,-231.800003,3640.000000,-13300.000000,-1820.000000
12659.022231,-727.593986,9032.898728,2370.313093,6142.952280,-3670.961102,1993.730902,-1435.451381,-1325.659612,18315.511145,2284.258876,6859.660966,10346.376639,5831.368963,-869.907542,8618.251517,-81.496002,-965.752014,-234.727997,3780.000000,-12460.000000,-1540.000000
12729.944316,-644.221979,9106.391264,2452.567512,6221.049276,-3601.424825,2066.575237,-1372.575924,-1249.775439,18389.830695,2472.125289,6936.618023,10418.013980,5907.208432,-797.331428,8671.739241,-82.959999,-966.728027,-238.143997,3640.000000,-11900.000000,-1540.000000
12791.813945,-580.072472,9169.713756,2517.611088,6286.741052,-3540.337508,2129.875377,-1317.098894,-1186.788224,18453.130836,2691.507660,7000.745177,10477.804897,5971.022662,-738.658099,8715.705122,-80.520004,-969.168030,-230.335999,4060.000000,-11620.000000,-1400.000000
12846.910995,-534.921948,9222.754445,2566.963740,6344.117980,-3492.772996,2183.743082,-1276.239905,-1131.042973,18504.629255,2594.925773,7055.104620,10526.956383,6024.219814,-690.244221,8751.892597,-84.912003,-959.895996,-240.096008,4200.000000,-10780.000000,-1260.000000
12823.709884,-558.659501,9196.915829,2542.913263,6318.212309,-3519.662144,2161.324282,-1301.475024,-1154.020566,18481.092868,2482.965885,7032.149378,10504.023493,6000.169337,-708.505596,8736.358134,-82.959999,-963.799988,-234.727997,4340.000000,-10360.000000,-1260.000000
12758.442790,-622.540787,9128.541843,2473.958132,6246.574968,-3587.007950,2091.184508,-1361.020072,-1218.594756,18410.103728,2314.567842,6964.870628,10437.169425,5930.566005,-778.779480,8686.960779,-83.936005,-962.335999,-229.360001,4200.000000,-9380.000000,-1260.000000
12697.221362,-685.371540,9064.861723,2406.768788,6179.229162,-3651.246864,2024.665716,-1416.139473,-1279.816184,18343.026142,2065.547057,6901.905763,10374.808058,5864.829524,-843.577187,8639.105694,-83.447998,-959.408020,-229.848007,4200.000000,-8820.000000,-980.000000
12620.756044,-762.574466,8997.985303,2341.322880,6111.883356,-3707.483853,1969.278093,-1462.362881,-1365.602179,18275.814447,2114.452674,6832.794170,10315.598287,5803.362227,-885.620819,8600.817156,-82.959999,-965.752014,-227.895996,4060.000000,-8260.000000,-700.000000
12632.423655,-750.437468,9016.246678,2360.433621,6132.201091,-3685.735605,1990.109919,-1440.324061,-1354.739231,18289.806639,2246.886760,6849.781495,10332.004467,5822.540024,-863.559647,8619.033828,-80.520004,-959.895996,-230.335999,3780.000000,-8120.000000,-420.000000
12705.133880,-686.019741,9084.195982,2422.280898,6199.815118,-3619.954422,2053.790039,-1380.689607,-1281.000826,18364.841445,2392.620133,6919.183662,10398.836183,5889.997588,-801.421797,8667.023023,-82.959999,-960.872009,-235.216003,3080.000000,-7560.000000,0.000000
12777.598235,-608.839167,9149.373668,2490.945457,6266.110392,-3560.230560,2112.441017,-1329.124132,-1202.523852,18436.344676,2651.565093,6989.926933,10461.689289,5953.856522,-743.933111,8709.446634,-80.520004,-962.824036,-235.704010,2940.000000,-7420.000000,280.000000
12848.341507,-531.390373,9220.452216,2568.729528,6344.296794,-3495.164632,2182.200811,-1274.541172,-1126.527921,18500.985921,2666.026672,7065.051146,10525.727037,6025.404456,-681.415281,8755.558283,-81.008003,-964.776001,-233.264008,3360.000000,-6860.000000,560.000000
12844.228786,-545.963710,9216.786530,2557.397194,6338.194768,-3503.233612,2177.484593,-1283.303056,-1134.954528,18500.293016,2520.338001,7062.078364,10524.944726,6022.364619,-687.472604,8749.366850,-81.496002,-962.335999,-237.656006,3640.000000,-6440.000000,700.000000
12775.497171,-620.886757,9148.367840,2479.121385,6261.170657,-3570.042976,2105.623735,-1347.318452,-1203.976715,18431.606106,2392.530726,6991.491555,10458.895321,5951.554293,-757.187695,8695.745015,-80.031998,-960.384033,-239.119995,3640.000000,-6020.000000,840.000000
12705.022121,-685.125671,9081.781993,2421.297422,6200.485671,-3629.900948,2053.432411,-1397.006380,-1271.702501,18359.253509,2136.580901,6925.844482,10392.153012,5890.511679,-801.578260,8660.943349,-79.543999,-960.384033,-237.167999,3500.000000,-5320.000000,1120.000000
12636.290507,-750.236303,9013.855042,2353.616339,6129.161254,-3692.821108,1987.584172,-1450.985843,-1339.674156,18292.690014,2060.137935,6858.073992,10328.942278,5824.842253,-857.837600,8617.558613,-81.496002,-959.895996,-238.632004,3500.000000,-4480.000000,1120.000000
12615.749254,-768.475326,8998.432338,2330.191711,6107.077731,-3706.232155,1964.070137,-1459.971244,-1359.924836,18277.490828,2215.795483,6839.365582,10313.631334,5805.016256,-881.351636,8603.924048,-77.592003,-957.944031,-237.656006,3500.000000,-3920.000000,1260.000000
12674.333176,-706.516290,9059.921987,2393.469500,6170.690795,-3647.871750,2022.587004,-1406.975258,-1300.357437,18338.511090,2327.755371,6901.346970,10371.790573,5864.673062,-826.142827,8646.459418,-76.615997,-960.384033,-237.167999,3780.000000,-3220.000000,1680.000000
12740.024953,-633.247272,9129.011229,2466.716166,6242.194026,-3582.917581,2088.301133,-1350.805324,-1234.084515,18411.154260,2568.148383,6972.760793,10439.248137,5934.075228,-758.729966,8694.627427,-79.056000,-958.432007,-238.143997,3500.000000,-2660.000000,1960.000000
12806.879021,-559.642978,9200.536811,2548.300034,6323.397913,-3515.504720,2162.106593,-1290.254449,-1167.118688,18481.450496,2711.981858,7047.996765,10507.242144,6008.059503,-686.153851,8746.595233,-76.127998,-957.455994,-243.024002,4060.000000,-2240.000000,2240.000000
12840.965431,-532.463256,9232.343344,2578.519592,6357.797248,-3489.822565,2195.969486,-1265.064033,-1131.892339,18513.905229,2568.081327,7081.613789,10537.104075,6041.073029,-653.788525,8770.064565,-75.639999,-958.432007,-236.192001,4480.000000,-1960.000000,2660.000000
12790.606951,-587.917934,9177.670977,2515.890004,6294.899439,-3546.081906,2137.229101,-1316.920080,-1176.126441,18461.713906,2457.820172,7025.600317,10486.924408,5984.277247,-711.836006,8726.299849,-75.639999,-956.968018,-243.024002,4480.000000,-2240.000000,2940.000000
12719.215479,-656.001348,9107.575906,2444.431477,6221.496310,-3614.724113,2064.563580,-1379.303799,-1240.320652,18386.366175,2234.459190,6954.655880,10416.494062,5911.254097,-786.021446,8672.566256,-78.568001,-955.015991,-243.024002,4620.000000,-2660.000000,3360.000000
12646.706420,-724.844721,9037.391429,2378.583238,6150.104839,-3680.572352,1999.989390,-1434.803180,-1315.377809,18313.767709,2039.775496,6884.538458,10350.444657,5843.573015,-845.700603,8625.068799,-79.056000,-955.504028,-237.167999,4200.000000,-2800.000000,3640.000000
12597.085547,-776.477251,8991.525649,2327.867130,6098.092329,-3721.073713,1954.101259,-1466.922637,-1369.066700,18270.204159,2173.349520,6835.386972,10309.049226,5797.886049,-886.716054,8595.340979,-77.104004,-955.992004,-232.288010,4200.000000,-3080.000000,3780.000000
12638.100998,-738.971023,9033.412818,2365.440412,6139.532463,-3678.225419,1991.361617,-1426.309517,-1326.352516,18310.459651,2283.700083,6876.894161,10348.231834,5838.074486,-853.076679,8624.845281,-85.400002,-960.384033,-240.096008,4060.000000,-3080.000000,3920.000000
12700.216496,-678.911886,9097.741139,2427.265337,6205.023075,-3613.919451,2052.583045,-1369.267865,-1265.823992,18378.990099,2475.031015,6941.803627,10412.426044,5901.911068,-792.145823,8668.878218,-81.984001,-956.479980,-240.584000,4200.000000,-3220.000000,4200.000000
12766.623529,-610.426141,9163.634081,2497.472167,6274.201724,-3552.608615,2117.559566,-1315.891900,-1201.316857,18447.118216,2708.718504,7009.797634,10475.368556,5966.999348,-728.666869,8712.888803,-78.080002,-958.919983,-233.264008,3640.000000,-2940.000000,4060.000000
12825.520375,-551.551646,9219.759312,2558.581836,6338.485341,-3504.105330,2175.115308,-1274.742338,-1141.704755,18499.175429,2616.741075,7069.923826,10526.062313,6023.549262,-677.391967,8750.327975,-81.496002,-957.455994,-227.895996,3220.000000,-2800.000000,4340.000000
12797.133660,-587.023865,9191.216134,2534.933690,6314.188995,-3531.732086,2157.680948,-1300.759769,-1174.695930,18472.085115,2498.209774,7042.967623,10502.213002,5999.655247,-687.763177,8736.939280,-83.447998,-956.479980,-241.559998,2940.000000,-3220.000000,4340.000000
12737.052171,-650.793392,9126.284316,2462.916370,6244.295090,-3595.479261,2089.552830,-1358.829601,-1231.938747,18404.515791,2328.247109,6978.080508,10437.884681,5931.951813,-756.472439,8688.994788,-78.080002,-956.479980,-236.192001,2380.000000,-3360.000000,4340.000000
12670.779249,-720.061448,9060.257263,2395.950543,6177.418670,-3653.392631,2026.990298,-1410.573889,-1299.396312,18335.538308,2076.812336,6910.220612,10374.092802,5868.472858,-814.989306,8646.526473,-83.447998,-959.408020,-235.704010,2380.000000,-3500.000000,4340.000000
12605.735672,-783.786271,8994.476079,2329.185883,6105.848385,-3710.568394,1964.584227,-1461.044128,-1367.457374,18274.160418,2122.186377,6843.679469,10313.608982,5803.697503,-871.785089,8606.181575,-84.424004,-959.408020,-242.535995,2100.000000,-3780.000000,4060.000000
12623.527661,-762.954445,9011.642219,2349.570674,6123.215690,-3692.463481,1980.208097,-1445.196741,-1348.346633,18290.119563,2255.916864,6861.918493,10327.981153,5817.309715,-856.720013,8616.999819,-90.279999,-956.968018,-244.000000,2100.000000,-3920.000000,4060.000000
12693.399214,-694.781625,9080.597351,2418.257584,6194.987141,-3626.212910,2043.843513,-1387.730406,-1279.324446,18360.348744,2401.136148,6932.348839,10395.528125,5885.795460,-794.358646,8664.609035,-90.767998,-958.432007,-246.440002,2240.000000,-3500.000000,3780.000000
12759.538026,-629.961566,9146.736163,2485.402225,6263.808163,-3561.996348,2108.730627,-1330.129961,-1216.046657,18428.767434,2662.517448,6999.672294,10461.242254,5953.409487,-730.119733,8713.671114,-86.863998,-959.408020,-247.904007,2100.000000,-3080.000000,3500.000000
12836.740951,-549.048251,9219.714608,2564.616807,6343.000393,-3494.181155,2177.931628,-1271.456632,-1134.149865,18500.203609,2693.809890,7076.562295,10528.811577,6025.873843,-667.736014,8762.487324,-87.351997,-959.895996,-247.416000,2660.000000,-3080.000000,3360.000000
12836.182158,-553.630358,9218.149986,2564.393290,6343.380373,-3497.153937,2178.691587,-1276.441071,-1139.268415,18498.594284,2550.401098,7076.137611,10529.035095,6026.566747,-666.618427,8761.950882,-92.232002,-959.895996,-249.856003,2660.000000,-2800.000000,3360.000000
12770.848008,-624.083057,9151.832360,2496.332228,6275.900456,-3564.522095,2114.005639,-1339.562397,-1206.100131,18429.326228,2416.737666,7011.988105,10464.550312,5961.456115,-726.677564,8712.419416,-90.767998,-959.408020,-252.296005,3360.000000,-2660.000000,3360.000000
12712.711121,-681.929372,9087.526391,2437.413029,6212.130929,-3626.212910,2055.958158,-1394.748854,-1259.498448,18360.415800,2157.748003,6951.236063,10400.445509,5899.117100,-781.595800,8668.073555,-88.328003,-955.992004,-246.928009,2940.000000,-2240.000000,3220.000000
12645.119446,-751.488000,9015.978457,2363.786383,6133.028106,-3691.927039,1988.210021,-1449.823552,-1330.688754,18294.634616,2075.515935,6877.989397,10335.401933,5827.435056,-842.526655,8622.610107,-88.816002,-958.919983,-249.367996,2660.000000,-1960.000000,3360.000000
12626.254574,-772.520992,8999.393463,2340.473514,6110.631658,-3704.734588,1966.484125,-1458.808954,-1352.504057,18279.390726,2230.055896,6857.515199,10320.515671,5807.698465,-861.056252,8610.204889,-90.767998,-962.335999,-241.559998,2520.000000,-2100.000000,3360.000000
12687.811278,-706.225718,9061.844237,2408.914555,6178.715072,-3643.244939,2028.733734,-1403.086055,-1290.500318,18340.746265,2344.049793,6922.424665,10379.323110,5871.199771,-800.393617,8655.623633,-89.792000,-968.679993,-240.096008,2800.000000,-1960.000000,3360.000000
12752.631337,-635.594205,9127.737180,2479.568419,6247.156113,-3579.453061,2091.810357,-1347.184342,-1228.429524,18409.991969,2583.101700,6990.776299,10443.673783,5938.187949,-738.099305,8700.148308,-92.720001,-970.143982,-234.727997,3080.000000,-1960.000000,3500.000000
12819.485404,-573.456356,9194.188916,2543.807333,6316.602983,-3515.638830,2155.624587,-1289.270972,-1162.849505,18477.091906,2729.326812,7057.652719,10507.085682,6003.835023,-681.191764,8745.499998,-94.183998,-970.632019,-240.584000,3500.000000,-1540.000000,3360.000000
12852.230710,-549.361175,9224.207309,2571.210572,6349.616510,-3489.934324,2187.788747,-1267.030986,-1129.277185,18509.032549,2588.577877,7088.654588,10537.037019,6034.322802,-650.927502,8767.941149,-92.720001,-964.288025,-237.656006,3920.000000,-1680.000000,3220.000000
12797.290122,-610.649659,9168.909093,2515.018286,6292.172526,-3543.042069,2139.218407,-1315.713086,-1187.883459,18454.874272,2476.327416,7033.021096,10485.382138,5982.131479,-692.591154,8732.960669,-84.912003,-961.848022,-239.119995,4060.000000,-1540.000000,3080.000000
12734.101741,-674.508592,9103.597296,2450.354689,6225.430217,-3609.829081,2072.520801,-1379.326150,-1249.820143,18385.226236,2252.899379,6969.609197,10419.064512,5915.567984,-755.734832,8683.339796,-87.840004,-959.895996,-235.704010,3500.000000,-700.000000,3220.000000
12669.326385,-739.909797,9037.167911,2381.488965,6154.888112,-3675.342044,2004.817367,-1438.379459,-1316.137769,18316.539325,2052.493638,6903.425682,10356.189055,5849.585634,-818.185606,8634.657697,-89.792000,-958.919983,-245.951996,3360.000000,0.000000,3500.000000
12622.477129,-790.737664,8987.390576,2327.397743,6101.087463,-3716.826882,1957.811649,-1472.577628,-1367.144450,18270.137104,2178.043387,6852.217835,10312.893726,5801.372922,-865.101917,8603.097034,-88.328003,-959.408020,-247.904007,3220.000000,280.000000,3780.000000
12656.474132,-755.287797,9025.500301,2367.295607,6141.901748,-3674.917361,1996.882498,-1431.606881,-1335.136752,18305.922247,2285.063539,6887.667702,10349.595290,5840.466123,-828.065077,8630.701438,-90.767998,-959.408020,-253.272003,2660.000000,280.000000,4060.000000
12727.262107,-685.215078,9097.115290,2440.654032,6216.713037,-3604.866994,2069.704481,-1367.725595,-1266.762765,18381.538198,2481.960056,6960.556741,10419.109216,5913.802196,-755.287797,8682.490430,-85.888000,-958.919983,-245.464005,2240.000000,280.000000,4200.000000
12803.079224,-606.380475,9169.266721,2517.611088,6291.658436,-3540.315156,2138.927834,-1311.510958,-1187.570535,18454.784865,2721.838978,7035.636250,10486.633836,5983.606694,-689.528965,8730.725495,-85.400002,-953.552002,-250.832001,1820.000000,700.000000,4480.000000
12870.827361,-537.872379,9231.024591,2588.309656,6359.965367,-3488.682626,2198.137605,-1268.483850,-1118.414237,18513.994636,2641.819732,7101.104510,10542.557900,6043.934052,-633.046106,8769.550475,-83.447998,-953.064026,-256.200012,1400.000000,560.000000,4900.000000
12837.098579,-578.820774,9197.385215,2547.897702,6323.062637,-3521.606746,2164.677044,-1299.373960,-1158.177991,18481.115220,2518.371048,7066.124030,10513.165356,6012.172224,-663.198610,8746.818751,-86.863998,-955.015991,-259.127991,280.000000,1120.000000,5040.000000
12760.633261,-660.337586,9121.501043,2466.045614,6243.736296,-3594.093453,2090.156328,-1361.712976,-1233.637480,18400.648940,2334.617357,6988.630532,10439.516358,5936.936252,-736.199407,8694.336855,-83.447998,-953.552002,-265.959991,-280.000000,980.000000,5320.000000
12695.410871,-727.705744,9057.016260,2403.706599,6180.614970,-3654.376108,2031.661812,-1413.613726,-1300.826824,18332.856099,2076.365301,6925.017467,10376.909122,5875.468954,-791.005885,8654.282529,-83.447998,-958.432007,-264.984009,-1960.000000,0.000000,5320.000000
12626.947478,-798.091388,8990.251600,2327.688316,6104.127300,-3715.217556,1961.007948,-1465.201553,-1374.341711,18270.606490,2115.905537,6854.475362,10317.185261,5807.430244,-857.658786,8608.237935,-80.520004,-963.312012,-262.544006,-2940.000000,-1960.000000,5040.000000
12638.436274,-785.060321,9004.601420,2338.618319,6115.906670,-3699.861908,1969.479259,-1449.287110,-1360.885961,18283.257578,2249.144286,6867.193504,10329.255203,5818.047323,-850.685042,8615.569307,-82.472000,-965.264038,-258.640015,-2940.000000,-2800.000000,5040.000000
12717.561450,-696.547412,9078.920970,2425.119570,6196.596467,-3631.510273,2041.496580,-1389.250325,-1276.306960,18360.236986,2398.588049,6948.375040,10400.691378,5891.964542,-776.231381,8667.000671,-83.936005,-964.288025,-263.519989,-2240.000000,-3640.000000,4340.000000
12781.688605,-631.705002,9141.282337,2491.660713,6262.757631,-3570.646473,2104.416740,-1334.779124,-1213.610317,18425.839356,2659.946997,7012.792768,10462.471600,5953.543598,-713.288869,8710.497166,-83.936005,-963.312012,-264.007996,-1680.000000,-4200.000000,3780.000000
12852.476579,-567.756661,9210.483338,2557.531304,6337.121884,-3507.458092,2174.958846,-1279.257390,-1142.442363,18492.805182,2693.966352,7081.882010,10523.983601,6021.381142,-648.737031,8757.189960,-80.520004,-963.799988,-252.296005,-1400.000000,-4340.000000,3500.000000
12857.103390,-565.208562,9212.919678,2562.426336,6343.402725,-3507.458092,2182.960770,-1281.760786,-1139.648395,18495.129763,2552.189237,7086.777042,10525.861147,6026.902023,-640.623348,8761.883826,-83.447998,-959.408020,-257.175995,-1120.000000,-3640.000000,3500.000000
12787.902390,-635.996537,9144.612747,2495.102882,6271.564218,-3572.032281,2117.380752,-1342.423420,-1211.598660,18424.498251,2417.162349,7018.023076,10459.923501,5959.623272,-703.565860,8715.459253,-82.959999,-968.679993,-246.928009,-700.000000,-3220.000000,3640.000000
12726.591554,-701.643610,9080.664406,2427.086523,6204.374874,-3635.824160,2050.146705,-1401.655543,-1272.529515,18358.471198,2156.920988,6954.521770,10397.025692,5895.362007,-772.386881,8668.408831,-85.400002,-965.752014,-249.367996,-980.000000,-2240.000000,4480.000000
12654.171902,-774.532649,9009.205879,2354.175133,6129.541234,-3700.778329,1982.085643,-1459.166582,-1350.313586,18289.851342,2066.239961,6883.107946,10333.636145,5826.853910,-834.770600,8622.051313,-84.424004,-963.799988,-243.024002,-1400.000000,-1260.000000,5040.000000
12633.943574,-790.111815,8988.821088,2331.778685,6104.909611,-3718.033876,1956.850524,-1472.667035,-1367.680891,18271.880540,2215.706076,6864.600702,10314.368941,5802.959895,-862.173839,8606.114519,-89.304001,-964.288025,-244.488007,-1680.000000,140.000000,6160.000000
12687.855981,-737.696974,9045.683926,2388.194488,6165.371080,-3658.980567,2013.668658,-1417.435875,-1313.075580,18329.257468,2329.856435,6921.418836,10371.343538,5862.594350,-810.764827,8647.778171,-89.304001,-965.752014,-246.440002,-1960.000000,1260.000000,7280.000000
12745.411723,-687.562011,9108.738197,2449.527675,6229.945270,-3594.965171,2079.963932,-1360.483630,-1258.224399,18396.089184,2570.808240,6979.421613,10434.934251,5927.704981,-737.294643,8693.867468,-94.672005,-964.776001,-239.119995,-1820.000000,1820.000000,7980.000000
12831.532995,-588.879059,9188.019835,2543.650871,6317.809977,-3525.942984,2158.798535,-1300.916231,-1162.804802,18475.348470,2731.003193,7066.146382,10505.878688,6004.036189,-657.722432,8748.003393,-98.576004,-967.704041,-244.000000,-1400.000000,2660.000000,8680.000000
12870.581492,-547.304815,9225.459006,2585.850964,6362.468763,-3495.745778,2200.439835,-1273.445937,-1121.744647,18510.865392,2592.757653,7108.480586,10540.680354,6044.582253,-618.584528,8774.780783,-103.456001,-966.728027,-242.535995,-1120.000000,3360.000000,9240.000000
12815.439739,-606.894565,9173.066517,2530.753914,6306.522346,-3548.495894,2149.790782,-1322.932699,-1182.116709,18457.668240,2478.272018,7054.478771,10492.489993,5993.307351,-664.338549,8736.134617,-105.408005,-966.728027,-243.512009,-840.000000,4200.000000,9240.000000
12740.516691,-686.153851,9101.675046,2454.623873,6231.465188,-3617.696895,2078.242848,-1383.841203,-1260.884256,18381.761716,2249.792486,6980.583904,10420.986762,5920.731237,-735.841779,8684.166811,-108.335999,-963.312012,-240.584000,-280.000000,5040.000000,8960.000000
12667.225321,-759.624035,9029.233042,2376.415119,6155.737478,-3683.992169,2006.314934,-1441.553407,-1336.142580,18308.939732,2045.028155,6907.270182,10352.791590,5849.920911,-804.752207,8635.238842,-107.360001,-967.216003,-236.680008,280.000000,5740.000000,8960.000000
12617.872669,-802.584088,8981.355605,2322.837987,6100.171042,-3727.466312,1952.491933,-1481.831250,-1381.918953,18264.571519,2168.074509,6856.956405,10307.819880,5798.713064,-856.183571,8599.811327,-107.848000,-964.776001,-241.559998,560.000000,6300.000000,8400.000000
12655.602414,-766.195448,9021.789911,2360.388918,6138.548987,-3687.590800,1987.718283,-1448.035413,-1341.596406,18305.721081,2280.012045,6895.647275,10344.879072,5834.878187,-823.930004,8623.593584,-111.264000,-961.359985,-247.416000,840.000000,7000.000000,8120.000000
12723.998752,-694.133424,9092.533182,2440.721088,6216.422464,-3618.345096,2062.887199,-1384.779976,-1273.892972,18378.252492,2476.886210,6968.960997,10414.169480,5908.951868,-745.922416,8675.606093,-111.264000,-959.895996,-249.856003,420.000000,6860.000000,7700.000000
12792.976236,-623.859539,9159.431953,2513.923051,6288.506840,-3554.128534,2133.786933,-1325.167874,-1204.826081,18446.872347,2718.843844,7039.391344,10478.140173,5977.772889,-673.905095,8724.042323,-114.680000,-958.432007,-253.272003,840.000000,6860.000000,7140.000000
12863.406582,-550.165838,9221.748617,2582.028816,6355.427963,-3502.965391,2191.052102,-1283.347760,-1127.578453,18509.993674,2648.100573,7107.765330,10533.661906,6037.496750,-621.311441,8760.296853,-110.776001,-959.408020,-247.904007,1120.000000,6580.000000,7000.000000
12838.640849,-579.960713,9191.730224,2542.399173,6320.022800,-3534.615461,2155.758697,-1314.103760,-1150.109011,18483.529208,2527.714077,7077.478716,10507.979752,6007.947744,-660.248179,8733.608870,-112.239998,-958.432007,-256.687988,1120.000000,7000.000000,6720.000000
12754.307718,-668.451270,9112.068607,2460.994120,6241.299956,-3604.866994,2086.624752,-1374.274656,-1239.068954,18400.760698,2341.255825,6994.777262,10432.073227,5933.359973,-727.415172,8682.490430,-112.728004,-959.408020,-250.344009,1260.000000,6580.000000,6300.000000
12675.584874,-747.487038,9041.839426,2391.591953,6172.747156,-3666.289588,2026.029173,-1425.057819,-1324.094990,18324.384788,2073.012540,6922.424665,10364.347442,5867.422326,-783.294533,8640.983241,-114.192001,-962.335999,-251.807999,1120.000000,6160.000000,6160.000000
12610.317780,-815.101065,8976.929960,2316.110112,6097.891164,-3727.354554,1954.347128,-1476.846811,-1391.776072,18262.850435,2104.595554,6854.676527,10304.400063,5799.875355,-852.406127,8595.206868,-112.239998,-963.312012,-256.200012,1400.000000,5880.000000,5740.000000
12620.376065,-809.781350,8989.066957,2322.301545,6107.413007,-3712.043609,1962.751384,-1460.038300,-1382.723615,18274.786267,2236.940233,6863.349004,10315.106549,5810.850061,-845.521789,8603.991104,-114.680000,-960.872009,-258.640015,1120.000000,5320.000000,5460.000000
12685.173772,-744.000166,9057.865627,2394.609439,6180.570266,-3642.149704,2033.092324,-1397.632229,-1316.920080,18344.724875,2383.925305,6933.309964,10382.430003,5881.816850,-774.175021,8656.294186,-110.776001,-965.264038,-256.200012,1260.000000,4900.000000,5040.000000
12749.189168,-675.581476,9122.439816,2459.496553,6245.546787,-3580.727110,2093.307923,-1344.099801,-1251.161248,18412.517716,2650.291044,6999.314666,10445.573681,5943.641775,-717.915680,8699.477756,-111.751999,-967.216003,-253.760010,1400.000000,4900.000000,4620.000000
12823.553422,-587.716769,9195.239448,2548.277682,6330.014030,-3515.951755,2167.538067,-1289.673303,-1170.851430,18479.125914,2686.411463,7079.177449,10511.600734,6015.927317,-645.451325,8748.606890,-111.264000,-967.704041,-257.664001,1680.000000,4760.000000,3920.000000
12836.405675,-574.797460,9201.766157,2560.369976,6341.279309,-3512.934269,2177.574000,-1289.270972,-1157.261569,18487.530170,2546.042507,7092.834365,10519.200327,6025.538567,-633.180217,8755.468876,-111.751999,-968.679993,-259.127991,1820.000000,4480.000000,3220.000000
12780.682776,-642.411487,9138.890700,2490.856050,6273.262951,-3577.620218,2117.850139,-1344.055098,-1213.856186,18428.700379,2416.134169,7029.109541,10458.157713,5961.769040,-689.484261,8711.570050,-107.360001,-968.679993,-254.248001,2240.000000,4200.000000,2800.000000
12718.723740,-703.498805,9075.724670,2427.444151,6206.408883,-3642.015593,2051.979548,-1403.488386,-1274.496469,18361.041649,2155.803401,6965.049441,10396.221029,5895.563173,-756.494791,8660.943349,-105.896004,-964.776001,-260.104004,2520.000000,3920.000000,2240.000000
12639.933841,-785.060321,9002.589763,2348.095459,6128.378943,-3707.282687,1981.191573,-1460.552390,-1360.126002,18288.174962,2057.209856,6888.338254,10329.411665,5825.043419,-823.192397,8611.814214,-102.968002,-966.239990,-261.080017,2660.000000,3500.000000,1820.000000
12614.229335,-819.124379,8980.059204,2322.033324,6103.702617,-3721.811321,1963.332529,-1469.448384,-1389.965581,18266.605528,2205.357218,6861.247940,10308.132804,5801.976419,-834.256510,8600.817156,-99.064003,-966.728027,-257.175995,3080.000000,3220.000000,1680.000000
12677.015385,-755.734832,9041.325336,2385.624037,6168.053289,-3665.060242,2022.452894,-1417.435875,-1322.820940,18328.050474,2321.228662,6924.704543,10365.353270,5860.381527,-775.717291,8640.424447,-98.087997,-971.608032,-253.272003,3220.000000,3360.000000,1540.000000
12743.087142,-689.528965,9107.173575,2453.193361,6237.053125,-3600.128424,2089.195202,-1358.136697,-1260.593684,18398.257303,2563.767441,6991.804480,10430.463902,5928.107313,-710.696067,8689.598285,-101.992004,-967.704041,-256.200012,3500.000000,3220.000000,1540.000000
12819.395997,-601.373685,9183.057747,2539.135818,6321.162739,-3529.876891,2163.224180,-1297.831690,-1178.965113,18469.939347,2727.203396,7072.784850,10501.967132,6005.533755,-645.339566,8741.744905,-100.040001,-968.192017,-256.687988,4060.000000,3080.000000,1540.000000
12862.579568,-553.898579,9222.955611,2583.481679,6365.977987,-3497.533917,2199.657524,-1272.954198,-1131.065325,18507.982017,2592.780005,7118.561222,10538.311069,6045.677489,-613.533034,8766.264768,-97.112000,-971.119995,-254.248001,4200.000000,3360.000000,1680.000000
12804.755605,-631.928519,9166.070421,2512.716056,6300.733245,-3552.586264,2144.001680,-1321.926871,-1198.880517,18454.270775,2475.522754,7054.746992,10485.426841,5987.048863,-661.790450,8725.428131,-100.040001,-967.216003,-255.712006,4760.000000,3780.000000,1820.000000
12739.220290,-691.607677,9095.841240,2447.516018,6229.744104,-3621.563747,2074.755976,-1383.818851,-1260.437222,18381.269977,2251.200646,6986.082433,10415.756454,5915.567984,-729.091552,8672.007462,-95.160004,-969.168030,-255.223999,5740.000000,4200.000000,1960.000000
12670.175751,-747.576445,9032.116417,2394.072997,6169.327339,-3681.399367,2015.479149,-1437.753610,-1333.438019,18310.906686,2045.139914,6925.151578,10353.596253,5855.642957,-785.216783,8628.712133,-100.040001,-969.656006,-257.175995,6580.000000,4760.000000,2100.000000
12615.838661,-817.269184,8981.176791,2327.107170,6109.849347,-3723.241833,1964.427765,-1470.945951,-1398.526299,18263.342173,2163.850029,6868.668719,10308.624543,5803.943372,-835.083525,8596.324455,-99.064003,-968.192017,-255.223999,7700.000000,5320.000000,2100.000000
12665.973624,-770.107003,9025.545004,2368.189677,6152.116496,-3682.315789,2004.750312,-1433.350317,-1338.020127,18308.783270,2280.168507,6914.422740,10348.835331,5844.601195,-793.732797,8625.582889,-100.528000,-968.679993,-259.127991,8260.000000,6300.000000,2100.000000
12740.024953,-683.203421,9095.729482,2451.181704,6228.268889,-3615.305259,2073.213705,-1374.028787,-1256.816239,18382.678137,2476.193306,6991.491555,10419.086864,5917.199661,-723.660078,8673.505029,-96.136002,-969.168030,-256.687988,9100.000000,6720.000000,2380.000000
12804.509736,-620.126798,9163.075288,2513.073684,6295.301771,-3551.848656,2135.351555,-1317.992964,-1193.717264,18450.985068,2722.129550,7059.127934,10484.689234,5983.427880,-669.077119,8717.761483,-98.087997,-970.143982,-257.175995,9240.000000,7140.000000,2660.000000
12859.718544,-562.951036,9222.016838,2583.124051,6364.502771,-3499.143243,2201.825643,-1271.166059,-1140.162485,18504.629255,2649.888712,7120.327010,10538.042848,6044.805770,-600.926650,8762.062640,-96.624001,-975.023987,-254.736008,9660.000000,7280.000000,2660.000000
12843.893509,-577.882001,9197.720492,2556.793696,6337.591271,-3528.468731,2170.488497,-1302.234984,-1151.606578,18483.976243,2530.709211,7100.992751,10516.473414,6019.257727,-633.649604,8739.554434,-95.160004,-975.023987,-252.296005,10080.000000,7560.000000,2940.000000
12769.551607,-668.026587,9123.289183,2467.274960,6256.968529,-3598.228526,2096.884203,-1362.942322,-1232.072858,18408.673216,2350.129467,7021.755817,10446.512454,5945.586377,-708.796168,8687.586628,-98.087997,-974.048035,-253.272003,9940.000000,7420.000000,3080.000000
12703.166926,-741.608529,9055.943377,2401.091445,6189.801537,-3658.019442,2038.836722,-1413.971354,-1300.782120,18339.472215,2086.401234,6954.812343,10381.290064,5881.973312,-759.042890,8647.062915,-98.576004,-975.512024,-252.783997,10220.000000,7700.000000,3220.000000
12640.112655,-797.018504,8993.470251,2346.240264,6126.523748,-3715.351667,1980.386910,-1463.301654,-1365.132793,18277.356717,2109.557642,6895.669627,10323.443749,5821.556547,-801.064170,8606.963886,-98.576004,-974.048035,-251.320007,10500.000000,7280.000000,2940.000000
12657.748182,-773.191544,9008.848251,2363.808735,6140.493589,-3701.582992,1988.031207,-1449.197704,-1344.926816,18290.700709,2242.327004,6911.896993,10336.228947,5833.045344,-800.125396,8613.982333,-100.528000,-978.928040,-255.223999,11060.000000,7280.000000,3080.000000
12722.724703,-715.658154,9076.037595,2427.131227,6208.621706,-3636.181788,2052.627749,-1390.367912,-1284.264181,18361.421628,2392.061340,6977.387604,10400.892544,5899.206507,-736.221759,8663.044412,-99.064003,-978.440002,-248.880005,11480.000000,7280.000000,2800.000000
12780.123982,-659.711738,9135.403828,2486.452757,6269.507858,-3577.039072,2113.312735,-1336.231987,-1230.888215,18426.152280,2658.225913,7036.105637,10459.923501,5959.667976,-671.982845,8709.826614,-101.992004,-976.976013,-256.200012,11760.000000,7140.000000,2800.000000
12851.001364,-579.267809,9206.974114,2572.752842,6352.946920,-3509.760321,2189.755701,-1275.859925,-1159.183819,18491.531133,2699.397826,7112.213327,10524.050656,6033.071105,-597.283315,8764.096649,-101.503998,-976.000000,-256.200012,11900.000000,7000.000000,2660.000000
12869.150981,-561.073489,9217.457082,2589.024912,6368.548437,-3504.105330,2203.077340,-1273.356530,-1139.760153,18504.450441,2560.973473,7130.385295,10534.846548,6047.085648,-584.274600,8773.618492,-101.503998,-977.463989,-250.832001,11900.000000,7280.000000,2800.000000
12801.916933,-643.573778,9149.753648,2509.028019,6294.452404,-3568.947741,2134.435133,-1331.471065,-1216.493692,18436.858766,2425.656012,7059.664376,10472.820458,5978.421089,-653.363842,8725.003448,-101.015999,-976.488037,-252.296005,12180.000000,7000.000000,3080.000000
12741.410761,-710.494901,9085.022996,2435.982518,6222.300973,-3633.164302,2063.490696,-1392.088996,-1276.776347,18369.356497,2164.341767,6994.956076,10409.967352,5910.337676,-728.353945,8672.163924,-105.408005,-978.440002,-251.320007,12180.000000,7280.000000,3080.000000
12674.914321,-775.985512,9014.525594,2361.081822,6144.494551,-3699.928963,1989.372312,-1453.042204,-1338.958900,18301.071918,2061.881371,6924.816301,10345.706087,5838.409762,-798.985457,8620.285525,-103.456001,-973.072021,-253.760010,12040.000000,7140.000000,3080.000000
12654.976565,-779.561791,8995.951294,2356.276197,6127.909556,-3715.217556,1967.624064,-1466.520305,-1357.957883,18280.620072,2206.541861,6909.393598,10327.869395,5818.494358,-818.163254,8605.600429,-103.944000,-974.048035,-248.391998,11900.000000,6720.000000,3220.000000
12702.362263,-728.152779,9052.255339,2416.871776,6188.862764,-3657.281835,2021.312955,-1415.088941,-1322.910347,18333.996038,2319.619336,6966.703471,10382.519410,5876.720652,-772.498640,8647.465247,-107.360001,-975.023987,-251.807999,11060.000000,6580.000000,3500.000000
12740.896671,-715.054657,9106.033636,2451.718146,6242.462247,-3594.898116,2090.737473,-1352.638167,-1303.754902,18389.361309,2554.491467,7009.417654,10438.622289,5937.472694,-699.855471,8701.779986,-103.456001,-969.656006,-246.440002,10780.000000,5460.000000,3640.000000
12822.815814,-636.555330,9176.598093,2529.345754,6318.234660,-3531.821493,2166.420480,-1296.043550,-1208.201195,18461.311574,2721.883681,7082.574914,10502.034188,6007.098378,-618.964507,8751.110286,-108.823997,-971.608032,-243.512009,10500.000000,5040.000000,3640.000000
12878.672824,-575.155088,9219.535794,2578.564296,6366.469725,-3501.490176,2203.457320,-1273.021254,-1142.509418,18504.629255,2595.462214,7134.028630,10539.696877,6048.829084,-587.359141,8773.864362,-101.992004,-976.000000,-240.096008,10360.000000,4200.000000,3640.000000
12837.322097,-615.120007,9175.413451,2537.370031,6322.168567,-3546.774810,2158.127982,-1317.322411,-1183.949552,18459.702249,2483.301161,7091.493260,10498.815536,6005.891383,-629.335717,8741.275518,-106.384003,-971.608032,-243.024002,9800.000000,3640.000000,3640.000000
12771.406802,-694.714569,9103.172613,2453.908617,6241.746991,-3616.065218,2079.136917,-1380.913124,-1252.234131,18386.947320,2257.660300,7016.860785,10429.435722,5930.543653,-710.383142,8682.468078,-104.919998,-978.928040,-247.904007,9660.000000,3360.000000,3500.000000
12713.962819,-746.637672,9037.637298,2396.419930,6177.709243,-3678.068957,2017.893138,-1433.819703,-1309.901632,18322.373131,2047.732717,6957.427497,10365.308567,5867.131754,-766.866001,8637.764590,-103.944000,-980.880005,-245.464005,9800.000000,2940.000000,3080.000000
12667.717060,-793.643390,8990.229248,2342.440467,6123.260394,-3721.699562,1963.556047,-1472.957608,-1358.695490,18277.982566,2162.978311,6909.907688,10322.706142,5817.756750,-821.024277,8602.515889,-103.944000,-979.903992,-247.904007,10220.000000,2800.000000,2940.000000
12707.391406,-761.590989,9031.244699,2377.197430,6160.476048,-3683.142803,1997.396588,-1437.977128,-1321.904519,18316.762843,2278.827402,6947.682136,10360.435886,5853.944225,-786.379073,8628.019229,-101.503998,-975.023987,-248.391998,10780.000000,2660.000000,2800.000000
12766.198846,-700.660133,9095.997703,2446.689003,6229.609994,-3614.947631,2068.676301,-1375.079319,-1267.165097,18383.371041,2475.187477,7012.055160,10424.920669,5921.647659,-708.483244,8680.948160,-101.503998,-972.583984,-246.440002,11760.000000,2800.000000,2520.000000
12816.624381,-651.575703,9155.565102,2515.867652,6298.185146,-3552.496857,2143.018203,-1317.344763,-1225.054410,18444.056027,2721.950736,7070.616731,10483.057557,5985.998331,-627.972260,8732.223062,-103.456001,-973.072021,-249.856003,12320.000000,2800.000000,2380.000000
12876.258835,-589.124929,9216.406550,2581.179450,6367.296739,-3496.170461,2207.592393,-1268.528553,-1161.888380,18499.935389,2655.476648,7134.207444,10537.193482,6049.969023,-569.611856,8776.948902,-102.480003,-971.608032,-241.072006,12740.000000,2940.000000,2660.000000
12858.958585,-609.174443,9192.736053,2556.123144,6344.363850,-3521.226766,2182.960770,-1295.015370,-1176.484069,18479.282377,2536.185388,7115.275516,10515.065255,6029.047791,-596.188080,8760.609777,-98.576004,-969.656006,-245.464005,13020.000000,2800.000000,2940.000000
12791.523372,-677.570781,9120.808139,2485.692797,6271.519515,-3591.210078,2114.050342,-1357.086165,-1244.411021,18406.572152,2354.510409,7046.074515,10445.886605,5956.695194,-664.606770,8709.446634,-98.087997,-970.143982,-234.727997,12880.000000,2380.000000,3220.000000
12727.038589,-750.437468,9056.345708,2411.216785,6200.932706,-3653.571445,2044.357603,-1413.054933,-1312.785007,18339.561622,2089.418720,6980.561552,10383.279369,5891.226934,-737.004070,8660.071630,-95.648003,-968.192017,-234.240005,12320.000000,1960.000000,3640.000000
12666.599472,-806.272126,8992.889105,2352.141124,6133.832769,-3712.490644,1983.382044,-1465.425070,-1373.313531,18279.167209,2110.228194,6919.161310,10325.164834,5829.446713,-787.317847,8617.782130,-96.624001,-970.143982,-235.704010,12180.000000,2660.000000,4060.000000
12681.396327,-787.228440,9005.942524,2369.486078,6146.260339,-3702.231193,1990.892230,-1454.249198,-1358.449621,18292.511200,2245.031565,6934.271089,10336.407761,5836.487512,-777.907762,8623.817101,-96.624001,-969.168030,-233.751999,12180.000000,2660.000000,4340.000000
12736.962764,-739.753334,9066.403993,2424.158445,6209.828700,-3638.014631,2055.354661,-1394.346523,-1306.280649,18356.548948,2390.988456,6992.832660,10399.082053,5900.994647,-717.111017,8671.851000,-98.576004,-969.656006,-237.167999,12180.000000,3360.000000,4620.000000
12802.833355,-667.847773,9131.782845,2494.812309,6276.436898,-3576.547334,2119.973555,-1340.389411,-1236.252634,18424.632361,2658.158858,7060.312576,10463.723298,5966.328796,-652.000386,8719.035532,-97.599998,-965.752014,-238.143997,12320.000000,3640.000000,4760.000000
12871.050879,-603.765321,9198.145175,2558.470077,6344.095629,-3519.751551,2178.825698,-1289.338027,-1167.029282,18490.659415,2704.829300,7129.893557,10525.168243,6028.153721,-606.358124,8757.838161,-98.087997,-967.704041,-238.632004,12460.000000,4060.000000,4900.000000
12868.167504,-611.789597,9198.167527,2556.033737,6347.515446,-3517.695191,2183.474861,-1288.376902,-1176.349959,18489.318310,2560.459383,7129.357115,10526.866976,6034.278099,-604.257060,8761.526199,-101.015999,-968.679993,-233.751999,12460.000000,4200.000000,5180.000000
12800.620532,-680.252991,9136.007325,2499.305010,6288.708006,-3575.317988,2130.121247,-1341.708164,-1252.502352,18424.475899,2426.818302,7067.800411,10466.897245,5976.901171,-649.362880,8722.522404,-102.480003,-966.728027,-239.608002,12180.000000,4900.000000,5180.000000
12744.919985,-726.476398,9078.339824,2444.543236,6233.052162,-3633.164302,2071.962008,-1394.167709,-1299.932754,18360.482855,2168.543895,7014.737369,10406.301666,5919.434836,-708.974982,8680.523477,-103.456001,-963.312012,-234.240005,12040.000000,4900.000000,5320.000000
12683.475039,-795.878565,9007.194222,2362.668796,6150.484818,-3700.934792,1998.961210,-1451.008195,-1360.103650,18297.607398,2065.480002,6941.960089,10338.955860,5844.936472,-780.545268,8632.668392,-100.528000,-969.168030,-238.143997,11620.000000,4900.000000,5460.000000
12664.341946,-814.542271,8988.821088,2338.797133,6126.099065,-3717.855062,1975.737748,-1464.732166,-1376.487479,18278.116677,2213.225032,6922.357610,10319.487491,5821.198919,-801.757074,8617.357447,-102.480003,-970.632019,-232.776001,11200.000000,4900.000000,5880.000000
12723.417607,-752.292663,9052.031821,2405.382980,6192.617857,-3657.415945,2038.344984,-1410.663296,-1316.607155,18337.885241,2332.181016,6985.210715,10378.317282,5883.560286,-737.518160,8661.256273,-103.456001,-969.656006,-241.559998,10640.000000,5180.000000,5740.000000
12790.830468,-684.812747,9118.461206,2476.506230,6261.237712,-3592.864107,2105.087293,-1353.129906,-1247.696727,18410.483707,2578.698406,7053.830570,10445.528978,5952.269548,-669.702967,8710.206593,-104.431999,-966.239990,-235.216003,10080.000000,5040.000000,5600.000000
12859.383268,-613.242461,9187.014006,2555.653758,6337.457161,-3528.424028,2174.780032,-1298.658705,-1176.305255,18479.505894,2748.839885,7127.099589,10512.852432,6021.559956,-600.300801,8758.821637,-109.312004,-965.264038,-240.096008,10080.000000,5320.000000,5600.000000
12889.334606,-586.554478,9218.775835,2585.023950,6373.510524,-3499.299705,2206.519509,-1275.547001,-1147.985595,18510.083081,2615.467026,7159.174342,10546.692973,6057.032175,-572.919914,8779.921684,-105.896004,-965.264038,-232.776001,9940.000000,5460.000000,5320.000000
12838.059704,-635.460095,9170.786640,2540.119295,6326.549509,-3548.942929,2162.777145,-1321.457484,-1204.714323,18461.110408,2499.819100,7111.989810,10500.313103,6011.099340,-609.442664,8745.321184,-104.919998,-963.312012,-237.656006,9660.000000,5320.000000,5320.000000
12775.251302,-698.156738,9109.319342,2478.651998,6263.919921,-3611.192538,2098.806453,-1380.220220,-1269.757899,18393.921065,2277.553353,7051.215416,10436.230652,5946.391040,-673.659226,8696.817898,-102.968002,-962.335999,-232.776001,9520.000000,4900.000000,5320.000000
12714.968647,-763.759108,9043.985193,2405.897070,6195.188307,-3671.139916,2034.075801,-1431.271604,-1327.715972,18329.905668,2066.351720,6986.283599,10371.857628,5881.481574,-737.406401,8653.164941,-102.480003,-958.432007,-231.311996,9240.000000,4760.000000,5460.000000
12667.381783,-805.623925,8996.197164,2360.075994,6145.790952,-3709.920193,1993.775605,-1459.099526,-1372.598275,18283.078764,2178.982160,6939.613156,10327.914098,5836.845140,-769.324692,8629.092113,-105.896004,-951.600037,-232.776001,8960.000000,3920.000000,5040.000000
12698.160136,-780.120585,9030.104760,2395.369398,6184.839450,-3669.240018,2034.098152,-1419.916918,-1343.026917,18316.919305,2291.366731,6973.945436,10363.386317,5874.083146,-727.728096,8658.059973,-108.335999,-951.600037,-232.776001,8680.000000,3640.000000,5040.000000
12766.511770,-707.008029,9098.478746,2467.029091,6253.615767,-3604.934049,2096.683037,-1363.858743,-1272.283646,18389.182495,2486.430405,7045.806294,10432.386152,5941.227787,-665.634950,8703.344608,-106.384003,-953.552002,-233.264008,7840.000000,3640.000000,4900.000000
12823.419311,-643.663185,9160.460134,2534.777228,6320.201614,-3546.238368,2157.479782,-1310.371019,-1216.136064,18451.566214,2730.913786,7110.849871,10493.205248,6004.013837,-607.319249,8744.963556,-109.800003,-951.112000,-234.240005,7700.000000,3500.000000,4620.000000
12885.758327,-582.709978,9218.105283,2600.133729,6385.133432,-3495.410501,2217.315402,-1264.594646,-1152.143020,18509.121956,2667.524239,7172.853610,10545.038944,6059.848495,-548.198885,8782.715652,-112.728004,-952.575989,-235.216003,7280.000000,3080.000000,4620.000000
12861.953719,-613.689496,9191.126727,2568.394252,6355.159742,-3521.919670,2194.024884,-1285.985265,-1180.417976,18486.144362,2546.131914,7144.980984,10520.027342,6033.115808,-570.215353,8766.264768,-107.360001,-955.504028,-236.680008,7560.000000,3080.000000,4480.000000
12794.294988,-685.460947,9123.691514,2491.347789,6281.197820,-3588.773738,2124.063924,-1344.032746,-1245.685070,18415.848126,2371.967122,7073.500106,10450.424010,5962.730165,-643.305557,8715.816881,-107.360001,-958.432007,-237.167999,8120.000000,3080.000000,4480.000000
12739.510863,-732.019631,9065.308757,2435.736649,6220.892813,-3649.168152,2064.228304,-1396.939325,-1293.473100,18353.218538,2108.149482,7016.681971,10389.940189,5903.833318,-700.213099,8670.956930,-104.919998,-960.872009,-238.143997,8400.000000,3220.000000,4480.000000
12670.980414,-799.343085,9000.064015,2365.172191,6149.635452,-3708.757902,1994.647323,-1451.052898,-1367.010339,18291.795944,2126.612023,6950.967842,10332.451502,5840.153198,-767.827126,8621.179595,-103.944000,-955.504028,-239.608002,8540.000000,3220.000000,4340.000000
12661.123295,-821.314850,8999.952257,2354.733927,6145.030993,-3701.135957,1991.607486,-1444.325023,-1385.137604,18290.946578,2256.207437,6944.575244,10336.720686,5840.130847,-770.621094,8618.631496,-110.288002,-952.575989,-235.216003,8960.000000,2940.000000,4060.000000
12729.117302,-753.298492,9066.761621,2417.743494,6211.594488,-3637.746410,2054.617054,-1386.188136,-1309.767522,18362.628622,2405.561794,7014.178576,10402.926553,5905.509699,-710.919584,8668.185314,-112.239998,-955.504028,-236.680008,9380.000000,4060.000000,3780.000000
12792.909180,-682.555220,9131.671087,2495.706379,6285.936390,-3575.340340,2125.405029,-1331.649879,-1245.193332,18430.577926,2672.642788,7083.759556,10468.797144,5973.168430,-636.063592,8721.896556,-108.335999,-954.040039,-236.680008,8960.000000,4620.000000,3500.000000
12860.590262,-602.670086,9202.503765,2583.079348,6369.151934,-3510.989667,2201.847995,-1278.788004,-1176.148793,18495.018005,2723.090675,7159.822543,10532.700781,6046.504503,-559.620626,8773.573789,-114.192001,-952.088013,-235.704010,8680.000000,3640.000000,3500.000000
12872.794315,-591.941248,9209.566916,2591.774177,6378.718481,-3510.117949,2209.604050,-1282.788966,-1162.380119,18504.338682,2581.022987,7169.903179,10537.081723,6054.014689,-551.998681,8777.507696,-114.192001,-957.944031,-237.167999,9100.000000,3220.000000,3500.000000
12813.428082,-659.689386,9147.250253,2523.489597,6313.518442,-3570.154735,2149.030822,-1336.567263,-1222.908643,18442.022019,2451.002890,7106.424225,10475.323853,5991.832136,-615.745856,8736.469893,-108.823997,-959.895996,-234.240005,9100.000000,3360.000000,3220.000000
12744.338840,-733.539550,9080.463240,2449.885303,6242.462247,-3631.644384,2081.036816,-1391.284334,-1294.367170,18370.854064,2186.335884,7037.022059,10407.799233,5925.380400,-684.656284,8689.307712,-109.800003,-959.895996,-235.704010,8680.000000,3080.000000,2940.000000
12673.193237,-807.792045,9007.931829,2371.788308,6160.677214,-3696.911478,2007.834853,-1448.907131,-1364.819868,18302.167154,2075.180659,6961.048479,10342.107456,5852.200789,-749.118715,8639.195101,-105.408005,-958.919983,-233.264008,8400.000000,2940.000000,2520.000000
12651.020306,-824.824074,8987.591742,2350.688261,6135.062115,-3713.474120,1982.286809,-1463.994558,-1381.583677,18282.139991,2222.746876,6938.674383,10323.779026,5830.541948,-774.666759,8622.833624,-104.431999,-962.335999,-237.167999,8540.000000,2240.000000,1960.000000
12704.820955,-763.915570,9045.371001,2413.317849,6198.205793,-3654.867846,2039.663737,-1411.378552,-1326.218406,18338.019352,2337.344269,6999.985218,10378.384337,5889.081167,-720.843759,8664.050241,-101.992004,-963.799988,-233.264008,8960.000000,1960.000000,1960.000000
12748.228043,-719.368544,9100.311589,2471.611198,6257.862599,-3593.936991,2101.712179,-1354.940397,-1294.076597,18394.457506,2570.472964,7053.741163,10435.560100,5949.386173,-654.861409,8707.770253,-103.944000,-964.776001,-236.192001,8820.000000,1960.000000,1680.000000
12802.274561,-681.325874,9160.549541,2527.937594,6322.816768,-3534.503702,2163.313587,-1300.223327,-1251.787096,18456.751818,2741.307347,7109.553469,10492.713510,6010.808767,-596.188080,8747.154027,-101.992004,-967.216003,-237.656006,8820.000000,1540.000000,1540.000000
12855.181140,-620.551481,9203.621352,2573.870429,6370.202466,-3502.719522,2197.779977,-1275.524649,-1183.636628,18499.242484,2616.092875,7161.342461,10530.331496,6053.545303,-567.086109,8767.337652,-101.015999,-969.168030,-243.024002,8820.000000,1400.000000,1400.000000
12820.491233,-659.577627,9158.940215,2523.489597,6319.285192,-3551.111049,2152.852971,-1318.350591,-1209.721113,18460.037525,2508.871556,7118.047132,10487.349091,6006.763101,-606.358124,8734.301774,-101.015999,-974.048035,-238.632004,9100.000000,1680.000000,1400.000000
12764.991851,-704.102302,9100.132775,2481.401262,6268.189105,-3611.907794,2102.874470,-1374.386415,-1258.626730,18394.211637,2289.153908,7065.811105,10425.166538,5949.207359,-648.960549,8693.599247,-101.503998,-974.536011,-238.632004,9100.000000,1820.000000,1260.000000
12701.199973,-772.677454,9033.815150,2404.913593,6193.869554,-3677.018425,2033.807580,-1432.232729,-1324.631432,18329.011599,2071.962008,6999.135852,10361.665232,5881.436870,-723.615375,8645.744162,-100.528000,-980.392029,-237.656006,9380.000000,1960.000000,1400.000000
12642.705458,-834.435324,8981.534419,2342.552226,6131.329373,-3724.158254,1982.063291,-1472.644683,-1390.367912,18278.496656,2177.596352,6939.680212,10311.507918,5828.642050,-770.911666,8611.300124,-102.480003,-979.416016,-241.559998,9520.000000,2240.000000,1540.000000
12676.411888,-787.027274,9022.125187,2393.357741,6179.229162,-3684.238039,2021.469417,-1438.088887,-1353.554589,18312.605418,2288.863336,6984.629570,10344.364982,5870.775088,-734.187750,8640.290337,-104.919998,-974.048035,-244.488007,9660.000000,2100.000000,1820.000000
12738.750903,-736.042945,9085.827659,2451.695794,6245.010346,-3621.116712,2084.054301,-1378.543839,-1294.993019,18383.728669,2482.362387,7048.376745,10410.727311,5934.790484,-676.632008,8686.759613,-108.823997,-972.096008,-243.512009,10220.000000,2100.000000,1400.000000
12792.730366,-692.725264,9143.316346,2509.877385,6301.292038,-3564.522095,2143.554645,-1326.486626,-1250.714213,18447.609955,2730.913786,7103.093815,10472.820458,5989.149927,-614.605917,8728.780893,-107.848000,-969.168030,-241.559998,10360.000000,2800.000000,980.000000
12852.454228,-628.285185,9204.224849,2580.039511,6373.689338,-3511.637868,2205.491329,-1283.817146,-1188.933991,18503.288150,2669.580599,7172.026595,10531.806711,6051.757163,-557.139582,8768.276425,-107.360001,-970.143982,-240.096008,10080.000000,3220.000000,840.000000
12839.199643,-636.532979,9182.901285,2566.784926,6356.769068,-3534.257833,2190.426253,-1305.923022,-1194.678389,18485.585569,2550.088173,7156.648595,10514.931144,6035.842721,-564.739175,8756.273539,-108.335999,-964.288025,-240.096008,9660.000000,3360.000000,840.000000
12779.453430,-688.970171,9116.963639,2506.882251,6291.613733,-3595.501613,2131.708220,-1361.154182,-1244.768649,18418.373873,2374.492869,7092.789661,10449.954623,5972.743746,-619.858577,8713.134672,-108.823997,-966.239990,-235.704010,9940.000000,3360.000000,980.000000
12714.968647,-757.411213,9052.948243,2433.948509,6222.725656,-3656.074841,2064.250656,-1417.257061,-1308.515824,18351.184529,2106.674267,7028.483692,10385.358082,5908.169557,-690.914773,8663.804372,-106.384003,-965.264038,-241.072006,9800.000000,3780.000000,840.000000
12658.776362,-811.636545,8994.900762,2370.760127,6156.095106,-3717.586841,1995.429635,-1474.008140,-1365.825697,18297.316825,2121.716991,6973.543104,10329.568127,5843.617719,-758.819373,8616.016342,-102.968002,-967.216003,-236.680008,9660.000000,3640.000000,840.000000
12664.409001,-799.544251,9006.903649,2392.284857,6171.718976,-3702.700579,2010.718228,-1457.579608,-1363.009377,18305.810488,2257.034452,6983.959017,10340.207558,5855.084164,-740.759163,8627.728656,-105.408005,-972.096008,-234.240005,9100.000000,4060.000000,700.000000
12708.643104,-757.522971,9066.001662,2448.611253,6236.226110,-3638.104038,2074.666569,-1397.140491,-1330.979327,18362.360401,2396.844613,7038.184349,10398.567962,5919.211318,-677.481374,8676.433107,-108.335999,-977.952026,-238.632004,8960.000000,3920.000000,840.000000
12758.465142,-714.205291,9121.366933,2495.147585,6287.299846,-3581.732938,2135.105686,-1343.965691,-1284.353588,18421.503117,2658.695299,7085.525344,10449.418181,5973.190781,-612.415446,8721.918907,-103.456001,-974.536011,-236.192001,8960.000000,4060.000000,1120.000000
12832.449416,-647.977072,9191.171430,2563.208647,6357.014937,-3520.377400,2201.468015,-1291.014408,-1207.262422,18491.553484,2717.167463,7153.921682,10507.778586,6039.128427,-549.450582,8766.287120,-111.264000,-968.192017,-237.656006,8820.000000,3780.000000,1400.000000
12856.701059,-625.401810,9202.727282,2578.229019,6368.593141,-3517.918708,2205.491329,-1294.769501,-1173.131308,18509.233714,2584.509860,7172.853610,10522.441330,6049.700803,-546.656614,8765.571864,-112.239998,-967.704041,-239.608002,8820.000000,3780.000000,840.000000
12797.133660,-684.768043,9137.795465,2514.191272,6302.387274,-3580.034206,2141.632395,-1351.922912,-1227.334288,18446.022981,2454.199189,7111.453368,10469.400641,5987.250029,-613.957717,8719.437864,-108.335999,-967.704041,-238.143997,8960.000000,4760.000000,140.000000
12734.414665,-747.710556,9070.024976,2451.718146,6238.774209,-3640.853303,2081.685016,-1402.236688,-1288.823937,18375.369117,2190.605067,7047.348565,10408.380378,5923.838130,-678.867183,8678.489468,-104.919998,-963.312012,-236.680008,8680.000000,5320.000000,0.000000
12662.866731,-823.751190,8998.342931,2368.212029,6159.157295,-3705.718065,2003.520966,-1460.552390,-1362.741156,18305.184639,2071.157345,6974.995968,10343.359154,5852.133733,-758.081765,8627.102807,-101.503998,-964.776001,-237.656006,8820.000000,4760.000000,0.000000
12630.389646,-863.000853,8975.432393,2332.940976,6128.825978,-3723.085370,1977.324721,-1471.951779,-1401.655543,18281.022403,2216.197814,6945.759886,10318.749883,5827.457407,-780.724082,8612.775339,-104.431999,-963.312012,-239.608002,9380.000000,4480.000000,140.000000
12688.101851,-785.149727,9036.586766,2412.177910,6199.569249,-3665.283759,2041.608339,-1421.481540,-1335.293214,18338.019352,2331.488112,7010.937573,10370.225951,5888.254152,-709.243203,8655.109543,-103.456001,-961.359985,-237.656006,9800.000000,4760.000000,140.000000
12746.082276,-720.910814,9101.451528,2482.720015,6270.401927,-3602.430654,2108.730627,-1366.719766,-1281.894896,18404.314626,2569.869467,7077.188143,10431.559137,5954.102391,-640.064554,8703.523422,-102.968002,-966.728027,-238.143997,9100.000000,4900.000000,0.000000
12811.036445,-651.016909,9169.490238,2550.490505,6343.693297,-3537.878816,2176.255247,-1306.995905,-1219.622936,18469.626423,2746.470600,7146.500903,10491.886496,6021.515253,-579.334865,8753.703088,-103.944000,-976.488037,-236.192001,9100.000000,4480.000000,140.000000
12848.073286,-615.120007,9208.918716,2596.848023,6392.107176,-3502.540708,2222.344544,-1276.038739,-1185.245953,18504.875124,2619.490340,7185.661159,10523.782435,6066.397556,-531.055097,8783.877943,-103.456001,-966.239990,-238.632004,8960.000000,4340.000000,560.000000
12805.001474,-671.826383,9161.890645,2541.102772,6339.669983,-3549.725240,2171.382567,-1322.262147,-1226.909605,18461.378629,2507.485748,7135.995583,10479.414222,6019.391837,-581.614742,8745.991736,-108.823997,-959.895996,-236.192001,8540.000000,3360.000000,420.000000
12751.424343,-722.207215,9097.115290,2480.954228,6274.782869,-3615.260555,2104.707313,-1383.729444,-1264.460536,18397.497344,2287.343417,7079.490373,10419.623306,5952.068383,-649.496990,8694.269800,-114.680000,-960.872009,-235.216003,8820.000000,3640.000000,-140.000000
12675.137839,-800.550079,9023.890975,2409.406294,6202.810252,-3682.338140,2039.261405,-1441.173427,-1345.060926,18324.921229,2059.825010,7008.970619,10359.430058,5882.532106,-711.478378,8648.627537,-111.751999,-962.335999,-238.143997,8400.000000,5040.000000,-700.000000
12612.552954,-868.767603,8966.022309,2340.026479,6130.144731,-3733.143655,1977.861163,-1484.066425,-1414.507796,18273.422810,2165.034671,6943.792932,10312.670209,5822.629431,-768.207105,8608.953191,-107.848000,-961.848022,-235.704010,7840.000000,5040.000000,-980.000000
12651.847321,-821.493664,9004.668475,2381.556020,6169.349691,-3696.352684,2011.344077,-1450.114125,-1367.792650,18311.823107,2281.531964,6984.987198,10345.415514,5858.682794,-741.206198,8635.171787,-104.919998,-962.824036,-236.192001,8120.000000,4480.000000,-1120.000000
12713.851060,-745.162457,9075.568208,2464.033957,6249.838322,-3625.877634,2084.568391,-1389.384435,-1308.672286,18379.660652,2472.952303,7058.770306,10412.850727,5932.331792,-672.698101,8688.637160,-107.848000,-960.384033,-234.240005,8820.000000,4480.000000,-1260.000000
12757.056982,-721.089628,9132.520453,2509.162129,6305.382407,-3564.678557,2150.215465,-1332.275728,-1274.787042,18439.004533,2721.861329,7105.217231,10468.886551,5992.010950,-601.396036,8737.274556,-107.360001,-968.192017,-235.216003,8960.000000,5040.000000,-1400.000000
12833.052913,-639.773982,9196.982884,2574.093947,6371.096536,-3511.548461,2207.145358,-1288.041626,-1174.740633,18505.076290,2670.541724,7173.479459,10522.396627,6052.047736,-545.203751,8775.853667,-101.992004,-973.072021,-237.167999,8960.000000,5040.000000,-1540.000000
12811.259962,-639.975147,9178.363881,2571.255275,6358.490152,-3533.296708,2194.091939,-1310.236908,-1187.905811,18483.462153,2545.953100,7159.129639,10500.938952,6037.452047,-549.763507,8764.454277,-100.040001,-974.536011,-236.192001,8820.000000,4760.000000,-1260.000000
12737.052171,-716.149892,9110.392226,2499.439120,6286.964570,-3598.832023,2126.992002,-1368.507906,-1261.040719,18413.925876,2372.369453,7088.274609,10434.598975,5967.915770,-617.221071,8714.989867,-112.239998,-966.239990,-234.727997,8400.000000,4340.000000,-1120.000000
12661.659737,-790.536498,9045.371001,2440.989308,6228.626517,-3657.170076,2070.173868,-1419.268718,-1339.964728,18344.724875,2104.684961,7025.242689,10376.372680,5908.929516,-675.179145,8672.543904,-112.239998,-965.264038,-239.608002,8120.000000,4340.000000,-1540.000000
12590.827059,-868.208810,8976.438222,2352.096421,6144.002812,-3719.866719,1993.015646,-1476.779756,-1407.399941,18282.922302,2111.993982,6952.800686,10322.124996,5837.448637,-756.003053,8619.704380,-109.800003,-966.239990,-240.096008,8120.000000,5180.000000,-1820.000000
