56.929893,5102.255059,1230.396477,-5456.418449,9928.354314,7548.385268,3242.567568,-3929.660193,-7802.703417,13541.379695,8316.190042,15564.950176,16254.590899,14994.757175,5978.264627,6692.715787,18.544001,-860.832031,-500.200012,3780.000000,280.000000,-280.000000
-19023.055616,-118647.552269,11697.427833,158241.924136,39580.267916,65930.627695,-118667.713543,91918.956270,142142.744916,-177213.637795,134826.437810,64516.611638,-114199.264550,-178687.623583,-83469.974514,-135131.852046,18.544001,-860.832031,-500.200012,3780.000000,280.000000,-280.000000
-46.983367,5042.218273,1041.837161,-5587.019692,10176.995120,7571.407565,3301.598525,-3857.262892,-7120.908156,13483.041642,8345.604938,15633.122996,16489.753603,15187.965654,6274.447593,6888.673531,14.152000,-842.776001,-539.239990,2520.000000,-280.000000,2380.000000
-48.369175,5042.620604,1032.158855,-5587.645541,10173.172971,7565.327891,3297.955191,-3853.954834,-7122.539833,13483.019290,8344.621461,15631.983057,16489.038347,15183.003567,6268.636139,6886.147784,15.616000,-839.359985,-540.216003,2660.000000,280.000000,2240.000000
-43.295329,5051.248378,1023.329916,-5544.350212,10172.904750,7558.220036,3307.029999,-3839.068572,-7139.951842,13442.920261,8303.248382,15601.875258,16445.877128,15135.729627,6233.879177,6861.069126,19.032000,-842.288025,-538.752014,2800.000000,420.000000,2240.000000
-30.599538,5065.352328,1019.932451,-5478.747842,10178.291521,7556.878931,3321.223357,-3821.813026,-7160.738964,13386.929141,8246.296137,15559.921033,16385.706232,15070.037850,6187.879287,6824.188748,20.984001,-837.408020,-538.263977,2800.000000,700.000000,1960.000000
-26.129189,5069.509753,1019.507768,-5432.412676,10180.526695,7556.029565,3328.800598,-3816.403904,-7176.742813,13345.623117,8204.744244,15527.890984,16340.332191,15024.194422,6154.195208,6796.897268,18.544001,-840.335999,-539.239990,2660.000000,980.000000,1680.000000
-30.130152,5064.055927,1024.022820,-5428.501121,10182.292483,7559.538789,3328.107694,-3823.243537,-7175.513467,13338.761132,8200.720930,15521.990123,16333.604316,15022.115710,6152.831751,6793.455099,17.568001,-840.824036,-538.752014,2520.000000,1540.000000,1540.000000
-40.769582,5052.120096,1030.661289,-5465.672072,10183.879457,7566.423126,3322.787979,-3837.950985,-7165.879865,13368.332490,8232.750980,15542.643135,16368.718906,15062.482961,6180.950246,6815.382161,19.520000,-837.895996,-540.703979,2660.000000,1540.000000,980.000000
-46.335166,5046.710974,1038.350289,-5523.250165,10184.527658,7573.061594,3314.227261,-3850.110334,-7142.187016,13421.730807,8286.953960,15583.658586,16427.146366,15124.598458,6225.094941,6850.988490,18.544001,-840.335999,-544.608032,2100.000000,1820.000000,560.000000
-47.519809,5047.806209,1041.457181,-5572.424003,10182.538352,7574.693271,3305.063046,-3855.586512,-7117.175414,13467.015441,8334.652583,15621.142461,16474.710879,15173.168799,6258.868427,6879.218743,16.592001,-838.384033,-543.143982,1960.000000,1960.000000,280.000000
-49.017376,5049.862570,1036.964481,-5588.047873,10179.833791,7569.820591,3301.822043,-3851.227921,-7108.726455,13480.851171,8350.075287,15632.698313,16489.328920,15184.791706,6269.217285,6886.237191,13.176001,-841.799988,-541.679993,1960.000000,2100.000000,-140.000000
-49.062079,5053.863532,1027.263823,-5558.744736,10176.101050,7562.355109,3303.833700,-3838.263910,-7119.343533,13452.799732,8323.543766,15611.173583,16460.696335,15150.995869,6243.915110,6866.433545,12.200000,-844.728027,-540.703979,1540.000000,1820.000000,-420.000000
-39.003794,5066.782840,1021.541777,-5496.338665,10178.895018,7556.878931,3314.160206,-3822.058895,-7138.588385,13399.334359,8267.418536,15570.694574,16403.207648,15087.293397,6196.328246,6828.994373,9.760000,-843.264038,-538.263977,1400.000000,1820.000000,-700.000000
-27.067963,5077.846954,1023.218158,-5436.637156,10186.896942,7557.437725,3331.259290,-3810.458340,-7153.519351,13352.015716,8215.696599,15533.054237,16348.602336,15031.682257,6156.430382,6796.159660,7.320000,-846.192017,-539.239990,1120.000000,1680.000000,-840.000000
-23.692849,5079.411576,1029.655460,-5413.056065,10192.015492,7562.355109,3338.970642,-3813.542880,-7160.135467,13333.284954,8195.378863,15517.586829,16327.681104,15013.756158,6142.058211,6783.106242,4.880000,-841.799988,-541.679993,840.000000,980.000000,-700.000000
-30.778352,5068.012186,1034.416382,-5439.632289,10191.210829,7568.010100,3333.628575,-3826.730409,-7152.982909,13353.066248,8217.216518,15532.987181,16352.849168,15042.008763,6159.850199,6799.199498,5.368000,-840.335999,-545.096008,700.000000,700.000000,-700.000000
-38.601463,5057.730384,1042.060678,-5494.259953,10190.987312,7572.726318,3326.185444,-3839.448552,-7135.593252,13398.350882,8264.289291,15569.398173,16404.079366,15098.871600,6200.776243,6833.352963,4.880000,-839.848022,-542.168030,140.000000,140.000000,-700.000000
-47.788030,5050.778991,1045.502847,-5552.419192,10187.075756,7575.073251,3312.752046,-3848.478657,-7116.370751,13446.943575,8315.541841,15608.826650,16459.936376,15156.829674,6240.070610,6865.561827,4.392000,-843.264038,-542.656006,-420.000000,-840.000000,-700.000000
-52.392489,5050.957805,1039.266710,-5581.632922,10179.967902,7571.496972,3301.598525,-3853.373689,-7104.837251,13471.083459,8341.313403,15630.820767,16487.809001,15181.617758,6257.102639,6875.977740,2.928000,-838.872009,-539.239990,-700.000000,-1120.000000,-560.000000
-51.207847,5058.736212,1027.688507,-5565.137334,10175.475201,7563.651510,3303.051389,-3845.707041,-7113.353266,13454.163188,8323.499062,15619.689598,16471.291062,15158.729572,6241.814046,6862.343176,6.344000,-839.848022,-540.216003,-980.000000,-1960.000000,-420.000000
-41.440134,5069.643863,1020.982983,-5509.660305,10177.442155,7558.354146,3315.836586,-3826.641002,-7136.912005,13404.519964,8275.755736,15581.646929,16419.323256,15101.531458,6203.123176,6831.207196,7.320000,-839.848022,-543.632019,-1680.000000,-2240.000000,-420.000000
-29.884282,5079.702148,1018.770161,-5448.818856,10182.426594,7555.671937,3328.018287,-3816.649773,-7156.581540,13351.345164,8221.038666,15542.039638,16361.834569,15039.103036,6159.827847,6795.779681,7.808000,-838.872009,-546.072021,-1960.000000,-2660.000000,-280.000000
-27.805570,5076.930532,1019.172492,-5418.196966,10184.505306,7556.588358,3331.505159,-3815.532185,-7166.215142,13322.511413,8193.255448,15518.235030,16331.816176,15008.592905,6134.011583,6776.847753,6.344000,-840.335999,-544.119995,-1960.000000,-2940.000000,0.000000
-30.554835,5069.353291,1025.341573,-5427.025905,10187.276922,7561.885722,3330.476979,-3822.260061,-7159.889598,13331.116835,8202.889049,15522.861841,16342.030924,15022.249821,6141.767638,6781.876896,9.272000,-843.264038,-542.656006,-1960.000000,-3080.000000,-140.000000
-37.863855,5060.904331,1035.690431,-5469.270703,10192.104899,7571.273455,3329.269985,-3832.787732,-7148.065525,13368.041917,8240.507035,15551.203853,16382.733450,15070.596644,6181.553743,6809.905983,11.224000,-843.752014,-541.679993,-1680.000000,-2940.000000,-140.000000
-46.916312,5053.260035,1041.211312,-5526.826444,10190.674387,7576.816687,3323.235014,-3843.360107,-7132.933394,13415.226449,8288.920914,15588.821839,16438.366942,15129.426435,6228.715924,6845.199388,13.176001,-841.799988,-543.143982,-980.000000,-2940.000000,-420.000000
-50.917274,5050.175494,1037.769143,-5569.205352,10182.828925,7572.502801,3309.287525,-3848.836285,-7117.845967,13452.620918,8325.890699,15618.035569,16477.571902,15167.558511,6254.979224,6865.338309,17.080000,-841.312012,-536.799988,-700.000000,-2800.000000,-840.000000
-45.619910,5058.870323,1033.008222,-5567.797192,10181.420765,7568.233617,3308.304049,-3837.816875,-7115.342571,13454.945499,8327.947060,15621.991828,16477.728364,15166.172703,6252.833456,6864.757164,20.007999,-842.776001,-535.335999,-560.000000,-2940.000000,-1260.000000
-40.948396,5068.503924,1024.223986,-5521.931412,10180.571399,7562.355109,3317.244746,-3821.477750,-7134.140388,13413.974752,8286.238704,15590.989958,16432.980172,15117.356493,6217.987087,6836.996297,22.936001,-840.824036,-536.799988,-560.000000,-2660.000000,-1540.000000
-33.482913,5079.433927,1020.781818,-5455.457324,10188.327454,7560.321100,3332.712154,-3805.585659,-7161.275406,13355.323774,8225.911346,15546.264118,16370.551750,15052.067048,6174.088260,6799.065387,21.472000,-840.335999,-534.359985,-280.000000,-2800.000000,-1960.000000
-28.140846,5084.105442,1023.106399,-5410.262097,10194.563591,7561.595149,3343.865674,-3796.488499,-7175.379357,13318.711617,8188.159250,15516.558649,16329.871575,15009.375216,6143.600481,6776.445422,23.912001,-840.824036,-535.335999,-280.000000,-2240.000000,-2520.000000
-27.760867,5077.556381,1028.247300,-5408.585716,10193.423652,7563.495048,3342.681032,-3804.669238,-7173.434755,13316.118814,8186.572276,15513.518812,16325.937668,15008.659960,6139.823036,6776.668939,23.424000,-841.799988,-531.432007,280.000000,-2240.000000,-2520.000000
-30.219559,5068.727442,1037.031536,-5446.494275,10191.791975,7569.038280,3334.857921,-3822.617688,-7159.733136,13349.914652,8220.569279,15538.373952,16362.795694,15049.049562,6167.874475,6798.126614,20.496000,-838.384033,-533.384033,700.000000,-2240.000000,-2660.000000
-35.651032,5061.373718,1044.094687,-5501.613677,10191.344940,7573.083946,3326.520720,-3838.755648,-7143.349307,13400.228429,8269.787821,15575.790772,16415.098776,15108.639313,6211.862709,6829.441408,21.472000,-835.455994,-531.432007,1260.000000,-2240.000000,-2800.000000
-40.769582,5057.126887,1042.619472,-5550.340480,10186.941646,7571.988710,3314.763703,-3849.126857,-7129.066542,13443.926089,8312.010266,15609.519554,16460.405762,15154.303927,6246.038526,6855.637652,22.936001,-829.600037,-534.848022,1400.000000,-2800.000000,-2380.000000
-42.401259,5058.624453,1036.606853,-5567.528971,10182.113669,7569.261798,3308.549918,-3848.702174,-7124.216214,13459.013517,8325.533071,15623.332932,16476.119039,15164.943357,6252.967567,6864.332481,22.936001,-830.575989,-536.799988,1400.000000,-3080.000000,-2100.000000
-37.081544,5066.782840,1029.476646,-5537.801151,10183.208905,7563.249178,3313.020267,-3837.682764,-7137.068467,13435.700647,8299.448585,15606.010330,16450.012201,15130.924002,6229.073552,6846.518141,20.496000,-827.160034,-541.192017,980.000000,-3640.000000,-1540.000000
-31.694774,5072.907218,1023.531082,-5478.904304,10185.086451,7556.588358,3324.084380,-3825.366953,-7161.074240,13380.983577,8248.173684,15565.352507,16393.506991,15067.221530,6185.353540,6810.755349,17.080000,-830.575989,-540.703979,280.000000,-3360.000000,-840.000000
-26.933852,5075.097689,1021.161797,-5424.500158,10186.539315,7557.191856,3335.349659,-3813.878156,-7182.218991,13328.993419,8200.922096,15526.259306,16343.327325,15012.459756,6144.740420,6782.547448,14.152000,-832.528015,-542.656006,-140.000000,-2660.000000,-280.000000
-24.430457,5073.309549,1026.883844,-5405.747045,10189.959131,7564.500876,3341.429334,-3810.301877,-7188.723348,13313.503660,8185.521744,15512.848260,16327.144662,14999.428689,6133.385734,6779.082928,11.224000,-833.504028,-546.072021,-420.000000,-1960.000000,280.000000
-27.716163,5068.950959,1036.293928,-5425.573042,10193.714225,7571.854600,3339.618843,-3820.941308,-7182.934246,13332.569698,8203.693712,15526.147548,16347.149473,15026.317838,6151.624757,6792.113995,9.272000,-836.432007,-544.608032,-420.000000,-1120.000000,840.000000
-34.242873,5061.485477,1045.212274,-5476.087985,10194.027149,7575.654396,3331.035773,-3836.095790,-7165.812810,13377.183780,8247.816056,15560.882158,16396.099793,15080.453763,6191.656732,6819.763103,8.296000,-838.872009,-544.119995,-280.000000,140.000000,1260.000000
-43.652957,5051.918930,1048.162704,-5536.392991,10189.132117,7576.950798,3320.865729,-3846.712869,-7144.153970,13431.453816,8301.750815,15600.377691,16452.381486,15140.222328,6238.729505,6855.436487,6.832000,-837.408020,-544.608032,-140.000000,1260.000000,1540.000000
-45.731669,5051.293081,1045.525199,-5564.489134,10184.594713,7575.363824,3315.031924,-3844.142418,-7131.882862,13459.281738,8326.918879,15619.153156,16480.522332,15165.546854,6262.847038,6873.407289,5.856000,-837.895996,-541.192017,280.000000,1960.000000,1820.000000
-43.384736,5056.881017,1036.360983,-5550.921625,10181.040785,7568.434783,3312.707342,-3836.051087,-7135.749714,13446.943575,8315.117158,15610.927714,16467.267748,15145.989078,6248.072535,6864.354833,6.344000,-841.312012,-544.119995,420.000000,2660.000000,1820.000000
-35.248701,5069.509753,1027.733210,-5498.439729,10181.621931,7562.556274,3321.536281,-3820.606031,-7154.703993,13399.624932,8270.458373,15575.611958,16416.328122,15091.808449,6208.219374,6833.576481,5.856000,-840.335999,-542.168030,980.000000,3220.000000,1680.000000
-26.285651,5078.673968,1024.961594,-5438.827627,10183.588884,7559.404678,3332.779209,-3808.558441,-7176.295778,13346.137207,8218.222346,15536.272888,16358.012421,15033.783321,6163.694699,6798.573649,8.784000,-840.824036,-545.583984,1400.000000,3220.000000,1120.000000
-22.731724,5081.177364,1028.537873,-5404.405940,10186.539315,7560.835190,3339.887063,-3807.440854,-7187.426947,13316.744663,8187.332235,15513.675274,16323.277810,15001.954437,6140.158312,6778.211210,6.832000,-833.992004,-544.608032,1540.000000,2940.000000,700.000000
-23.156407,5077.846954,1037.970309,-5408.250440,10194.362425,7568.457135,3345.385593,-3812.961735,-7180.855534,13323.763111,8192.763709,15518.704417,16330.296258,15013.107957,6150.484818,6782.949779,7.320000,-835.944031,-541.192017,1680.000000,2520.000000,280.000000
-34.846370,5064.480610,1046.955710,-5457.267816,10196.105861,7575.855562,3337.718944,-3826.752761,-7166.058679,13366.030260,8234.293250,15550.801522,16377.860770,15065.813370,6188.303970,6813.839890,8.296000,-834.479980,-542.656006,1680.000000,2100.000000,-280.000000
-51.967806,5048.655575,1047.469800,-5524.926546,10187.567495,7577.844867,3320.798674,-3843.047183,-7147.864359,13420.769682,8289.323245,15592.174601,16440.736227,15130.521671,6231.755761,6852.798981,9.272000,-835.944031,-543.632019,1680.000000,1260.000000,-700.000000
-57.153411,5048.744982,1047.536856,-5564.489134,10183.767698,7578.604827,3314.115502,-3845.461171,-7137.604909,13455.258424,8323.364952,15619.019046,16481.349347,15169.033726,6260.343642,6876.268312,9.272000,-835.455994,-540.703979,1680.000000,280.000000,-1540.000000
-50.984329,5058.423288,1042.328899,-5559.594102,10184.348844,7575.028548,3317.758836,-3834.687630,-7136.599080,13454.252595,8321.666219,15617.275610,16480.052946,15162.216444,6259.561331,6872.155592,11.712000,-834.479980,-544.608032,1540.000000,-840.000000,-2240.000000
-39.786105,5070.225009,1034.684603,-5515.784683,10183.410070,7568.099507,3324.821988,-3822.617688,-7146.702069,13419.070949,8285.501097,15589.760612,16438.992791,15114.562525,6226.190177,6845.489960,13.664001,-833.992004,-543.143982,1120.000000,-1540.000000,-2660.000000
-31.426553,5079.366872,1029.364887,-5459.145362,10184.550009,7563.651510,3334.589700,-3811.218299,-7167.198618,13369.450077,8236.506073,15551.405019,16385.929750,15056.023306,6182.738386,6814.599850,13.176001,-833.504028,-545.583984,840.000000,-2520.000000,-3080.000000
-29.660765,5079.255114,1026.593271,-5415.805330,10187.098108,7561.550446,3341.094058,-3808.759607,-7187.739871,13328.993419,8196.898782,15517.072739,16343.148511,15010.090472,6150.775391,6790.884649,11.224000,-832.528015,-545.096008,420.000000,-3080.000000,-3360.000000
-29.996041,5079.456279,1034.841065,-5402.908373,10195.837640,7567.540713,3347.933691,-3811.642982,-7196.345293,13317.303457,8185.186468,15507.506193,16331.369142,15003.630817,6147.042650,6784.983788,13.664001,-833.504028,-543.632019,140.000000,-3780.000000,-3780.000000
-34.019355,5072.415480,1044.742888,-5438.313536,10197.938704,7575.944969,3342.725735,-3821.500101,-7185.236476,13347.902995,8216.545965,15530.684952,16365.544959,15044.556861,6172.613045,6806.977905,10.736000,-834.968018,-545.096008,-280.000000,-4480.000000,-4200.000000
-43.049460,5059.742041,1048.922664,-5500.026703,10192.462527,7580.191801,3327.168921,-3836.274604,-7165.455182,13398.954379,8267.686757,15571.968624,16421.916058,15106.828822,6212.779130,6840.282004,10.248000,-833.992004,-545.096008,-280.000000,-4760.000000,-4060.000000
-46.245759,5056.791610,1048.699146,-5548.194712,10189.154469,7579.230676,3318.228223,-3841.527264,-7146.009165,13439.813368,8306.891716,15607.530249,16465.814884,15156.829674,6248.027831,6866.746469,8.784000,-833.992004,-543.632019,0.000000,-5040.000000,-4200.000000
-42.401259,5063.474782,1045.234626,-5562.656291,10186.539315,7576.861391,3315.970697,-3838.845055,-7134.743885,13454.565520,8321.040371,15621.678903,16480.701146,15169.503113,6256.409735,6875.083670,6.344000,-834.968018,-540.703979,0.000000,-5180.000000,-3920.000000
-38.109724,5075.097689,1036.964481,-5535.141293,10183.566533,7569.328853,3319.412866,-3828.876177,-7140.667098,13430.358580,8299.560344,15605.362130,16455.197806,15136.109607,6231.129912,6858.252806,7.320000,-833.015991,-545.583984,140.000000,-4900.000000,-3640.000000
-35.427515,5080.663273,1026.190940,-5482.055900,10181.152544,7560.276396,3327.124217,-3816.314497,-7159.263749,13381.609426,8250.721783,15566.134818,16401.732433,15076.050469,6190.740310,6825.954536,10.248000,-831.552002,-541.679993,560.000000,-4760.000000,-3500.000000
-33.169989,5079.590390,1021.005335,-5432.412676,10181.286655,7556.454248,3334.321479,-3810.614802,-7179.536781,13337.241213,8203.939581,15529.053274,16352.782113,15023.300352,6155.871589,6798.350131,13.176001,-836.919983,-541.192017,840.000000,-4480.000000,-3080.000000
-30.756000,5076.550552,1026.615623,-5412.340809,10184.661768,7559.427030,3337.875406,-3814.235784,-7185.504697,13321.572640,8186.616979,15513.205887,16334.945421,15007.274152,6141.410010,6789.252971,16.104000,-833.504028,-539.239990,1400.000000,-4060.000000,-2800.000000
-32.208864,5070.359119,1037.031536,-5434.156112,10189.869724,7567.607768,3337.674241,-3823.176482,-7176.340482,13342.337411,8208.789910,15527.153376,16356.917185,15035.638515,6159.671385,6805.457986,15.616000,-834.968018,-539.728027,1400.000000,-3780.000000,-2520.000000
-35.807495,5065.866419,1047.894484,-5487.956761,10192.529582,7575.408527,3332.175712,-3832.944194,-7153.496999,13392.092394,8258.723707,15566.358336,16408.661474,15095.340025,6202.139700,6840.147893,16.104000,-834.968018,-540.216003,1820.000000,-3080.000000,-2100.000000
-44.614082,5059.965558,1050.755507,-5546.875959,10188.998006,7577.308426,3321.558633,-3842.287224,-7132.799284,13442.696743,8309.931554,15606.658531,16461.702163,15154.303927,6245.278567,6873.496696,20.984001,-835.944031,-536.312012,2100.000000,-2660.000000,-1820.000000
-52.928931,5058.155067,1045.592254,-5575.799117,10183.320663,7573.799202,3313.668467,-3843.807142,-7124.216214,13464.802619,8334.429066,15625.746921,16487.406670,15179.427288,6263.495238,6887.533592,20.984001,-834.968018,-536.312012,2520.000000,-2100.000000,-1540.000000
-53.353614,5062.491305,1036.875074,-5559.795268,10180.683158,7567.808934,3314.204909,-3834.620575,-7132.598118,13447.703534,8320.012190,15614.503993,16471.916911,15158.126075,6249.033660,6876.223609,21.472000,-839.848022,-535.824036,2940.000000,-1680.000000,-1400.000000
-45.284634,5073.823640,1028.716687,-5504.139424,10181.286655,7562.623329,3324.777284,-3818.192043,-7151.507694,13401.927161,8270.681890,15578.405926,16419.658532,15099.251580,6208.018209,6843.210082,21.960001,-837.408020,-538.263977,3220.000000,-1260.000000,-1120.000000
-34.064059,5083.814869,1025.676850,-5442.180388,10184.035919,7560.477562,3337.741296,-3806.770302,-7169.746717,13353.066248,8219.250526,15538.306896,16361.387534,15036.867861,6165.818115,6808.117844,21.472000,-835.944031,-534.848022,3500.000000,-980.000000,-840.000000
-24.966899,5090.900372,1030.974213,-5404.808272,10191.076719,7564.143248,3348.492485,-3804.736293,-7177.458069,13324.858347,8188.114546,15516.312780,16328.552822,15003.697873,6142.259376,6789.610599,23.424000,-838.872009,-532.895996,3920.000000,-560.000000,-840.000000
-23.581090,5087.212335,1039.490228,-5410.977353,10192.373120,7568.479487,3346.592587,-3814.839281,-7169.254979,13332.614402,8194.127166,15522.861841,16336.286525,15014.650227,6143.444019,6792.270457,25.375999,-837.895996,-532.895996,4060.000000,-420.000000,-700.000000
-31.068925,5075.857648,1047.648614,-5461.000557,10188.729786,7574.872085,3336.221377,-3832.005421,-7147.283214,13376.200304,8236.573128,15557.372935,16384.610997,15068.853208,6175.854048,6820.545414,26.352001,-836.432007,-529.968018,4060.000000,0.000000,-700.000000
-38.757925,5065.307625,1054.354138,-5527.608756,10185.488783,7581.421147,3324.464360,-3843.114238,-7115.610792,13437.689953,8297.258114,15603.372825,16450.570995,15136.020200,6224.156168,6860.890312,26.352001,-839.359985,-531.919983,4200.000000,0.000000,-840.000000
-51.341957,5054.131753,1048.520332,-5572.803983,10175.721070,7575.699100,3314.763703,-3848.724526,-7100.903344,13473.139819,8336.351316,15628.295020,16490.088879,15173.772296,6258.846075,6886.438356,24.888000,-837.895996,-534.359985,4200.000000,140.000000,-700.000000
-53.040690,5057.819791,1037.813847,-5567.350157,10172.949454,7567.071327,3314.517834,-3842.466038,-7104.278458,13463.215645,8329.198757,15621.656552,16482.601044,15164.161046,6255.225093,6881.409214,23.912001,-838.872009,-535.335999,4060.000000,140.000000,-840.000000
-45.754021,5068.459221,1029.811922,-5522.333744,10172.547123,7561.863370,3322.564462,-3827.490369,-7119.231775,13422.535470,8289.680873,15592.040490,16439.640992,15118.116452,6222.211566,6855.101210,21.472000,-838.872009,-535.335999,4200.000000,560.000000,-1120.000000
-34.645204,5078.942189,1025.229815,-5460.128839,10175.408146,7556.253082,3335.975508,-3815.129854,-7138.297813,13368.556007,8234.628527,15552.410847,16379.470096,15053.944594,6179.586790,6817.058541,22.936001,-838.872009,-535.824036,4200.000000,700.000000,-1260.000000
-25.101009,5087.011169,1026.459161,-5407.758702,10182.314835,7557.705946,3350.884122,-3807.910241,-7156.715650,13326.758245,8187.891029,15520.827832,16332.486729,15005.798937,6147.109705,6787.710701,21.472000,-839.848022,-536.799988,4200.000000,840.000000,-1400.000000
-25.503340,5084.261904,1032.829408,-5398.773301,10187.098108,7563.338585,3357.410831,-3808.737255,-7161.811848,13319.181003,8178.458593,15513.518812,16323.635438,15001.395643,6143.309908,6784.156774,20.007999,-839.359985,-537.776001,4340.000000,980.000000,-1400.000000
-29.705468,5072.907218,1042.485361,-5435.050182,10188.327454,7569.530019,3351.822895,-3820.449569,-7145.785647,13351.076943,8209.326352,15537.010495,16357.744200,15041.137045,6171.070775,6807.469643,14.640000,-835.944031,-537.776001,4340.000000,980.000000,-1680.000000
-37.059192,5060.189075,1047.134524,-5495.556354,10185.041748,7571.854600,3339.015345,-3835.425238,-7120.416417,13403.156507,8262.009413,15577.623615,16414.584686,15102.917266,6216.645982,6844.595891,16.592001,-836.919983,-540.216003,4340.000000,1120.000000,-1820.000000
-42.647128,5055.428154,1048.699146,-5547.635919,10181.979559,7574.536809,3329.247633,-3842.600148,-7103.719664,13448.105865,8310.333885,15614.548697,16464.831408,15155.689735,6256.946177,6876.491830,14.152000,-838.384033,-544.119995,4340.000000,1400.000000,-2100.000000
-43.250626,5058.043308,1043.602949,-5563.617416,10176.257512,7569.530019,3324.151435,-3840.789657,-7100.903344,13460.086401,8326.225975,15626.149252,16480.164704,15167.893787,6265.395137,6882.862077,15.128000,-837.408020,-543.143982,4620.000000,1260.000000,-2240.000000
-38.355593,5066.000529,1035.757486,-5534.426038,10173.038861,7563.137420,3326.364258,-3828.742066,-7112.526251,13432.861976,8302.555478,15606.055034,16453.476721,15134.075598,6239.757686,6863.371356,11.712000,-832.528015,-540.703979,4340.000000,1120.000000,-2380.000000
-26.308003,5080.037425,1030.996565,-5473.070499,10176.972768,7561.349280,3340.177636,-3811.888851,-7133.045153,13381.341205,8249.492437,15565.128990,16396.949160,15072.407135,6197.624647,6828.413228,10.248000,-836.919983,-542.656006,4620.000000,840.000000,-2520.000000
-16.629698,5090.408634,1029.700164,-5413.458397,10181.510172,7561.371632,3353.409869,-3802.791691,-7152.714688,13332.122664,8197.211706,15524.717036,16340.980392,15015.454890,6157.592673,6795.131480,9.272000,-834.968018,-543.143982,4340.000000,560.000000,-2660.000000
-19.066038,5084.217201,1031.533007,-5393.163013,10182.046614,7563.696213,3355.846209,-3803.350485,-7162.013014,13314.129509,8179.039738,15510.389568,16322.026112,14996.902942,6142.773466,6784.626160,10.736000,-836.919983,-543.143982,4200.000000,420.000000,-2800.000000
-23.782256,5071.811983,1041.032498,-5415.917088,10185.153506,7571.184048,3353.164000,-3811.464168,-7155.083973,13333.553175,8199.536288,15524.918202,16344.891947,15025.915507,6162.286539,6800.384140,10.248000,-836.432007,-542.168030,4060.000000,140.000000,-2800.000000
-31.515960,5063.184209,1050.889617,-5470.231828,10186.628722,7577.598998,3345.050316,-3827.423314,-7134.833292,13380.581245,8245.446771,15561.284490,16394.959854,15084.342967,6203.860784,6833.442370,9.760000,-833.992004,-545.096008,4200.000000,280.000000,-2800.000000
-42.513018,5054.355270,1053.460068,-5532.906119,10181.979559,7579.074213,3330.499331,-3839.560311,-7112.839176,13435.767703,8300.543821,15602.366996,16453.432018,15142.725723,6243.713944,6866.657062,9.760000,-836.432007,-547.048035,3920.000000,-140.000000,-2800.000000
-49.754983,5051.583654,1046.486324,-5566.031404,10175.542256,7573.352167,3318.742313,-3842.667203,-7102.467966,13460.712249,8328.259984,15623.824671,16481.729326,15169.369003,6263.271721,6881.006882,7.808000,-837.408020,-546.072021,3360.000000,-140.000000,-2660.000000
-47.810381,5058.758564,1036.651556,-5551.033384,10170.669576,7564.366766,3318.429389,-3835.939328,-7108.681751,13444.730752,8313.306667,15614.593400,16463.713820,15149.274784,6249.078363,6869.294568,8.296000,-835.944031,-544.608032,2800.000000,-280.000000,-2660.000000
-38.288538,5072.817811,1029.431943,-5498.059749,10169.999024,7558.443553,3327.303031,-3819.935479,-7126.540795,13400.519002,8266.993852,15580.909321,16412.416567,15093.976568,6206.520642,6837.420981,10.248000,-835.944031,-545.096008,2800.000000,-560.000000,-2660.000000
-27.313832,5086.385320,1028.873149,-5433.306746,10176.481030,7558.108277,3343.061011,-3801.964677,-7148.780781,13345.690172,8210.779215,15540.184443,16353.050334,15032.062236,6161.951263,6801.658189,8.784000,-837.895996,-542.168030,2520.000000,-560.000000,-2380.000000
-25.346878,5085.223029,1029.320184,-5396.649885,10181.130192,7559.047050,3350.124162,-3797.740197,-7165.164610,13313.391902,8176.603398,15513.787033,16316.035845,14996.902942,6136.626737,6782.726262,6.344000,-834.968018,-546.072021,2100.000000,-280.000000,-2520.000000
-29.973689,5076.952884,1034.416382,-5404.025960,10181.867800,7562.153943,3351.375860,-3804.959810,-7161.208351,13319.695094,8180.447898,15514.770510,16319.835641,15006.491841,6144.606309,6788.314198,11.712000,-837.408020,-543.143982,1680.000000,-700.000000,-2380.000000
-37.685041,5065.933474,1043.714707,-5450.495237,10182.314835,7568.770059,3345.430296,-3819.577851,-7140.465932,13360.889359,8219.496396,15543.134873,16365.477904,15056.269176,6182.917199,6816.164472,8.784000,-837.408020,-540.216003,1540.000000,-560.000000,-2100.000000
-47.855085,5057.395107,1049.928492,-5508.185090,10183.030091,7573.598036,3335.841398,-3832.787732,-7122.070446,13410.912563,8269.229027,15579.970548,16422.027817,15115.769519,6230.615822,6850.675565,11.712000,-840.335999,-544.119995,980.000000,-840.000000,-1960.000000
-52.347786,5055.092878,1050.442582,-5548.082953,10180.079660,7573.978016,3327.727715,-3836.542825,-7109.397007,13447.837645,8305.371798,15607.865525,16461.456294,15155.421514,6261.416526,6872.356757,11.224000,-839.359985,-540.216003,840.000000,-980.000000,-1820.000000
-51.788992,5059.026785,1043.290024,-5550.563997,10175.497553,7568.166562,3325.581947,-3830.351392,-7109.106434,13450.899834,8307.718731,15613.073482,16463.512655,15152.381677,6259.069593,6870.970949,12.200000,-838.872009,-540.703979,840.000000,-980.000000,-1820.000000
-43.675309,5068.302759,1035.243396,-5511.828424,10175.251684,7562.623329,3331.236938,-3816.515662,-7122.763350,13418.020417,8273.565265,15590.878199,16427.392236,15110.427452,6227.710095,6846.607548,13.664001,-839.359985,-541.192017,420.000000,-1260.000000,-1680.000000
-35.695736,5075.723538,1030.102495,-5452.171618,10177.911541,7560.589321,3342.278700,-3802.478767,-7145.428019,13367.214902,8220.770445,15550.913280,16371.535226,15049.653059,6182.783089,6811.269440,13.664001,-839.359985,-540.216003,0.000000,-1260.000000,-1260.000000
-27.202073,5079.344520,1029.744867,-5404.942382,10181.823096,7560.231693,3350.079459,-3797.606086,-7161.498923,13325.685361,8179.263256,15517.966809,16325.736502,15002.870858,6146.796780,6781.362806,13.176001,-840.335999,-547.536011,-420.000000,-1400.000000,-1260.000000
-25.279823,5076.170573,1035.623376,-5393.811213,10186.226390,7564.232655,3353.566331,-3802.501118,-7169.545551,13316.699960,8169.763764,15507.863821,16314.426519,14995.360672,6141.588824,6773.763212,17.080000,-841.799988,-539.239990,-700.000000,-1400.000000,-1120.000000
-31.560663,5064.949997,1045.771068,-5429.842225,10188.796841,7572.122821,3351.934654,-3815.085151,-7163.532932,13346.740704,8199.424529,15529.634420,16350.144607,15037.136082,6171.294292,6797.031378,18.544001,-838.872009,-543.143982,-980.000000,-1260.000000,-1120.000000
-42.043631,5055.204636,1053.258902,-5490.750729,10188.953303,7579.320083,3342.345755,-3831.223110,-7150.211293,13398.574400,8251.973480,15571.320423,16408.840288,15100.704444,6218.277659,6834.872882,20.496000,-839.359985,-543.632019,-1120.000000,-1540.000000,-1120.000000
-50.716108,5050.354308,1053.884751,-5543.411439,10184.952341,7579.856524,3330.700497,-3840.566139,-7137.850778,13441.310935,8299.247420,15607.239676,16457.857663,15152.158159,6254.755706,6863.460763,20.007999,-837.408020,-539.239990,-1120.000000,-1400.000000,-840.000000
-55.700547,5047.627395,1047.179228,-5564.332672,10177.062175,7574.357995,3321.089246,-3839.962642,-7132.911042,13456.934805,8318.961658,15620.114281,16476.051983,15166.083296,6261.349471,6871.507391,20.496000,-836.919983,-542.168030,-1400.000000,-1120.000000,-840.000000
-51.543123,5051.673061,1036.293928,-5542.092686,10170.624873,7566.356071,3320.575156,-3829.770247,-7136.219101,13439.098112,8299.783862,15605.071557,16454.214329,15137.517767,6238.215415,6856.397612,18.544001,-836.432007,-540.703979,-1540.000000,-1400.000000,-840.000000
-46.201056,5059.630282,1026.705030,-5486.325084,10167.294463,7557.750649,3327.191273,-3817.253270,-7156.805057,13389.209019,8249.671251,15563.921996,16398.670244,15076.229283,6197.714054,6821.461835,21.960001,-837.895996,-540.703979,-1540.000000,-1260.000000,-840.000000
-35.449867,5069.755622,1025.430980,-5427.428237,10169.976672,7555.493123,3338.098924,-3807.642020,-7176.184020,13340.616326,8200.855041,15522.995952,16343.193214,15016.706588,6161.012490,6786.011968,21.472000,-837.408020,-541.192017,-1400.000000,-1260.000000,-700.000000
-27.537349,5074.047157,1033.969347,-5398.326266,10180.303178,7562.444516,3350.370032,-3805.250383,-7182.934246,13319.672742,8174.725851,15506.209791,16319.746234,14995.293617,6149.948376,6772.332701,20.984001,-836.432007,-542.656006,-1540.000000,-1400.000000,-700.000000
-32.231216,5067.431041,1042.664175,-5418.532243,10181.688986,7568.546542,3347.441953,-3817.767360,-7173.881790,13337.487082,8191.757881,15519.889059,16339.460473,15021.042826,6164.477010,6784.335588,24.888000,-835.944031,-540.703979,-1540.000000,-1400.000000,-700.000000
-38.355593,5059.339709,1050.599045,-5475.909171,10178.045652,7573.307463,3333.293299,-3834.017078,-7147.506731,13388.471411,8242.742210,15558.624632,16394.222247,15082.107792,6202.899659,6816.902079,22.936001,-836.432007,-541.679993,-1680.000000,-1680.000000,-700.000000
-48.726803,5051.069564,1053.616530,-5536.907081,10175.206980,7577.040205,3321.804502,-3846.444648,-7125.311449,13439.612203,8296.118176,15598.857772,16448.939317,15142.837482,6248.497218,6852.866036,23.912001,-839.359985,-538.263977,-1540.000000,-1540.000000,-700.000000
-50.939626,5053.125924,1051.470763,-5564.131506,10174.268207,7575.721452,3318.407037,-3846.757573,-7115.431978,13463.997956,8321.733275,15620.270743,16474.956748,15168.676098,6266.892703,6868.445202,23.912001,-836.919983,-540.216003,-1540.000000,-1960.000000,-840.000000
-47.184533,5059.853799,1044.340556,-5547.702974,10173.105916,7569.150039,3321.022191,-3836.699287,-7124.082103,13448.687011,8306.958772,15609.139575,16460.338707,15149.677116,6253.392250,6856.710536,24.888000,-835.455994,-542.168030,-1680.000000,-1820.000000,-980.000000
-38.199131,5073.533067,1037.076239,-5491.913020,10177.777431,7565.484353,3334.455590,-3819.376686,-7149.294871,13399.177897,8256.734402,15569.912263,16408.214439,15093.417775,6216.645982,6825.798074,24.888000,-839.359985,-540.703979,-1820.000000,-1680.000000,-980.000000
-29.861931,5084.418366,1034.237568,-5430.311612,10183.544181,7566.110202,3350.548846,-3801.450586,-7178.508601,13346.159559,8203.559602,15528.740350,16352.424485,15033.783321,6177.262208,6794.080948,23.424000,-839.359985,-542.656006,-1820.000000,-1820.000000,-840.000000
-30.308965,5084.373663,1034.170512,-5400.092053,10184.661768,7567.540713,3356.360299,-3799.148357,-7194.579505,13319.873908,8176.916322,15504.801632,16325.244764,15003.608466,6156.028051,6777.071271,22.448000,-839.359985,-542.656006,-1540.000000,-1680.000000,-840.000000
-37.372117,5076.952884,1038.752620,-5406.954039,10185.935817,7570.558199,3356.963796,-3807.642020,-7196.635866,13323.897222,8181.498430,15506.276847,16330.631534,15011.789204,6165.594598,6781.429861,26.352001,-838.384033,-542.168030,-1680.000000,-1820.000000,-840.000000
-41.596596,5067.766317,1050.263768,-5452.350432,10185.019396,7575.900266,3348.492485,-3824.361125,-7175.893447,13365.292652,8225.397256,15537.993972,16374.686822,15060.918338,6199.323380,6807.134367,21.960001,-837.408020,-545.096008,-1680.000000,-1960.000000,-560.000000
-47.475105,5056.478686,1055.002338,-5520.523253,10177.911541,7577.308426,3331.013421,-3839.649718,-7142.298775,13425.195327,8286.037539,15585.893760,16439.350419,15128.465310,6243.736296,6844.908815,19.520000,-837.895996,-542.656006,-1820.000000,-1820.000000,-420.000000
-53.845352,5052.902407,1052.297777,-5557.984776,10176.101050,7575.721452,3324.263194,-3841.013174,-7130.519406,13453.313822,8315.832414,15610.547735,16473.928568,15165.837427,6271.854791,6864.824219,21.472000,-837.895996,-542.168030,-1400.000000,-1680.000000,-140.000000
-51.699585,5059.429116,1045.860475,-5556.688375,10173.776468,7570.848771,3325.604299,-3831.625442,-7127.971307,13449.759895,8312.457301,15611.106528,16472.319242,15160.540063,6271.675977,6863.058432,19.032000,-836.432007,-540.703979,-1260.000000,-1680.000000,0.000000
-42.289501,5071.566113,1038.193826,-5518.243375,10173.575303,7564.903207,3333.494465,-3816.672124,-7134.676830,13416.947534,8278.505001,15589.000653,16435.885899,15118.004694,6243.535130,6841.332536,20.007999,-839.848022,-539.728027,-1400.000000,-1680.000000,140.000000
-33.281747,5080.953846,1033.745829,-5457.379574,10177.956245,7561.997481,3346.681994,-3802.299953,-7153.944034,13365.516170,8225.441960,15548.231071,16380.408869,15056.649155,6201.290333,6808.363713,20.496000,-839.848022,-542.168030,-980.000000,-1540.000000,420.000000
-25.860968,5086.944114,1035.399858,-5406.752873,10182.091317,7561.438687,3357.455535,-3799.148357,-7170.059642,13323.137262,8181.811354,15513.138832,16333.380799,15007.296503,6165.035804,6778.524134,16.104000,-837.895996,-541.679993,-1120.000000,-1400.000000,280.000000
-26.576224,5085.178326,1041.568940,-5396.426367,10185.712300,7563.405641,3360.405965,-3806.323267,-7174.708804,13312.497832,8169.294377,15506.030977,16322.763720,14999.518096,6158.442039,6772.422108,19.032000,-839.359985,-542.168030,-980.000000,-1260.000000,560.000000
-33.907596,5071.186134,1047.201579,-5437.106542,10181.621931,7568.099507,3348.805410,-3822.952965,-7162.281235,13346.874815,8202.397311,15530.729655,16360.851092,15041.226452,6182.447813,6794.818556,17.080000,-839.848022,-542.168030,-1260.000000,-1400.000000,560.000000
-45.463448,5053.237683,1051.180190,-5503.647685,10175.654015,7574.514458,3333.941499,-3840.834360,-7140.667098,13405.414034,8261.182399,15574.382612,16423.078349,15106.895877,6228.380648,6835.074047,17.080000,-835.944031,-544.119995,-1120.000000,-1260.000000,560.000000
-51.341957,5046.040421,1053.750641,-5556.576616,10175.654015,7577.822516,3326.274851,-3846.377593,-7125.959650,13451.570386,8309.372760,15611.575915,16473.794457,15162.104686,6271.363052,6869.339272,18.544001,-836.919983,-541.679993,-980.000000,-1400.000000,560.000000
-48.190361,5050.734288,1049.772030,-5572.379300,10174.022338,7573.843905,3322.676220,-3843.069535,-7117.130711,13467.417773,8325.421313,15624.584630,16489.060699,15176.387450,6284.483526,6876.514182,15.616000,-838.384033,-540.703979,-700.000000,-1260.000000,560.000000
-42.133038,5062.983044,1041.747754,-5542.874997,10173.284730,7566.400774,3328.219453,-3830.887834,-7130.072371,13441.713267,8297.213411,15603.059900,16460.517521,15142.546909,6265.015157,6856.866998,15.128000,-834.479980,-540.703979,-560.000000,-1120.000000,560.000000
-32.499436,5076.930532,1036.718611,-5482.234714,10176.995120,7561.349280,3340.334098,-3812.291183,-7154.033441,13390.326606,8246.094971,15562.446780,16403.185296,15079.894969,6223.150340,6822.512367,18.056000,-836.919983,-541.192017,-420.000000,-1120.000000,560.000000
-23.245814,5084.664236,1036.092762,-5425.863615,10179.744384,7560.321100,3350.012404,-3801.629400,-7173.546514,13343.544405,8199.893916,15525.365236,16350.010496,15024.373236,6180.458508,6790.929352,15.616000,-834.968018,-542.168030,-280.000000,-1400.000000,420.000000
-18.127265,5086.810003,1041.792457,-5402.774263,10184.862934,7565.305539,3355.421526,-3802.903450,-7178.642711,13327.182928,8179.240904,15511.060120,16330.832700,15007.542373,6163.202961,6779.976997,18.056000,-834.479980,-541.192017,-280.000000,-1400.000000,280.000000
-23.446980,5077.109346,1049.928492,-5423.248461,10188.640379,7573.106298,3353.231055,-3815.800406,-7174.619397,13346.740704,8196.295285,15524.605277,16353.519720,15035.862033,6180.257342,6795.019721,14.640000,-836.919983,-541.679993,0.000000,-1260.000000,280.000000
-33.393506,5064.257093,1057.148106,-5480.334816,10187.165163,7577.666053,3342.256348,-3834.419410,-7157.408554,13395.400452,8247.950166,15561.887987,16408.370901,15095.451784,6220.803406,6828.212062,15.616000,-834.968018,-541.192017,140.000000,-1400.000000,140.000000
-43.138867,5054.690546,1060.433812,-5543.411439,10180.034957,7577.800164,3326.118389,-3850.400907,-7137.269632,13447.681182,8302.197850,15604.401005,16465.457256,15155.846197,6261.751802,6861.829086,13.664001,-835.944031,-544.608032,420.000000,-1540.000000,140.000000
-51.140791,5049.862570,1052.722460,-5575.195619,10171.809515,7572.346338,3317.021229,-3854.245407,-7130.385295,13470.055279,8325.108388,15625.143424,16490.960597,15181.014261,6281.935427,6876.782403,14.640000,-833.504028,-542.168030,560.000000,-1400.000000,0.000000
-49.084431,5057.439811,1044.027632,-5560.756393,10169.350823,7566.333719,3321.111598,-3841.907244,-7136.643784,13455.325479,8312.904336,15615.956857,16475.672004,15162.752886,6272.748860,6866.947635,15.128000,-831.552002,-540.216003,700.000000,-1120.000000,-140.000000
-39.361422,5070.806154,1035.623376,-5506.799281,10171.831867,7560.611672,3333.136837,-3823.824683,-7156.045098,13408.431519,8263.574036,15581.512819,16424.330047,15108.415795,6235.332040,6838.180940,18.544001,-833.015991,-542.656006,980.000000,-840.000000,-280.000000
-31.158332,5075.432965,1029.409591,-5450.182313,10172.480067,7557.057745,3342.703383,-3813.855805,-7177.368662,13360.308213,8210.801567,15543.358391,16368.987127,15049.183673,6192.863726,6807.827271,17.080000,-832.528015,-543.143982,1260.000000,-840.000000,-420.000000
-27.760867,5072.907218,1029.811922,-5413.793673,10172.614178,7556.633062,3347.687822,-3815.800406,-7188.633941,13329.015771,8179.263256,15515.821042,16332.576136,15011.833908,6166.555723,6787.286018,15.616000,-832.528015,-542.656006,980.000000,-840.000000,-420.000000
-27.894977,5069.241532,1037.746792,-5418.331077,10173.351785,7562.265702,3345.698517,-3825.657526,-7178.575656,13334.134321,8185.857020,15520.201983,16339.192252,15021.311047,6169.372042,6790.437614,18.544001,-833.015991,-540.216003,1260.000000,-840.000000,-560.000000
-32.253567,5060.613759,1047.648614,-5464.889761,10173.932931,7570.357033,3337.696593,-3842.488389,-7156.827409,13376.915559,8226.760712,15552.299089,16385.169790,15072.362432,6204.374874,6818.086722,19.032000,-836.432007,-542.168030,1120.000000,-840.000000,-700.000000
-34.242873,5057.752735,1057.706899,-5522.043171,10177.822134,7577.554295,3333.092133,-3852.233750,-7134.632127,13429.598621,8278.080318,15595.102679,16443.910175,15136.131959,6252.319366,6854.497713,16.104000,-831.064026,-542.168030,1260.000000,-560.000000,-840.000000
-41.395431,5054.154104,1055.471725,-5565.718480,10172.949454,7576.816687,3323.480883,-3856.435878,-7121.846929,13462.075706,8314.804234,15625.188127,16484.947978,15176.678023,6282.695387,6879.464612,16.592001,-834.479980,-539.728027,1260.000000,-840.000000,-980.000000
-42.177742,5056.746907,1047.581559,-5571.999320,10166.981538,7571.631082,3318.451741,-3850.490314,-7119.857624,13462.589796,8320.012190,15629.367903,16490.357100,15176.923892,6282.829497,6882.862077,16.592001,-834.968018,-539.728027,1540.000000,-560.000000,-980.000000
-37.014489,5070.046195,1038.327937,-5527.742866,10169.395527,7563.427992,3327.459494,-3834.419410,-7140.175359,13420.724979,8280.047271,15598.768365,16447.441750,15128.800586,6253.191084,6856.084687,16.104000,-834.479980,-543.143982,1680.000000,-840.000000,-980.000000
-32.365326,5080.015073,1031.085972,-5469.181296,10169.462582,7557.415373,3337.741296,-3819.041409,-7164.203485,13364.845617,8226.850119,15557.618804,16388.254331,15066.618033,6210.722770,6822.959402,16.104000,-833.992004,-545.096008,1540.000000,-840.000000,-1120.000000
-25.480989,5086.161803,1030.840103,-5420.812121,10172.770640,7559.292920,3346.614939,-3811.128892,-7180.497906,13322.533765,8185.387633,15526.505175,16343.282621,15019.120576,6176.479897,6796.450233,20.007999,-836.432007,-540.703979,1540.000000,-840.000000,-1120.000000
-19.311907,5088.016997,1041.345422,-5409.211565,10178.693852,7566.825457,3353.499276,-3812.939383,-7181.034348,13317.437567,8179.129145,15522.146585,16337.314706,15016.259553,6171.271941,6794.595038,18.056000,-834.968018,-540.216003,1120.000000,-700.000000,-1260.000000
-17.166140,5082.674930,1056.432850,-5442.314499,10183.790050,7575.900266,3353.365165,-3825.299898,-7164.628168,13351.993364,8212.455596,15550.175673,16371.311709,15058.683164,6200.060987,6818.466701,16.592001,-834.968018,-541.192017,1260.000000,-840.000000,-1120.000000
-21.547082,5075.723538,1066.871115,-5497.769177,10187.835716,7584.237466,3349.006575,-3835.536997,-7144.533949,13403.357673,8263.529332,15589.961778,16426.319352,15121.335104,6246.306747,6853.625995,15.128000,-838.384033,-541.679993,1260.000000,-840.000000,-1120.000000
-32.253567,5068.526276,1066.088804,-5551.234549,10183.991216,7583.790431,3338.411848,-3843.583625,-7129.401818,13445.602470,8308.501042,15622.036531,16474.956748,15171.626529,6285.265837,6884.717272,15.128000,-834.968018,-542.168030,980.000000,-1120.000000,-1120.000000
-34.689907,5069.822677,1058.355100,-5568.400689,10177.218637,7575.877914,3333.002726,-3841.124933,-7124.819711,13457.650060,8323.029676,15631.491319,16488.166629,15183.830581,6297.514593,6893.233287,15.616000,-838.384033,-544.119995,700.000000,-1260.000000,-1120.000000
-25.950375,5082.764337,1050.599045,-5538.024668,10174.916407,7569.530019,3339.082401,-3824.763456,-7131.167606,13433.554880,8299.180365,15612.939371,16459.668155,15148.783046,6277.018044,6876.447126,15.616000,-837.895996,-540.703979,560.000000,-1400.000000,-980.000000
-22.128227,5090.788614,1038.551454,-5479.485450,10173.731765,7560.388155,3347.486657,-3808.223165,-7155.866284,13379.038975,8243.233948,15568.437048,16400.726605,15082.711289,6232.649831,6841.176074,14.152000,-838.872009,-543.632019,420.000000,-1540.000000,-840.000000
-20.921233,5090.878021,1030.795399,-5422.287336,10172.971806,7555.291957,3356.248540,-3799.818909,-7181.391976,13325.908879,8188.986264,15525.097016,16344.959002,15022.249821,6189.443909,6806.687332,14.152000,-838.384033,-538.263977,140.000000,-2100.000000,-840.000000
-19.021335,5084.552477,1033.187036,-5401.120234,10172.994157,7556.878931,3357.522590,-3805.205680,-7188.745700,13308.966256,8169.696709,15507.349730,16324.730673,15001.820326,6169.059118,6793.946838,11.224000,-839.848022,-539.728027,140.000000,-1960.000000,-700.000000
-23.871663,5070.627340,1040.093725,-5424.723676,10171.273073,7562.265702,3349.766535,-3820.650735,-7176.988682,13328.971068,8189.321541,15521.654847,16345.115464,15027.882460,6180.257342,6806.307352,15.616000,-839.359985,-542.168030,140.000000,-2240.000000,-700.000000
-30.934814,5058.713860,1048.162704,-5479.440746,10170.624873,7569.664129,3342.055183,-3836.006383,-7153.921682,13376.468525,8238.204806,15560.591586,16397.172677,15086.399327,6219.730523,6838.449161,12.200000,-840.335999,-541.192017,280.000000,-2100.000000,-420.000000
-36.187474,5052.813000,1053.325957,-5534.649555,10169.104954,7572.703966,3333.270947,-3848.545712,-7134.296850,13426.424673,8287.021016,15599.416566,16450.593346,15142.636316,6261.483581,6869.272216,14.640000,-839.848022,-543.143982,140.000000,-2240.000000,-560.000000
-37.617986,5056.366927,1052.074260,-5561.829276,10169.306120,7568.881818,3328.219453,-3850.065631,-7125.065580,13450.899834,8312.233783,15618.750825,16475.448486,15166.977366,6284.841154,6883.867906,15.128000,-840.824036,-539.239990,280.000000,-2240.000000,-700.000000
-32.611195,5064.704128,1046.195751,-5546.630090,10170.446059,7565.663167,3331.371049,-3841.683727,-7130.720571,13436.527662,8299.292123,15609.318389,16460.294004,15149.364191,6276.816878,6875.709519,16.104000,-840.824036,-542.656006,560.000000,-2240.000000,-560.000000
-23.938718,5074.740061,1037.187998,-5496.606886,10170.356652,7560.142286,3339.417677,-3827.110389,-7148.333746,13391.175972,8254.409820,15574.561426,16412.483622,15095.541191,6239.355354,6846.607548,19.032000,-840.335999,-538.752014,280.000000,-2380.000000,-420.000000
-15.400352,5084.753643,1034.394030,-5433.709077,10174.491724,7557.571835,3353.767497,-3810.972430,-7171.803078,13338.202338,8199.335122,15532.093112,16352.737409,15033.135120,6195.680046,6811.716474,18.544001,-839.848022,-538.263977,560.000000,-2100.000000,-840.000000
-10.661782,5087.614666,1039.423172,-5393.386530,10180.414937,7561.438687,3363.959892,-3804.468072,-7187.784575,13306.440509,8163.505276,15505.025149,16316.751101,14997.215867,6168.209752,6790.638779,19.032000,-835.455994,-538.752014,560.000000,-1960.000000,-700.000000
-14.573337,5078.629265,1045.547550,-5401.008475,10180.414937,7567.384251,3361.612959,-3811.799444,-7184.968255,13314.218916,8171.931883,15507.774414,16326.384702,15007.698835,6172.613045,6796.383178,20.496000,-838.872009,-541.192017,840.000000,-1820.000000,-840.000000
-25.749210,5064.637073,1053.348309,-5447.723621,10181.353710,7573.151001,3353.991014,-3825.411657,-7169.456145,13353.960318,8213.617887,15535.825853,16370.998784,15058.012612,6208.845223,6825.239280,21.960001,-834.968018,-536.799988,840.000000,-1960.000000,-840.000000
-35.449867,5053.572959,1055.628187,-5510.643782,10175.184628,7572.838077,3337.473075,-3843.941253,-7146.366792,13407.559801,8271.195980,15576.416621,16429.627410,15119.815185,6249.480694,6856.777591,20.007999,-837.895996,-540.703979,840.000000,-1960.000000,-1120.000000
-41.395431,5051.024860,1053.236550,-5554.274387,10170.490762,7569.932350,3325.738409,-3849.126857,-7133.715705,13443.590813,8309.193946,15605.607999,16470.218178,15159.042497,6279.119108,6879.933999,21.472000,-838.384033,-538.263977,840.000000,-2100.000000,-1400.000000
-41.261320,5054.221160,1047.738021,-5558.722384,10168.322643,7565.037318,3325.693706,-3837.012212,-7136.420266,13448.955232,8313.731350,15610.279514,16475.046155,15160.584767,6281.913076,6885.186659,21.960001,-836.919983,-541.192017,420.000000,-2100.000000,-1400.000000
-32.790009,5061.597235,1038.149123,-5524.054828,10164.724012,7557.750649,3330.655793,-3821.276584,-7144.668060,13422.848394,8282.193039,15587.816010,16441.473835,15122.318580,6251.335889,6863.594873,21.472000,-837.408020,-544.119995,420.000000,-2100.000000,-1540.000000
-20.429494,5073.600122,1032.851760,-5464.800354,10166.981538,7554.107315,3342.479866,-3806.502081,-7161.409517,13376.446173,8229.353515,15550.645059,16386.935578,15061.186559,6207.079435,6829.709629,19.032000,-838.384033,-537.776001,420.000000,-2100.000000,-1540.000000
-13.701619,5080.484459,1032.941167,-5410.105635,10173.530599,7556.543655,3356.986148,-3796.801424,-7186.666988,13329.216937,8176.916322,15513.943495,16335.794787,15008.123518,6173.752984,6799.870050,19.520000,-836.432007,-541.679993,-140.000000,-2100.000000,-1680.000000
-16.048553,5077.377567,1038.462047,-5392.850088,10178.850314,7562.399812,3363.669320,-3795.594429,-7200.636828,13311.000265,8161.270101,15500.666559,16317.913391,14996.008873,6167.203923,6792.158698,16.592001,-838.384033,-548.512024,140.000000,-2240.000000,-1540.000000
-23.022297,5065.106459,1047.983891,-5428.389362,10180.124364,7569.440612,3355.689747,-3806.971467,-7185.057662,13340.124588,8193.680131,15522.861841,16351.999802,15035.817329,6193.400168,6814.018704,15.128000,-837.408020,-545.583984,-560.000000,-2380.000000,-1540.000000
-30.688945,5055.718727,1055.158801,-5489.297866,10177.665672,7574.939141,3341.742258,-3824.584642,-7154.502827,13394.260513,8247.257262,15562.312670,16410.337855,15099.340987,6234.974412,6847.412210,18.544001,-838.872009,-540.703979,-700.000000,-2800.000000,-1260.000000
-42.803591,5047.135657,1054.845876,-5543.389087,10172.524771,7573.508629,3329.426447,-3834.464113,-7136.956708,13437.622897,8292.206620,15596.332025,16457.544739,15149.431246,6271.430108,6875.195429,13.664001,-837.408020,-542.656006,-840.000000,-2940.000000,-1120.000000
-47.363347,5045.928663,1049.056774,-5563.550361,10167.652091,7569.038280,3321.133950,-3829.680840,-7135.660307,13454.721982,8310.333885,15610.078348,16475.537893,15165.077468,6280.750785,6884.247885,15.128000,-838.384033,-541.679993,-980.000000,-2660.000000,-840.000000
-40.881341,5055.048174,1040.920739,-5539.633994,10165.975710,7560.946949,3322.855034,-3817.432084,-7144.399839,13437.622897,8291.804289,15597.740185,16453.633184,15137.249546,6258.443744,6867.640539,10.248000,-836.432007,-543.632019,-1400.000000,-2800.000000,-700.000000
-30.219559,5069.286235,1035.511617,-5480.133650,10171.585998,7557.102449,3338.322441,-3798.902488,-7164.941092,13387.890266,8238.853006,15562.133856,16399.452555,15077.726850,6219.931688,6834.783475,12.688000,-837.895996,-542.656006,-1680.000000,-2940.000000,-420.000000
-23.514035,5078.137526,1034.125809,-5420.141568,10176.659844,7556.096620,3351.778192,-3788.039540,-7189.125680,13336.056571,8183.957122,15522.303047,16342.545014,15020.327570,6180.994949,6800.115919,11.224000,-836.919983,-542.168030,-1960.000000,-3220.000000,-280.000000
-19.043686,5081.423233,1042.395954,-5393.319475,10182.963035,7562.846847,3360.294206,-3786.117290,-7199.295723,13313.458957,8158.856113,15506.030977,16318.740406,15000.926256,6165.482839,6787.733053,11.712000,-836.432007,-541.192017,-1820.000000,-2940.000000,140.000000
-22.843483,5072.571942,1052.588350,-5415.000667,10182.761870,7571.251103,3358.595474,-3796.421444,-7190.153860,13333.888451,8179.218552,15519.799652,16341.136854,15027.077797,6181.441984,6803.178108,10.736000,-839.359985,-544.119995,-1960.000000,-2800.000000,280.000000
-32.745306,5056.970424,1059.785612,-5473.964569,10178.403280,7576.101431,3347.106677,-3814.995744,-7169.277331,13385.319815,8232.974497,15556.680030,16397.463250,15088.858019,6222.300973,6838.158588,11.712000,-840.335999,-543.143982,-1960.000000,-2800.000000,560.000000
-40.523713,5047.783857,1061.283178,-5535.454218,10169.954320,7574.961492,3331.683973,-3831.647793,-7143.081086,13437.511139,8286.506925,15597.471964,16453.990812,15148.179549,6263.875218,6870.993301,12.688000,-838.384033,-541.679993,-1820.000000,-2800.000000,700.000000
-44.927006,5050.443715,1057.706899,-5563.438602,10164.992233,7573.083946,3323.614994,-3834.531168,-7131.927566,13461.807485,8310.222126,15617.722645,16477.728364,15172.386488,6282.985959,6883.197353,12.200000,-836.432007,-537.288025,-1540.000000,-2520.000000,840.000000
-45.597559,5058.736212,1047.715670,-5550.139314,10161.862989,7568.077155,3322.542110,-3829.457322,-7136.129694,13446.429485,8296.788728,15607.418490,16461.724515,15151.912290,6268.479677,6871.015653,17.568001,-839.848022,-539.239990,-1400.000000,-2520.000000,700.000000
-38.132076,5072.996625,1040.786629,-5495.377540,10166.422745,7563.495048,3332.935671,-3813.744046,-7154.994566,13395.914542,8247.816056,15570.851036,16410.986055,15094.490659,6226.704267,6838.158588,15.128000,-838.384033,-540.703979,-980.000000,-2380.000000,840.000000
-27.604404,5085.781823,1037.657385,-5431.719772,10175.609312,7561.662204,3349.431258,-3797.270810,-7175.625226,13342.605632,8193.434261,15528.159205,16352.312726,15031.838719,6183.632455,6804.206288,16.592001,-836.432007,-539.239990,-700.000000,-2240.000000,700.000000
-20.228329,5086.675893,1038.484399,-5394.794690,10180.861971,7563.137420,3359.087212,-3793.180441,-7187.471651,13313.213088,8161.538322,15502.231181,16317.242839,14997.148811,6158.263225,6786.213134,20.007999,-839.848022,-539.239990,140.000000,-2100.000000,700.000000
-20.384791,5080.238590,1046.374565,-5401.053178,10183.700643,7568.725356,3359.020157,-3800.780034,-7181.637845,13322.757283,8166.276892,15507.439137,16324.551859,15007.296503,6162.599464,6791.711663,20.007999,-836.919983,-537.776001,700.000000,-1680.000000,560.000000
-29.347840,5066.715785,1055.538780,-5450.830513,10181.063137,7573.441574,3348.380726,-3816.985049,-7164.561112,13366.432591,8208.745206,15541.011458,16373.680994,15059.130199,6198.719883,6821.148911,20.496000,-835.944031,-539.728027,1260.000000,-1680.000000,420.000000
-40.546064,5054.131753,1059.450335,-5512.566032,10176.615140,7575.453231,3334.947328,-3832.452456,-7148.736077,13417.595734,8261.540027,15579.568217,16431.907288,15120.239868,6245.077401,6855.704708,21.960001,-836.919983,-539.728027,1540.000000,-1260.000000,140.000000
-46.469277,5050.287253,1057.952769,-5557.783611,10171.362480,7574.089774,3322.899738,-3838.800351,-7136.599080,13454.297299,8301.996684,15609.586610,16473.570940,15162.819941,6275.609884,6878.995225,21.960001,-835.455994,-538.752014,2380.000000,-1120.000000,140.000000
-46.156352,5054.779953,1049.704975,-5563.639768,10166.534503,7569.708832,3319.569328,-3832.608918,-7133.223967,13456.823046,8304.924763,15614.816918,16479.114172,15163.557549,6278.694424,6881.498621,24.400000,-835.944031,-537.288025,2660.000000,-840.000000,0.000000
-44.792896,5060.412593,1036.539797,-5525.932375,10162.645300,7562.064536,3325.045505,-3818.370857,-7149.741906,13417.975714,8267.060908,15586.497258,16441.406779,15119.926944,6251.358241,6860.286815,24.888000,-837.895996,-540.703979,3080.000000,-560.000000,-140.000000
-35.069887,5072.884866,1030.683640,-5463.749822,10166.422745,7558.041222,3339.171808,-3805.138624,-7171.579560,13363.571568,8213.595535,15545.146530,16383.605168,15056.380934,6208.487595,6827.295640,25.864000,-836.432007,-537.288025,3220.000000,-420.000000,-420.000000
-26.799742,5079.545686,1032.203559,-5413.458397,10171.697756,7558.890588,3351.219398,-3796.756720,-7187.896334,13322.891393,8171.373090,15513.250591,16338.387589,15008.659960,6174.512944,6799.668884,27.328001,-836.432007,-535.824036,3640.000000,140.000000,-980.000000
-26.576224,5073.577770,1036.740963,-5404.249478,10172.703585,7560.991652,3352.828724,-3803.082264,-7191.472613,13314.487137,8162.678261,15505.360425,16328.686932,15001.172125,6167.472144,6793.119823,27.816000,-835.944031,-541.192017,4060.000000,420.000000,-1260.000000
-31.113628,5061.776049,1045.748716,-5439.654641,10170.222541,7566.780754,3345.117372,-3817.990877,-7179.425023,13344.617289,8194.015407,15527.779225,16362.907453,15038.767760,6190.405034,6811.872937,27.816000,-836.432007,-541.192017,4060.000000,420.000000,-1400.000000
-39.204960,5051.158971,1053.080088,-5500.451386,10165.238102,7572.458097,3332.443933,-3832.810084,-7154.368717,13398.395586,8249.313623,15567.967661,16422.474852,15103.900743,6231.822816,6846.786362,22.936001,-838.872009,-543.143982,4340.000000,560.000000,-1680.000000
-45.239931,5045.615738,1055.605835,-5553.447372,10159.650166,7573.687443,3322.430351,-3839.828532,-7136.666135,13442.115598,8296.654617,15602.456403,16472.967443,15156.337935,6269.798430,6876.491830,24.400000,-833.992004,-545.583984,3920.000000,840.000000,-1680.000000
-44.211751,5051.181322,1052.789516,-5570.837029,10156.207997,7571.899303,3319.345810,-3835.648756,-7130.698220,13459.058220,8313.418426,15615.755691,16491.541742,15170.799514,6285.355244,6885.410176,23.424000,-833.992004,-542.656006,3920.000000,700.000000,-1960.000000
-41.283672,5059.853799,1044.809943,-5545.378392,10155.157465,7565.663167,3321.536281,-3824.919918,-7140.063601,13437.086455,8290.776109,15598.254275,16466.619547,15141.183453,6265.886875,6868.892237,20.007999,-834.479980,-542.656006,3500.000000,840.000000,-1820.000000
-32.231216,5070.649692,1038.260882,-5488.649665,10157.951433,7560.186989,3331.371049,-3811.173595,-7156.782705,13388.471411,8241.378753,15562.111504,16411.522497,15083.918283,6222.636249,6834.314088,18.056000,-835.944031,-546.559998,3220.000000,980.000000,-1820.000000
-23.268166,5081.400881,1037.679736,-5426.712981,10162.690003,7557.862408,3344.692689,-3799.707150,-7174.395880,13334.581355,8187.242828,15519.844356,16351.418656,15023.970905,6178.223333,6797.947800,13.176001,-835.944031,-544.119995,2800.000000,840.000000,-1540.000000
-21.211805,5081.691454,1041.032498,-5400.449681,10165.819247,7559.941120,3352.024061,-3799.729502,-7181.973121,13312.900163,8163.617034,15501.135945,16327.256421,15000.166297,6160.051365,6783.553276,13.176001,-834.968018,-543.632019,2380.000000,560.000000,-1400.000000
-26.710335,5071.364948,1048.967367,-5420.253327,10165.618082,7565.350242,3349.721831,-3811.397113,-7175.982854,13328.546384,8178.927979,15513.138832,16345.026057,15021.847489,6174.401185,6795.489108,12.200000,-837.408020,-545.096008,1960.000000,560.000000,-980.000000
-33.237044,5059.764392,1057.505734,-5472.735223,10167.182704,7572.838077,3343.061011,-3824.606994,-7158.593197,13374.300405,8225.307849,15548.320478,16396.502125,15080.453763,6216.534223,6829.486111,4.880000,-834.968018,-543.143982,1400.000000,0.000000,-560.000000
-41.998928,5051.628357,1059.226818,-5535.342459,10162.511189,7573.732146,3329.940537,-3837.012212,-7134.028630,13428.324572,8278.862629,15590.431165,16456.114227,15142.703371,6262.087078,6864.421888,6.832000,-832.040039,-547.048035,420.000000,-280.000000,-140.000000
-45.843428,5049.951977,1053.549475,-5571.552285,10155.939776,7569.597074,3319.301107,-3838.107447,-7117.734208,13458.745296,8310.132719,15617.744996,16490.647672,15175.068697,6286.316369,6883.867906,4.880000,-836.432007,-546.072021,0.000000,-840.000000,280.000000
-43.608253,5055.450506,1046.665138,-5563.371547,10151.916462,7562.645681,3320.195177,-3827.445665,-7123.635068,13449.894005,8302.466071,15613.833441,16481.237588,15163.468142,6278.448555,6878.771708,3.904000,-835.455994,-545.583984,-840.000000,-1120.000000,840.000000
-40.635471,5060.680814,1036.025707,-5516.924622,10146.753209,7553.794390,3325.023153,-3813.542880,-7143.371659,13407.895077,8262.523504,15580.574045,16434.768311,15109.511031,6239.288299,6849.893254,9.760000,-834.968018,-547.536011,-1540.000000,-1260.000000,1120.000000
-32.432381,5069.643863,1030.013088,-5458.117182,10149.010736,7549.972242,3337.607186,-3797.382569,-7161.834200,13356.709582,8213.506128,15541.302030,16378.441915,15047.462588,6194.696569,6816.678562,7.808000,-833.992004,-546.559998,-1540.000000,-1400.000000,1540.000000
-30.331317,5069.174477,1031.041268,-5420.946231,10151.737648,7551.402754,3346.190255,-3795.773243,-7173.747679,13322.734931,8179.598532,15513.429405,16341.270964,15009.710492,6165.885170,6794.818556,7.808000,-834.968018,-547.048035,-2100.000000,-1960.000000,1680.000000
-33.862893,5061.284311,1036.360983,-5424.477807,10152.922291,7555.694289,3345.407944,-3808.156110,-7173.993549,13325.461844,8179.933808,15511.753024,16344.266098,15014.091434,6166.578074,6795.667922,8.784000,-834.479980,-545.583984,-1960.000000,-1960.000000,2100.000000
-40.166085,5051.136619,1043.960577,-5465.090926,10154.531617,7561.863370,3338.009517,-3822.841206,-7162.683566,13361.537559,8216.165986,15536.943440,16384.186314,15056.604452,6196.372950,6816.745617,11.712000,-833.015991,-545.583984,-2100.000000,-1960.000000,2240.000000
-44.725841,5046.219235,1051.560170,-5518.221023,10156.520922,7566.892513,3331.281642,-3834.642927,-7148.244339,13408.945609,8264.982195,15573.801467,16435.707085,15114.271952,6238.573043,6847.434562,11.712000,-833.992004,-546.072021,-1820.000000,-1820.000000,2240.000000
-48.547989,5045.347517,1052.431888,-5558.632977,10155.135114,7565.976091,3325.894871,-3839.001517,-7137.336688,13443.210833,8300.856745,15600.869429,16474.979100,15154.996831,6270.871314,6871.440336,14.152000,-831.064026,-542.656006,-1540.000000,-1400.000000,2240.000000
-51.856047,5043.313508,1043.714707,-5566.970178,10147.356707,7559.024699,3318.965831,-3833.681802,-7137.269632,13446.049505,8307.495213,15604.848040,16481.997547,15155.890901,6270.826610,6873.742565,16.104000,-832.040039,-542.168030,-840.000000,-1400.000000,2100.000000
-46.044594,5050.220197,1034.528140,-5533.196692,10143.176930,7551.603919,3318.965831,-3821.276584,-7148.959595,13416.254630,8277.990911,15583.502124,16449.945146,15114.361359,6238.081305,6850.675565,17.080000,-833.015991,-541.192017,-280.000000,-980.000000,1820.000000
-34.801666,5062.871285,1030.817751,-5473.696348,10146.775561,7548.497027,3329.202930,-3807.664371,-7168.115040,13367.751344,8226.492492,15546.331173,16395.272779,15054.995126,6195.903563,6818.332591,18.544001,-832.040039,-545.583984,140.000000,-700.000000,1540.000000
-25.637451,5071.700224,1033.075277,-5417.884042,10156.632680,7549.704021,3344.402116,-3798.544860,-7188.812755,13320.075073,8175.776383,15508.892001,16343.461435,15004.055501,6160.498400,6790.169393,18.544001,-833.015991,-544.119995,700.000000,-420.000000,1400.000000
-18.931928,5076.215276,1042.842989,-5397.722769,10165.305157,7556.767172,3353.991014,-3799.327171,-7194.400691,13305.345274,8162.499447,15497.894943,16326.921144,14992.544352,6153.547007,6782.614503,19.032000,-832.040039,-542.656006,1120.000000,-280.000000,1260.000000
-19.893053,5071.074375,1054.935283,-5430.110446,10169.551989,7564.590283,3352.091116,-3810.123063,-7178.285084,13337.084751,8197.524631,15522.459510,16358.750028,15029.380027,6179.184458,6803.871012,22.448000,-833.504028,-542.656006,1540.000000,280.000000,700.000000
-22.128227,5065.106459,1065.418251,-5486.705063,10172.368309,7570.669957,3344.916206,-3826.663354,-7156.939168,13392.293560,8253.336937,15564.838417,16414.987018,15090.065013,6223.463264,6839.454989,20.007999,-832.528015,-543.632019,2100.000000,420.000000,420.000000
-27.291480,5061.753698,1070.089766,-5538.270538,10171.675405,7570.982882,3337.160151,-3836.051087,-7140.555339,13438.405208,8298.889792,15601.741147,16461.903329,15142.099874,6263.919921,6870.412155,20.007999,-833.992004,-541.679993,2380.000000,700.000000,140.000000
-21.032992,5073.622474,1072.727272,-5546.540683,10176.503381,7571.295806,3340.781133,-3830.194930,-7136.286156,13451.704496,8307.428158,15614.034607,16472.363946,15153.879244,6275.498125,6875.418946,20.007999,-833.992004,-541.192017,2800.000000,700.000000,-280.000000
-9.924175,5090.185117,1069.732138,-5510.822595,10182.963035,7568.278321,3352.784020,-3814.079322,-7146.947938,13426.134101,8279.443774,15594.387423,16442.434960,15121.200993,6256.186218,6857.403440,20.496000,-836.432007,-544.608032,3080.000000,560.000000,-560.000000
-0.603497,5105.786634,1062.579580,-5446.695441,10187.858067,7562.131591,3367.938503,-3799.215412,-7170.126697,13369.897112,8221.776273,15550.242728,16380.364165,15055.129237,6214.813139,6820.724228,19.520000,-838.872009,-544.608032,3220.000000,560.000000,-980.000000
9.767712,5117.409541,1062.311359,-5382.233010,10195.703530,7562.444516,3383.428262,-3786.363159,-7190.936171,13313.391902,8164.041718,15506.612123,16319.030979,14992.432593,6171.629569,6785.050843,20.496000,-836.919983,-539.239990,3360.000000,560.000000,-1400.000000
13.321640,5117.677762,1068.972179,-5353.980405,10202.945495,7568.904170,3393.844175,-3779.814098,-7197.306418,13289.564942,8138.471322,15488.998948,16294.712281,14972.383079,6154.664594,6774.925503,18.544001,-836.432007,-542.168030,3360.000000,560.000000,-1540.000000
13.165177,5114.593221,1080.528030,-5370.543047,10207.728768,7578.940103,3396.481680,-3786.206697,-7187.136374,13308.742739,8155.101020,15503.281713,16316.594638,14997.752309,6172.389528,6789.431785,20.984001,-836.432007,-542.656006,3500.000000,560.000000,-1820.000000
3.911555,5103.707922,1091.390978,-5426.981202,10206.320608,7586.427937,3386.691616,-3802.523470,-7169.299682,13359.391792,8205.079520,15541.994934,16371.915206,15056.872673,6213.270868,6823.071161,17.568001,-835.455994,-542.656006,3640.000000,280.000000,-1820.000000
-11.220576,5087.569962,1090.049874,-5494.215249,10196.932876,7585.600923,3368.519648,-3819.063761,-7150.166589,13414.019455,8261.942358,15582.764516,16432.913117,15121.133938,6255.560369,6861.158533,17.080000,-836.432007,-543.143982,3780.000000,0.000000,-1820.000000
-19.468369,5079.925666,1081.891487,-5530.469779,10187.545143,7580.102394,3354.996843,-3825.612822,-7143.081086,13441.020362,8290.664350,15602.925790,16464.920815,15151.979345,6274.984035,6879.263446,18.056000,-834.968018,-543.143982,3640.000000,0.000000,-2100.000000
-20.049515,5083.546648,1070.916780,-5522.959593,10181.733690,7571.966359,3352.493447,-3817.566194,-7150.680679,13430.380932,8280.784879,15597.024929,16456.315393,15137.182490,6265.864523,6873.854324,14.640000,-835.455994,-542.168030,3360.000000,-420.000000,-1960.000000
-17.546119,5088.441680,1057.706899,-5480.804203,10175.542256,7563.495048,3354.236883,-3803.641057,-7169.813772,13388.963150,8240.395277,15566.984185,16412.640084,15087.539266,6230.638174,6847.501617,14.640000,-835.455994,-543.632019,3500.000000,-420.000000,-1820.000000
-11.980535,5090.565096,1049.347347,-5428.411714,10172.077736,7558.220036,3359.623654,-3793.806290,-7192.165517,13339.834015,8191.824936,15527.354542,16360.560520,15029.178861,6188.281618,6815.404512,12.688000,-836.432007,-540.703979,3360.000000,-700.000000,-1540.000000
-9.387733,5087.279390,1048.118001,-5395.509946,10171.049556,7557.974167,3362.842305,-3791.951095,-7207.118834,13309.569753,8162.611206,15501.940608,16327.234069,14994.958341,6160.431345,6796.003198,10.736000,-835.455994,-545.096008,2800.000000,-840.000000,-1120.000000
-17.568471,5074.471840,1049.548513,-5405.858803,10166.445096,7559.315271,3356.650872,-3800.288296,-7203.028465,13314.665951,8170.993110,15503.438175,16335.347752,15004.435480,6161.794801,6800.875878,9.760000,-836.919983,-545.583984,2380.000000,-1120.000000,-700.000000
-28.543178,5058.780916,1054.488248,-5455.032641,10161.304195,7561.617501,3344.893854,-3815.532185,-7185.549401,13354.921443,8213.103797,15533.322457,16380.252407,15053.743428,6193.221354,6827.899137,8.296000,-837.408020,-547.048035,2100.000000,-1120.000000,-280.000000
-40.300195,5047.515636,1058.891542,-5523.049000,10155.246872,7564.746745,3330.387572,-3829.658488,-7161.744793,13412.901868,8272.961768,15576.617786,16444.133692,15121.200993,6239.288299,6865.807696,6.832000,-836.919983,-543.632019,2100.000000,-1540.000000,140.000000
-48.592692,5041.033630,1054.868228,-5572.982797,10145.121532,7561.461039,3317.624726,-3837.571006,-7147.529083,13452.643270,8314.647772,15605.205668,16488.636015,15166.105648,6271.519515,6892.115699,8.296000,-837.408020,-548.512024,1540.000000,-1680.000000,700.000000
-47.385698,5045.213407,1046.799248,-5575.352082,10141.120570,7556.253082,3318.474092,-3831.670145,-7149.786609,13452.285642,8315.407731,15607.463194,16489.105402,15165.300985,6274.559352,6892.227458,9.760000,-836.432007,-544.608032,1400.000000,-1540.000000,1120.000000
-39.964919,5059.809096,1038.931434,-5531.319145,10142.573433,7551.961547,3328.465322,-3815.576889,-7165.052851,13413.080682,8275.554571,15581.646929,16446.994716,15117.021217,6244.049221,6865.807696,12.200000,-837.408020,-544.119995,980.000000,-1820.000000,1540.000000
-30.778352,5073.801288,1034.438733,-5469.002482,10147.446114,7546.999460,3341.988127,-3801.852918,-7186.309360,13359.145923,8220.211651,15542.598431,16387.874351,15053.586966,6200.262153,6832.011858,10.736000,-836.919983,-539.239990,1120.000000,-1820.000000,1540.000000
-19.446018,5083.546648,1040.786629,-5414.307763,10157.549102,7548.944062,3356.807334,-3791.548764,-7201.597953,13315.738835,8177.631578,15509.674312,16339.795749,15004.189611,6165.996929,6806.687332,15.128000,-838.384033,-537.776001,980.000000,-1540.000000,1820.000000
-13.455750,5085.826526,1051.783687,-5394.861745,10168.814381,7557.817704,3366.463288,-3789.157127,-7201.486194,13303.177154,8162.320633,15498.878419,16324.663618,14993.572532,6159.492571,6799.937105,12.200000,-835.944031,-537.288025,1120.000000,-1540.000000,1820.000000
-17.076733,5076.505849,1062.244303,-5426.310650,10171.831867,7567.183085,3363.803430,-3798.813081,-7183.895371,13330.312172,8190.439128,15519.754949,16355.821950,15032.509271,6185.241781,6819.941916,14.640000,-838.872009,-541.192017,1260.000000,-1260.000000,1960.000000
-27.514997,5060.166724,1066.580542,-5489.879011,10164.835771,7567.585417,3348.157209,-3814.056970,-7160.582502,13380.558894,8243.993907,15558.021135,16413.847079,15094.490659,6225.206700,6853.693051,15.616000,-838.872009,-543.143982,980.000000,-1120.000000,1680.000000
-34.622852,5053.707070,1064.345367,-5547.390049,10157.035012,7564.679690,3332.332174,-3823.735276,-7141.918795,13428.749255,8293.570077,15595.437955,16466.485437,15146.994906,6262.511761,6883.420871,15.616000,-836.919983,-544.608032,1260.000000,-1120.000000,1540.000000
-38.914387,5054.467029,1059.495039,-5569.808849,10150.664765,7560.544617,3325.894871,-3822.684744,-7137.850778,13446.653002,8314.759530,15611.464156,16486.736117,15165.032764,6276.749823,6894.037949,15.128000,-838.872009,-542.168030,1400.000000,-420.000000,1260.000000
-37.752096,5060.054965,1050.263768,-5548.127657,10147.468465,7554.397888,3327.347735,-3811.307706,-7149.361926,13424.457720,8297.638094,15598.433089,16464.987870,15140.490549,6260.298939,6882.169173,15.616000,-838.872009,-542.168030,1540.000000,-420.000000,1120.000000
-26.933852,5074.695358,1045.011109,-5489.834307,10151.335317,7550.262815,3340.222340,-3795.527374,-7170.238456,13372.579321,8245.759695,15562.647946,16408.370901,15079.894969,6220.289316,6850.362641,16.592001,-838.872009,-542.168030,1820.000000,0.000000,980.000000
-14.282765,5088.955771,1045.324033,-5425.282469,10161.304195,7550.508684,3357.589645,-3783.859764,-7194.490098,13317.348160,8189.254485,15520.850184,16349.317592,15018.159451,6180.458508,6814.957477,15.128000,-835.455994,-539.239990,1820.000000,420.000000,700.000000
-6.817282,5093.582582,1053.348309,-5393.118309,10171.675405,7555.984861,3368.452593,-3784.150336,-7203.542555,13292.001282,8162.946482,15501.024187,16321.377912,14992.097317,6162.644167,6797.925448,15.616000,-836.919983,-544.119995,2240.000000,700.000000,420.000000
-9.879471,5085.446547,1063.317187,-5410.083283,10174.648187,7564.031489,3366.239770,-3796.376741,-7193.864249,13308.005131,8178.883276,15512.110652,16338.588755,15013.175012,6175.250551,6807.223774,15.616000,-836.432007,-542.656006,2380.000000,980.000000,280.000000
-18.306079,5074.248323,1073.844859,-5464.353319,10174.357614,7572.346338,3355.645043,-3812.335886,-7168.450316,13357.491893,8230.985192,15551.203853,16394.043433,15071.960100,6214.142586,6840.326707,14.152000,-833.504028,-543.143982,2380.000000,1400.000000,-140.000000
-29.884282,5063.161858,1075.990626,-5530.358020,10165.886303,7571.966359,3339.596491,-3828.786770,-7142.589348,13413.997103,8290.127908,15595.348548,16455.488378,15135.439054,6257.326157,6877.318844,14.152000,-830.575989,-542.656006,2520.000000,1540.000000,0.000000
-34.689907,5060.345538,1069.642731,-5568.445393,10154.799837,7566.154905,3326.252499,-3834.665279,-7127.792493,13444.931918,8321.733275,15621.723607,16489.083050,15165.859779,6280.437861,6896.563696,14.152000,-832.040039,-544.608032,2660.000000,1820.000000,-280.000000
-34.309928,5066.045233,1060.880847,-5560.734041,10147.513169,7557.884760,3322.877386,-3825.299898,-7132.531063,13436.550014,8311.987914,15617.655589,16479.851780,15152.046401,6272.055956,6888.874696,12.200000,-829.600037,-543.143982,2660.000000,1960.000000,-420.000000
-28.990213,5074.583599,1051.001376,-5513.102473,10146.440285,7550.441629,3331.192235,-3809.206642,-7149.518388,13396.071004,8267.977329,15585.245560,16434.008352,15099.072766,6238.014250,6860.778554,14.152000,-829.600037,-542.656006,2520.000000,2100.000000,-420.000000
-23.379925,5081.065605,1045.458143,-5453.579778,10149.457771,7547.826475,3341.317575,-3796.533203,-7168.427964,13344.080847,8212.902631,15542.844301,16379.224226,15037.940745,6196.216487,6827.742675,9.760000,-830.575989,-542.656006,2660.000000,2100.000000,-420.000000
-19.267204,5081.534991,1048.497981,-5413.860728,10155.090410,7550.799257,3350.034755,-3792.152261,-7183.269523,13310.106195,8179.196200,15517.095091,16344.109636,15001.954437,6169.953188,6805.748559,13.176001,-831.552002,-543.632019,2520.000000,2100.000000,-560.000000
-19.356611,5077.086994,1055.963463,-5410.865594,10158.666689,7556.700117,3353.633386,-3800.042427,-7182.107232,13308.116890,8176.357529,15516.759815,16338.968735,15003.116727,6168.969711,6804.005123,11.224000,-831.552002,-545.096008,2520.000000,1680.000000,-280.000000
-26.263300,5067.654558,1064.747699,-5451.389307,10159.739573,7562.377460,3347.330194,-3815.979220,-7164.672871,13343.186777,8212.679113,15543.872481,16374.843284,15046.345001,6199.613953,6826.200405,11.224000,-832.040039,-545.096008,2380.000000,1540.000000,-420.000000
-32.007698,5060.725517,1071.967312,-5508.587421,10159.583111,7567.719527,3337.070744,-3828.317383,-7139.996545,13393.187629,8263.350518,15583.278606,16429.314486,15106.404138,6242.574005,6858.342213,11.224000,-834.968018,-545.096008,2520.000000,1400.000000,-420.000000
-33.371154,5062.983044,1075.320074,-5552.821523,10158.554931,7569.105335,3330.722848,-3829.457322,-7117.689504,13434.516005,8305.550612,15618.348493,16475.984928,15151.621717,6274.045262,6885.477231,12.688000,-835.455994,-544.119995,2520.000000,1260.000000,-700.000000
-33.661727,5067.900427,1069.039234,-5558.364756,10158.063192,7564.836152,3330.119351,-3822.952965,-7118.203594,13438.181691,8309.506870,15622.215345,16479.941187,15154.013354,6278.180334,6890.126394,15.616000,-835.944031,-538.752014,2520.000000,840.000000,-560.000000
-29.303137,5075.768241,1060.098536,-5520.635011,10156.856198,7557.169504,3333.226244,-3811.263002,-7132.843987,13405.458737,8276.381585,15597.226095,16442.747884,15112.595572,6248.676032,6867.260559,17.080000,-839.359985,-543.632019,2940.000000,560.000000,-840.000000
-21.457675,5085.513602,1053.415364,-5458.675976,10157.772619,7552.632100,3344.580930,-3797.047293,-7156.805057,13351.322812,8219.518747,15554.444856,16383.024023,15048.110789,6204.464281,6830.268422,15.616000,-838.384033,-542.168030,2940.000000,420.000000,-980.000000
-14.841558,5091.526221,1052.074260,-5406.842280,10162.019451,7554.241425,3357.366128,-3789.984142,-7178.262732,13305.792309,8172.378918,15517.653885,16336.197118,14998.668730,6169.059118,6803.066349,20.007999,-835.944031,-542.168030,2800.000000,-140.000000,-1260.000000
-11.913480,5090.475689,1057.170458,-5392.783033,10165.081640,7558.935292,3361.568256,-3793.649828,-7182.867191,13293.230628,8160.376031,15506.880344,16323.926011,14987.939893,6161.124249,6796.182012,21.472000,-837.895996,-536.799988,2380.000000,-420.000000,-1540.000000
-14.685096,5082.294951,1068.100461,-5422.622612,10166.825076,7565.350242,3355.466229,-3805.831528,-7170.752546,13320.387998,8188.650988,15528.002742,16353.005630,15021.221640,6183.520697,6813.772835,19.520000,-836.919983,-539.728027,2520.000000,-1120.000000,-1680.000000
-23.491683,5071.074375,1076.527068,-5479.463098,10164.209922,7570.781716,3344.200950,-3818.884947,-7152.468819,13369.517132,8240.998774,15567.498275,16406.448651,15080.744336,6226.748970,6847.501617,20.007999,-835.944031,-538.263977,1960.000000,-1820.000000,-2100.000000
-30.420724,5064.815887,1078.918705,-5533.420209,10159.873683,7571.295806,3333.606223,-3827.222148,-7134.587423,13415.941705,8290.776109,15605.585647,16456.427152,15134.679095,6265.439840,6876.804754,19.032000,-836.919983,-542.656006,1400.000000,-2100.000000,-2100.000000
-32.879416,5066.335805,1072.906086,-5554.341442,10155.358631,7566.221960,3328.688840,-3826.372782,-7131.458179,13432.705514,8308.612801,15620.136633,16475.940225,15151.040572,6279.141459,6886.483060,20.496000,-839.848022,-540.216003,1120.000000,-2660.000000,-2380.000000
-23.894015,5080.506811,1066.893466,-5527.675811,10157.616157,7561.438687,3335.908453,-3813.788749,-7140.354173,13412.901868,8285.858725,15605.831516,16452.984983,15122.229173,6260.097773,6871.261522,17.080000,-836.919983,-542.656006,1120.000000,-2800.000000,-2240.000000
-15.221538,5091.146242,1059.942074,-5471.595284,10159.896035,7556.655414,3346.614939,-3798.097825,-7161.945958,13363.817437,8237.713067,15568.660565,16400.346625,15063.824065,6218.523528,6839.231472,16.104000,-839.848022,-542.656006,560.000000,-2940.000000,-2100.000000
-11.064114,5096.600067,1056.164629,-5413.748969,10164.634605,7554.934329,3359.221322,-3788.553630,-7184.543572,13310.910858,8183.733604,15528.516832,16344.802540,15005.038977,6177.508077,6807.357884,14.640000,-841.799988,-539.728027,420.000000,-3220.000000,-1960.000000
-8.918346,5096.845936,1060.612626,-5384.021149,10169.104954,7557.437725,3367.357357,-3791.392301,-7193.841898,13285.184000,8155.011613,15506.388605,16315.298237,14978.820381,6159.112592,6790.527021,17.080000,-840.335999,-541.679993,280.000000,-2800.000000,-1540.000000
-11.041762,5087.793480,1069.732138,-5400.248516,10171.116611,7562.042184,3364.675148,-3803.506947,-7183.984778,13300.718463,8169.316729,15516.558649,16331.659714,14997.998178,6170.891961,6800.160623,15.616000,-840.335999,-546.072021,420.000000,-2520.000000,-840.000000
-19.557776,5072.683701,1077.376434,-5451.746935,10168.657919,7565.327891,3353.298110,-3820.203700,-7164.427002,13343.678515,8214.802529,15549.549824,16381.526456,15050.837702,6206.051255,6826.133350,13.176001,-840.824036,-545.583984,0.000000,-1960.000000,-560.000000
-28.029088,5060.077317,1081.019769,-5514.890613,10163.248797,7566.758402,3338.009517,-3833.301822,-7142.231720,13397.032129,8270.994815,15591.705214,16440.222137,15113.757862,6245.949119,6858.073992,15.616000,-842.776001,-543.632019,420.000000,-1540.000000,280.000000
-32.678250,5056.478686,1077.555248,-5551.659233,10158.219654,7564.344414,3330.812255,-3834.262947,-7133.492188,13428.212813,8303.136623,15616.895630,16473.660347,15149.185377,6271.228942,6879.710481,15.128000,-842.776001,-545.583984,980.000000,-560.000000,560.000000
-27.202073,5068.235703,1072.302588,-5540.416305,10157.772619,7561.081059,3334.835569,-3823.243537,-7139.728324,13420.836737,8295.604085,15612.693502,16464.764352,15136.511938,6267.183276,6874.211952,11.224000,-846.192017,-544.608032,1400.000000,0.000000,1120.000000
-17.948451,5082.764337,1065.418251,-5492.203592,10160.007794,7556.320138,3345.720869,-3809.698380,-7159.733136,13380.268321,8256.086201,15581.557522,16420.776119,15085.281740,6234.214453,6848.529798,15.128000,-847.656006,-544.119995,1820.000000,980.000000,1260.000000
-15.735628,5086.765300,1055.985815,-5437.732391,10158.152599,7550.396925,3353.789849,-3800.556517,-7186.823450,13329.976896,8207.493509,15541.860824,16365.969642,15025.133196,6192.416691,6817.393818,15.128000,-847.656006,-543.143982,2380.000000,1680.000000,1680.000000
-11.309983,5090.386282,1059.360928,-5397.879231,10162.175913,7553.235597,3364.339872,-3794.275677,-7204.481328,13296.941018,8173.518857,15514.144661,16328.128139,14989.325701,6164.700528,6795.846736,15.128000,-845.703979,-541.192017,2800.000000,2240.000000,1820.000000
-15.109779,5084.954808,1066.915818,-5398.549783,10164.366384,7559.315271,3366.887971,-3800.332999,-7204.548383,13297.566867,8172.982415,15509.629608,16329.938630,14994.779527,6164.901693,6799.288905,16.592001,-843.752014,-541.679993,3220.000000,2380.000000,1680.000000
-22.821131,5073.018977,1077.421138,-5444.013231,10165.483971,7566.467830,3361.009462,-3814.414598,-7189.080976,13336.972992,8212.992038,15538.351600,16375.871465,15042.902832,6198.965752,6827.697972,14.152000,-840.335999,-538.263977,3920.000000,2520.000000,1400.000000
-31.538311,5062.781878,1082.919667,-5505.569936,10164.142867,7570.625254,3349.006575,-3828.183273,-7169.590255,13389.991330,8267.463239,15579.232941,16434.656553,15105.733586,6241.791694,6863.393708,14.640000,-840.824036,-537.776001,3640.000000,1960.000000,1120.000000
-34.488742,5063.094802,1083.478461,-5548.753506,10162.734707,7569.597074,3338.948290,-3834.397058,-7154.324014,13429.240993,8307.226993,15610.078348,16476.610777,15148.783046,6272.324177,6888.315903,15.616000,-835.944031,-539.728027,3640.000000,1960.000000,980.000000
-34.444038,5069.107422,1076.638827,-5554.363794,10158.733744,7563.338585,3334.522645,-3830.619613,-7152.513522,13431.900851,8309.953905,15614.593400,16479.114172,15149.431246,6274.939331,6888.472365,15.616000,-834.479980,-539.239990,3220.000000,1400.000000,700.000000
-27.492646,5080.551515,1066.871115,-5516.611697,10158.510227,7554.375536,3340.043526,-3815.688648,-7163.085897,13396.540391,8274.258169,15589.760612,16439.775102,15106.895877,6246.150285,6864.757164,16.104000,-833.992004,-541.679993,2800.000000,1120.000000,560.000000
-18.239023,5089.849840,1060.478516,-5456.865484,10160.052497,7549.502855,3350.615901,-3803.328133,-7183.448337,13343.320887,8223.676172,15549.818045,16381.459401,15045.272117,6202.474976,6830.134312,17.080000,-827.648010,-540.703979,2380.000000,420.000000,280.000000
-13.567509,5091.973256,1057.461030,-5407.535184,10160.655994,7545.546597,3359.266026,-3800.824738,-7201.553250,13296.359872,8178.078613,15513.161184,16331.324438,14993.706643,6165.214618,6799.087739,15.616000,-826.671997,-539.239990,1960.000000,280.000000,420.000000
-11.511148,5090.185117,1063.898333,-5391.665446,10166.221579,7550.173408,3365.993901,-3802.791691,-7206.247116,13283.485268,8165.561636,15502.164126,16319.589772,14982.039032,6158.553798,6790.638779,14.152000,-824.720032,-541.192017,1260.000000,0.000000,140.000000
-13.187529,5084.083090,1076.974103,-5419.135740,10170.513114,7561.326928,3364.943369,-3811.307706,-7193.283104,13311.514355,8191.132032,15521.498385,16350.524587,15015.343131,6184.504173,6808.967210,14.152000,-821.791992,-548.023987,1120.000000,0.000000,280.000000
-20.608308,5073.644826,1085.981856,-5477.317331,10169.820210,7567.943045,3355.466229,-3824.830511,-7170.260807,13362.699850,8242.786913,15561.597414,16407.163907,15076.855132,6228.380648,6843.187731,12.688000,-821.304016,-548.512024,700.000000,-140.000000,560.000000
-28.766695,5066.894599,1086.093615,-5534.917776,10162.533541,7565.037318,3341.027002,-3836.140494,-7149.272519,13410.577287,8292.541896,15601.495278,16460.651631,15131.683961,6267.451497,6872.781440,15.128000,-820.328003,-549.976013,280.000000,560.000000,700.000000
-32.633547,5067.185172,1079.298685,-5558.901198,10157.079715,7559.516437,3333.092133,-3836.140494,-7142.879920,13430.291525,8313.127853,15617.141499,16480.790553,15151.822883,6281.734262,6885.499583,11.224000,-820.328003,-549.976013,0.000000,840.000000,840.000000
-27.917329,5074.695358,1069.665083,-5537.443523,10155.403335,7553.503818,3334.500293,-3826.216319,-7151.842970,13412.253667,8293.190097,15603.350473,16458.930547,15126.498357,6263.562293,6872.557923,7.808000,-820.328003,-551.927979,-280.000000,1120.000000,1120.000000
-17.724933,5087.726425,1062.959559,-5478.949008,10158.443172,7549.704021,3346.078497,-3811.687685,-7174.328825,13361.425800,8241.602271,15565.263100,16404.235828,15066.282757,6221.853938,6839.097361,7.808000,-824.720032,-553.392029,-420.000000,1540.000000,1260.000000
-6.392599,5098.835242,1061.685510,-5417.258193,10162.958224,7548.653489,3359.668357,-3798.544860,-7194.065415,13308.362759,8186.840497,15525.052312,16347.328287,15003.921390,6176.725766,6806.150890,1.464000,-826.671997,-555.343994,-560.000000,2100.000000,1400.000000
-5.967916,5095.393073,1064.300664,-5391.888963,10162.041803,7549.391097,3362.305863,-3799.237764,-7200.770938,13285.228704,8162.164171,15505.583943,16321.914354,14977.702794,6152.965862,6791.868125,1.952000,-826.184021,-556.807983,-280.000000,2520.000000,1680.000000
-13.656916,5083.501945,1072.570809,-5409.658600,10160.231311,7552.743858,3355.622692,-3814.056970,-7192.813717,13301.165497,8178.011558,15515.821042,16335.504214,14998.042881,6162.308891,6799.802995,1.464000,-828.135986,-555.832031,-560.000000,3080.000000,1680.000000
-24.497512,5073.041329,1080.997417,-5459.905322,10161.035974,7558.644719,3348.470133,-3829.412619,-7174.194714,13344.125550,8220.993962,15548.722809,16382.420526,15052.290565,6203.011418,6829.910794,0.488000,-831.552002,-555.832031,-420.000000,2940.000000,1820.000000
-34.064059,5065.039404,1083.970199,-5519.316258,10156.833846,7561.550446,3337.428372,-3840.521436,-7154.100496,13393.277036,8271.888885,15588.732432,16439.886861,15111.813261,6247.245520,6863.416059,0.000000,-830.575989,-553.880005,280.000000,3220.000000,1540.000000
-40.791934,5060.949035,1079.276333,-5554.184980,10149.435419,7558.555312,3326.677183,-3844.924729,-7142.812865,13422.244897,8300.454414,15611.195935,16472.296890,15139.864700,6269.463154,6882.459746,-0.488000,-835.455994,-554.367981,420.000000,3080.000000,1400.000000
-40.769582,5066.089936,1071.073243,-5546.741849,10143.422800,7551.738030,3326.408962,-3837.593357,-7145.316260,13414.555897,8291.826641,15604.333950,16464.965518,15126.073673,6261.796506,6876.156554,0.976000,-833.504028,-549.976013,980.000000,3220.000000,1260.000000
-30.353669,5080.573866,1064.479478,-5498.775005,10145.032125,7546.150094,3336.802523,-3820.717790,-7160.247226,13374.970958,8249.425381,15572.639176,16420.999637,15075.849304,6227.374819,6848.462742,3.416000,-838.872009,-549.487976,1680.000000,2940.000000,700.000000
-20.831826,5093.649637,1061.283178,-5435.251347,10151.804704,7544.049030,3351.755840,-3808.089055,-7182.129584,13320.253887,8193.791889,15533.389513,16358.995898,15013.890268,6185.889981,6812.789358,6.344000,-835.455994,-549.487976,2100.000000,2660.000000,420.000000
-19.647183,5095.616590,1062.110193,-5392.179536,10157.258529,7545.345431,3361.948235,-3803.976334,-7197.731101,13281.406555,8155.101020,15504.041672,16317.019322,14973.455962,6157.100935,6788.045977,8.784000,-836.432007,-550.463989,2800.000000,2100.000000,-280.000000
-23.670497,5089.849840,1070.000359,-5392.827736,10160.901864,7551.782733,3363.378747,-3810.100712,-7196.345293,13279.886637,8156.218607,15505.136908,16318.136909,14979.110954,6160.319586,6790.147041,11.712000,-837.408020,-544.119995,2940.000000,1960.000000,-840.000000
-31.650070,5078.182230,1080.863307,-5440.861635,10159.292538,7558.689422,3354.974491,-3825.411657,-7177.078089,13323.919573,8201.167965,15537.792806,16364.673241,15031.995181,6194.897735,6820.813634,15.128000,-835.944031,-544.119995,3360.000000,1260.000000,-1400.000000
-40.680175,5063.765355,1086.250077,-5506.955744,10154.576320,7562.064536,3341.228168,-3838.174503,-7152.424115,13381.788240,8258.768411,15581.982205,16427.347532,15099.855077,6241.299956,6860.108001,15.128000,-837.408020,-543.632019,3360.000000,840.000000,-1960.000000
-49.039727,5055.495209,1084.864269,-5556.241340,10148.898977,7559.739954,3329.717020,-3840.633195,-7135.056810,13421.976676,8301.951981,15614.951028,16472.140428,15146.860796,6277.219209,6885.834859,20.496000,-838.384033,-544.608032,3500.000000,0.000000,-2380.000000
-50.760812,5056.813962,1076.929400,-5563.572712,10143.847483,7553.660280,3323.145607,-3835.000555,-7133.961574,13426.223508,8308.322228,15619.086101,16476.990757,15147.866624,6278.806183,6884.761975,19.520000,-841.799988,-544.608032,3220.000000,-700.000000,-2940.000000
-40.747230,5067.989834,1069.620379,-5522.981944,10146.373230,7547.982937,3328.621784,-3820.851901,-7148.311394,13390.773641,8273.364100,15592.733394,16437.048189,15104.303074,6247.290224,6857.582254,22.448000,-838.384033,-544.608032,3220.000000,-980.000000,-3080.000000
-28.990213,5079.679797,1067.094632,-5459.592397,10152.922291,7546.306556,3342.904549,-3804.043389,-7170.596083,13340.035181,8220.211651,15551.650888,16379.224226,15043.752199,6204.330171,6822.490015,20.984001,-837.408020,-543.143982,3080.000000,-1680.000000,-3500.000000
-26.844445,5081.982026,1065.328844,-5409.233917,10156.051535,7546.395963,3354.952139,-3795.639133,-7192.590200,13297.253942,8175.262293,15514.614047,16332.822005,14994.399547,6170.668444,6796.137309,24.888000,-836.432007,-545.096008,2800.000000,-2100.000000,-3500.000000
-27.626756,5079.724500,1070.693263,-5395.062911,10159.940739,7551.022774,3360.338910,-3795.348560,-7199.362779,13286.279236,8162.968834,15503.080547,16320.483842,14983.022509,6162.241836,6790.325855,26.840000,-834.968018,-544.608032,2800.000000,-2240.000000,-3640.000000
-30.487779,5070.225009,1081.176231,-5426.310650,10161.594768,7557.616539,3354.370994,-3806.971467,-7190.310322,13316.364684,8192.450785,15523.063007,16350.882214,15019.567611,6185.420595,6811.269440,26.352001,-834.968018,-544.119995,2800.000000,-2100.000000,-3640.000000
-34.667556,5063.988872,1092.083882,-5480.960665,10161.751230,7564.299710,3345.296186,-3821.187177,-7173.568865,13367.997213,8242.518692,15561.418600,16405.085195,15080.297301,6226.212528,6844.730001,27.328001,-834.968018,-544.119995,2520.000000,-1820.000000,-3640.000000
-41.171913,5056.121058,1095.146071,-5537.242357,10156.766791,7565.752574,3334.388534,-3828.518549,-7156.492133,13417.998066,8292.743062,15599.774194,16458.930547,15135.371999,6266.423317,6877.251789,25.375999,-833.504028,-549.000000,2520.000000,-1680.000000,-3360.000000
-44.614082,5054.914064,1087.702940,-5562.186904,10149.748343,7561.461039,3326.252499,-3828.071514,-7148.914891,13435.879461,8314.088978,15614.548697,16480.343518,15153.387505,6279.007349,6887.980627,30.256001,-836.432007,-547.536011,2520.000000,-1260.000000,-3080.000000
-40.121381,5065.039404,1078.896353,-5537.532930,10146.775561,7554.196722,3329.113523,-3816.381552,-7158.794362,13413.572420,8292.497193,15597.293150,16455.130751,15125.716046,6257.795543,6867.729946,25.864000,-833.504028,-548.512024,2520.000000,-700.000000,-2940.000000
-28.811399,5081.020901,1073.911914,-5479.127822,10149.837750,7548.318213,3339.954119,-3800.936496,-7175.044081,13367.326661,8244.597405,15560.993917,16401.777137,15066.662737,6215.371932,6831.877748,26.352001,-834.479980,-549.487976,2940.000000,-280.000000,-2660.000000
-22.821131,5089.626323,1070.112118,-5417.414655,10153.950471,7543.445533,3349.475962,-3792.442833,-7200.212145,13314.554192,8190.260314,15518.503251,16343.170863,15003.720224,6172.188362,6795.153832,27.328001,-833.992004,-549.000000,2800.000000,420.000000,-2240.000000
-20.653012,5087.882887,1071.073243,-5385.004626,10158.487875,7543.289071,3356.427354,-3795.013284,-7216.797139,13285.876904,8156.665642,15492.061137,16310.917295,14971.868988,6151.043612,6775.350186,23.912001,-833.504028,-549.976013,3220.000000,980.000000,-1820.000000
-21.502378,5080.886791,1079.723368,-5394.951152,10162.354727,7549.659318,3359.601302,-3804.535127,-7215.076055,13295.354044,8163.170000,15496.173858,16320.148566,14985.771774,6161.839504,6782.346282,24.888000,-832.528015,-546.072021,2940.000000,1680.000000,-1260.000000
-27.492646,5073.242494,1090.675722,-5444.348507,10164.299329,7556.431896,3353.387517,-3819.823720,-7196.389997,13338.492911,8204.900706,15530.304972,16367.735430,15039.907699,6201.178575,6810.978867,23.424000,-834.479980,-548.023987,2940.000000,2100.000000,-700.000000
-35.516922,5066.715785,1096.777749,-5506.061674,10161.840637,7560.566969,3342.368107,-3830.150226,-7176.832220,13389.901923,8258.701355,15574.181446,16427.034608,15103.029025,6246.753782,6846.048754,20.496000,-833.992004,-549.000000,2940.000000,2660.000000,-280.000000
-40.836637,5061.619587,1093.357932,-5548.529988,10154.866893,7560.254045,3331.728677,-3830.954889,-7163.398822,13426.715246,8297.995722,15605.004502,16468.452390,15142.837482,6273.106488,6869.696900,19.520000,-832.040039,-545.583984,2940.000000,2800.000000,140.000000
-40.993099,5063.430078,1084.081958,-5547.054773,10149.211901,7554.844922,3328.375915,-3821.768322,-7167.600950,13423.854223,8297.369873,15604.468060,16467.446562,15135.349647,6268.278512,6867.685243,19.032000,-833.015991,-548.023987,2380.000000,2800.000000,700.000000
-31.828884,5075.790593,1077.465841,-5499.557316,10150.195378,7548.675841,3337.540130,-3806.010342,-7181.883714,13384.671615,8258.008451,15575.343737,16425.000599,15083.739469,6234.303860,6838.493864,18.056000,-832.040039,-545.583984,1960.000000,2940.000000,1400.000000
-21.278861,5089.358102,1075.185964,-5434.692554,10154.531617,7546.395963,3352.158171,-3792.085206,-7197.395825,13332.659105,8201.927924,15535.043542,16366.975470,15019.567611,6189.689778,6800.428844,14.640000,-834.479980,-545.096008,1820.000000,3080.000000,1680.000000
-12.338163,5096.488308,1080.282161,-5388.737367,10160.901864,7549.815780,3364.473982,-3787.570153,-7205.375398,13296.628093,8160.823066,15506.701530,16325.244764,14977.211055,6159.716089,6776.065442,13.176001,-834.968018,-545.096008,1260.000000,2520.000000,2100.000000
-9.924175,5091.503869,1088.217031,-5386.569248,10164.209922,7555.068440,3366.552695,-3794.163918,-7200.078034,13294.281160,8160.912473,15505.025149,16324.015418,14980.005023,6159.604330,6776.244256,13.664001,-836.919983,-546.559998,1260.000000,2660.000000,2240.000000
-17.210843,5077.221105,1096.822452,-5429.976336,10163.740535,7561.595149,3360.003633,-3807.262040,-7183.202467,13329.373399,8200.899744,15533.031885,16365.701421,15027.815405,6193.199002,6802.596963,14.152000,-836.919983,-545.583984,560.000000,2100.000000,2380.000000
-25.302175,5069.934436,1106.031371,-5489.834307,10162.578245,7566.445478,3350.437087,-3821.209529,-7162.571807,13381.676481,8256.600291,15573.577949,16422.497204,15090.824972,6238.282470,6837.845664,15.616000,-835.455994,-544.608032,420.000000,1540.000000,2380.000000
-32.857064,5063.899465,1104.980839,-5536.929433,10157.102067,7565.439649,3342.703383,-3829.300860,-7150.188941,13420.188537,8297.615742,15603.953970,16465.725477,15135.662572,6271.027776,6863.684280,9.760000,-835.944031,-547.048035,280.000000,1120.000000,2240.000000
-34.600500,5063.363023,1097.694170,-5546.026593,10152.587015,7558.845885,3339.507084,-3824.025848,-7151.977080,13426.782301,8304.969466,15608.290208,16472.363946,15139.529424,6274.447593,6867.305263,11.224000,-836.919983,-545.583984,140.000000,840.000000,2100.000000
-32.722954,5069.442698,1087.054740,-5515.427055,10148.139018,7549.480504,3341.831665,-3811.374761,-7165.097554,13399.043786,8277.007434,15586.832534,16440.870338,15101.307941,6246.776133,6847.121638,11.224000,-837.895996,-544.608032,140.000000,700.000000,1960.000000
-25.056306,5079.948018,1079.790423,-5455.636138,10151.067096,7545.412486,3354.773325,-3795.415615,-7188.097499,13347.075981,8226.179567,15545.750027,16383.605168,15039.483015,6203.816081,6811.783530,10.248000,-834.968018,-541.679993,-420.000000,280.000000,1400.000000
-14.908614,5091.079186,1081.623266,-5397.923934,10159.784276,7547.737068,3370.218381,-3783.837412,-7205.911840,13300.249076,8177.206895,15507.774414,16331.771473,14985.771774,6165.080507,6779.552314,7.808000,-835.944031,-541.679993,140.000000,140.000000,1120.000000
-10.237099,5093.895506,1089.625190,-5380.534277,10165.483971,7553.749687,3377.147421,-3786.743139,-7209.197546,13286.167477,8161.158342,15498.297274,16317.622819,14972.427782,6153.278786,6770.142230,9.760000,-834.968018,-545.583984,420.000000,140.000000,840.000000
-15.556814,5084.418366,1096.800100,-5413.525452,10165.305157,7559.225864,3370.732471,-3801.897621,-7197.306418,13314.755358,8188.069843,15520.805481,16347.462398,15008.682312,6177.083394,6789.074157,12.200000,-835.944031,-541.192017,560.000000,-280.000000,420.000000
-25.078657,5072.460183,1103.840900,-5473.785755,10162.555893,7563.718565,3359.690709,-3819.600203,-7178.329787,13366.656109,8241.043477,15559.563405,16403.811145,15072.429487,6222.815063,6823.697010,11.224000,-831.064026,-544.119995,700.000000,0.000000,-140.000000
-36.232178,5065.195866,1105.092598,-5531.341497,10159.225483,7564.791449,3348.358375,-3829.054991,-7160.828371,13415.941705,8294.821774,15596.332025,16459.332879,15129.985229,6265.439840,6858.699841,11.224000,-832.528015,-541.679993,1260.000000,-140.000000,-700.000000
-42.669480,5062.580712,1096.822452,-5554.609663,10152.743477,7557.862408,3337.808351,-3830.887834,-7152.267653,13432.593755,8313.284315,15609.988941,16477.504847,15146.659630,6276.883933,6866.969987,13.176001,-831.064026,-544.608032,1260.000000,-280.000000,-1260.000000
-37.193303,5070.783802,1087.837051,-5530.983869,10150.016564,7551.358050,3338.031869,-3820.382514,-7154.391069,13412.588944,8290.396129,15594.566237,16453.320259,15117.490604,6256.052107,6850.005013,11.712000,-831.064026,-545.096008,1540.000000,-280.000000,-1680.000000
-26.866797,5084.597180,1082.137356,-5473.003444,10153.637547,7546.083039,3351.599378,-3804.848052,-7172.093650,13363.638623,8238.383620,15557.283528,16398.826706,15056.604452,6216.489520,6816.052713,10.248000,-830.575989,-545.583984,1680.000000,-560.000000,-2100.000000
-16.674401,5093.604933,1078.516373,-5410.217394,10160.343070,7541.098600,3366.239770,-3793.247496,-7196.077072,13310.732044,8184.605322,15515.061082,16339.773397,14994.198381,6175.027034,6779.552314,15.128000,-829.112000,-546.072021,1960.000000,-700.000000,-2520.000000
-11.108817,5096.063625,1082.003246,-5376.689777,10165.238102,7542.350297,3373.727605,-3793.716883,-7209.085787,13283.529971,8156.777401,15491.792916,16309.822060,14963.576491,6153.569359,6760.463924,15.128000,-827.648010,-541.679993,2100.000000,-700.000000,-2940.000000
-11.198224,5090.296875,1092.061531,-5388.536202,10167.830904,7548.854655,3371.939465,-3804.177499,-7199.899220,13295.778727,8168.757936,15500.957131,16321.869650,14979.870913,6163.851161,6767.057689,16.104000,-829.600037,-545.096008,2240.000000,-560.000000,-3220.000000
-18.708410,5078.472802,1102.633906,-5440.593414,10168.792029,7556.610710,3363.959892,-3819.108465,-7178.128621,13342.940908,8216.881241,15537.882213,16371.177598,15035.973792,6202.854956,6797.366655,14.152000,-833.504028,-547.536011,2520.000000,-560.000000,-3500.000000
-27.760867,5067.006358,1107.171310,-5507.089854,10163.449963,7560.678728,3349.028927,-3833.592395,-7155.039269,13400.630760,8276.091012,15582.988034,16433.963649,15102.827859,6247.781962,6835.230510,17.568001,-833.015991,-548.512024,2520.000000,-560.000000,-3920.000000
-33.393506,5063.206561,1102.946830,-5548.150009,10156.878550,7557.862408,3338.814180,-3836.587529,-7144.690412,13432.817272,8311.451472,15610.257162,16472.766277,15140.982287,6275.252256,6859.549208,13.664001,-835.944031,-543.632019,2800.000000,-420.000000,-3780.000000
-32.499436,5069.152125,1096.308362,-5540.818637,10155.805666,7551.335699,3342.278700,-3827.177444,-7152.155894,13424.234202,8302.689588,15605.630351,16465.323146,15130.678133,6270.737203,6856.107039,14.152000,-835.944031,-543.632019,2380.000000,-140.000000,-3920.000000
-27.649108,5081.758509,1087.367664,-5491.957723,10156.275053,7544.674879,3351.107639,-3812.849976,-7173.904142,13382.190571,8259.282501,15573.779115,16419.367959,15078.777382,6235.063819,6827.027419,18.056000,-835.455994,-546.072021,2380.000000,-140.000000,-3780.000000
-17.456712,5098.343503,1084.819565,-5422.577908,10161.907692,7543.736105,3365.636273,-3799.148357,-7200.837994,13324.523070,8199.424529,15529.723827,16354.503197,15009.665788,6186.091147,6787.129556,13.664001,-833.015991,-545.583984,2240.000000,-140.000000,-3640.000000
-7.733704,5109.474672,1090.519260,-5371.727690,10172.703585,7547.178274,3378.622637,-3794.678008,-7219.814625,13282.770012,8153.357584,15498.766661,16307.296313,14964.604672,6154.150504,6759.726317,12.688000,-835.944031,-547.536011,1960.000000,-280.000000,-3220.000000
-10.907651,5103.082073,1096.218955,-5370.431289,10175.743422,7552.855617,3379.270837,-3802.344656,-7222.899165,13280.423079,8149.960119,15497.716129,16305.664635,14967.689212,6154.306967,6761.469753,12.200000,-834.968018,-547.536011,1260.000000,-420.000000,-3080.000000
-23.044649,5082.183192,1102.388037,-5420.655658,10171.362480,7557.057745,3367.245599,-3818.415561,-7205.733026,13324.165442,8192.964875,15529.969696,16350.211662,15019.008818,6185.822926,6792.113995,11.712000,-834.968018,-545.096008,1120.000000,-700.000000,-2520.000000
-32.611195,5066.089936,1106.791330,-5485.676883,10165.931006,7560.231693,3355.108601,-3831.334869,-7181.391976,13380.983577,8250.900596,15572.259196,16410.404910,15084.946464,6232.918052,6831.833045,11.712000,-834.968018,-546.559998,840.000000,-840.000000,-2100.000000
-35.919253,5063.430078,1107.663048,-5534.381334,10161.885340,7560.119934,3346.011441,-3833.480636,-7154.256958,13423.809519,8294.642960,15605.853868,16457.880015,15131.862775,6268.971416,6859.616263,12.688000,-834.968018,-549.000000,280.000000,-840.000000,-1540.000000
-30.376021,5069.599160,1103.103292,-5541.220968,10161.147733,7556.767172,3345.430296,-3825.746933,-7146.411496,13432.012609,8303.226030,15613.967551,16466.708954,15137.070732,6274.693462,6862.678452,11.712000,-834.968018,-549.976013,280.000000,-980.000000,-980.000000
-23.379925,5080.439756,1096.755397,-5504.765273,10161.907692,7551.492161,3350.571197,-3812.447645,-7162.705918,13399.960208,8272.380623,15590.811144,16432.309619,15096.636426,6246.619671,6839.700859,12.200000,-834.479980,-547.536011,140.000000,-1260.000000,-560.000000
-13.388695,5094.454300,1092.329752,-5444.884949,10165.662785,7547.111219,3362.551732,-3799.461281,-7182.867191,13348.260623,8221.776273,15552.209682,16375.737354,15035.862033,6202.966714,6805.390931,12.200000,-833.992004,-547.536011,420.000000,-1260.000000,-140.000000
-8.471311,5098.634076,1091.212164,-5395.956981,10169.104954,7546.597129,3370.933637,-3795.527374,-7199.340427,13305.166460,8177.586875,15518.771472,16329.335133,14987.381099,6164.812286,6779.842887,14.152000,-835.944031,-545.583984,700.000000,-1260.000000,140.000000
-7.309020,5095.415425,1095.123720,-5383.462356,10170.446059,7549.391097,3373.481735,-3801.338828,-7202.357912,13294.392919,8165.114601,15508.623780,16316.326417,14974.439439,6153.971690,6774.187896,17.080000,-835.944031,-543.143982,840.000000,-700.000000,280.000000
-10.930003,5088.441680,1104.287935,-5410.731484,10172.524771,7556.253082,3369.950160,-3811.397113,-7192.701959,13318.264582,8190.081500,15525.856975,16342.209738,15004.077852,6176.882228,6791.331684,18.056000,-832.528015,-544.119995,1540.000000,-420.000000,420.000000
-25.145713,5076.550552,1110.389961,-5468.398984,10169.775506,7560.656376,3356.092078,-3827.155093,-7174.552342,13366.365536,8237.735419,15561.753876,16394.110488,15062.304147,6218.568232,6823.965230,19.520000,-833.015991,-543.632019,1960.000000,-280.000000,560.000000
-30.823056,5076.483497,1117.721333,-5519.673886,10173.620006,7564.925559,3349.788886,-3832.810084,-7155.396897,13415.695836,8284.539972,15601.763499,16444.290154,15118.876412,6260.075421,6855.794115,19.520000,-834.479980,-542.656006,2800.000000,0.000000,560.000000
-30.018393,5080.573866,1116.223766,-5541.042154,10173.195323,7564.232655,3347.151380,-3830.798427,-7147.439676,13437.600546,8306.735254,15621.433034,16466.820713,15140.244679,6277.688596,6868.646368,18.056000,-834.968018,-540.216003,3220.000000,280.000000,420.000000
-26.732686,5085.670064,1106.545461,-5523.764255,10168.680271,7559.359975,3347.374898,-3818.281450,-7151.328880,13423.809519,8296.453452,15610.815955,16450.950974,15119.301095,6263.472886,6859.728022,20.496000,-832.040039,-543.143982,3780.000000,560.000000,140.000000
-20.965936,5093.023788,1096.844804,-5475.819764,10164.813419,7552.833265,3352.560503,-3802.635229,-7167.668005,13380.827115,8254.856855,15576.461324,16404.191125,15064.695783,6223.597374,6831.229547,18.544001,-831.064026,-538.263977,4480.000000,1120.000000,140.000000
-16.674401,5099.617553,1091.368627,-5418.040504,10163.852294,7549.033469,3364.205761,-3793.806290,-7194.579505,13326.512376,8199.625695,15532.741312,16348.110598,15004.346073,6182.179592,6798.283076,21.472000,-834.968018,-544.119995,5040.000000,1260.000000,-140.000000
-14.260413,5099.192870,1094.028484,-5387.150393,10167.070945,7551.402754,3372.319445,-3794.275677,-7211.119796,13297.253942,8169.316729,15509.271980,16317.913391,14976.026413,6162.688871,6781.586323,20.007999,-833.504028,-540.216003,5460.000000,1540.000000,-420.000000
-18.708410,5088.084053,1100.622249,-5402.953077,10165.416916,7556.521303,3370.777174,-3806.859709,-7206.045950,13309.189774,8181.923113,15516.826870,16332.039694,14995.248913,6172.836563,6791.868125,21.472000,-833.504028,-545.583984,6020.000000,1820.000000,-700.000000
-28.431419,5071.677872,1105.651391,-5456.798429,10158.756096,7558.912940,3357.656700,-3825.903395,-7185.124717,13352.127475,8227.632431,15549.303955,16381.928787,15049.340135,6207.392360,6821.439483,21.960001,-832.040039,-543.632019,6580.000000,1820.000000,-980.000000
-35.338108,5063.608892,1108.981801,-5518.556299,10153.458733,7559.538789,3343.575101,-3838.822703,-7160.962482,13406.151641,8281.298969,15592.152249,16440.512710,15110.852136,6251.201779,6855.190617,20.496000,-832.040039,-546.072021,6720.000000,1960.000000,-1260.000000
-40.143733,5063.921817,1107.126606,-5555.056698,10150.083619,7557.884760,3337.584834,-3837.705116,-7150.971252,13438.494615,8312.703170,15617.968514,16473.950919,15144.200938,6280.817840,6875.441298,21.472000,-835.944031,-542.168030,7420.000000,1680.000000,-1540.000000
-38.132076,5074.136564,1102.186871,-5548.954671,10149.457771,7554.643757,3341.786962,-3824.182311,-7155.531008,13435.164205,8307.785786,15617.007389,16469.949957,15136.176662,6278.806183,6873.027310,23.424000,-836.432007,-544.608032,7560.000000,1820.000000,-1960.000000
-30.778352,5085.334788,1094.028484,-5502.932430,10149.144846,7548.653489,3350.817067,-3808.491386,-7174.395880,13394.796955,8268.312605,15587.748955,16425.671151,15086.958121,6244.473904,6847.523969,20.496000,-833.992004,-542.656006,7700.000000,1680.000000,-2240.000000
-21.435323,5096.734178,1090.720426,-5436.301879,10154.777486,7546.060687,3362.663491,-3795.840299,-7198.491061,13337.509434,8210.153366,15543.246632,16362.840398,15020.685198,6197.490537,6810.710646,21.960001,-834.968018,-542.168030,7700.000000,1680.000000,-2660.000000
-18.306079,5098.634076,1092.866193,-5390.771376,10161.661823,7546.954757,3371.671244,-3792.733406,-7215.836014,13297.566867,8168.467363,15512.177707,16320.573249,14977.747497,6165.974577,6786.347245,21.472000,-838.872009,-546.072021,7840.000000,1400.000000,-2940.000000
-21.010640,5094.968390,1100.175214,-5387.262152,10167.652091,7552.453286,3375.806317,-3798.231935,-7218.920555,13293.811774,8163.371165,15510.389568,16317.756929,14979.982672,6167.248627,6785.631989,18.056000,-835.455994,-547.048035,7700.000000,1260.000000,-3220.000000
-29.459599,5081.624398,1107.618345,-5430.490426,10167.540332,7559.158809,3370.173677,-3809.988953,-7202.648485,13329.418102,8198.865735,15538.329248,16357.364220,15027.077797,6201.178575,6810.978867,18.056000,-837.895996,-539.728027,7280.000000,980.000000,-3500.000000
-40.948396,5065.173515,1111.798121,-5497.344494,10161.013622,7562.332757,3355.600340,-3822.684744,-7174.485287,13386.347996,8257.427306,15583.524476,16418.965628,15094.200086,6245.613843,6848.887426,18.544001,-837.408020,-547.536011,7000.000000,840.000000,-3640.000000
-51.006681,5056.501038,1110.747589,-5549.625224,10154.464561,7561.237521,3342.546921,-3828.250328,-7155.620415,13430.068008,8305.260039,15617.834403,16468.742963,15142.949241,6281.890724,6879.039929,15.128000,-837.408020,-546.072021,6440.000000,420.000000,-3500.000000
-52.705413,5059.227950,1103.013885,-5560.555227,10148.764866,7552.229768,3336.422543,-3826.216319,-7152.290005,13438.494615,8316.033580,15623.712912,16475.135562,15147.732514,6286.405776,6882.504449,14.152000,-836.432007,-544.608032,5880.000000,0.000000,-3360.000000
-45.642262,5069.666215,1092.419159,-5524.166587,10146.619099,7542.618518,3339.820008,-3817.186215,-7167.735060,13406.330455,8283.914123,15599.997711,16437.294058,15105.532420,6255.247445,6858.073992,14.152000,-837.895996,-546.072021,5460.000000,-140.000000,-3080.000000
-34.555797,5084.261904,1088.440548,-5459.994729,10152.072925,7539.131646,3353.409869,-3802.657581,-7189.639770,13352.105123,8225.844291,15558.334060,16378.106639,15041.897004,6210.365142,6821.573594,9.272000,-835.455994,-547.536011,4760.000000,-700.000000,-2520.000000
-23.446980,5098.947000,1091.547440,-5405.009437,10160.030146,7542.350297,3368.944331,-3794.454490,-7200.100386,13309.592105,8178.458593,15524.247649,16330.139796,14991.382061,6177.262208,6793.946838,11.224000,-837.895996,-547.536011,4060.000000,-980.000000,-2240.000000
-22.374096,5098.075282,1097.493005,-5389.430271,10161.997099,7548.698193,3371.961817,-3801.718807,-7197.418177,13297.030425,8164.511104,15513.407053,16318.226316,14979.625044,6167.740365,6785.006140,8.784000,-837.408020,-548.023987,3500.000000,-1120.000000,-1540.000000
-28.945509,5085.982989,1106.388999,-5422.555557,10160.611291,7555.090792,3362.328215,-3820.449569,-7181.235514,13323.897222,8194.998884,15533.903603,16349.429351,15014.180841,6185.979388,6803.647495,9.272000,-837.408020,-546.559998,2800.000000,-1400.000000,-1120.000000
-42.043631,5069.688567,1113.049819,-5485.028682,10156.252701,7559.494085,3346.525532,-3836.945157,-7161.856551,13375.082716,8249.313623,15571.923920,16407.722701,15075.603435,6226.659563,6839.544396,6.344000,-841.312012,-548.023987,2380.000000,-1540.000000,-420.000000
-54.180629,5056.232817,1110.859348,-5545.177227,10147.759038,7557.370670,3330.320517,-3850.691480,-7147.774952,13420.657923,8299.515641,15608.223153,16462.305661,15132.041589,6265.953930,6871.976778,7.808000,-836.919983,-543.632019,1820.000000,-1400.000000,140.000000
-56.773431,5057.931549,1105.763150,-5570.613512,10145.143884,7553.593225,3324.732581,-3850.847942,-7140.734153,13440.618031,8322.649696,15625.612810,16484.947978,15155.287403,6283.723567,6883.912609,11.712000,-837.408020,-549.000000,1680.000000,-1400.000000,560.000000
-52.683062,5066.604026,1098.409426,-5551.346308,10144.585090,7548.653489,3326.230148,-3839.448552,-7148.333746,13426.938763,8307.383455,15614.951028,16466.932472,15132.108644,6268.457326,6869.920417,12.688000,-836.432007,-544.119995,1540.000000,-1260.000000,980.000000
-48.145658,5075.209448,1088.395845,-5500.473738,10142.394619,7541.366820,3332.935671,-3825.031677,-7168.405613,13382.928179,8259.506018,15579.031775,16416.909268,15076.430449,6227.441874,6837.890367,15.616000,-835.944031,-544.608032,1260.000000,-840.000000,1400.000000
-37.036841,5087.435852,1087.188850,-5438.224129,10147.356707,7539.556329,3346.525532,-3811.955906,-7186.354063,13334.469597,8207.404102,15539.558594,16359.845264,15017.935934,6182.604275,6802.373445,17.080000,-837.895996,-543.143982,1820.000000,-560.000000,1400.000000
-36.634509,5086.161803,1089.669894,-5406.462301,10152.341146,7541.836207,3354.125125,-3814.571060,-7198.178136,13306.842841,8177.631578,15516.268076,16328.485766,14989.437460,6159.872551,6785.520230,19.032000,-837.408020,-541.192017,2100.000000,0.000000,1540.000000
-42.915349,5078.852782,1095.414292,-5416.833510,10156.722087,7547.647661,3356.449706,-3819.443741,-7195.160651,13316.029408,8183.130107,15519.285562,16338.521700,15004.301370,6172.009548,6794.550335,16.592001,-833.992004,-541.192017,2380.000000,280.000000,1680.000000
-47.095126,5071.409651,1106.388999,-5462.743993,10159.940739,7555.537826,3351.934654,-3830.843130,-7177.413366,13357.067210,8225.665477,15549.907452,16384.409831,15056.269176,6211.125101,6823.786417,20.007999,-832.528015,-540.216003,2800.000000,560.000000,1400.000000
-52.750117,5063.072451,1112.111045,-5522.132578,10156.945605,7558.197684,3340.535264,-3844.857674,-7156.514484,13406.375159,8280.337844,15589.648853,16440.445654,15116.574182,6254.263968,6857.179923,23.424000,-834.479980,-541.679993,3080.000000,1120.000000,1260.000000
-58.025129,5058.557398,1109.294726,-5562.209256,10151.000041,7555.448420,3328.890005,-3848.277491,-7144.779819,13439.567499,8315.541841,15616.716816,16478.220103,15152.784008,6278.470907,6878.011749,21.472000,-831.064026,-539.239990,3500.000000,1540.000000,1120.000000
-54.068870,5065.888770,1103.416217,-5557.291872,10149.346012,7550.732201,3328.822950,-3840.543788,-7146.210330,13434.247784,8310.378588,15617.566182,16473.682698,15144.089180,6269.954892,6872.803792,22.448000,-832.040039,-545.583984,3920.000000,1680.000000,980.000000
-44.144695,5079.299817,1094.609629,-5506.911040,10149.882454,7544.272547,3337.540130,-3826.462189,-7163.376470,13389.320778,8264.132829,15584.954987,16425.067654,15088.969778,6231.398133,6841.153722,21.960001,-834.479980,-540.216003,4340.000000,2100.000000,700.000000
-35.472218,5089.335750,1091.122757,-5443.320327,10154.129285,7542.618518,3352.784020,-3811.106540,-7189.662121,13333.217899,8207.091177,15541.659658,16364.248558,15025.893155,6191.790842,6807.313181,18.544001,-835.944031,-539.728027,4620.000000,2520.000000,560.000000
-29.258433,5095.214259,1095.816624,-5394.660580,10162.287672,7546.485370,3371.492430,-3800.847089,-7210.851575,13291.978930,8164.108773,15508.981408,16321.087339,14984.229503,6169.930836,6785.408471,20.984001,-836.919983,-539.728027,5180.000000,2660.000000,280.000000
-29.236082,5092.040311,1104.310287,-5390.994893,10166.310986,7553.079135,3376.923904,-3806.457377,-7208.817566,13289.162611,8161.851247,15507.662655,16321.377912,14984.654186,6173.574170,6786.011968,20.984001,-837.895996,-535.824036,5600.000000,2520.000000,140.000000
-36.299233,5079.053948,1112.535729,-5435.653679,10163.964053,7560.432859,3369.234904,-3821.209529,-7188.678645,13326.355913,8201.391483,15537.613992,16365.410848,15031.302277,6207.392360,6813.728132,23.912001,-836.432007,-537.288025,6160.000000,2800.000000,0.000000
-45.642262,5065.307625,1117.721333,-5502.887726,10156.051535,7561.528094,3352.068764,-3839.940290,-7159.062583,13382.794068,8260.914178,15581.646929,16427.951029,15097.888124,6251.022965,6851.524931,20.007999,-837.895996,-537.776001,6160.000000,2380.000000,-280.000000
-56.304044,5053.818828,1113.094522,-5560.756393,10142.282861,7555.224902,3331.259290,-3855.675919,-7133.827464,13428.816310,8309.618629,15619.108453,16476.454315,15146.972555,6281.421337,6878.168211,20.007999,-839.848022,-535.335999,6160.000000,2520.000000,-560.000000
-56.751079,5052.880055,1104.511452,-5576.134393,10134.482102,7549.480504,3325.291374,-3851.831418,-7123.456254,13440.394514,8322.962621,15630.261973,16489.038347,15156.248529,6288.842116,6885.700749,20.496000,-838.872009,-535.335999,6160.000000,2100.000000,-980.000000
-49.665576,5065.687605,1098.454130,-5539.946918,10136.426704,7543.467884,3332.958023,-3834.106485,-7133.425132,13410.465528,8293.145394,15608.916057,16456.650669,15117.870583,6263.785811,6865.159495,22.448000,-837.408020,-536.799988,5880.000000,1400.000000,-1260.000000
-38.690870,5084.574829,1094.989609,-5476.825592,10145.143884,7541.657393,3347.486657,-3817.186215,-7154.145200,13359.771771,8239.344745,15569.711097,16399.184334,15055.822141,6220.177557,6830.782513,22.448000,-839.848022,-536.799988,5600.000000,1120.000000,-1400.000000
-34.041707,5088.598143,1093.246173,-5423.740199,10151.111800,7540.740972,3358.707232,-3809.318401,-7176.228723,13311.536707,8191.333198,15532.316629,16347.529453,15004.413128,6183.453641,6802.887535,24.400000,-840.824036,-538.752014,5320.000000,700.000000,-1680.000000
-35.628681,5081.289122,1097.761225,-5407.177556,10154.978651,7544.473713,3363.937541,-3809.899546,-7187.136374,13294.348215,8173.854133,15518.011513,16331.458548,14991.717338,6173.462412,6794.259762,20.007999,-838.384033,-545.096008,4620.000000,140.000000,-1820.000000
-40.791934,5071.811983,1106.433702,-5436.078362,10155.068058,7550.106353,3359.467192,-3820.158997,-7175.088784,13319.136300,8196.250581,15534.775321,16359.733505,15023.881498,6194.964790,6811.627068,19.520000,-840.824036,-545.583984,4480.000000,140.000000,-1960.000000
-49.039727,5058.445639,1113.429798,-5498.685598,10150.731820,7553.012079,3343.709212,-3836.408715,-7146.724420,13373.071059,8251.682908,15574.181446,16416.708102,15085.639368,6236.717848,6844.685298,18.056000,-841.799988,-546.559998,3640.000000,140.000000,-2100.000000
-55.857009,5051.337785,1115.597918,-5555.280215,10145.099180,7555.627233,3331.728677,-3848.657471,-7126.563147,13421.395531,8300.096786,15611.553563,16468.452390,15141.474025,6275.900456,6874.726042,19.032000,-843.752014,-545.096008,3360.000000,140.000000,-2240.000000
-60.372062,5052.701241,1111.239327,-5574.659178,10142.036991,7553.392059,3328.510026,-3846.869331,-7128.351286,13437.466435,8315.094807,15622.595325,16486.445545,15159.266014,6288.618599,6883.577333,17.080000,-845.703979,-546.072021,3360.000000,280.000000,-2240.000000
-55.901713,5059.607930,1103.036237,-5556.129581,10139.600651,7545.613652,3327.906528,-3837.481599,-7137.493150,13424.480072,8298.241591,15610.368921,16468.385335,15134.768502,6269.954892,6870.769783,13.176001,-847.168030,-543.632019,3360.000000,700.000000,-2240.000000
-46.156352,5070.672044,1095.861327,-5501.188994,10141.478198,7540.338640,3337.987165,-3823.914090,-7159.643729,13380.000100,8250.431210,15575.276682,16417.088081,15077.972719,6227.866558,6838.985603,11.712000,-845.216003,-545.096008,3500.000000,980.000000,-2520.000000
-36.746268,5081.356177,1092.530917,-5438.380592,10147.602576,7538.394038,3350.682956,-3814.235784,-7182.867191,13326.065341,8195.758843,15535.267059,16360.046430,15017.578306,6183.587752,6804.698027,12.688000,-842.288025,-542.656006,3220.000000,560.000000,-2380.000000
-35.628681,5082.943151,1093.268525,-5405.277658,10151.111800,7538.706963,3357.813163,-3814.012267,-7199.273372,13292.425965,8162.991186,15510.300161,16326.854089,14985.145925,6161.236007,6784.514401,9.272000,-842.288025,-539.239990,2800.000000,420.000000,-2380.000000
-38.757925,5074.650654,1101.248098,-5416.833510,10153.816361,7545.524245,3356.963796,-3823.154130,-7194.378340,13301.970160,8173.384747,15516.223373,16337.940554,15000.747442,6171.897789,6791.890477,13.664001,-839.359985,-540.703979,2380.000000,420.000000,-2380.000000
-41.887169,5065.441735,1113.765074,-5467.504915,10155.157465,7553.660280,3348.470133,-3838.621538,-7169.903179,13351.725143,8222.737398,15553.126103,16388.991939,15056.202120,6207.884098,6822.221794,7.808000,-837.408020,-539.728027,1540.000000,140.000000,-1820.000000
-49.352652,5056.657500,1119.241252,-5529.083971,10153.726954,7556.074268,3338.367145,-3852.725488,-7151.038307,13407.112766,8277.163896,15595.393252,16448.313468,15118.362322,6252.364070,6857.358737,12.200000,-837.895996,-541.679993,980.000000,-420.000000,-1400.000000
-59.321530,5049.035555,1113.407447,-5571.708747,10146.194416,7550.598091,3328.219453,-3854.424221,-7140.801208,13440.573328,8314.066626,15622.595325,16485.417364,15153.879244,6277.912113,6880.291626,11.224000,-831.552002,-540.216003,560.000000,-840.000000,-980.000000
-55.298216,5056.635148,1105.919612,-5565.494962,10143.601613,7543.467884,3328.018287,-3843.091886,-7145.338612,13433.979563,8307.696379,15618.549659,16478.331861,15142.546909,6272.592398,6875.910685,13.176001,-833.504028,-539.728027,420.000000,-1260.000000,-280.000000
