-4794.248020,5056.478686,1417.413523,-10969.610330,6302.409625,1627.274052,22.284689,-3603.883517,-51.610178,14693.388604,11407.950390,16249.449998,18869.946166,16592.705738,7567.697175,9916.686704,11.224000,-831.064026,-547.536011,8540.000000,-840.000000,7980.000000
-4797.533726,5055.674023,1417.659392,-11007.988275,6305.337704,1630.023316,21.055343,-3601.849509,-42.647128,14724.591640,11441.634469,16279.624853,18906.915952,16634.347038,7603.102339,9942.994707,14.152000,-833.992004,-543.632019,8540.000000,-1120.000000,7840.000000
-161113.095118,-171381.218300,-90863.328083,80591.025125,-23431.154899,-49804.626382,-118666.439493,-174682.638011,-169864.384218,115767.351182,-161069.240996,26441.040807,83561.080225,23467.185911,-98105.717970,-124877.944574,14.152000,-833.992004,-543.632019,8120.000000,-1260.000000,7560.000000
-4848.763925,4888.639437,1370.497211,-11131.705181,6065.101154,1490.637838,-94.749045,-3489.017902,168.442746,14789.322292,11477.710185,16257.138998,18969.903167,16602.294636,7594.027530,9986.021815,2.928000,-829.600037,-548.512024,2940.000000,-1960.000000,1540.000000
-4852.608425,4888.304161,1362.808211,-11140.847044,6059.937901,1485.318123,-99.889946,-3485.754548,167.995711,14794.396138,11483.923970,16265.431495,18975.580511,16607.815517,7596.709740,9989.955722,2.440000,-832.528015,-550.463989,3080.000000,-2520.000000,1120.000000
-4847.109896,4898.585963,1358.628435,-11109.085215,6060.362585,1481.697140,-97.252440,-3479.138431,159.502048,14768.222245,11454.799647,16246.499568,18942.701094,16575.092563,7570.289978,9969.749745,1.464000,-831.552002,-547.536011,3080.000000,-2380.000000,840.000000
-4840.404372,4905.246783,1356.728537,-11063.130029,6060.049660,1480.356035,-88.892888,-3471.337673,149.443763,14730.336038,11413.784196,16215.430643,18897.349405,16529.629115,7534.951870,9942.927652,2.928000,-830.575989,-548.512024,2940.000000,-3080.000000,700.000000
-4839.689116,4903.503347,1353.934569,-11026.808444,6057.389803,1477.785585,-85.517774,-3472.365853,140.078383,14695.713186,11378.110811,16183.244131,18859.396143,16490.625321,7505.447567,9918.698361,1.464000,-833.015991,-549.487976,2800.000000,-3220.000000,420.000000
-4837.565701,4906.118501,1360.505982,-11009.374083,6060.429640,1479.752538,-81.069777,-3479.026673,135.831551,14683.285616,11365.415021,16168.648442,18845.046323,16475.828466,7496.350407,9905.823756,3.904000,-829.112000,-550.463989,2800.000000,-3360.000000,140.000000
-4845.321756,4898.921239,1366.049214,-11030.921165,6064.788230,1485.899268,-81.270943,-3486.581562,135.764496,14702.642227,11384.548114,16181.388936,18868.247434,16501.935303,7516.735198,9918.765416,6.832000,-833.015991,-547.536011,2520.000000,-3360.000000,140.000000
-4855.380041,4890.427576,1372.330054,-11078.686843,6067.068108,1491.576611,-86.143623,-3493.868231,144.638138,14744.842320,11427.351705,16216.056492,18916.236629,16554.998345,7557.393021,9949.767286,2.440000,-834.968018,-547.048035,2240.000000,-3360.000000,-140.000000
-4862.778468,4884.146736,1373.782918,-11127.570108,6066.151686,1493.342399,-90.211641,-3493.778824,156.126935,14788.316463,11472.949263,16251.863986,18964.851673,16605.178011,7597.201478,9984.613655,4.392000,-833.015991,-547.536011,1960.000000,-3500.000000,-280.000000
-4860.878570,4887.566553,1369.960769,-11144.490378,6063.424774,1489.743768,-92.200946,-3488.704978,165.022929,14803.761518,11488.662540,16265.207978,18980.050859,16619.080796,7608.846737,9994.381367,2.440000,-837.895996,-544.608032,1820.000000,-3780.000000,-280.000000
-4855.044765,4898.787129,1363.769336,-11127.570108,6062.150724,1483.775852,-91.195117,-3483.228801,165.157040,14788.785850,11471.988138,16256.066114,18960.291917,16597.712528,7596.866202,9983.518420,3.904000,-838.872009,-546.072021,1960.000000,-3780.000000,-140.000000
-4850.127381,4907.057274,1355.365080,-11084.990035,6058.954425,1476.735053,-88.468205,-3480.546591,155.076403,14749.536186,11432.000867,16226.114777,18914.560248,16549.969202,7561.617501,9956.785733,3.416000,-835.944031,-546.072021,1820.000000,-4060.000000,0.000000
-4843.958300,4911.840548,1353.800458,-11038.744275,6059.423811,1476.623294,-83.662579,-3482.021806,142.134743,14709.839488,11391.924190,16192.162477,18870.549663,16503.499926,7524.200681,9927.773169,6.344000,-838.384033,-548.023987,2100.000000,-4060.000000,140.000000
-4841.901939,4908.845414,1357.779069,-11018.784168,6059.557922,1477.405605,-82.589696,-3488.235591,136.256234,14693.321549,11373.036965,16174.459895,18851.416570,16485.730289,7505.000532,9914.339771,4.392000,-839.848022,-547.048035,2520.000000,-4200.000000,420.000000
-4844.047707,4901.603449,1365.311607,-11032.843415,6060.809620,1483.597038,-86.836527,-3497.176289,144.213455,14706.777299,11385.419832,16181.567750,18869.141503,16502.382338,7513.203622,9922.676971,3.904000,-839.848022,-547.536011,3080.000000,-3640.000000,560.000000
-4849.523884,4894.495594,1371.480688,-11073.903569,6062.150724,1489.162623,-93.832623,-3504.932345,157.870371,14744.149416,11424.535385,16210.401501,18912.414481,16546.750551,7545.077210,9947.621518,3.416000,-839.359985,-549.487976,3500.000000,-3500.000000,840.000000
-4859.984500,4885.398434,1372.978255,-11127.123073,6057.523913,1489.587306,-103.555632,-3510.185004,170.230886,14789.456402,11472.345766,16247.304231,18963.063534,16598.137212,7582.315216,9976.656434,2.440000,-840.335999,-546.072021,3920.000000,-3360.000000,1260.000000
-4865.728899,4881.688044,1370.027825,-11162.036498,6054.193503,1487.620352,-110.551728,-3507.346333,178.143403,14819.743016,11505.403996,16273.679289,18996.479392,16629.876689,7604.979885,9998.292923,4.392000,-838.384033,-546.072021,4200.000000,-3080.000000,1540.000000
-4856.654090,4894.808518,1369.133755,-11152.313489,6059.803791,1486.122785,-105.030847,-3497.712731,177.495203,14814.423301,11499.503136,16273.612234,18988.388060,16622.612372,7601.783586,9994.269609,1.952000,-839.359985,-548.023987,4340.000000,-2660.000000,1540.000000
-4848.741573,4906.364370,1364.037557,-11109.867526,6062.575407,1482.837079,-94.950210,-3488.123833,164.262970,14779.822800,11459.784086,16246.812492,18946.187967,16580.702851,7571.564027,9969.861504,2.440000,-839.848022,-548.023987,4480.000000,-2520.000000,1680.000000
-4845.366460,4909.292449,1360.126002,-11064.493485,6061.860152,1480.087814,-88.937591,-3484.793423,150.896627,14740.148454,11416.756978,16213.441338,18900.031614,16533.473615,7534.817759,9942.659431,2.440000,-837.408020,-549.487976,4480.000000,-1960.000000,1820.000000
-4845.880550,4907.504309,1358.896656,-11035.726790,6059.736736,1477.293846,-88.669370,-3487.341522,141.173618,14713.326360,11387.163268,16189.279102,18869.700297,16503.879905,7509.604992,9923.526338,1.464000,-835.944031,-550.952026,4620.000000,-1400.000000,1960.000000
-4847.556930,4904.464472,1362.137659,-11035.190348,6060.742564,1480.400739,-88.892888,-3489.800214,139.944272,14713.661637,11386.000977,16188.899122,18868.627413,16506.495059,7509.716750,9923.951021,2.928000,-833.992004,-545.583984,4620.000000,-1680.000000,2100.000000
-4852.250797,4897.893059,1369.223162,-11069.634386,6062.195428,1485.228716,-91.731559,-3495.231687,151.544827,14745.065838,11418.276896,16216.145899,18903.786707,16542.928403,7538.706963,9946.816855,0.488000,-833.992004,-548.023987,4760.000000,-1540.000000,2240.000000
-4857.346995,4893.445062,1373.224124,-11118.227079,6061.323710,1487.754463,-96.604240,-3500.037313,166.878124,14786.081289,11461.773391,16252.042800,18952.960545,16592.281055,7580.661187,9976.477620,1.464000,-829.600037,-547.048035,4480.000000,-1400.000000,1960.000000
-4862.823172,4891.142832,1370.631322,-11158.013184,6057.546265,1486.145137,-101.119292,-3500.238478,178.098700,14817.060806,11497.849107,16280.697737,18991.517304,16629.049674,7615.194632,10001.489222,2.440000,-831.064026,-552.416016,4620.000000,-1260.000000,2380.000000
-4861.929102,4894.987332,1367.010339,-11165.433963,6056.495733,1482.367692,-101.499272,-3497.444510,179.529211,14823.341647,11507.192136,16289.929007,18999.273360,16635.710494,7625.163510,10007.524193,-1.464000,-827.648010,-550.463989,4760.000000,-1400.000000,2380.000000
-4861.325605,4901.201117,1359.701319,-11137.986021,6052.874750,1474.835154,-99.957001,-3491.990685,168.330987,14797.681844,11482.493458,16271.354708,18968.718525,16605.043901,7603.415263,9989.642798,2.440000,-825.208008,-554.856018,4620.000000,-1400.000000,2660.000000
-4855.156524,4909.247745,1355.454487,-11088.633369,6053.098268,1471.482393,-90.882193,-3485.732196,153.958816,14753.559500,11438.639335,16234.921364,18917.868306,16553.947813,7566.356071,9962.306614,3.904000,-822.280029,-550.463989,4620.000000,-1820.000000,2800.000000
-4848.071021,4915.796806,1356.661481,-11042.789941,6057.680375,1473.762271,-82.679103,-3480.703054,144.459324,14715.025093,11400.216687,16202.488983,18874.550626,16509.065510,7531.733219,9935.708038,2.440000,-818.864014,-551.927979,4340.000000,-1960.000000,3080.000000
-4844.159465,4917.070856,1362.674101,-11029.021267,6061.971910,1478.769061,-82.209716,-3484.994588,147.297996,14705.346788,11389.800774,16192.050718,18862.279518,16497.107327,7519.149187,9925.917974,0.488000,-819.840027,-553.392029,3780.000000,-1960.000000,3360.000000
-4848.696869,4911.102940,1369.647845,-11055.306918,6062.486000,1483.574686,-88.602315,-3494.583487,156.752784,14727.653829,11413.158347,16208.300437,18887.469934,16525.315228,7537.075286,9942.234748,0.000000,-814.960022,-553.392029,3500.000000,-1680.000000,3780.000000
-4856.385870,4903.235126,1373.380586,-11104.972494,6060.742564,1486.458062,-95.039617,-3499.612629,169.761499,14770.524474,11458.420629,16243.839710,18937.023751,16577.640662,7575.922617,9973.862466,-0.488000,-816.424011,-555.343994,2940.000000,-1540.000000,3780.000000
-4864.387794,4895.635533,1371.234819,-11154.392201,6056.562788,1483.284114,-102.013362,-3504.619420,181.205592,14809.796489,11502.498269,16279.200170,18983.627139,16624.534622,7612.311257,10002.271533,-4.880000,-816.911987,-559.247986,2380.000000,-980.000000,4200.000000
-4862.778468,4897.356617,1366.764470,-11172.452411,6055.065221,1479.707835,-102.505100,-3500.864327,185.631238,14825.554469,11519.239726,16295.315778,19002.648473,16639.622049,7627.264574,10014.542641,-5.856000,-815.447998,-560.712036,1820.000000,-700.000000,4480.000000
-4856.475277,4903.659809,1362.182362,-11157.789666,6055.735774,1476.288018,-99.129987,-3493.041216,181.719682,14814.646818,11508.153261,16289.638435,18988.455115,16622.478261,7618.323877,10009.021760,-7.808000,-816.911987,-561.200012,980.000000,280.000000,4620.000000
-4848.763925,4912.980487,1356.437964,-11114.360227,6056.786306,1472.801146,-92.625629,-3487.229763,169.694444,14777.677033,11469.730612,16259.307117,18943.528109,16574.846694,7586.986731,9981.931446,-10.248000,-818.864014,-564.616028,700.000000,560.000000,4760.000000
-4841.700773,4920.825949,1355.588598,-11062.750049,6059.602625,1471.281227,-85.383664,-3481.083033,152.751822,14733.353523,11423.216632,16221.644428,18894.957768,16522.700074,7549.324042,9950.728411,-11.712000,-817.400024,-565.104004,140.000000,1400.000000,4900.000000
-4834.369401,4926.637402,1359.969540,-11031.658772,6067.068108,1474.611637,-76.688835,-3478.266713,143.744069,14707.470203,11392.393576,16200.723195,18865.632280,16497.196734,7529.654506,9936.266832,-9.272000,-822.768005,-562.176025,-280.000000,1960.000000,5040.000000
-4840.471427,4915.282716,1361.511810,-11043.728714,6064.765878,1476.109204,-80.488632,-3486.648618,143.364089,14714.846279,11399.680245,16203.427756,18875.020012,16508.797289,7533.633117,9942.547672,-10.736000,-827.160034,-566.080017,-140.000000,2520.000000,5040.000000
-4848.294538,4903.346885,1364.864572,-11091.427337,6060.697861,1478.880820,-90.233992,-3494.069397,160.284359,14754.721791,11442.841463,16232.842652,18921.086958,16556.093580,7566.356071,9973.147210,-11.224000,-825.208008,-563.640015,-140.000000,2940.000000,4620.000000
-4850.529713,4900.932896,1369.603141,-11141.986983,6058.216817,1480.825422,-97.699475,-3499.433815,179.462156,14799.447632,11490.495383,16269.723030,18972.518322,16607.770813,7607.080949,10004.886687,-11.224000,-828.135986,-560.712036,-280.000000,3080.000000,4340.000000
-4852.295500,4903.995085,1368.865534,-11172.519466,6056.763954,1478.947875,-99.264097,-3499.903202,188.514613,14825.129786,11515.484633,16295.382833,19002.290845,16637.543337,7633.210138,10025.584403,-15.128000,-832.040039,-561.200012,0.000000,2940.000000,4060.000000
-4849.523884,4908.286620,1361.176534,-11164.316376,6057.009823,1474.723396,-96.023094,-3493.823528,184.312485,14816.345551,11505.582810,16292.208885,18992.165505,16626.903907,7627.979830,10023.036304,-13.176001,-829.112000,-559.247986,140.000000,2240.000000,3640.000000
-4841.432553,4919.931879,1356.594426,-11118.964686,6060.317881,1469.873067,-86.344789,-3484.011112,173.471889,14778.168771,11467.808362,16264.760943,18947.372609,16580.859313,7595.860373,9997.801184,-5.856000,-829.600037,-554.856018,280.000000,1680.000000,3220.000000
-4836.626927,4926.682106,1354.202790,-11065.544017,6060.831971,1466.028567,-76.755890,-3477.372644,160.664339,14731.341866,11421.428492,16225.824204,18893.996643,16524.801138,7554.867274,9964.564140,-6.344000,-831.064026,-555.832031,840.000000,1260.000000,2660.000000
-4832.268337,4930.437199,1356.527371,-11025.579098,6064.698823,1468.420204,-70.407995,-3475.092766,150.136668,14695.780241,11384.525762,16195.023500,18853.897614,16488.121925,7523.261907,9938.837283,-5.856000,-830.088013,-553.880005,1540.000000,420.000000,2100.000000
-4833.832959,4926.905623,1360.394223,-11019.879403,6065.145858,1472.890553,-69.446870,-3480.814812,147.677976,14691.019319,11379.004881,16188.608550,18849.874300,16485.260902,7517.025771,9934.031657,-1.952000,-833.015991,-550.463989,1680.000000,-560.000000,1400.000000
-4840.471427,4917.272021,1367.792650,-11052.691764,6064.341195,1478.120861,-72.732576,-3489.554344,155.970473,14721.507099,11409.067978,16209.820355,18884.519504,16519.906106,7540.808027,9953.432972,1.464000,-835.944031,-551.927979,2380.000000,-1680.000000,980.000000
-4848.115724,4906.632591,1371.704205,-11102.111471,6061.256654,1480.601904,-78.946361,-3493.421196,168.219229,14764.847131,11454.576129,16243.593841,18934.676818,16570.152828,7578.426013,9983.518420,3.416000,-830.575989,-549.976013,2660.000000,-2520.000000,280.000000
-4851.379079,4904.039789,1370.810136,-11141.070562,6059.580274,1479.841945,-83.841393,-3494.047045,180.356226,14799.313521,11491.657673,16273.813400,18973.144170,16609.089566,7609.696103,10008.395911,3.416000,-832.528015,-552.903992,2940.000000,-3360.000000,-280.000000
-4854.284806,4902.765739,1363.098784,-11151.039440,6053.835875,1473.494050,-87.641190,-3493.398844,182.166717,14803.985036,11498.005569,16282.105897,18978.486237,16614.141061,7614.769949,10013.648571,8.296000,-831.064026,-549.487976,3220.000000,-4060.000000,-700.000000
-4850.082678,4910.834719,1357.197923,-11123.502090,6053.142971,1467.593189,-84.623705,-3488.012074,177.830479,14779.219303,11471.384641,16266.437324,18950.770074,16583.943854,7590.138327,9996.571838,12.200000,-830.575989,-552.903992,3640.000000,-4620.000000,-980.000000
-4843.488913,4920.021286,1354.627473,-11073.300072,6057.166285,1465.313311,-73.894867,-3474.690434,165.358205,14735.834567,11425.742379,16232.283858,18902.244437,16535.507624,7555.806047,9969.392117,11.712000,-832.040039,-554.856018,3640.000000,-5180.000000,-1400.000000
-4838.750343,4923.955193,1354.761583,-11029.356543,6057.725079,1467.012044,-67.994007,-3469.929513,152.863580,14697.724843,11384.726928,16199.851477,18859.239681,16492.726385,7521.339657,9941.474788,13.664001,-828.624023,-555.343994,3780.000000,-5460.000000,-1540.000000
-4835.241119,4924.782208,1360.885961,-11010.938705,6061.591931,1469.247218,-64.216562,-3473.237571,148.996729,14683.531485,11366.242035,16186.149858,18840.821843,16476.409611,7507.861556,9927.661410,12.200000,-828.135986,-556.807983,3920.000000,-5460.000000,-1960.000000
-4837.900977,4919.440141,1368.910237,-11028.820101,6064.274140,1474.924561,-65.401204,-3479.138431,153.735298,14700.541163,11382.603512,16198.219800,18860.156102,16498.984873,7522.501948,9937.607937,12.200000,-827.648010,-557.296021,3920.000000,-5600.000000,-1960.000000
-4844.941776,4910.410036,1374.073490,-11075.870523,6063.871809,1478.925524,-72.687873,-3487.654446,165.157040,14740.595489,11425.071827,16231.523899,18908.815850,16550.125664,7556.856579,9967.045184,14.640000,-826.184021,-557.783997,3640.000000,-5320.000000,-2100.000000
-4849.814457,4905.380893,1376.353368,-11123.613849,6061.927207,1479.596076,-80.578039,-3492.504775,177.606961,14783.533190,11469.529446,16266.258510,18957.565005,16600.461793,7591.300618,9996.907115,13.176001,-828.624023,-554.367981,3640.000000,-4760.000000,-2100.000000
-4851.669651,4905.760873,1370.564267,-11143.998640,6058.350928,1476.399777,-83.081434,-3491.990685,181.920848,14802.263952,11489.333092,16280.943606,18975.982842,16617.113843,7606.812728,10010.161699,13.664001,-825.695984,-557.783997,3780.000000,-4480.000000,-2100.000000
-4848.071021,4910.655905,1363.367005,-11126.608983,6056.227512,1471.415337,-79.706321,-3486.626266,173.762461,14786.416565,11474.737403,16270.035955,18958.324964,16594.248008,7594.519269,10000.081062,16.104000,-822.280029,-559.247986,3360.000000,-4060.000000,-1960.000000
-4841.968994,4918.613126,1355.856819,-11078.575084,6054.372317,1466.699119,-72.397300,-3476.746795,158.876200,14743.501215,11429.363362,16236.597745,18907.698263,16541.743760,7558.979995,9969.906207,11.712000,-823.744019,-557.296021,3220.000000,-3500.000000,-1820.000000
-4836.783390,4927.106789,1351.654691,-11024.685028,6056.428678,1463.905151,-61.735518,-3470.465955,142.604130,14695.467317,11379.787192,16198.376262,18852.757675,16486.512600,7519.529166,9937.004439,12.200000,-825.208008,-555.832031,3080.000000,-2660.000000,-1820.000000
-4833.698849,4932.493559,1354.940397,-10988.274036,6061.279006,1464.821573,-53.733594,-3471.471783,130.958871,14663.101991,11347.801846,16170.794209,18816.681959,16453.096742,7493.824660,9912.417521,10.736000,-822.280029,-558.272034,2660.000000,-1960.000000,-1540.000000
-4835.598747,4927.911452,1361.332996,-10994.353711,6064.117678,1468.688425,-53.845352,-3477.797327,132.657603,14668.891092,11354.552073,16174.728116,18824.438015,16461.702163,7495.881021,9916.038503,13.176001,-821.304016,-555.343994,2520.000000,-1960.000000,-1400.000000
-4842.639547,4916.914394,1366.071566,-11038.811331,6062.664814,1472.644683,-60.729690,-3487.855612,147.052127,14706.643189,11394.069957,16204.455936,18867.576881,16508.082033,7525.407675,9945.475751,10.248000,-824.231995,-553.392029,2380.000000,-1400.000000,-980.000000
-4850.194436,4904.330361,1367.569133,-11093.975436,6058.440335,1476.042149,-70.117422,-3495.790481,162.206610,14753.000707,11442.327373,16242.140978,18919.812908,16563.201435,7564.232655,9979.897437,7.808000,-825.208008,-555.343994,2240.000000,-980.000000,-700.000000
-4849.121553,4903.302181,1367.390319,-11125.178471,6057.635672,1474.611637,-72.911390,-3493.711769,174.187145,14781.610940,11469.596502,16267.085524,18951.328868,16592.839848,7589.579533,9999.902248,7.320000,-827.648010,-549.976013,1960.000000,-700.000000,-420.000000
-4838.459770,4913.829853,1365.043386,-11116.327180,6061.860152,1469.694253,-65.758832,-3485.508679,178.098700,14778.794620,11463.852103,16267.331394,18945.651525,16584.189723,7590.451251,9996.013045,7.320000,-826.184021,-552.903992,1680.000000,-700.000000,-280.000000
-4830.346087,4921.697667,1361.288293,-11085.459421,6059.937901,1463.882800,-63.791879,-3483.787594,172.980150,14752.844245,11438.192301,16247.505396,18915.007283,16549.790388,7564.791449,9975.717661,6.344000,-826.671997,-550.952026,1540.000000,-700.000000,140.000000
-4829.362611,4924.424580,1360.684795,-11048.109656,6058.462686,1464.531000,-62.964864,-3487.587391,158.384461,14716.254439,11404.776443,16217.308190,18877.232835,16510.428966,7532.247309,9949.454361,7.808000,-828.135986,-550.952026,1260.000000,-280.000000,280.000000
-4831.418971,4923.217585,1364.305778,-11019.141796,6060.116715,1467.682596,-61.176725,-3490.157841,144.414621,14687.308930,11376.166210,16190.217875,18848.890823,16486.400841,7508.353294,9931.192986,9.760000,-826.184021,-553.392029,840.000000,-420.000000,420.000000
-4840.762000,4911.974658,1368.239685,-11021.779301,6059.781439,1470.811840,-65.535315,-3493.979990,136.412696,14685.699604,11374.623939,16182.394765,18849.248451,16491.094707,7507.056893,9933.383457,5.368000,-826.671997,-552.903992,700.000000,-280.000000,700.000000
-4848.965090,4902.072835,1373.917028,-11055.463380,6060.094364,1476.243314,-73.246667,-3499.947906,142.604130,14716.410901,11405.603457,16202.041948,18883.848951,16527.706865,7531.263832,9953.857655,7.320000,-827.160034,-553.392029,420.000000,-700.000000,980.000000
-4853.636605,4893.087434,1377.135679,-11110.314561,6055.646367,1479.260800,-85.651885,-3509.045066,160.910208,14765.540035,11458.577092,16240.844576,18939.281278,16583.094488,7568.568894,9986.960588,5.368000,-826.184021,-550.952026,280.000000,-840.000000,840.000000
-4855.402393,4889.712321,1378.253267,-11151.978213,6053.947634,1481.004236,-92.245649,-3508.687438,173.918924,14802.710986,11500.061929,16273.545179,18981.302557,16624.668732,7599.727225,10013.156833,1.464000,-829.600037,-551.927979,140.000000,-980.000000,840.000000
-4856.967015,4890.919315,1372.821793,-11160.628338,6054.484076,1476.869163,-91.418635,-3504.015923,171.639046,14806.890763,11507.147432,16282.374118,18987.717508,16631.217793,7609.047903,10020.309391,4.880000,-829.600037,-553.392029,-140.000000,-1120.000000,560.000000
-4850.909692,4902.139890,1366.943284,-11129.313544,6055.489904,1471.996483,-84.914277,-3496.461033,161.245485,14778.012309,11478.313682,16264.760943,18955.530996,16597.399604,7588.193725,10001.556277,0.976000,-827.648010,-553.392029,-140.000000,-1540.000000,560.000000
-4842.840712,4912.153472,1364.104612,-11078.731546,6056.741602,1469.180163,-79.147527,-3487.900315,149.220246,14737.175672,11435.823016,16231.479196,18906.692434,16544.962412,7548.027640,9969.928559,4.392000,-828.624023,-552.416016,-280.000000,-1680.000000,420.000000
-4838.638584,4917.115559,1363.299950,-11033.804540,6056.294567,1469.358977,-76.286504,-3483.675836,135.853903,14698.305988,11395.053434,16200.432622,18862.435980,16499.633074,7508.912088,9941.564195,3.416000,-828.135986,-552.416016,0.000000,-2100.000000,140.000000
-4834.212939,4920.647135,1369.737252,-11011.899830,6061.748393,1474.298713,-71.391472,-3484.927533,129.483656,14683.129154,11374.288663,16183.579407,18842.989962,16482.154010,7495.523393,9928.287259,0.976000,-826.184021,-554.367981,-280.000000,-2380.000000,-280.000000
-4834.056477,4921.652963,1377.068624,-11025.444987,6066.464611,1480.288980,-72.240838,-3488.995551,131.472961,14696.406090,11385.889219,16191.447221,18858.859701,16500.504792,7508.241535,9936.870329,4.392000,-826.184021,-553.880005,-140.000000,-2660.000000,-700.000000
-4838.593881,4918.344905,1383.304761,-11069.075593,6067.917474,1483.708797,-77.962885,-3493.890583,143.341737,14736.505119,11424.513033,16224.348989,18902.825582,16546.974069,7542.663222,9964.094754,1.464000,-825.695984,-553.392029,0.000000,-3080.000000,-1120.000000
-4847.065192,4909.113635,1382.410691,-11119.769349,6063.581236,1482.702968,-86.635362,-3496.371626,158.540923,14779.934559,11467.718955,16259.977670,18950.367743,16595.566761,7580.705891,9995.208382,0.000000,-826.184021,-553.880005,140.000000,-3500.000000,-1400.000000
-4851.468486,4905.894984,1375.436947,-11144.222158,6058.909721,1478.210268,-90.748082,-3495.209336,166.609903,14799.648797,11488.819002,16277.501437,18973.591205,16615.862145,7600.800109,10011.569859,4.880000,-823.255981,-556.807983,280.000000,-3360.000000,-1960.000000
-4847.221654,4914.008667,1370.139583,-11124.686733,6061.435468,1474.008140,-84.355484,-3490.604876,158.943255,14782.393251,11473.463353,16265.811475,18956.223900,16594.069194,7591.501783,10001.153946,3.904000,-825.695984,-554.367981,0.000000,-3360.000000,-2660.000000
-4838.750343,4922.547033,1367.725595,-11076.071689,6067.671605,1471.303579,-73.581943,-3482.088862,143.341737,14743.076532,11430.637411,16232.797948,18908.435870,16545.543557,7560.499914,9972.856638,5.368000,-825.695984,-556.807983,-140.000000,-3220.000000,-3080.000000
-4833.989422,4923.888138,1364.126964,-11028.037790,6065.861114,1468.017872,-69.826850,-3477.864382,128.924862,14700.943494,11383.877562,16194.755279,18859.977288,16493.396937,7520.110312,9939.127855,2.928000,-827.160034,-558.760010,140.000000,-3220.000000,-3640.000000
-4826.456884,4928.738466,1369.312569,-10997.840583,6068.744489,1472.488221,-63.724823,-3478.154955,124.812141,14677.205941,11355.379087,16172.068259,18832.797567,16465.837236,7498.071491,9920.553556,5.368000,-826.184021,-552.903992,280.000000,-3500.000000,-3780.000000
-4825.853387,4925.408056,1377.023921,-11003.517926,6071.761974,1479.931352,-61.243780,-3481.753586,127.695516,14681.564532,11361.257596,16174.303433,18841.291230,16476.409611,7504.128814,9923.638096,6.344000,-828.135986,-554.367981,280.000000,-3500.000000,-4200.000000
-4830.703715,4917.048504,1384.109424,-11044.511025,6070.979663,1484.021721,-65.602370,-3489.934324,141.777115,14715.561535,11398.316788,16202.936018,18881.949053,16520.397844,7536.427085,9945.475751,6.832000,-825.208008,-556.807983,140.000000,-3640.000000,-4480.000000
-4838.683288,4910.074760,1386.724578,-11094.422471,6069.213875,1485.675750,-73.693701,-3492.705940,156.551618,14755.459399,11442.461484,16238.184719,18930.497042,16571.136304,7574.603865,9973.549542,7.320000,-823.255981,-553.880005,140.000000,-3640.000000,-4760.000000
-4844.897073,4905.112672,1381.673084,-11129.313544,6064.967044,1481.987713,-80.712149,-3489.710807,166.699310,14783.823762,11474.469182,16264.537426,18963.577624,16602.875781,7601.113033,9993.330836,9.760000,-826.671997,-556.807983,-140.000000,-3780.000000,-5040.000000
-4845.142942,4906.565536,1373.090014,-11130.654649,6059.960253,1474.544582,-84.623705,-3484.726368,168.040415,14782.728527,11476.793763,16266.750248,18960.917766,16597.824287,7600.241315,9990.961551,11.224000,-827.160034,-556.320007,-140.000000,-3640.000000,-5040.000000
-4840.806704,4913.204004,1365.736290,-11095.763576,6056.629843,1469.023701,-84.221373,-3474.779841,156.663377,14750.430256,11445.434266,16242.208033,18924.752644,16558.015830,7570.155867,9968.743917,10.736000,-828.624023,-555.343994,-280.000000,-3780.000000,-5040.000000
-4831.351916,4924.223414,1365.669234,-11040.554767,6060.943730,1467.414375,-74.341902,-3466.889675,138.916092,14703.893924,11395.165193,16205.148841,18872.650727,16503.298760,7530.190948,9935.573928,8.784000,-826.184021,-556.807983,-280.000000,-3780.000000,-5040.000000
-4824.959317,4928.917280,1367.122098,-10999.762833,6064.274140,1468.174335,-66.943475,-3467.224952,123.403981,14667.617043,11356.764896,16175.018689,18833.132843,16464.339669,7500.217259,9910.048236,11.712000,-826.184021,-553.392029,-700.000000,-3920.000000,-4900.000000
-4827.462712,4920.825949,1370.743080,-10997.527659,6064.788230,1471.057710,-68.083414,-3468.476649,120.051219,14664.063116,11354.775590,16169.006070,18831.411759,16464.227911,7497.177422,9910.405864,9.272000,-823.744019,-553.880005,-840.000000,-3780.000000,-4900.000000
-4832.871834,4908.197213,1376.733348,-11034.497444,6060.876675,1474.991617,-77.493498,-3475.360987,137.932615,14697.009587,11389.778422,16192.609512,18869.543835,16502.091766,7521.116140,9932.422332,9.760000,-823.744019,-555.343994,-1260.000000,-3920.000000,-4760.000000
-4840.382021,4902.251649,1380.801365,-11080.698500,6061.144896,1481.048939,-82.299123,-3481.865344,152.193028,14738.695590,11432.671420,16225.041893,18918.896487,16551.422066,7558.376498,9960.786696,8.784000,-825.208008,-557.296021,-1400.000000,-3780.000000,-4620.000000
-4847.221654,4900.374103,1377.985046,-11121.333971,6060.250826,1480.043111,-87.261210,-3485.352216,160.083194,14771.820876,11468.098935,16254.546196,18956.872100,16590.068232,7592.328798,9985.686539,9.760000,-827.160034,-555.343994,-1680.000000,-3640.000000,-4480.000000
-4845.880550,4905.470300,1373.492345,-11132.889823,6058.440335,1475.192782,-86.210678,-3482.781766,168.129822,14782.326196,11480.951188,16266.012641,18964.471694,16598.181915,7602.811766,9994.068443,8.784000,-825.695984,-558.760010,-1820.000000,-3640.000000,-4200.000000
-4840.203207,4913.561632,1369.156107,-11106.917096,6059.982605,1471.951779,-78.834603,-3474.377510,164.575894,14760.197969,11458.867664,16250.589937,18937.716655,16570.577511,7584.975074,9979.025719,10.248000,-827.648010,-557.296021,-1960.000000,-3640.000000,-3920.000000
-4833.721201,4922.323516,1363.635226,-11056.223340,6062.620111,1469.001349,-71.927914,-3468.186077,149.957854,14715.248610,11412.331332,16212.949599,18887.447582,16519.190850,7549.011117,9948.940271,8.296000,-826.671997,-559.736023,-2100.000000,-3500.000000,-3780.000000
-4832.424799,4926.972679,1361.444755,-11008.144737,6065.794059,1468.420204,-63.009568,-3464.609798,134.132818,14670.858046,11366.018518,16175.376317,18839.078407,16472.028669,7516.645791,9921.112349,11.712000,-827.160034,-558.760010,-1960.000000,-3360.000000,-3500.000000
-4832.603613,4928.425542,1367.569133,-10989.056347,6069.057413,1472.264704,-58.516867,-3463.313396,129.438952,14655.100066,11350.640518,16162.457009,18821.956971,16456.673021,7504.687608,9909.914125,9.760000,-827.160034,-558.760010,-1960.000000,-3080.000000,-3220.000000
-4835.822265,4924.893966,1374.252304,-11008.100034,6070.353814,1477.964399,-61.668463,-3469.884809,136.077420,14672.422668,11367.672547,16174.705765,18840.374808,16478.957710,7520.311477,9920.777073,7.808000,-827.160034,-556.320007,-1820.000000,-2940.000000,-3220.000000
-4842.617195,4917.741408,1378.141508,-11053.518779,6069.683262,1481.451271,-68.597504,-3481.820641,148.884970,14710.778262,11407.101024,16205.037082,18885.324166,16525.963429,7555.068440,9946.146303,6.832000,-827.648010,-555.832031,-2100.000000,-2800.000000,-3080.000000
-4845.969957,4914.500405,1381.762490,-11100.591552,6069.415041,1483.127652,-75.034806,-3492.013036,160.776098,14753.201872,11450.977498,16240.486949,18932.911030,16574.690232,7592.015873,9974.823591,6.344000,-826.184021,-561.200012,-1960.000000,-2660.000000,-3080.000000
-4849.546236,4913.181652,1377.158031,-11123.770311,6066.464611,1480.490146,-79.102824,-3493.622362,163.435955,14773.474905,11472.457525,16257.138998,18954.234595,16595.857334,7610.277249,9989.978074,8.296000,-829.112000,-559.736023,-1960.000000,-2660.000000,-2940.000000
-4847.221654,4916.780283,1369.491383,-11112.862660,6063.536532,1476.377425,-78.856954,-3487.945019,160.284359,14764.131876,11462.376888,16250.992268,18942.835205,16580.077002,7599.615467,9983.719585,7.320000,-829.600037,-558.272034,-1680.000000,-2660.000000,-2800.000000
-4839.420896,4925.273946,1362.852915,-11070.662567,6063.402422,1471.080061,-73.894867,-3480.256019,150.248426,14728.234974,11421.584954,16222.806719,18900.880981,16533.674781,7564.143248,9956.919844,9.272000,-828.624023,-562.176025,-1680.000000,-2380.000000,-2800.000000
-4831.262509,4934.326402,1362.584694,-11018.001857,6066.755184,1469.247218,-63.791879,-3477.327940,136.390345,14682.704470,11372.254654,16186.328672,18850.254279,16483.495114,7526.972297,9924.643925,6.832000,-826.184021,-559.736023,-1260.000000,-2520.000000,-2660.000000
-4826.590994,4936.718039,1364.931627,-10985.569475,6069.660910,1470.498916,-59.477992,-3479.406652,126.421467,14653.960127,11342.705648,16160.825331,18818.492451,16452.761466,7503.346503,9903.454471,8.296000,-826.671997,-556.320007,-1120.000000,-2660.000000,-2800.000000
-4833.095352,4926.279774,1368.329092,-10994.174897,6067.984529,1475.528058,-63.121326,-3484.346388,125.549749,14658.855159,11349.388820,16161.965270,18827.343741,16462.752695,7506.073416,9907.522489,9.272000,-828.624023,-559.736023,-840.000000,-2520.000000,-2800.000000
-4842.639547,4912.421693,1371.435985,-11039.168959,6062.307186,1478.880820,-73.783108,-3491.834222,138.625519,14697.680139,11390.068995,16190.351986,18871.957823,16508.730234,7535.622422,9934.031657,8.296000,-825.208008,-558.760010,-560.000000,-2800.000000,-3080.000000
-4846.394640,4907.124329,1374.274656,-11092.880200,6060.831971,1480.825422,-83.707283,-3496.013999,157.557447,14748.396247,11442.573242,16229.668704,18926.473728,16563.894339,7573.955664,9967.738088,8.784000,-830.575989,-560.712036,-420.000000,-2800.000000,-2940.000000
-4849.233311,4906.297315,1372.978255,-11127.637163,6061.703689,1480.825422,-87.372969,-3492.281257,168.375691,14777.878198,11474.156257,16256.893129,18959.420199,16597.220790,7601.470661,9991.006254,9.272000,-824.720032,-557.783997,-560.000000,-2940.000000,-3080.000000
-4851.155561,4910.141815,1368.463203,-11127.525404,6059.066183,1476.645646,-88.691722,-3488.123833,170.052072,14774.771306,11472.122249,16259.240062,18957.967336,16593.957435,7601.604772,9991.430937,9.272000,-822.280029,-558.760010,-280.000000,-3080.000000,-3220.000000
-4849.121553,4915.886213,1361.243589,-11093.707215,6056.406326,1471.080061,-87.462376,-3482.222972,164.598246,14743.948250,11442.059152,16236.016600,18923.612705,16555.892415,7572.547504,9968.609806,10.248000,-824.720032,-556.807983,-280.000000,-3360.000000,-3220.000000
-4843.332451,4922.502330,1358.494325,-11043.572252,6058.395631,1469.426032,-81.405053,-3477.193830,152.952987,14701.502288,11397.713291,16201.125527,18873.880073,16505.511583,7532.314364,9936.356239,7.808000,-825.695984,-557.783997,-280.000000,-3500.000000,-3360.000000
-4843.824189,4924.469283,1359.030766,-11003.450871,6061.122544,1469.493087,-74.341902,-3473.774013,135.988013,14665.583034,11359.290643,16168.827256,18834.384541,16466.664251,7502.743006,9913.199832,11.712000,-823.255981,-559.736023,-280.000000,-3500.000000,-3500.000000
-4845.098239,4921.161225,1364.372833,-10998.801708,6061.927207,1475.192782,-71.883210,-3474.981007,136.412696,14663.124342,11353.702707,16161.495884,18829.757730,16464.317318,7498.004436,9911.501099,9.760000,-824.231995,-556.807983,-140.000000,-3360.000000,-3500.000000
-4845.500570,4914.612164,1372.397110,-11031.412903,6063.894160,1479.931352,-76.800594,-3481.664179,150.226074,14694.260322,11383.586989,16184.808753,18864.514692,16500.638902,7520.892623,9930.544785,10.248000,-826.184021,-557.783997,0.000000,-3500.000000,-3360.000000
-4849.836808,4906.520832,1376.621589,-11082.352529,6064.005919,1482.501803,-84.020207,-3488.682626,167.503973,14739.388494,11429.028085,16221.532669,18915.051987,16553.701944,7560.075231,9961.166675,11.224000,-826.184021,-558.760010,140.000000,-3780.000000,-3360.000000
-4854.933006,4901.178765,1375.012264,-11121.803358,6062.396593,1482.412396,-87.663542,-3492.616533,176.399967,14769.339832,11462.332185,16247.661859,18951.932365,16591.722261,7591.524135,9984.546600,12.688000,-825.695984,-561.687988,0.000000,-3500.000000,-3220.000000
-4855.670614,4903.860975,1370.005473,-11131.504015,6061.860152,1478.031454,-87.328266,-3490.604876,180.445633,14775.799486,11469.663557,16255.820245,18961.543615,16600.081813,7599.973094,9990.514516,12.200000,-827.648010,-556.320007,0.000000,-3080.000000,-3220.000000
-4846.729916,4915.819158,1366.451546,-11105.665398,6062.329538,1472.778794,-81.896792,-3481.105385,181.898496,14756.308765,11449.144655,16241.895108,18935.839109,16571.113953,7580.102394,9974.868295,7.320000,-826.184021,-556.320007,-280.000000,-2520.000000,-2940.000000
-4842.594843,4923.038772,1359.455450,-11061.788924,6058.350928,1468.196686,-78.767547,-3476.299760,171.929618,14716.232087,11410.342027,16208.747471,18890.643882,16520.509603,7543.467884,9946.593338,8.784000,-825.695984,-557.783997,-280.000000,-2380.000000,-2660.000000
-4839.689116,4927.173844,1354.918045,-11019.208851,6055.199332,1465.939160,-76.934704,-3479.965446,160.709043,14675.686023,11370.511218,16175.599834,18848.913175,16475.448486,7509.090902,9918.877175,7.808000,-824.720032,-558.272034,-140.000000,-2100.000000,-2520.000000
-4838.683288,4928.470245,1358.382566,-10997.192382,6059.066183,1468.733128,-72.017321,-3484.614609,152.908284,14655.636508,11349.791151,16158.143122,18829.064826,16458.774085,7495.501041,9908.930648,8.784000,-827.160034,-556.807983,140.000000,-1820.000000,-2240.000000
-4840.292614,4922.703495,1365.490421,-11011.139871,6063.313015,1475.438651,-71.458527,-3489.375530,153.131801,14668.868741,11362.196369,16166.905006,18845.716875,16478.913007,7509.135605,9918.944230,7.320000,-828.135986,-556.807983,-140.000000,-1260.000000,-2100.000000
-4844.405335,4914.232184,1372.173592,-11051.820046,6065.548189,1480.490146,-77.068815,-3496.326923,158.675034,14704.273904,11397.355663,16194.040024,18886.218236,16523.884716,7541.344469,9941.519492,7.808000,-827.160034,-554.856018,-140.000000,-840.000000,-1820.000000
-4852.541370,4903.033960,1372.262999,-11107.453538,6059.133239,1480.266628,-91.172766,-3500.730217,174.030682,14753.425390,11447.758847,16232.105044,18938.320153,16576.031336,7577.531943,9973.549542,6.344000,-827.648010,-557.783997,-140.000000,-840.000000,-1540.000000
-4857.101125,4898.407149,1367.166801,-11136.577861,6053.969986,1477.897343,-96.514833,-3498.919725,181.674979,14778.727565,11471.898731,16251.640469,18964.315231,16601.154697,7595.525097,9994.068443,7.320000,-825.208008,-555.343994,-280.000000,-560.000000,-1260.000000
-4852.653128,4904.285658,1361.712976,-11123.926774,6053.098268,1473.225829,-94.458472,-3495.298743,178.791604,14770.904454,11460.544045,16244.666725,18950.479502,16586.447249,7583.723376,9987.877010,6.832000,-831.064026,-556.320007,-140.000000,-420.000000,-980.000000
-4845.209997,4912.779321,1356.393261,-11082.263122,6051.176018,1468.777832,-89.921068,-3490.649580,169.403871,14734.627573,11423.261335,16218.157556,18907.742966,16540.782635,7547.714716,9960.876103,5.368000,-827.648010,-557.783997,140.000000,-560.000000,-840.000000
-4838.817398,4919.283678,1354.292197,-11033.223395,6051.198369,1466.028567,-83.684931,-3487.296818,154.718775,14689.074718,11379.161343,16184.138201,18859.463198,16490.066527,7507.906259,9930.209509,5.368000,-829.112000,-559.247986,0.000000,-140.000000,-560.000000
-4836.828093,4919.663658,1356.706185,-11004.434348,6052.047736,1466.855582,-81.494460,-3488.727330,145.085173,14663.616081,11352.182788,16163.239320,18832.708160,16464.339669,7483.699320,9910.294105,3.904000,-828.135986,-556.320007,-140.000000,140.000000,-420.000000
-4836.492817,4915.506234,1363.568170,-11008.480013,6054.953462,1471.638855,-81.561516,-3493.264734,147.476810,14667.237063,11354.350907,16164.759238,18839.368980,16473.101553,7485.912143,9912.194003,7.320000,-828.135986,-559.247986,-280.000000,280.000000,-280.000000
-4843.846541,4906.945516,1367.971464,-11047.595566,6054.059393,1476.019797,-86.523603,-3501.266658,158.719737,14698.484802,11388.370262,16190.128468,18876.338765,16514.228763,7516.958716,9936.445646,7.808000,-828.624023,-560.223999,-560.000000,280.000000,-140.000000
-4851.267320,4900.642324,1368.194982,-11096.836459,6051.846570,1476.980922,-94.592583,-3507.547499,173.427185,14739.008515,11431.375019,16223.790195,18922.003379,16562.754400,7555.403716,9965.815838,7.320000,-827.160034,-560.712036,-840.000000,560.000000,-140.000000
-4855.737669,4900.798786,1366.831525,-11127.413646,6052.427715,1475.639817,-96.112501,-3505.312324,178.992770,14763.014288,11457.034821,16247.170120,18949.943060,16591.811668,7582.069347,9984.233676,4.880000,-828.624023,-560.712036,-840.000000,840.000000,-140.000000
-4855.111820,4905.671466,1362.651749,-11127.883032,6051.176018,1471.281227,-93.922030,-3499.143243,176.914057,14762.120219,11457.347746,16249.248832,18948.981935,16587.989520,7584.371577,9983.451364,6.832000,-828.135986,-557.783997,-980.000000,840.000000,0.000000
-4852.004928,4911.594678,1355.633301,-11093.975436,6049.410230,1465.894457,-87.842356,-3491.588353,164.866467,14732.124177,11428.290478,16225.935963,18913.733234,16549.700981,7558.756478,9965.346451,9.760000,-824.720032,-560.223999,-560.000000,1120.000000,0.000000
-4850.194436,4915.215661,1350.402993,-11044.622784,6048.359698,1462.921675,-81.583867,-3485.486327,147.700327,14687.823020,11383.609341,16189.256750,18863.687678,16499.297798,7519.104483,9934.769265,7.320000,-820.815979,-562.176025,-700.000000,1400.000000,-140.000000
-4846.729916,4915.573289,1350.760621,-11007.764758,6051.332480,1463.994558,-77.001760,-3484.614609,137.217359,14657.938738,11349.277061,16160.445352,18828.684846,16464.719649,7488.884925,9911.434044,7.808000,-823.744019,-561.200012,-840.000000,1400.000000,-140.000000
-4845.701736,4912.511100,1356.572074,-10998.488784,6056.853361,1467.906114,-74.028978,-3487.542687,133.886949,14651.702601,11340.269308,16151.571709,18821.979323,16458.483512,7482.782898,9904.370893,6.832000,-823.255981,-560.223999,-840.000000,1820.000000,-140.000000
-4846.327585,4907.303143,1364.194019,-11025.422636,6059.423811,1473.494050,-78.208754,-3498.673856,144.369917,14678.815267,11367.739602,16169.967195,18850.388390,16488.859533,7501.759529,9917.334904,8.296000,-823.255981,-562.176025,-840.000000,1960.000000,-140.000000
-4847.467524,4903.525699,1371.748909,-11072.741279,6061.524875,1480.333684,-84.266077,-3507.234574,160.910208,14725.910393,11415.952315,16205.662931,18901.171553,16542.011981,7537.879948,9946.973318,8.296000,-821.304016,-561.200012,-840.000000,2100.000000,-140.000000
-4850.708526,4901.603449,1373.514697,-11117.355361,6060.787268,1481.831250,-90.859841,-3508.978010,176.779947,14767.082306,11457.146580,16240.956335,18945.495063,16587.229560,7572.033414,9976.432917,6.832000,-823.744019,-561.687988,-840.000000,2100.000000,-280.000000
-4852.496666,4901.692856,1369.334921,-11130.654649,6057.523913,1477.450308,-94.614934,-3507.458092,179.462156,14777.609977,11469.283577,16253.294498,18957.073266,16596.974921,7582.695196,9983.920751,5.368000,-826.184021,-561.200012,-700.000000,2240.000000,-280.000000
-4847.221654,4910.298277,1363.277598,-11101.731491,6059.624977,1473.114070,-86.300085,-3501.244307,167.839249,14754.520625,11444.070809,16236.106007,18928.150109,16566.062458,7565.864332,9966.911074,4.392000,-830.088013,-557.296021,-700.000000,2380.000000,-280.000000
-4838.593881,4920.401266,1358.695490,-11051.440066,6061.033137,1469.984826,-78.544030,-3496.304571,156.372804,14711.091186,11399.188507,16201.796079,18878.238663,16514.206411,7527.754608,9935.082189,3.416000,-829.112000,-557.296021,-1120.000000,2240.000000,-280.000000
-4829.586128,4931.733600,1360.371871,-10999.204039,6066.174038,1470.610675,-67.211696,-3492.147147,144.012290,14665.359517,11351.579291,16166.212102,18829.802433,16463.870283,7490.963637,9901.442814,3.904000,-830.088013,-557.296021,-980.000000,2380.000000,-280.000000
-4831.418971,4929.297260,1362.070604,-10980.763850,6066.330500,1470.454212,-62.495477,-3490.984856,136.479752,14647.142845,11332.647363,16151.102322,18811.563410,16446.011239,7478.647826,9889.238762,4.392000,-832.528015,-555.343994,-840.000000,2240.000000,-140.000000
-4835.196416,4918.680181,1367.949112,-10997.639417,6066.174038,1474.276361,-64.350672,-3494.896411,142.537074,14664.107819,11348.740619,16160.668869,18831.545869,16466.597195,7490.874230,9899.453509,2.928000,-831.064026,-555.343994,-700.000000,2240.000000,-140.000000
-4841.298442,4907.683123,1372.888848,-11044.578081,6064.207085,1480.378387,-71.637341,-3499.433815,156.305749,14704.452718,11391.253637,16189.815544,18879.400954,16515.994551,7525.541785,9927.057913,4.880000,-830.088013,-551.440002,-700.000000,1540.000000,0.000000
-4845.768791,4899.971771,1374.386415,-11100.636256,6058.082707,1481.965361,-82.343827,-3501.870156,180.646799,14755.392343,11442.550891,16231.367437,18933.469824,16570.868083,7564.858504,9962.507780,3.904000,-832.040039,-554.367981,-560.000000,1400.000000,0.000000
-4847.556930,4899.189460,1370.966598,-11129.201785,6052.986509,1478.076157,-88.289391,-3502.272487,193.722569,14782.035623,11470.155295,16254.300327,18959.375496,16595.142078,7584.326873,9981.260893,6.832000,-832.040039,-553.880005,-560.000000,1120.000000,0.000000
-4847.288710,4905.716170,1365.579827,-11118.651762,6051.712460,1473.628160,-85.070739,-3499.366760,188.715778,14772.469076,11462.734516,16248.935908,18947.685533,16581.015775,7576.526115,9976.991710,8.784000,-830.575989,-553.392029,-280.000000,700.000000,140.000000
-4845.008832,4913.718094,1359.388394,-11078.955064,6049.432582,1468.353149,-79.616914,-3492.102443,175.125918,14738.025038,11426.971725,16222.963181,18906.692434,16538.458054,7543.959623,9954.103524,6.832000,-832.040039,-557.783997,0.000000,420.000000,280.000000
-4838.660936,4921.027115,1357.510848,-11030.742351,6050.259596,1466.520305,-73.336074,-3489.375530,160.351415,14697.926008,11382.067070,16189.681433,18860.357268,16490.558266,7506.341637,9925.649753,9.272000,-832.040039,-559.736023,280.000000,140.000000,560.000000
-4836.515169,4921.138873,1359.388394,-11001.126290,6052.114791,1467.928465,-67.614027,-3492.437719,152.684766,14671.752116,11354.797942,16164.043983,18831.925849,16462.573881,7484.392224,9907.097805,10.248000,-830.088013,-557.296021,560.000000,280.000000,560.000000
-4840.091448,4914.679219,1363.523467,-11006.647170,6052.785343,1471.594151,-67.323454,-3497.578621,155.299920,14676.557741,11359.067125,16162.926395,18837.603192,16470.084068,7490.382491,9909.332980,13.176001,-828.135986,-555.832031,420.000000,0.000000,560.000000
-4845.277053,4909.337152,1371.257171,-11044.019287,6054.931111,1478.992579,-71.749100,-3504.351199,168.152174,14710.197116,11392.885315,16186.976872,18877.121076,16511.837126,7521.473768,9931.729428,12.200000,-829.112000,-556.807983,560.000000,-280.000000,560.000000
-4850.552064,4906.498481,1375.034615,-11094.042491,6054.305262,1481.786547,-78.298161,-3508.754493,183.261953,14752.128989,11437.521748,16220.795062,18926.853708,16561.435647,7561.215170,9961.703117,12.688000,-826.184021,-555.343994,280.000000,-280.000000,280.000000
-4852.921349,4908.286620,1374.028787,-11130.766407,6052.919454,1479.976056,-84.847222,-3508.709789,193.566107,14783.935521,11472.032842,16248.488873,18963.465865,16596.550238,7588.350187,9983.920751,14.152000,-831.064026,-557.783997,-280.000000,-280.000000,0.000000
-4853.390736,4909.985353,1365.982159,-11136.555509,6049.186712,1474.186954,-89.429330,-3506.362856,194.706046,14787.109469,11475.989100,16255.596728,18966.908034,16596.349072,7590.071272,9985.999463,12.688000,-832.040039,-556.807983,-560.000000,0.000000,-280.000000
-4845.567625,4918.836644,1359.924836,-11101.262105,6051.198369,1471.460041,-83.349655,-3497.310400,185.206555,14757.649870,11443.534368,16235.480158,18931.234650,16557.881720,7566.646643,9964.832361,16.104000,-832.528015,-556.320007,-700.000000,560.000000,-560.000000
-4833.497683,4932.158283,1360.394223,-11045.963889,6058.239169,1471.504744,-72.643169,-3489.330827,174.433014,14712.387587,11396.103966,16199.896181,18878.819809,16504.483402,7528.805140,9930.902413,14.152000,-835.455994,-552.903992,-840.000000,1120.000000,-700.000000
-4826.054552,4938.997917,1363.367005,-11002.087415,6062.865980,1472.823497,-64.127155,-3486.559211,166.006406,14675.663671,11358.262462,16168.223759,18837.066750,16463.333841,7496.417462,9904.862631,13.176001,-833.015991,-550.952026,-560.000000,1400.000000,-560.000000
-4830.211977,4933.231167,1365.669234,-10995.538353,6062.083669,1475.081024,-64.171858,-3492.169498,163.167735,14667.170008,11351.199311,16157.919605,18829.690675,16458.818788,7487.566172,9901.241648,14.640000,-833.992004,-554.856018,-140.000000,840.000000,-420.000000
-4840.918462,4921.541205,1368.463203,-11026.115540,6059.200294,1478.925524,-69.849201,-3497.846842,168.040415,14688.448869,11375.987396,16172.627052,18858.792646,16489.306568,7507.749797,9920.441797,13.176001,-829.600037,-549.000000,-140.000000,980.000000,-420.000000
-4848.629814,4912.913431,1371.905371,-11076.272854,6058.060355,1480.490146,-77.113518,-3500.506699,181.965552,14729.397265,11420.579126,16207.942809,18909.195830,16541.363781,7547.558254,9952.047163,13.664001,-830.575989,-552.416016,0.000000,280.000000,0.000000
-4857.525809,4904.956210,1368.798479,-11126.720742,6052.047736,1478.120861,-87.596487,-3504.842938,195.801281,14769.473942,11466.511961,16243.280917,18955.754513,16589.777659,7582.784603,9983.965455,10.736000,-826.184021,-552.416016,0.000000,0.000000,420.000000
-4859.112782,4905.224431,1363.367005,-11143.305736,6048.292643,1473.874029,-93.117367,-3505.513490,199.176395,14783.622597,11482.784031,16256.133170,18969.076153,16602.786374,7592.686426,9994.716644,11.224000,-827.648010,-552.903992,-140.000000,0.000000,840.000000
-4849.970919,4915.282716,1360.416575,-11117.221250,6050.438410,1471.035358,-89.988123,-3498.807967,195.108377,14765.852960,11463.338013,16242.588013,18945.316249,16576.008985,7572.323987,9979.808030,7.320000,-827.160034,-554.856018,-280.000000,0.000000,1120.000000
-4840.247910,4922.345867,1356.594426,-11070.863732,6051.377183,1467.034396,-84.288428,-3495.835185,186.927639,14727.609125,11422.657838,16214.246001,18898.936379,16526.589278,7533.230786,9950.795466,5.856000,-828.624023,-553.880005,-140.000000,140.000000,1540.000000
-4830.614308,4931.755952,1357.175572,-11020.348790,6057.747431,1466.699119,-73.894867,-3493.957638,173.740110,14684.380851,11377.015576,16180.204294,18849.203747,16476.946053,7495.836317,9920.017114,4.392000,-825.208008,-555.343994,-840.000000,700.000000,1960.000000
-4829.116741,4932.784132,1361.690624,-10999.114633,6063.067146,1471.951779,-69.290408,-3494.494080,164.955874,14665.113648,11356.787247,16162.054677,18829.623619,16459.198768,7479.631302,9907.254268,1.464000,-824.231995,-558.272034,-700.000000,1400.000000,2240.000000
-4836.626927,4921.474149,1365.512772,-11015.096130,6062.195428,1477.405605,-72.576114,-3500.551403,165.201743,14677.138886,11367.337271,16168.827256,18847.773236,16478.488324,7488.236724,9914.965619,0.976000,-826.671997,-557.783997,-1260.000000,2240.000000,2800.000000
-4840.113800,4916.355600,1374.431118,-11057.028002,6063.670643,1484.088777,-76.018283,-3505.111159,178.501031,14716.656770,11406.050492,16201.483154,18892.476725,16526.723388,7521.205547,9943.486445,-2.928000,-827.648010,-559.247986,-1680.000000,3220.000000,3080.000000
-4845.902901,4911.862899,1376.710996,-11106.224192,6059.960253,1483.395873,-85.808347,-3509.782673,191.085063,14758.923919,11450.686926,16237.782387,18938.744836,16575.517246,7555.515475,9971.336719,-5.368000,-829.600037,-558.760010,-1820.000000,3640.000000,3220.000000
-4850.864989,4905.894984,1371.056005,-11134.767370,6055.735774,1479.104338,-92.245649,-3509.603859,193.141424,14782.125030,11475.296196,16257.720144,18963.465865,16599.277151,7576.123783,9987.385271,-7.320000,-828.135986,-558.272034,-2240.000000,4060.000000,3360.000000
-4848.674518,4905.447949,1364.931627,-11128.799454,6053.165323,1475.952742,-90.971600,-3503.010095,186.212383,14777.811143,11471.116420,16255.328507,18955.486292,16588.816534,7570.334681,9985.485373,-4.880000,-830.088013,-558.760010,-2380.000000,4760.000000,3500.000000
-4841.812532,4914.723923,1359.298987,-11088.007520,6052.092439,1470.476564,-84.511946,-3496.952772,176.802299,14743.054181,11433.990173,16227.232364,18915.811946,16543.777769,7540.606861,9961.077268,-7.808000,-829.112000,-559.247986,-2240.000000,4480.000000,3500.000000
-4835.844616,4924.156359,1357.980234,-11034.564499,6055.288739,1469.001349,-74.140736,-3491.521298,162.228961,14696.160221,11382.983492,16190.597855,18864.559396,16490.982949,7504.508794,9928.220204,-7.320000,-826.671997,-561.200012,-2240.000000,4200.000000,3360.000000
-4830.860177,4927.911452,1360.997720,-11000.075758,6058.216817,1469.090756,-70.363292,-3493.711769,152.997691,14666.052421,11350.931090,16164.312203,18831.411759,16458.952899,7480.748890,9903.119195,-7.320000,-825.695984,-560.712036,-1960.000000,3780.000000,3220.000000
-4829.899052,4924.603394,1367.345615,-11000.366330,6061.614282,1474.298713,-69.692739,-3500.663161,154.070575,14666.968842,11351.311070,16161.518235,18834.228079,16461.836274,7484.347520,9901.912201,-7.808000,-826.671997,-557.783997,-1680.000000,3080.000000,2660.000000
-4836.671631,4913.427521,1371.570095,-11038.520758,6060.854323,1479.417262,-76.152393,-3509.536804,162.206610,14696.741366,11383.497582,16184.272311,18870.616719,16501.510620,7512.488367,9924.532166,-6.832000,-827.648010,-557.296021,-1120.000000,2380.000000,2240.000000
-4839.487951,4909.426559,1376.375720,-11086.442898,6061.591931,1483.574686,-82.165013,-3514.074208,178.478679,14737.645058,11427.485815,16220.571544,18919.812908,16552.718467,7548.653489,9954.103524,0.000000,-827.160034,-558.272034,-1260.000000,1120.000000,1680.000000
-4837.453942,4912.846376,1379.192040,-11121.468082,6063.804753,1485.809861,-85.853050,-3511.593164,194.996619,14772.871408,11463.047440,16251.506359,18958.771999,16591.275226,7576.123783,9978.064594,-2.440000,-825.695984,-556.807983,-700.000000,-140.000000,1120.000000
-4838.191550,4916.065027,1375.660464,-11124.597326,6064.452954,1483.395873,-84.757815,-3502.160728,192.627334,14776.268873,11466.735478,16256.915481,18962.504740,16593.599807,7579.543600,9984.054862,-0.976000,-826.671997,-556.320007,-700.000000,-980.000000,700.000000
-4840.024393,4914.098074,1363.925798,-11098.177564,6057.300396,1475.237486,-83.304952,-3495.097577,179.730377,14746.742218,11440.315716,16237.178890,18931.212298,16558.373458,7555.716640,9967.849847,-0.488000,-827.160034,-560.712036,-980.000000,-1960.000000,0.000000
-4832.134227,4921.697667,1359.634263,-11049.562520,6057.367451,1470.454212,-76.152393,-3492.325961,169.627389,14704.162145,11395.768690,16203.047777,18882.619605,16507.031501,7518.478634,9936.736219,3.904000,-828.624023,-555.832031,-700.000000,-2660.000000,-420.000000
-4828.066209,4926.771513,1360.505982,-11007.317723,6059.088535,1469.649550,-69.603332,-3492.325961,156.641025,14666.521807,11356.049640,16170.861265,18840.419512,16465.300794,7486.828564,9908.796538,7.320000,-831.064026,-558.760010,-700.000000,-3220.000000,-1120.000000
-4828.557948,4923.038772,1362.539990,-11000.120461,6058.060355,1471.884724,-69.759794,-3493.644714,152.014214,14659.011621,11346.885424,16160.691221,18831.121186,16459.288175,7477.932570,9903.007436,8.784000,-829.112000,-559.247986,-560.000000,-3640.000000,-1680.000000
-4834.145884,4913.919260,1367.993816,-11027.791921,6058.417983,1475.729224,-74.565420,-3498.495042,154.741127,14683.106802,11369.930073,16175.599834,18856.535120,16489.284216,7497.400939,9919.234803,10.248000,-827.160034,-552.903992,-700.000000,-3920.000000,-2100.000000
-4841.097276,4903.659809,1371.927723,-11078.262160,6056.339271,1478.031454,-83.953152,-3504.842938,165.067633,14727.944401,11417.248716,16210.312094,18906.267751,16541.319077,7534.504835,9949.364954,9.272000,-830.088013,-556.807983,-420.000000,-4060.000000,-2380.000000
-4845.992308,4898.317742,1373.313531,-11122.697428,6055.467553,1479.149041,-90.278696,-3506.653429,174.589476,14767.037602,11458.308871,16242.990344,18950.255984,16585.933159,7567.965396,9975.605902,10.248000,-830.575989,-555.832031,-280.000000,-4060.000000,-2660.000000
-4847.758096,4897.066044,1367.792650,-11141.495245,6051.511294,1475.885686,-95.017266,-3503.926516,180.065653,14781.946216,11475.743231,16258.144827,18966.863330,16599.590075,7581.152926,9986.960588,12.688000,-832.528015,-553.392029,420.000000,-3920.000000,-2800.000000
-4842.818361,4901.715207,1362.092955,-11121.423378,6050.863093,1472.041186,-91.686856,-3497.086882,175.461194,14765.137704,11459.001775,16245.672553,18946.769112,16576.746592,7566.445478,9975.717661,10.248000,-829.600037,-557.783997,840.000000,-3780.000000,-2800.000000
-4834.838788,4912.220527,1360.014243,-11070.059069,6054.640538,1470.051881,-80.332170,-3492.549478,158.876200,14721.842375,11414.700617,16211.250867,18898.042309,16526.298705,7530.615631,9945.721620,10.248000,-830.575989,-559.247986,1260.000000,-3500.000000,-2940.000000
-4827.127436,4919.484844,1359.075470,-11022.002819,6057.054526,1469.582494,-73.425481,-3491.253077,145.509856,14679.642281,11370.019480,16177.499733,18851.908308,16477.571902,7493.578791,9915.658524,9.272000,-830.088013,-555.832031,1260.000000,-2940.000000,-2940.000000
-4826.814512,4916.735580,1362.137659,-11001.439214,6057.076878,1471.750614,-73.783108,-3493.242382,139.229016,14660.263319,11350.506407,16158.970137,18831.389407,16457.321222,7471.562323,9900.280523,10.736000,-827.648010,-557.296021,1680.000000,-2660.000000,-2940.000000
-4829.340259,4912.041713,1370.363101,-11016.683104,6059.490867,1477.629122,-75.794765,-3501.087845,151.276606,14675.618967,11365.370317,16170.123657,18849.226099,16477.862475,7481.397090,9909.265925,9.272000,-829.112000,-558.760010,2240.000000,-2240.000000,-2800.000000
-4835.039954,4904.777396,1376.174554,-11062.481828,6061.010785,1482.010064,-81.516812,-3508.374513,167.302807,14714.846279,11405.111719,16204.098309,18895.695376,16528.399769,7517.852785,9937.898509,7.808000,-829.112000,-557.783997,2380.000000,-1820.000000,-2380.000000
-4843.175989,4895.456719,1377.962694,-11113.108529,6057.121582,1482.770024,-89.094053,-3512.330772,176.802299,14756.934614,11451.871568,16239.972858,18944.489234,16577.841828,7557.482428,9967.335757,11.224000,-826.671997,-555.343994,2660.000000,-1680.000000,-2100.000000
-4849.210960,4890.092300,1371.525392,-11141.495245,6053.947634,1479.685483,-92.759739,-3512.710752,178.948066,14777.185294,11477.844295,16260.380001,18970.260795,16603.054595,7581.130574,9985.150097,10.248000,-828.135986,-554.367981,3080.000000,-1540.000000,-1820.000000
-4849.300367,4894.272076,1362.852915,-11133.001582,6052.651233,1473.426994,-89.831661,-3506.586374,172.466060,14766.523512,11468.545970,16253.138036,18959.710772,16589.665900,7578.090737,9980.612693,10.248000,-829.600037,-555.343994,2800.000000,-1400.000000,-1540.000000
-4841.432553,4905.269135,1357.980234,-11091.315578,6052.941805,1467.973169,-85.249553,-3498.360932,165.447612,14733.353523,11432.000867,16224.728969,18918.740024,16543.800121,7543.691402,9955.601091,8.784000,-827.648010,-552.416016,2660.000000,-1120.000000,-980.000000
-4830.591956,4917.272021,1361.578865,-11037.716095,6058.865018,1468.420204,-73.939571,-3490.582525,155.411679,14691.600465,11389.331387,16190.106117,18869.901463,16494.603931,7502.899468,9924.621573,8.784000,-828.135986,-551.440002,2660.000000,-1400.000000,-560.000000
-4825.048724,4921.004763,1365.535124,-11004.456699,6061.189599,1470.096585,-68.597504,-3490.537821,150.337833,14666.722973,11359.067125,16167.933186,18838.117282,16464.294966,7477.709052,9903.856802,4.392000,-828.624023,-553.880005,2520.000000,-1400.000000,-280.000000
-4828.222672,4916.176786,1370.899543,-11008.547069,6061.279006,1474.343416,-69.580980,-3493.510603,153.802354,14672.489723,11361.190541,16168.939015,18842.721742,16471.648690,7480.883000,9906.002570,8.784000,-826.184021,-554.856018,2380.000000,-1400.000000,0.000000
-4836.492817,4907.504309,1374.386415,-11046.165055,6058.529742,1477.405605,-75.526545,-3502.205432,164.598246,14702.597523,11392.192410,16192.453050,18878.708050,16511.032463,7509.873213,9927.996686,9.272000,-828.624023,-554.367981,2520.000000,-1400.000000,280.000000
-4851.826114,4896.440196,1374.006435,-11100.815070,6052.539474,1478.411434,-86.501251,-3513.336600,175.975284,14743.769436,11436.650030,16227.142957,18929.647676,16561.972089,7549.569911,9960.898454,9.760000,-826.671997,-550.463989,2660.000000,-1820.000000,560.000000
-4860.364480,4890.427576,1371.056005,-11142.411666,6047.845608,1476.019797,-96.403074,-3519.036295,187.240563,14777.162943,11473.530409,16257.697792,18971.020755,16598.897171,7578.671882,9986.111222,7.808000,-829.112000,-551.927979,3080.000000,-2100.000000,700.000000
-4856.587035,4892.394530,1367.904409,-11147.641974,6047.555035,1474.499878,-95.196080,-3515.750589,193.677866,14783.868466,11481.957016,16266.839655,18979.089734,16603.076947,7582.516382,9989.866315,6.344000,-827.648010,-550.463989,4620.000000,-2520.000000,700.000000
-4845.254701,4904.330361,1363.076432,-11112.706198,6049.946672,1471.437689,-88.624667,-3508.598031,189.162813,14757.068724,11455.403144,16246.678382,18944.913917,16567.045935,7558.667071,9967.693385,7.320000,-825.695984,-554.367981,6440.000000,-3500.000000,700.000000
-4836.962204,4913.785149,1358.673138,-11061.721869,6051.377183,1467.615541,-80.958018,-3502.138376,175.885877,14710.353578,11410.185565,16210.245038,18892.901408,16512.910010,7521.451416,9936.445646,8.296000,-824.231995,-563.151978,5600.000000,-3500.000000,560.000000
-4831.083695,4912.891080,1358.963711,-11024.148586,6051.645404,1466.140326,-79.192231,-3501.110196,164.642950,14678.122363,11375.875637,16181.411288,18856.132788,16474.643823,7485.554515,9911.523451,6.832000,-825.695984,-555.832031,2240.000000,-2240.000000,280.000000
-4831.441323,4907.347847,1361.467107,-11015.252592,6052.271253,1468.062576,-79.773376,-3503.635943,160.172601,14670.790991,11365.884407,16171.420058,18846.923869,16468.072411,7476.278541,9903.588582,4.392000,-828.624023,-561.200012,1120.000000,-1680.000000,0.000000
-4835.263471,4901.871670,1366.920932,-11039.236014,6055.646367,1471.929428,-79.326341,-3505.491138,168.263932,14693.232142,11385.352777,16185.971044,18871.577844,16496.772050,7497.780919,9919.324210,6.832000,-827.160034,-560.223999,700.000000,-1540.000000,-280.000000
-4839.979689,4897.446024,1372.866496,-11083.179543,6058.172114,1478.299675,-81.561516,-3505.938173,181.116185,14731.498329,11425.071827,16218.269315,18915.610780,16544.247156,7534.706001,9947.867387,6.832000,-827.160034,-557.783997,1120.000000,-1820.000000,-420.000000
-4845.724087,4893.489765,1374.162897,-11126.452521,6055.847532,1480.624256,-87.462376,-3507.659257,191.263877,14769.630405,11466.377850,16250.142902,18958.615537,16587.833057,7568.010100,9974.667129,1.952000,-828.135986,-558.272034,1680.000000,-2100.000000,-420.000000
-4849.143904,4893.199193,1369.312569,-11143.685716,6048.851436,1477.785585,-91.642152,-3508.732141,195.264840,14786.014233,11482.672272,16263.553949,18974.038240,16602.764023,7579.565952,9985.172449,0.000000,-827.160034,-556.320007,2240.000000,-2660.000000,-700.000000
-4844.427686,4899.547088,1364.663406,-11123.502090,6047.666794,1473.941085,-87.551783,-3503.144205,193.342590,14770.971509,11467.562493,16255.216748,18954.547519,16580.591092,7566.624292,9975.717661,3.416000,-823.744019,-558.272034,2520.000000,-2660.000000,-980.000000
-4839.197378,4907.705475,1359.231932,-11077.949235,6048.806733,1469.493087,-79.751024,-3496.684551,182.054959,14731.788901,11423.797777,16224.125472,18909.642864,16531.372551,7533.476655,9950.907225,0.000000,-828.135986,-556.320007,2800.000000,-2800.000000,-1120.000000
-4834.347050,4911.661734,1355.610949,-11030.518833,6048.672622,1465.782698,-74.677178,-3493.398844,169.225057,14689.097069,11377.015576,16185.322843,18861.050172,16480.723498,7497.043311,9922.676971,0.000000,-826.671997,-556.320007,3080.000000,-2940.000000,-1400.000000
-4830.435494,4915.394475,1359.053118,-11004.523755,6051.980680,1468.040224,-70.139774,-3495.410501,164.799412,14664.934834,11350.349945,16165.765067,18835.390369,16458.103533,7477.284369,9905.711997,1.464000,-826.671997,-559.247986,3500.000000,-2940.000000,-1540.000000
-4832.044820,4914.321591,1367.345615,-11015.744330,6057.389803,1476.086852,-69.201001,-3501.333714,168.174525,14676.155409,11361.749335,16174.169323,18850.030762,16475.314376,7487.230895,9912.305762,0.488000,-827.160034,-558.272034,3360.000000,-3080.000000,-1680.000000
-4837.789218,4906.163204,1373.782918,-11059.799619,6059.088535,1482.322989,-76.152393,-3511.190833,178.322217,14716.321494,11403.971780,16205.864096,18895.494210,16522.565964,7519.104483,9940.066628,-2.928000,-827.160034,-559.736023,3220.000000,-2940.000000,-1960.000000
-4844.807666,4894.987332,1374.878153,-11112.840308,6055.847532,1483.440576,-86.657713,-3517.918708,190.235697,14760.734410,11452.229196,16242.588013,18945.651525,16574.824342,7555.493123,9973.750707,-0.976000,-826.184021,-559.736023,2940.000000,-3080.000000,-2100.000000
-4846.327585,4891.232239,1371.435985,-11143.193977,6051.690108,1481.205402,-92.357408,-3515.839996,197.522366,14787.712966,11482.381699,16263.665708,18974.373516,16601.601732,7575.252065,9994.381367,-0.976000,-825.695984,-560.223999,2520.000000,-3080.000000,-2240.000000
-4841.186683,4896.574306,1367.099746,-11136.689620,6049.052602,1475.304541,-94.860803,-3510.877909,198.125863,14784.650777,11480.928836,16262.637527,18970.819589,16590.761136,7567.160734,9990.849792,-0.976000,-827.648010,-560.712036,2380.000000,-3080.000000,-2100.000000
-4832.938890,4906.766702,1361.534162,-11094.645988,6049.745506,1468.844887,-88.468205,-3502.294839,185.921810,14748.105675,11442.059152,16233.513204,18929.044179,16544.180100,7536.024754,9965.100582,0.488000,-827.160034,-558.760010,2520.000000,-3220.000000,-2240.000000
-4824.199358,4917.875519,1359.343691,-11039.303069,6054.461724,1467.414375,-77.962885,-3494.158804,170.633217,14701.681102,11390.940713,16194.330596,18874.260053,16488.054870,7498.295009,9932.176463,1.952000,-823.744019,-555.343994,2660.000000,-3080.000000,-2100.000000
-4818.164387,4922.211757,1362.338825,-10999.651074,6060.809620,1470.297750,-67.815193,-3490.806042,157.758612,14667.907616,11353.836817,16165.809770,18838.296096,16453.566128,7473.238703,9908.461262,1.952000,-827.648010,-559.247986,2800.000000,-3080.000000,-2100.000000
-4820.846596,4914.075722,1367.144450,-11003.070891,6061.994262,1475.371596,-67.859896,-3494.203507,156.238694,14667.840560,11356.094343,16163.172264,18843.146425,16460.294004,7476.770279,9909.847070,1.952000,-829.112000,-554.856018,2520.000000,-3220.000000,-1960.000000
-4824.668744,4906.051446,1374.431118,-11039.839511,6061.234303,1479.573724,-72.687873,-3498.964429,167.146345,14699.244761,11390.627788,16186.731003,18881.546722,16501.912952,7504.777015,9931.483559,1.952000,-826.184021,-561.687988,2380.000000,-2940.000000,-1820.000000
-4833.028297,4898.474204,1377.135679,-11092.544924,6057.322747,1481.160698,-83.304952,-3506.139339,183.083139,14745.691686,11437.812321,16223.946658,18933.402769,16556.115932,7539.511626,9960.943158,3.416000,-827.648010,-557.783997,2380.000000,-2940.000000,-1680.000000
-4840.896111,4892.349826,1374.609932,-11132.889823,6053.142971,1479.864297,-91.217469,-3506.720484,192.023837,14779.174600,11472.703394,16253.003925,18970.841941,16593.644511,7567.540713,9984.546600,1.464000,-826.671997,-562.664001,2240.000000,-2800.000000,-1400.000000
-4840.270262,4896.842527,1369.916066,-11138.187187,6053.187675,1477.383253,-89.898716,-3502.250135,190.369808,14781.834457,11478.760717,16262.101085,18976.161656,16597.041976,7576.481411,9991.207420,0.000000,-826.184021,-557.783997,2380.000000,-2520.000000,-1260.000000
-4839.242082,4900.865841,1361.958845,-11110.158099,6050.751335,1472.018835,-85.987161,-3494.561135,177.785775,14754.095942,11453.458542,16243.660896,18946.478539,16565.905996,7557.437725,9977.014062,1.464000,-826.184021,-556.807983,2100.000000,-2240.000000,-1120.000000
-4836.783390,4903.168071,1355.700356,-11064.202912,6047.197407,1467.146154,-82.321475,-3490.381359,161.066671,14711.784090,11411.481966,16209.350969,18898.355233,16516.888620,7518.411579,9948.292070,-0.488000,-827.648010,-556.320007,2100.000000,-2520.000000,-980.000000
-4829.876701,4906.632591,1356.817944,-11021.801653,6048.136180,1466.520305,-79.035768,-3491.722464,154.875237,14678.614101,11375.227436,16178.371451,18855.886919,16475.157914,7483.498154,9920.732370,0.488000,-822.768005,-554.367981,1960.000000,-2240.000000,-700.000000
-4825.205186,4908.018399,1363.635226,-11010.357560,6051.421887,1473.047015,-74.766585,-3491.655408,160.664339,14673.204979,11365.660890,16170.503637,18844.979268,16468.944129,7476.747927,9916.083207,1.952000,-827.648010,-557.296021,1540.000000,-2240.000000,-700.000000
-4829.139093,4902.296353,1369.580790,-11037.425522,6049.991375,1476.757404,-79.885135,-3497.958600,174.857697,14697.344863,11389.130222,16186.820410,18872.337803,16497.509658,7494.785785,9930.768303,2.928000,-825.208008,-558.272034,1540.000000,-2240.000000,-420.000000
-4835.598747,4895.680236,1374.162897,-11086.219381,6048.136180,1478.970227,-88.602315,-3499.098539,192.336761,14739.768474,11434.347801,16219.610419,18922.293952,16547.488159,7532.113198,9959.780867,3.416000,-825.208008,-562.176025,1400.000000,-2380.000000,-420.000000
-4841.521959,4892.752158,1374.297008,-11133.426265,6045.722192,1478.702006,-95.799577,-3499.679685,205.636049,14780.806277,11479.587731,16252.243966,18969.322022,16593.778621,7568.479487,9987.519382,4.392000,-828.624023,-557.296021,1540.000000,-2240.000000,-420.000000
-4845.254701,4893.355655,1366.496249,-11152.648765,6039.620166,1472.778794,-100.962830,-3500.707865,210.799302,14794.597303,11495.725691,16266.616138,18982.710717,16605.960322,7580.460022,9996.393024,4.392000,-826.671997,-561.200012,1680.000000,-1960.000000,-140.000000
-4839.510302,4903.235126,1358.896656,-11129.514710,6040.201311,1469.023701,-95.151376,-3494.069397,205.904270,14774.793658,11473.038670,16254.255623,18957.810874,16579.451153,7564.769097,9981.640873,5.368000,-828.135986,-555.343994,1820.000000,-1960.000000,-140.000000
-4827.395657,4920.870652,1357.332034,-11076.161096,6047.376221,1468.062576,-83.059082,-3482.200620,193.320238,14731.744198,11424.736550,16221.465614,18907.072414,16527.572754,7529.095713,9949.901396,5.856000,-828.624023,-557.783997,1680.000000,-2100.000000,-140.000000
-4822.701791,4927.464417,1355.834467,-11024.237993,6050.125486,1465.112146,-75.973579,-3478.333769,177.092871,14684.961997,11376.725003,16184.093497,18854.836387,16474.822637,7488.393186,9915.144433,5.856000,-828.624023,-560.223999,2100.000000,-1820.000000,-140.000000
-4825.048724,4923.485806,1358.896656,-11000.589848,6052.271253,1468.464907,-72.732576,-3481.373606,166.766365,14661.246796,11352.853340,16163.664003,18832.395236,16454.191977,7469.371852,9900.079358,7.808000,-828.135986,-556.320007,2100.000000,-1820.000000,0.000000
-4827.283898,4918.724885,1366.630359,-11010.692836,6056.920416,1476.310370,-70.810326,-3488.794385,169.515630,14670.567473,11362.419887,16169.989547,18845.180433,16471.224007,7480.704186,9908.148337,7.320000,-828.135986,-559.247986,2100.000000,-1540.000000,-280.000000
-4839.756172,4897.200155,1368.351444,-11062.548883,6050.863093,1480.490146,-80.131004,-3499.590278,178.881011,14712.655808,11408.173908,16201.349044,18896.030652,16522.901240,7516.802253,9940.111332,5.856000,-827.648010,-555.343994,2240.000000,-1540.000000,-280.000000
-4847.244006,4882.984445,1367.725595,-11121.289268,6041.341250,1480.892477,-92.759739,-3505.245269,199.355209,14763.304861,11463.114496,16239.950507,18954.256946,16577.707717,7556.923635,9977.662263,7.320000,-827.160034,-558.272034,2380.000000,-1680.000000,-280.000000
-4836.895148,4893.959152,1370.050176,-11147.016126,6039.486055,1481.451271,-97.364199,-3502.741874,221.416381,14793.591475,11490.696548,16265.386792,18981.168447,16603.725148,7578.001330,9993.755519,6.832000,-825.208008,-555.832031,2100.000000,-1260.000000,-280.000000
-4826.903919,4906.677295,1365.937455,-11134.566204,6042.972927,1476.846811,-94.659638,-3498.070359,219.248261,14781.990919,11477.844295,16261.743458,18967.220958,16588.682424,7573.508629,9983.607827,7.808000,-827.160034,-559.736023,2100.000000,-1540.000000,-420.000000
-4816.353895,4922.234109,1362.070604,-11087.426375,6050.930148,1472.130593,-81.583867,-3486.961542,202.730322,14739.187329,11435.308926,16233.915536,18921.578696,16542.347257,7546.798294,9956.562216,8.784000,-826.671997,-556.807983,2520.000000,-1680.000000,-280.000000
-4815.996267,4930.168978,1358.203752,-11033.581022,6055.668718,1469.470736,-70.273885,-3476.567981,176.645836,14688.538276,11383.318768,16194.978797,18867.688640,16490.088879,7510.409654,9924.107483,8.784000,-824.231995,-562.664001,2380.000000,-1680.000000,-420.000000
-4813.448168,4935.935728,1363.791688,-10993.973731,6063.625939,1473.851678,-61.891980,-3471.047100,160.351415,14654.764790,11347.846549,16167.083820,18832.238773,16455.600137,7482.782898,9901.420462,7.808000,-824.720032,-556.320007,2380.000000,-1680.000000,-560.000000
-4819.974878,4923.977545,1368.954941,-10998.153507,6062.284835,1477.852640,-66.339978,-3476.836202,159.882028,14660.397430,11353.948576,16164.982756,18838.117282,16461.970384,7483.229933,9904.415596,5.856000,-826.184021,-558.272034,2940.000000,-1820.000000,-560.000000
-4829.563776,4908.621896,1372.195944,-11043.527549,6054.417021,1479.283152,-80.354521,-3487.408577,176.109395,14701.323474,11394.405233,16191.313111,18881.546722,16505.109251,7509.470881,9927.750817,7.808000,-829.112000,-556.807983,2660.000000,-1680.000000,-560.000000
-4833.363573,4905.626763,1375.146374,-11095.852983,6051.153666,1481.451271,-90.658676,-3491.610705,196.918869,14749.513835,11441.343897,16228.461710,18934.006266,16558.865197,7547.580605,9958.752687,5.368000,-828.135986,-557.296021,2800.000000,-1680.000000,-560.000000
-4836.582224,4905.850280,1374.118194,-11133.269803,6049.119657,1480.311332,-95.240783,-3493.376493,207.111264,14781.253312,11474.245664,16255.932004,18969.299670,16596.550238,7576.481411,9982.222019,7.320000,-827.648010,-560.223999,2940.000000,-1680.000000,-560.000000
-4838.213901,4910.208870,1370.139583,-11138.969498,6048.985547,1476.757404,-96.872460,-3492.325961,202.886784,14784.181390,11478.514848,16262.414010,18974.686441,16600.774717,7579.007158,9986.446498,8.296000,-827.160034,-559.736023,2800.000000,-1680.000000,-560.000000
-4838.236253,4920.200100,1364.752813,-11105.330122,6052.561826,1475.572762,-87.663542,-3483.340559,183.954857,14752.531320,11447.289461,16240.084617,18940.063589,16567.872950,7556.633062,9969.168600,6.344000,-827.648010,-559.736023,2940.000000,-1260.000000,-560.000000
-4838.057439,4920.088341,1358.673138,-11057.832665,6052.427715,1471.884724,-77.426443,-3477.707920,162.564237,14710.040654,11403.278876,16203.941846,18889.347480,16518.475594,7522.278431,9941.318326,6.832000,-826.671997,-557.296021,2660.000000,-1120.000000,-420.000000
-4829.899052,4922.949365,1358.740194,-11017.040732,6052.427715,1470.767137,-70.720919,-3474.958655,158.853848,14678.815267,11368.946596,16173.521122,18848.689657,16476.834294,7491.656541,9917.178442,5.368000,-828.135986,-560.223999,2520.000000,-840.000000,-420.000000
-4824.758151,4925.072780,1364.015205,-11003.629685,6053.210026,1474.119899,-68.441042,-3476.120946,163.972397,14668.689927,11359.625919,16162.188788,18836.731474,16465.814884,7480.860648,9908.014227,5.368000,-830.088013,-555.832031,2520.000000,-700.000000,-420.000000
-4829.228500,4923.910490,1370.519563,-11023.902717,6054.595835,1480.110166,-70.989140,-3481.328902,169.515630,14686.057232,11378.624902,16174.728116,18859.463198,16489.686547,7497.646808,9919.480672,6.832000,-829.112000,-558.760010,2660.000000,-420.000000,-280.000000
-4839.733820,4917.517891,1374.811098,-11070.617863,6055.042869,1484.535811,-81.136832,-3487.073301,176.087043,14725.172785,11420.199146,16206.758166,18905.217219,16537.116949,7530.146245,9945.296937,4.880000,-827.648010,-555.832031,2940.000000,-420.000000,-140.000000
-4846.931082,4912.041713,1376.956865,-11116.103663,6054.104096,1484.625218,-91.485690,-3493.018865,183.574877,14765.137704,11463.405068,16241.582184,18950.457150,16582.692156,7561.014004,9971.739050,5.856000,-827.160034,-558.760010,2940.000000,-280.000000,-140.000000
-4851.714355,4907.012571,1372.598275,-11136.421399,6051.913625,1481.853602,-93.899678,-3492.258905,184.781871,14781.722698,11481.889961,16257.630737,18968.405601,16599.523020,7576.257894,9984.457193,5.856000,-829.112000,-560.223999,3220.000000,-140.000000,0.000000
-4843.198340,4909.404207,1367.010339,-11122.205689,6050.080782,1477.964399,-90.502213,-3488.861440,188.827537,14773.519608,11472.278711,16249.695867,18954.301650,16579.987595,7566.691347,9977.394042,5.368000,-831.064026,-557.296021,3360.000000,-140.000000,140.000000
-4829.697887,4921.720019,1362.428232,-11076.854000,6048.672622,1472.957608,-83.863745,-3482.401786,188.291095,14737.689762,11433.721952,16219.968047,18909.396995,16531.685475,7533.186082,9951.197797,6.344000,-830.088013,-554.856018,3780.000000,-140.000000,560.000000
-4820.578375,4932.515911,1361.310644,-11021.511080,6053.075916,1470.118936,-71.771451,-3476.478574,171.840211,14687.755965,11381.463573,16180.114887,18853.160006,16478.175399,7496.752739,9917.625477,5.856000,-826.184021,-558.760010,4060.000000,-140.000000,560.000000
-4815.191605,4935.242824,1367.010339,-10995.158374,6056.719250,1473.605808,-67.502268,-3479.026673,166.162868,14667.326470,11357.547207,16161.160607,18829.578916,16456.628317,7477.083203,9901.420462,4.880000,-829.600037,-562.664001,4340.000000,-140.000000,560.000000
-4819.147863,4927.710286,1373.738214,-11008.100034,6057.501561,1480.668960,-71.167954,-3484.458147,166.833421,14679.575226,11370.757088,16168.760201,18843.884032,16474.196789,7483.028767,9910.294105,3.904000,-831.552002,-559.247986,4760.000000,-280.000000,980.000000
-4832.022468,4913.874556,1376.845107,-11058.145590,6054.215855,1484.401701,-81.896792,-3490.917801,172.980150,14719.897773,11414.611210,16199.851477,18892.923760,16526.321057,7516.578736,9942.100637,4.880000,-830.088013,-559.736023,4620.000000,-280.000000,1120.000000
-4842.840712,4907.303143,1378.812060,-11107.967628,6053.612358,1486.368655,-89.362274,-3495.075225,177.539906,14761.539073,11458.130057,16234.586088,18941.449397,16576.612482,7556.521303,9971.023795,3.416000,-828.624023,-561.200012,4900.000000,-420.000000,1260.000000
-4845.791143,4902.698684,1375.995740,-11141.361134,6048.583215,1484.647570,-96.447777,-3493.845879,188.916944,14792.853867,11488.930760,16260.380001,18973.926481,16607.524944,7578.671882,9992.772042,6.344000,-829.600037,-558.760010,5320.000000,-420.000000,1400.000000
-4836.492817,4912.779321,1371.547743,-11134.968535,6048.404401,1479.327855,-94.793748,-3486.201583,196.896517,14791.959797,11484.683929,16261.184664,18967.355069,16596.863162,7574.425051,9990.425109,2.440000,-829.600037,-559.736023,5320.000000,-280.000000,1540.000000
-4828.110913,4928.134969,1366.764470,-11088.074575,6053.254730,1473.449346,-84.623705,-3474.109289,183.798395,14749.156207,11440.203958,16232.261507,18919.567039,16548.739856,7543.691402,9963.357146,4.392000,-828.624023,-562.664001,5740.000000,0.000000,1820.000000
-4822.411218,4934.661679,1362.495287,-11037.604336,6052.964157,1470.096585,-79.438100,-3469.035443,167.258104,14703.737462,11391.968893,16197.571599,18867.755695,16496.973216,7500.485480,9931.260041,2.440000,-828.624023,-558.760010,6160.000000,-280.000000,1680.000000
-4821.874776,4932.024173,1361.422403,-11002.892077,6052.114791,1470.588323,-75.884172,-3472.611722,152.081269,14668.846389,11359.916491,16166.212102,18833.155195,16459.958727,7471.763488,9907.097805,3.416000,-830.088013,-561.200012,6020.000000,-280.000000,1960.000000
-4823.193529,4925.273946,1366.451546,-10999.539316,6053.277082,1473.158774,-75.638303,-3477.551458,148.639101,14664.241930,11356.384916,16158.031363,18831.545869,16460.361059,7469.662424,9903.633285,2.928000,-827.160034,-558.272034,6160.000000,-420.000000,1820.000000
-4829.273204,4916.243841,1370.564267,-11033.446912,6051.667756,1476.220963,-81.181536,-3484.636961,157.624502,14690.527581,11383.095250,16178.483209,18864.402934,16494.916856,7494.025826,9921.693495,0.000000,-828.624023,-557.296021,6300.000000,-560.000000,1960.000000
-4838.884454,4908.174861,1373.358235,-11080.363224,6051.533646,1480.244277,-85.249553,-3487.922667,162.385423,14729.039637,11424.289516,16212.413158,18911.587466,16544.180100,7533.722524,9952.248329,1.464000,-826.184021,-559.247986,6300.000000,-420.000000,1680.000000
-4844.740611,4908.487786,1373.469993,-11116.103663,6052.718288,1481.361864,-87.976466,-3487.386225,165.268799,14758.700402,11453.950280,16241.805701,18947.462016,16581.261645,7565.037318,9976.835248,2.440000,-826.671997,-558.272034,6300.000000,-560.000000,1680.000000
-4845.500570,4904.017437,1367.256208,-11129.514710,6047.890311,1477.204439,-89.451681,-3484.011112,169.068595,14772.960815,11469.484743,16253.942699,18960.336621,16590.716432,7574.961492,9988.681673,1.464000,-827.648010,-562.664001,6300.000000,-560.000000,1540.000000
-4831.597785,4914.858033,1361.467107,-11105.285419,6042.034154,1471.013006,-88.647019,-3476.188001,181.138537,14759.907396,11454.106743,16242.833882,18938.118987,16562.061496,7554.979033,9976.164696,2.928000,-826.671997,-555.832031,6160.000000,-140.000000,1400.000000
-4817.940869,4929.632536,1358.762545,-11055.865712,6042.481189,1467.392023,-84.690760,-3471.114155,174.745938,14721.261230,11411.012579,16211.630846,18890.152143,16510.607780,7514.500024,9942.033582,0.488000,-826.184021,-558.760010,5880.000000,-280.000000,1260.000000
-4813.224651,4936.673336,1359.187229,-11010.692836,6046.839779,1469.157811,-79.058120,-3467.448469,160.373766,14680.156372,11365.973814,16176.248035,18845.739227,16466.619547,7480.681834,9911.679913,2.440000,-826.671997,-562.176025,6020.000000,-420.000000,1260.000000
-4815.705695,4933.186463,1362.204714,-10996.924162,6049.477285,1471.169468,-78.946361,-3466.219123,153.198856,14665.091296,11351.199311,16161.205311,18832.618753,16453.968460,7470.042404,9902.113366,1.952000,-829.112000,-557.783997,5880.000000,-140.000000,1120.000000
-4820.064285,4926.078609,1370.698377,-11019.655886,6054.104096,1476.936218,-80.779204,-3471.203562,156.842191,14686.750136,11372.634634,16176.940939,18858.166797,16482.757507,7488.661407,9918.720713,2.440000,-826.671997,-558.272034,5740.000000,-140.000000,980.000000
-4828.133265,4918.657830,1377.605066,-11065.901645,6055.221683,1480.937181,-86.098920,-3479.116080,163.748880,14726.402131,11413.225402,16209.775652,18905.150164,16532.981876,7526.413503,9947.554463,0.976000,-826.184021,-559.736023,5460.000000,-140.000000,980.000000
-4834.592919,4913.315763,1377.761528,-11115.991904,6051.265425,1482.054768,-94.436120,-3482.692359,177.003464,14769.831570,11460.141714,16247.259527,18953.966374,16581.619272,7561.863370,9978.221056,0.976000,-827.648010,-557.783997,5460.000000,0.000000,980.000000
-4833.743552,4911.684085,1372.285351,-11140.601175,6046.683317,1478.858468,-97.833585,-3480.993626,190.280401,14794.597303,11486.427365,16268.448981,18977.994499,16602.853430,7580.102394,9993.688463,1.952000,-826.671997,-557.783997,5460.000000,280.000000,700.000000
-4825.495759,4921.854129,1368.597313,-11123.725608,6047.420925,1473.739919,-92.513870,-3473.237571,190.526270,14781.856809,11472.368118,16260.514112,18961.744781,16582.848618,7571.161696,9984.278379,3.904000,-826.184021,-558.272034,5460.000000,420.000000,700.000000
-4820.690134,4933.119408,1362.718804,-11075.378785,6049.969023,1468.934294,-82.500289,-3464.743908,175.572953,14738.092093,11425.094178,16225.667742,18912.459184,16531.886641,7538.483445,9955.087001,4.392000,-824.231995,-555.832031,5320.000000,560.000000,560.000000
-4816.823282,4939.556711,1359.790726,-11023.925069,6051.488942,1466.363843,-75.258324,-3461.301739,158.876200,14690.661692,11376.054451,16186.641596,18859.239681,16480.321167,7499.524355,9923.235765,3.416000,-825.208008,-557.296021,5320.000000,560.000000,280.000000
-4818.298497,4939.042621,1361.332996,-11000.992179,6053.165323,1468.911942,-72.687873,-3460.899408,151.008386,14668.242892,11352.071029,16166.435619,18834.831576,16459.712858,7480.167744,9911.724616,4.880000,-822.768005,-557.783997,5460.000000,420.000000,420.000000
-4823.752323,4932.940594,1365.982159,-11009.821118,6055.422849,1474.768099,-72.486707,-3465.280350,148.817915,14674.791953,11358.865960,16169.497808,18845.158082,16473.146257,7489.264904,9916.910221,4.392000,-823.255981,-555.343994,5040.000000,560.000000,420.000000
-4829.809645,4922.032943,1371.078357,-11052.445895,6054.998166,1478.187916,-79.371045,-3473.170516,160.664339,14712.476994,11398.696768,16197.146916,18887.894617,16518.475594,7520.378532,9941.474788,2.440000,-823.255981,-557.296021,5180.000000,560.000000,280.000000
-4835.554044,4913.673391,1373.693511,-11103.385520,6054.573483,1479.707835,-86.590658,-3477.842030,178.031645,14755.638213,11446.753019,16232.373265,18937.023751,16568.185874,7558.890588,9971.202608,4.880000,-825.695984,-559.736023,5040.000000,700.000000,420.000000
-4840.963166,4910.141815,1368.887886,-11135.236756,6051.377183,1477.651474,-93.229126,-3478.758452,185.295962,14781.230960,11475.005624,16254.456789,18967.891510,16594.851505,7581.622312,9989.598094,2.928000,-823.255981,-556.320007,4900.000000,560.000000,140.000000
-4840.829055,4910.611202,1362.316473,-11132.778064,6048.605567,1472.085890,-95.799577,-3476.299760,183.261953,14777.475867,11473.262188,16255.999059,18964.561101,16589.755307,7577.107260,9989.307521,4.880000,-823.744019,-558.760010,4620.000000,700.000000,140.000000
-4833.318869,4918.099036,1359.276636,-11093.662512,6048.538512,1467.101451,-91.955077,-3473.170516,174.321255,14746.026963,11442.148559,16231.412140,18927.211336,16550.215071,7544.920748,9965.055879,7.320000,-825.695984,-559.736023,4760.000000,560.000000,0.000000
-4825.205186,4925.631574,1358.203752,-11039.124255,6051.354832,1465.335663,-81.852088,-3466.844972,156.775136,14700.831735,11396.394538,16192.073070,18873.611852,16495.676815,7504.955829,9932.668201,6.832000,-824.720032,-555.343994,4760.000000,420.000000,140.000000
-4819.013753,4930.839530,1362.294121,-11000.098109,6055.109925,1467.682596,-75.012454,-3465.995606,144.325214,14670.902749,11360.855265,16163.909872,18834.943334,16458.684678,7474.713919,9908.729483,6.344000,-823.255981,-556.320007,4340.000000,420.000000,-140.000000
-4818.074980,4931.107751,1371.771261,-10992.900848,6062.754221,1475.282189,-71.391472,-3468.029614,142.358260,14667.281767,11353.278023,16160.445352,18832.775215,16458.505864,7469.818886,9904.259134,7.320000,-825.208008,-556.320007,4200.000000,280.000000,-140.000000
-4823.081770,4923.664620,1380.533145,-11024.483862,6066.554018,1484.111128,-72.687873,-3472.589370,151.813048,14695.780241,11380.301282,16181.344233,18865.252300,16497.509658,7494.897544,9925.649753,3.904000,-825.208008,-555.832031,4060.000000,140.000000,-280.000000
-4828.356782,4919.484844,1383.640037,-11072.718927,6063.514181,1486.122785,-83.260248,-3485.128699,170.208534,14738.829701,11425.384751,16214.447166,18911.542763,16545.521205,7529.855672,9952.315384,5.856000,-823.744019,-556.807983,3780.000000,280.000000,-280.000000
-4832.603613,4916.176786,1382.254229,-11112.706198,6064.117678,1485.675750,-88.937591,-3485.285161,179.082177,14773.586663,11461.572225,16245.896071,18951.351220,16586.201380,7561.304577,9978.422222,7.320000,-823.744019,-556.320007,3640.000000,140.000000,-140.000000
-4835.285823,4909.761835,1374.140546,-11131.772236,6056.518085,1479.305503,-96.894812,-3485.039292,183.396063,14786.930655,11478.134868,16258.860082,18967.779752,16598.427784,7570.558199,9989.352225,5.856000,-827.160034,-556.320007,3360.000000,0.000000,-140.000000
-4829.809645,4917.137911,1366.563304,-11106.917096,6052.360660,1470.923599,-94.681990,-3480.300722,181.540868,14764.601262,11457.235987,16242.520957,18942.656391,16567.358859,7550.329870,9974.756536,5.368000,-826.671997,-558.760010,3080.000000,-140.000000,0.000000
-4819.974878,4930.995993,1363.635226,-11052.647060,6055.668718,1467.526134,-83.036731,-3472.209391,168.219229,14718.042578,11409.984399,16206.333483,18889.973329,16513.982894,7512.823643,9943.732315,7.320000,-827.160034,-557.296021,3080.000000,-280.000000,0.000000
-4816.353895,4935.376934,1362.919970,-11007.004798,6056.026346,1468.487259,-77.426443,-3468.096670,152.573008,14677.317700,11367.896064,16172.962329,18845.336896,16468.944129,7476.904389,9915.725579,8.784000,-825.695984,-557.296021,3080.000000,-420.000000,0.000000
-4822.634735,4929.945461,1363.858743,-10993.124365,6052.517122,1469.828364,-77.359388,-3471.717652,143.587606,14661.760886,11353.389782,16154.924471,18830.160061,16454.191977,7465.102668,9904.259134,6.832000,-828.624023,-560.712036,3220.000000,-560.000000,-140.000000
-4828.177968,4923.798731,1368.507906,-11015.587868,6050.170189,1471.236524,-81.852088,-3480.300722,151.209551,14680.737517,11372.880503,16166.882654,18851.371867,16477.348385,7481.553552,9914.585640,8.784000,-825.208008,-557.783997,3360.000000,-420.000000,0.000000
-4833.028297,4916.288545,1374.945208,-11065.387555,6048.560864,1475.304541,-90.457510,-3488.570868,168.398043,14726.469186,11419.752111,16202.958370,18902.691472,16530.545536,7518.344524,9943.262928,6.344000,-828.135986,-558.272034,3500.000000,-840.000000,-140.000000
-4834.771733,4916.780283,1379.572020,-11106.380654,6050.863093,1479.305503,-91.552745,-3489.643751,178.992770,14763.126047,11458.398278,16233.602611,18945.405656,16575.226674,7556.029565,9969.101545,7.320000,-825.208008,-557.296021,3360.000000,-560.000000,-140.000000
-4831.307212,4921.518853,1378.119156,-11123.904422,6051.757163,1479.573724,-91.888021,-3484.949885,184.625409,14779.755745,11475.631473,16251.260489,18964.069362,16591.856371,7574.313292,9981.260893,7.808000,-826.184021,-555.343994,3360.000000,-560.000000,-140.000000
-4830.167273,4922.591737,1370.787784,-11113.600268,6047.733849,1474.902210,-93.184423,-3478.803155,178.322217,14769.362184,11466.668423,16246.052533,18952.446455,16576.456019,7566.020795,9975.941178,7.320000,-825.208008,-557.783997,3500.000000,-840.000000,0.000000
-4824.221709,4926.726809,1364.037557,-11073.255369,6043.509369,1469.806012,-92.200946,-3470.309492,170.677921,14733.398227,11430.413894,16216.995265,18910.045196,16531.551365,7528.693381,9949.074381,8.784000,-825.208008,-560.223999,3640.000000,-840.000000,-140.000000
-4817.784407,4932.650022,1362.204714,-11024.126235,6043.866997,1467.839058,-87.060045,-3465.213295,159.390290,14689.521753,11382.156477,16180.293701,18860.066695,16482.645748,7487.074433,9918.676009,5.856000,-826.671997,-560.712036,3500.000000,-700.000000,-140.000000
-4816.823282,4933.320574,1365.669234,-10993.839621,6049.589044,1472.063538,-79.706321,-3464.229818,144.124048,14661.984403,11350.014669,16155.460913,18830.316523,16456.449503,7467.449602,9902.180422,9.272000,-826.184021,-559.736023,3500.000000,-700.000000,-140.000000
-4820.846596,4928.447894,1370.094880,-10997.617066,6052.315957,1478.322027,-77.091167,-3470.287141,136.658566,14664.778371,11352.406305,16154.030401,18834.518651,16464.049097,7475.317416,9904.147375,6.832000,-825.695984,-558.272034,3360.000000,-700.000000,-280.000000
-4830.077866,4919.753065,1376.487479,-11036.151473,6053.835875,1484.669922,-79.259286,-3477.506754,140.346603,14697.210753,11385.978626,16178.751430,18874.617681,16507.322074,7509.493233,9929.561309,7.320000,-826.184021,-556.807983,3500.000000,-840.000000,-140.000000
-4838.348012,4905.582059,1377.649770,-11094.444823,6048.851436,1488.469719,-88.624667,-3479.406652,160.820801,14749.580890,11439.466350,16219.006922,18931.659333,16565.146037,7551.603919,9967.447515,6.344000,-824.231995,-558.760010,3500.000000,-840.000000,-280.000000
-4833.654145,4901.469338,1376.554534,-11135.303811,6043.375259,1485.921620,-100.940478,-3477.372644,189.833366,14790.551637,11482.180534,16253.473312,18971.780714,16601.937008,7574.536809,9990.223943,6.344000,-828.135986,-558.760010,3500.000000,-840.000000,-280.000000
-4825.652221,4910.007704,1372.307703,-11133.001582,6040.894215,1479.841945,-101.409865,-3475.048062,195.957744,14791.691576,11483.208714,16256.915481,18967.735048,16594.851505,7571.966359,9986.692367,6.344000,-826.184021,-558.272034,3920.000000,-840.000000,-280.000000
-4822.545328,4920.937708,1364.238723,-11091.069709,6042.257672,1474.544582,-91.664504,-3468.253132,180.222116,14752.061934,11442.372077,16226.919440,18923.165670,16549.253946,7546.015983,9961.032565,5.856000,-825.695984,-556.807983,3780.000000,-840.000000,-140.000000
-4818.946698,4929.297260,1359.343691,-11040.107732,6042.637651,1470.387157,-85.920106,-3463.447507,161.960740,14703.759814,11392.438280,16189.659082,18870.974347,16495.274484,7506.475747,9929.963640,3.904000,-828.624023,-554.367981,3920.000000,-1120.000000,-140.000000
-4816.175081,4932.471208,1360.729499,-11002.757967,6045.029288,1471.750614,-80.600391,-3460.631187,149.443763,14670.299252,11358.485980,16163.976927,18834.876279,16459.601099,7477.284369,9906.248439,5.368000,-825.695984,-558.272034,3780.000000,-1400.000000,-140.000000
-4818.879642,4926.749161,1365.825697,-11000.947476,6046.213930,1475.840983,-78.700492,-3465.056832,144.861656,14667.304119,11358.754201,16161.786456,18835.345666,16460.629280,7475.384471,9904.303837,8.296000,-825.695984,-556.320007,3500.000000,-1680.000000,-280.000000
-4828.736762,4913.941612,1370.720729,-11037.313764,6043.419962,1479.350207,-85.137795,-3476.210353,152.729470,14696.897828,11392.192410,16183.400593,18870.214387,16497.800231,7499.971390,9925.046256,4.880000,-827.160034,-555.832031,3640.000000,-1400.000000,-280.000000
-4838.012736,4907.638420,1374.386415,-11088.499259,6041.989451,1481.875954,-91.798614,-3483.005283,169.515630,14741.534262,11437.611155,16220.504489,18920.259943,16551.086789,7539.802198,9957.903321,5.856000,-826.184021,-555.832031,3220.000000,-1680.000000,-280.000000
-4846.551102,4902.497518,1372.039482,-11131.951050,6035.954480,1481.853602,-100.404036,-3484.793423,180.691502,14775.866541,11475.072679,16250.969917,18962.884720,16592.459868,7570.178219,9985.083042,3.904000,-823.744019,-559.247986,3360.000000,-1820.000000,-280.000000
-4845.098239,4904.643286,1368.798479,-11141.450541,6033.875767,1480.803070,-102.549804,-3483.094690,182.993732,14784.069632,11487.813173,16260.938795,18973.725316,16600.037110,7574.715623,9992.012083,4.392000,-825.695984,-555.832031,3220.000000,-1960.000000,-280.000000
-4838.973861,4913.427521,1364.439889,-11113.197936,6036.267404,1477.293846,-95.687818,-3475.986835,173.091909,14758.812160,11463.449772,16244.622021,18945.673876,16569.392868,7554.531998,9976.790545,4.392000,-825.208008,-557.783997,3220.000000,-2100.000000,-420.000000
-4832.067172,4918.479016,1359.813077,-11065.231093,6039.039020,1473.516401,-88.401149,-3467.582580,158.607979,14719.249573,11421.696713,16211.384977,18898.310530,16519.123795,7517.316343,9950.571948,5.368000,-826.671997,-555.832031,3220.000000,-2240.000000,-420.000000
-4826.635698,4919.350734,1359.276636,-11027.255479,6037.899081,1472.287056,-86.322437,-3468.186077,152.014214,14690.125250,11389.577256,16183.624111,18860.759599,16480.879960,7482.313512,9928.264907,3.416000,-823.255981,-556.320007,3360.000000,-1960.000000,-280.000000
-4828.580299,4914.545109,1361.377700,-11014.805557,6038.793151,1474.835154,-85.450719,-3475.495097,147.879141,14678.770563,11376.680300,16171.285948,18848.041457,16470.240530,7468.433078,9920.240631,4.392000,-827.160034,-555.343994,2940.000000,-2100.000000,-280.000000
-4831.530730,4912.488748,1367.792650,-11032.686953,6040.894215,1478.478489,-88.289391,-3480.501888,155.746955,14694.774412,11392.393576,16182.305358,18866.012259,16490.535914,7481.218276,9928.823701,3.416000,-825.208008,-555.832031,3080.000000,-2380.000000,-420.000000
-4840.002041,4907.638420,1373.157069,-11072.137782,6045.878654,1482.032416,-91.239821,-3486.134527,163.771232,14728.369084,11424.155405,16209.686245,18905.418385,16533.831243,7515.617611,9952.091867,7.320000,-826.184021,-553.880005,2940.000000,-2100.000000,-420.000000
-4846.416992,4906.789053,1377.336845,-11112.907364,6051.846570,1484.356998,-92.513870,-3488.995551,171.057900,14764.198931,11457.571263,16241.068094,18947.260850,16579.428801,7553.593225,9979.472754,4.392000,-824.231995,-561.200012,2800.000000,-1960.000000,-280.000000
-4849.635643,4907.794882,1374.408767,-11136.108474,6050.460762,1481.205402,-95.240783,-3490.627228,170.990845,14782.750879,11475.296196,16260.804684,18969.836112,16600.238276,7570.155867,9995.186030,5.856000,-826.184021,-558.272034,2520.000000,-1960.000000,-560.000000
-4847.489875,4908.308972,1366.920932,-11125.223175,6046.996241,1477.092681,-93.407940,-3484.949885,163.950046,14771.977338,11465.863760,16252.467484,18958.749647,16585.352014,7559.739954,9992.101490,4.880000,-825.695984,-554.856018,2380.000000,-1960.000000,-420.000000
-4840.538483,4909.024228,1355.096859,-11091.963779,6036.602680,1468.151983,-93.229126,-3480.591295,163.793583,14741.690724,11435.644202,16224.639562,18921.623399,16543.308382,7527.374628,9970.599111,1.464000,-825.695984,-555.832031,2380.000000,-1680.000000,-560.000000
-4827.172140,4919.306030,1352.079374,-11044.466322,6036.535625,1463.458116,-87.618838,-3479.518411,163.368900,14704.765642,11394.606399,16191.871904,18873.656556,16492.368757,7491.611837,9940.267794,5.368000,-826.184021,-560.223999,2240.000000,-1820.000000,-420.000000
-4824.221709,4920.244803,1356.035633,-11014.492633,6041.765933,1466.274436,-81.941495,-3479.808984,154.182333,14678.189418,11367.359622,16168.536683,18844.845157,16464.026745,7471.785840,9923.079303,7.808000,-824.720032,-558.760010,2380.000000,-1680.000000,-420.000000
-4827.239195,4914.008667,1359.835429,-11024.752083,6039.687221,1469.850715,-84.221373,-3485.776900,157.892723,14685.923122,11375.652120,16171.464762,18855.819864,16474.934396,7476.837334,9927.862576,2.928000,-826.184021,-560.223999,2520.000000,-1820.000000,-280.000000
-4831.731895,4906.163204,1365.445717,-11070.684918,6035.060410,1474.231657,-93.922030,-3496.103405,175.081214,14727.095035,11417.293420,16203.204239,18902.937341,16523.504737,7508.196832,9954.125876,5.856000,-828.135986,-558.272034,2800.000000,-1820.000000,-280.000000
-4840.180855,4896.551954,1368.574961,-11120.104625,6034.099285,1477.807936,-99.286449,-3499.433815,185.452424,14771.016213,11462.041612,16238.743512,18952.088827,16575.405487,7547.826475,9985.440670,4.880000,-828.624023,-557.296021,3080.000000,-1820.000000,0.000000
-4843.421858,4895.143794,1366.786822,-11152.916986,6032.624070,1475.013968,-103.287411,-3497.064530,195.510709,14799.067652,11492.618798,16265.610309,18983.001290,16606.809688,7573.553333,10005.020798,4.392000,-826.184021,-559.247986,3220.000000,-1820.000000,0.000000
-4843.980651,4898.138928,1359.455450,-11152.492303,6030.254785,1469.202515,-104.539109,-3492.884754,194.862508,14795.379614,11490.964769,16267.264338,18979.492066,16600.953531,7573.463926,10003.053844,5.856000,-830.575989,-559.247986,3500.000000,-1540.000000,-140.000000
-4836.269300,4910.834719,1355.946226,-11110.985113,6035.842721,1466.274436,-96.268963,-3483.720539,180.512688,14760.086210,11455.783123,16241.537481,18938.789539,16558.373458,7546.507722,9976.723489,1.952000,-829.600037,-556.320007,3500.000000,-1540.000000,-280.000000
-4827.485064,4924.849263,1357.399089,-11052.512950,6043.755239,1465.335663,-86.255382,-3476.858554,159.434993,14709.839488,11403.882373,16205.886448,18883.491323,16503.164649,7505.156994,9939.932518,3.416000,-829.112000,-555.832031,3500.000000,-1540.000000,-140.000000
-4826.188663,4923.932841,1359.410746,-11013.419749,6045.878654,1467.056747,-81.785033,-3475.249228,140.480714,14674.411973,11367.873713,16178.505561,18845.202785,16468.094762,7473.171648,9918.228974,1.952000,-830.575989,-557.296021,3640.000000,-1540.000000,-140.000000
-4823.349991,4916.400303,1363.836391,-11013.084473,6042.481189,1469.917771,-87.372969,-3479.808984,143.922883,14676.803610,11369.281872,16176.203331,18844.956916,16467.915948,7465.460296,9916.820814,1.464000,-830.088013,-554.367981,3640.000000,-1680.000000,-280.000000
-4822.366514,4911.818196,1371.547743,-11046.276813,6039.664869,1474.030492,-97.207737,-3489.867269,161.133726,14709.861840,11399.076748,16199.113870,18878.685698,16502.561152,7484.079299,9933.472864,0.976000,-830.575989,-560.223999,3640.000000,-1820.000000,-280.000000
-4836.224596,4897.200155,1372.195944,-11093.595456,6039.262538,1477.584419,-97.654772,-3495.522260,159.010310,14743.165939,11436.627678,16226.606515,18924.640885,16553.567833,7528.827492,9965.659376,1.464000,-830.088013,-555.832031,3780.000000,-1960.000000,-280.000000
-4843.935948,4888.281809,1368.999644,-11133.538024,6035.507445,1477.159736,-100.426388,-3498.740911,159.904380,14772.625538,11474.022147,16249.740571,18961.744781,16591.319930,7565.439649,9990.425109,2.440000,-827.160034,-555.343994,3780.000000,-1960.000000,-140.000000
-4843.891244,4898.384797,1367.435022,-11137.762503,6037.630861,1474.835154,-99.711132,-3493.555307,157.490391,14778.414640,11479.610083,16258.703620,18966.148074,16595.902037,7570.513495,9992.973208,0.000000,-829.600037,-557.296021,3920.000000,-2100.000000,-280.000000
-4847.467524,4902.475167,1359.835429,-11108.414663,6038.971965,1469.157811,-91.865670,-3483.631132,134.244577,14748.396247,11448.988193,16235.770730,18935.906164,16564.117857,7554.174370,9975.449440,0.488000,-827.648010,-558.760010,3780.000000,-2240.000000,-420.000000
-4839.353840,4897.155451,1352.124077,-11069.902607,6030.992392,1462.139364,-89.451681,-3479.741929,131.897644,14717.327323,11415.907611,16204.858268,18896.008300,16519.123795,7519.104483,9950.594300,1.464000,-832.040039,-556.807983,4060.000000,-2520.000000,-140.000000
-4815.817453,4917.316725,1355.678005,-11021.801653,6033.160512,1462.675805,-86.210678,-3479.786632,144.369917,14686.303101,11377.462611,16176.918587,18850.880128,16470.106419,7476.546762,9916.194965,3.904000,-830.088013,-557.296021,4340.000000,-2520.000000,-140.000000
-4810.631849,4924.290469,1363.925798,-11001.372159,6038.569634,1465.961512,-87.931763,-3485.128699,139.653699,14670.679232,11357.748372,16166.256805,18833.311657,16455.220158,7454.642052,9900.079358,3.416000,-827.648010,-556.807983,4340.000000,-2660.000000,-280.000000
-4821.405389,4916.668524,1370.407804,-11016.392531,6043.643480,1470.923599,-86.367141,-3487.654446,131.450609,14677.965901,11368.745431,16173.252901,18849.851948,16477.370736,7469.640073,9908.953000,4.880000,-830.575989,-556.320007,4480.000000,-2660.000000,140.000000
-4834.548215,4902.452815,1373.492345,-11061.923034,6041.341250,1476.019797,-90.032827,-3490.873097,134.177522,14712.834622,11410.297324,16201.259637,18896.365928,16525.315228,7509.828509,9936.333887,4.880000,-829.112000,-558.272034,4620.000000,-2660.000000,140.000000
-4847.154599,4878.357634,1367.680891,-11125.133768,6028.153721,1474.209306,-104.092074,-3496.505737,153.020043,14765.405925,11469.440039,16240.442245,18955.598051,16582.669804,7551.313347,9977.282283,4.880000,-829.600037,-554.367981,4620.000000,-2660.000000,140.000000
-4832.871834,4891.254591,1365.937455,-11152.089972,6025.046828,1469.940122,-111.892833,-3498.338580,187.754653,14799.805260,11502.185345,16269.901844,18981.749592,16604.887438,7569.217094,9991.274475,5.856000,-831.064026,-558.760010,4480.000000,-2520.000000,140.000000
-4826.635698,4900.374103,1361.377700,-11140.087085,6023.482206,1465.134497,-114.351525,-3492.728292,187.844060,14790.171658,11491.389452,16266.862007,18967.444476,16588.570665,7552.900321,9982.601998,5.368000,-830.575989,-558.272034,4900.000000,-1960.000000,140.000000
-4821.159520,4909.739484,1357.712013,-11097.104680,6023.102227,1461.781736,-109.635307,-3485.218106,172.600171,14750.877291,11451.670402,16237.760036,18923.143318,16543.889528,7515.125873,9957.322175,5.856000,-827.648010,-558.272034,5180.000000,-2100.000000,280.000000
-4820.958355,4907.392550,1353.152258,-11045.874482,6025.829139,1458.496029,-98.146510,-3480.837164,144.325214,14701.435232,11402.518916,16195.023500,18873.120114,16493.508696,7480.726538,9927.840224,5.368000,-829.600037,-555.832031,5180.000000,-2100.000000,420.000000
-4812.442340,4907.169033,1355.163915,-11015.274944,6030.925337,1460.664148,-89.898716,-3479.227838,142.402964,14677.340052,11376.210913,16171.285948,18846.007448,16464.093800,7459.715898,9910.361160,6.832000,-832.528015,-558.760010,5460.000000,-1960.000000,560.000000
-4809.402503,4913.472225,1365.266903,-11011.050464,6043.107038,1468.755480,-79.460452,-3479.965446,143.408792,14676.334223,11372.858152,16170.213064,18844.264012,16468.631204,7468.991872,9911.568154,6.344000,-831.064026,-559.247986,5880.000000,-1820.000000,420.000000
-4818.566718,4907.861937,1373.939380,-11044.019287,6047.778553,1477.159736,-80.153356,-3485.799251,144.526380,14701.681102,11401.267219,16192.989492,18878.082201,16509.400786,7497.982085,9933.361105,5.368000,-832.040039,-558.760010,6160.000000,-1540.000000,560.000000
-4825.942794,4903.391588,1378.029749,-11090.846192,6049.589044,1480.423091,-84.377835,-3489.688455,153.154153,14742.271869,11444.875472,16228.014675,18923.523298,16560.787447,7533.454303,9963.826533,6.344000,-831.064026,-556.807983,6440.000000,-1820.000000,420.000000
-4831.038991,4897.222507,1377.739176,-11128.754750,6046.884483,1479.439614,-90.479862,-3488.548516,160.932560,14778.146419,11483.432231,16259.463580,18960.403676,16599.366558,7559.941120,9988.592266,3.904000,-832.040039,-558.272034,6580.000000,-1820.000000,420.000000
-4821.852424,4900.977600,1374.319360,-11134.387390,6040.111904,1474.254009,-97.632420,-3485.866307,175.796470,14790.037547,11497.580886,16269.253644,18966.326888,16599.813592,7555.962510,9990.514516,4.392000,-834.479980,-554.856018,6580.000000,-1820.000000,420.000000
-4800.037122,4923.105827,1374.073490,-11093.036663,6043.509369,1469.381329,-88.714074,-3477.417347,183.418415,14766.031774,11468.143638,16247.125417,18928.440682,16557.568795,7529.632155,9965.771135,7.320000,-832.528015,-557.296021,7140.000000,-2100.000000,420.000000
-4782.893334,4950.307900,1377.381549,-11022.293392,6057.859189,1468.196686,-66.630550,-3468.499001,166.252275,14711.605276,11405.067015,16201.170230,18861.430152,16491.765260,7494.606971,9924.308649,4.880000,-836.432007,-556.807983,7420.000000,-1960.000000,280.000000
-4766.084822,4970.849153,1387.261020,-10972.001966,6068.476268,1472.220000,-59.589751,-3467.873152,158.563275,14674.322566,11363.313957,16171.710631,18819.028892,16450.660402,7451.669270,9891.831564,3.904000,-833.015991,-555.832031,7840.000000,-2240.000000,140.000000
-4765.950711,4964.188333,1391.418444,-10976.539371,6065.548189,1475.840983,-69.379815,-3476.925609,166.833421,14679.575226,11368.723079,16174.012861,18825.779119,16457.053001,7436.179511,9891.339826,5.856000,-833.015991,-554.856018,7980.000000,-2520.000000,140.000000
-4776.724252,4957.147534,1397.386360,-11003.719092,6069.973835,1483.172355,-68.508097,-3481.083033,165.626426,14696.473145,11387.945579,16190.396689,18852.645916,16490.424155,7458.598311,9910.338808,6.344000,-834.968018,-555.343994,8400.000000,-2520.000000,140.000000
-4802.093482,4928.380838,1395.866441,-11052.311784,6070.890256,1488.872050,-61.064966,-3480.390129,149.823743,14725.530413,11423.775425,16213.463690,18897.572922,16542.011981,7514.544727,9948.806161,2.928000,-833.015991,-558.760010,8540.000000,-2800.000000,140.000000
-4804.976857,4919.306030,1391.798424,-11093.975436,6065.905817,1486.458062,-62.450774,-3480.993626,163.011272,14760.197969,11459.605272,16239.570527,18934.855632,16578.601787,7559.248216,9975.829420,3.904000,-834.968018,-553.880005,8960.000000,-2800.000000,140.000000
-4794.270372,4940.696650,1388.535069,-11095.897686,6067.582198,1482.144175,-63.233085,-3479.071376,174.254200,14763.394268,11460.208769,16249.338239,18935.861461,16577.908883,7565.752574,9973.840114,4.392000,-835.455994,-555.832031,9380.000000,-3220.000000,420.000000
-4795.164441,4944.496446,1382.745967,-11071.847209,6067.358681,1479.305503,-59.902675,-3470.488306,157.333929,14739.030867,11437.119417,16233.468501,18913.062681,16551.332659,7546.530073,9961.636062,4.880000,-833.015991,-554.367981,9800.000000,-3640.000000,560.000000
-4786.268447,4953.794772,1379.527316,-11031.167034,6061.636634,1473.091718,-67.949303,-3466.330882,154.472906,14705.480898,11401.334274,16206.378187,18873.678908,16505.176306,7492.885887,9930.857710,5.856000,-835.944031,-554.367981,10220.000000,-4060.000000,700.000000
-4787.117813,4945.725792,1375.079319,-11002.512098,6049.700803,1470.275399,-73.917219,-3466.308530,150.293130,14679.195247,11373.998091,16181.768916,18845.560413,16472.632166,7450.976366,9914.071550,5.856000,-833.992004,-552.903992,10500.000000,-4340.000000,840.000000
-4799.523032,4924.737504,1366.429194,-10995.583057,6038.793151,1470.074233,-72.576114,-3467.515524,138.424353,14665.247758,11361.570521,16159.908910,18832.059959,16458.997602,7451.065773,9912.305762,2.928000,-834.479980,-554.856018,10640.000000,-4340.000000,840.000000
-4808.642543,4922.502330,1369.178458,-11004.568458,6045.163398,1474.119899,-72.598466,-3475.495097,126.555577,14666.700621,11363.760992,16162.054677,18837.223212,16471.469876,7464.298006,9914.160957,4.392000,-833.992004,-553.392029,11060.000000,-4480.000000,1260.000000
-4828.021506,4906.230260,1371.435985,-11056.469209,6041.922395,1477.874992,-86.992989,-3488.257943,126.734391,14703.089261,11403.301227,16195.090556,18887.246416,16524.890545,7492.930590,9942.726486,3.904000,-835.455994,-553.880005,11060.000000,-4620.000000,1260.000000
-4846.215826,4874.937817,1364.886923,-11126.564279,6026.253823,1475.639817,-104.203833,-3494.896411,144.705194,14760.242672,11466.690775,16236.508338,18955.039257,16587.251912,7539.198701,9989.575742,2.928000,-835.944031,-553.880005,11480.000000,-4620.000000,1540.000000
-4834.615270,4882.000969,1361.020072,-11153.453428,6017.067256,1469.582494,-115.178539,-3498.740911,181.406758,14790.842210,11496.306836,16260.469408,18980.900226,16604.954494,7554.554350,10000.058711,1.952000,-835.944031,-552.903992,11620.000000,-4760.000000,1540.000000
-4825.428703,4898.831832,1357.667310,-11135.616736,6019.056561,1464.799221,-114.597394,-3494.382321,184.111319,14776.760611,11481.085298,16254.233271,18962.571795,16583.407412,7538.863425,9985.820649,1.464000,-836.919983,-552.903992,12040.000000,-4480.000000,1680.000000
-4820.243099,4906.230260,1352.191133,-11095.338892,6019.905927,1461.312349,-110.663487,-3487.028597,169.269761,14741.601317,11444.987231,16227.187661,18922.606876,16540.626173,7504.799367,9961.971338,2.440000,-835.944031,-554.367981,12320.000000,-4620.000000,1680.000000
-4814.096369,4911.639382,1350.224179,-11043.080514,6022.923413,1458.764250,-101.074588,-3482.111213,151.567179,14695.444965,11396.618056,16189.122640,18869.722649,16489.395975,7467.449602,9932.154111,4.392000,-837.408020,-555.832031,12460.000000,-4480.000000,1820.000000
-4815.392770,4923.709324,1356.147391,-10998.041749,6034.389858,1462.273474,-89.585792,-3480.703054,125.035658,14650.875586,11350.305241,16157.114942,18824.169794,16453.275556,7441.186302,9905.868459,0.000000,-834.479980,-548.023987,12600.000000,-4200.000000,1680.000000
-4833.564738,4908.510138,1360.148354,-11000.388682,6038.949613,1469.023701,-85.294257,-3482.602952,96.380722,14641.778426,11345.790189,16150.677639,18824.817994,16462.417419,7448.361212,9910.629381,3.416000,-834.968018,-548.512024,12600.000000,-4060.000000,1820.000000
-4843.041878,4873.552009,1358.471973,-11058.682031,6022.342267,1468.666073,-103.935612,-3495.119929,117.011382,14692.159258,11400.797832,16182.372413,18881.859646,16513.781728,7482.715843,9944.984012,0.000000,-837.895996,-549.000000,12740.000000,-3920.000000,1820.000000
-4829.362611,4874.043748,1362.472935,-11116.237773,6013.938011,1467.704948,-120.431199,-3505.334676,170.834383,14754.788846,11460.611100,16228.417007,18941.628211,16567.425915,7518.277468,9975.695309,0.000000,-837.408020,-552.903992,12880.000000,-3640.000000,1820.000000
-4828.245023,4876.882419,1362.495287,-11151.531178,6013.580383,1465.782698,-126.153246,-3506.161690,188.939296,14786.148344,11491.881191,16258.100123,18976.809857,16601.199401,7543.311422,9996.661245,0.976000,-838.384033,-549.487976,13020.000000,-3780.000000,1820.000000
-4827.015677,4885.443137,1357.555551,-11151.799399,6013.043942,1461.289997,-123.918071,-3501.423121,189.162813,14785.433088,11491.434156,16261.028202,18975.848731,16598.763060,7547.044164,9998.114109,4.392000,-835.455994,-548.023987,13300.000000,-3780.000000,1960.000000
-4821.114817,4900.999951,1351.565284,-11114.181413,6014.206232,1457.490201,-116.989030,-3492.124795,180.020950,14752.598375,11456.386621,16238.676457,18936.733179,16558.641679,7520.758512,9975.605902,0.488000,-834.968018,-547.536011,13300.000000,-3360.000000,1820.000000
-4816.331543,4910.588850,1349.911255,-11063.465305,6016.866090,1456.037337,-106.304897,-3483.720539,160.105546,14706.620837,11411.370207,16205.171192,18887.760507,16508.774937,7486.694454,9947.330945,2.928000,-834.479980,-548.023987,13440.000000,-3220.000000,1820.000000
-4815.258660,4912.980487,1350.715917,-11020.281735,6022.968116,1455.612654,-93.810271,-3481.552420,140.234845,14666.342994,11371.248826,16172.627052,18847.236794,16468.944129,7462.711032,9921.671143,0.000000,-834.479980,-547.536011,13440.000000,-2660.000000,1680.000000
-4820.019581,4906.073797,1354.359252,-11014.738502,6024.041000,1458.987768,-92.849146,-3482.960580,134.848074,14661.246796,11367.560788,16164.423962,18842.833500,16466.194864,7460.095878,9917.491367,-0.976000,-834.479980,-549.487976,13580.000000,-2240.000000,1540.000000
-4824.378171,4906.230260,1363.367005,-11039.057200,6029.159549,1465.112146,-96.023094,-3489.286123,137.932615,14681.452773,11391.879486,16182.394765,18868.426248,16496.459126,7478.983102,9929.874233,-1.464000,-835.944031,-549.000000,13580.000000,-1820.000000,1260.000000
-4832.938890,4893.981504,1367.010339,-11091.382634,6027.125541,1470.253047,-105.232013,-3494.382321,149.711984,14726.245669,11439.600460,16218.045797,18921.154013,16551.444417,7513.002457,9962.910111,-2.440000,-831.064026,-549.000000,13720.000000,-1120.000000,1400.000000
-4838.169198,4879.721091,1363.702281,-11144.043344,6017.134311,1466.944989,-118.508949,-3496.461033,166.185220,14771.686765,11485.198019,16252.355725,18972.183045,16598.427784,7546.351260,9993.979036,-0.488000,-830.088013,-548.512024,13860.000000,-1120.000000,1400.000000
-4835.777561,4887.991236,1358.516676,-11152.961690,6015.346171,1460.395927,-119.268908,-3496.304571,166.140517,14778.146419,11490.361272,16260.469408,18977.994499,16601.489973,7558.152981,9996.169507,-1.464000,-831.552002,-549.000000,14000.000000,-700.000000,1260.000000
-4831.016640,4894.920277,1352.012319,-11132.889823,6012.708665,1455.187971,-117.816045,-3490.850746,163.793583,14761.583777,11473.597464,16249.740571,18956.693287,16576.366612,7539.444570,9983.429013,-0.488000,-830.575989,-547.536011,14000.000000,-560.000000,1400.000000
-4822.657087,4900.731731,1347.743135,-11089.281570,6011.680485,1451.589340,-112.742199,-3485.553382,159.680862,14726.402131,11436.046533,16221.577373,18913.643827,16529.964391,7502.094805,9957.769210,-1.464000,-830.575989,-546.559998,14000.000000,-420.000000,1260.000000
-4813.716389,4910.857071,1350.179476,-11037.045543,6019.704761,1453.712756,-100.225222,-3481.932400,143.297034,14682.257436,11387.565599,16185.099326,18863.799437,16481.371699,7470.310625,9929.181329,-2.440000,-827.160034,-549.487976,14140.000000,-140.000000,1400.000000
-4811.794139,4911.572327,1355.990929,-11014.537336,6027.013782,1458.853657,-93.966734,-3482.424138,134.244577,14663.951357,11366.465553,16167.933186,18844.152253,16464.205559,7456.743116,9917.044332,0.976000,-826.184021,-547.048035,13580.000000,140.000000,1400.000000
-4819.550195,4900.821138,1359.276636,-11035.100941,6025.762084,1462.653454,-98.370027,-3489.755510,139.608996,14678.748212,11383.519934,16177.164457,18864.112361,16486.959635,7470.154163,9928.153149,-1.952000,-826.184021,-545.583984,13300.000000,420.000000,980.000000
-4829.653183,4887.231277,1362.472935,-11083.693634,6021.135273,1465.112146,-109.903527,-3500.327885,153.355319,14720.702436,11426.792911,16210.982646,18913.129737,16535.731141,7500.530183,9955.958719,-2.440000,-828.624023,-544.608032,12880.000000,0.000000,980.000000
-4831.798951,4885.152565,1367.055043,-11131.034628,6021.738770,1466.788526,-117.145493,-3504.507661,169.806203,14767.819913,11472.882208,16249.919385,18961.364801,16585.217903,7538.774018,9987.385271,-1.464000,-831.552002,-545.583984,12040.000000,140.000000,840.000000
-4837.051611,4884.482012,1363.836391,-11154.034573,6021.515253,1465.983864,-116.698458,-3500.305533,170.096775,14787.712966,11492.462336,16267.711373,18981.302557,16608.150793,7561.796315,10005.847812,1.952000,-827.648010,-546.559998,11480.000000,-140.000000,560.000000
-4843.667727,4883.967922,1354.202790,-11144.848006,6018.698933,1460.887666,-111.043466,-3494.739949,156.149287,14773.564312,11479.073641,16258.837731,18968.226787,16594.404470,7560.209341,10003.746748,-0.976000,-830.575989,-546.559998,10920.000000,-560.000000,280.000000
-4838.683288,4892.215716,1348.324281,-11105.106605,6017.201366,1456.082041,-106.818987,-3489.911972,145.688670,14736.326305,11442.215615,16232.306210,18926.429025,16550.550348,7526.346448,9980.925617,-1.464000,-831.064026,-545.583984,10640.000000,-1120.000000,-140.000000
-4829.273204,4904.956210,1349.575978,-11053.474075,6020.934107,1454.919750,-101.275754,-3484.569905,133.350507,14694.908523,11398.853230,16198.376262,18877.746925,16499.990702,7481.687663,9949.387306,2.928000,-828.135986,-543.632019,10220.000000,-1680.000000,-420.000000
-4827.060381,4903.123367,1352.258188,-11025.579098,6020.732942,1457.087869,-99.666429,-3486.290990,130.668298,14673.719069,11375.897989,16177.432677,18853.227061,16473.436829,7458.553607,9933.003477,3.904000,-830.088013,-544.608032,9660.000000,-1960.000000,-700.000000
-4827.574471,4898.854184,1356.862647,-11030.675296,6020.799997,1460.865314,-101.946306,-3492.616533,139.452534,14680.469296,11380.815373,16178.818486,18860.312564,16480.477629,7461.772258,9937.071495,6.832000,-829.600037,-543.632019,9380.000000,-2380.000000,-980.000000
-4834.615270,4890.807556,1363.389357,-11068.852075,6023.973945,1466.699119,-107.198966,-3497.645676,148.750859,14712.320532,11416.242888,16206.177021,18898.712861,16522.498908,7491.365968,9960.496123,7.320000,-828.135986,-542.656006,8680.000000,-2660.000000,-1540.000000
-4839.353840,4884.280847,1368.865534,-11118.629410,6024.532738,1470.968303,-114.060952,-3498.115062,159.792621,14754.788846,11466.400202,16243.124454,18949.294859,16574.690232,7528.805140,9990.469812,6.344000,-828.624023,-540.216003,8260.000000,-3080.000000,-1960.000000
-4845.858198,4878.916428,1365.043386,-11155.353326,6020.978811,1468.219038,-122.264042,-3500.864327,164.553543,14784.091983,11500.061929,16268.270167,18985.325871,16608.329607,7554.531998,10011.368693,8.296000,-824.720032,-544.608032,8120.000000,-3360.000000,-2100.000000
-4847.132247,4885.621951,1360.282464,-11151.553530,6023.772779,1463.525172,-116.921975,-3497.422158,156.663377,14778.884027,11493.401109,16266.951414,18979.000327,16602.808726,7556.811876,10011.547507,8.296000,-827.160034,-540.216003,7560.000000,-3500.000000,-2380.000000
-4845.165294,4896.283733,1355.052156,-11112.527384,6027.572576,1458.853657,-108.785940,-3489.554344,139.720755,14745.915204,11455.045516,16241.626888,18938.297801,16564.475484,7528.536919,9988.927542,6.832000,-827.160034,-541.679993,7280.000000,-3360.000000,-2660.000000
-4836.515169,4903.056312,1352.571112,-11067.466267,6024.778607,1456.014986,-109.255327,-3483.385263,133.529321,14712.476994,11416.198184,16212.502564,18896.589446,16518.833222,7482.492326,9960.294957,9.272000,-832.528015,-538.752014,7000.000000,-3640.000000,-2660.000000
-4832.022468,4900.307047,1353.688699,-11030.719999,6022.811654,1457.177276,-106.014324,-3480.591295,126.756743,14682.615064,11385.553942,16184.048794,18861.430152,16483.204542,7449.076468,9938.837283,7.808000,-829.600037,-540.216003,6860.000000,-3360.000000,-2660.000000
-4831.821302,4894.160318,1355.722708,-11018.873575,6023.750427,1460.328872,-98.347676,-3483.564077,124.968603,14670.768639,11374.936864,16169.766029,18848.913175,16472.855684,7451.736325,9932.757608,11.224000,-831.552002,-538.752014,6720.000000,-3780.000000,-2660.000000
-4829.921404,4889.779376,1359.969540,-11045.919185,6020.598831,1462.117012,-103.689743,-3493.488251,145.040470,14696.987235,11401.960123,16186.663948,18876.070544,16498.381376,7476.747927,9944.715791,7.320000,-833.015991,-539.239990,6860.000000,-3500.000000,-2520.000000
-4835.151712,4887.633608,1366.093918,-11092.075538,6019.950631,1465.402718,-112.921013,-3501.154900,158.205647,14736.303954,11446.305984,16220.526841,18923.098615,16546.728199,7509.716750,9969.101545,6.344000,-837.895996,-541.192017,7140.000000,-3360.000000,-2100.000000
-4845.768791,4885.040806,1367.412671,-11133.046285,6021.604660,1469.940122,-115.111484,-3499.255001,157.825668,14766.903492,11482.739327,16250.522882,18964.762266,16590.917598,7543.803161,9997.287094,3.416000,-840.824036,-543.632019,7700.000000,-3080.000000,-1680.000000
