10866.479381,14451.162750,706.516290,983.879087,7581.711719,6027.326706,11913.993885,-14302.769518,11858.293338,6740.101485,9991.028606,-4865.237160,8195.691788,3556.117839,17421.597829,4241.779952,-260.104004,-856.440002,-446.032013,-2380.000000,-1260.000000,-1540.000000
10854.185921,14350.848121,655.442554,920.958927,7524.446550,6006.874860,11859.276814,-14354.893786,11832.879404,6722.823587,9982.490239,-4924.290469,8168.288549,3547.758287,17368.378326,4173.897704,-259.615997,-852.536011,-450.912018,-1960.000000,-560.000000,-1680.000000
10064.163514,14374.272749,638.410525,1085.691283,7950.537854,5618.222728,11705.697978,-15058.012612,12244.375020,6998.062968,10205.538297,-4807.301439,8887.813555,3469.840106,17213.838364,4335.433762,-235.704010,-842.776001,-478.239990,1680.000000,560.000000,3500.000000
10117.718293,14618.487909,794.313943,1247.652024,8152.038831,5673.543295,11829.727808,-14917.509546,12331.524471,7119.567051,10231.131045,-4647.218245,8973.308977,3519.908013,17353.648526,4513.621868,-233.751999,-840.335999,-476.776001,1680.000000,840.000000,3500.000000
10112.398578,14732.839433,837.653975,1326.956013,8209.102834,5702.399397,11903.577972,-14855.103475,12352.512759,7120.103493,10243.335097,-4572.585770,9009.921135,3523.059609,17438.763969,4607.543899,-233.751999,-840.824036,-480.192017,1820.000000,980.000000,3500.000000
10060.609586,14621.974781,738.456933,1255.229265,8081.116746,5678.259513,11862.361355,-14929.378322,12296.611046,7018.201890,10231.488673,-4643.887835,8969.330367,3483.720539,17396.362710,4541.449790,-234.240005,-840.335999,-479.216003,1820.000000,1260.000000,3360.000000
10039.621298,14517.100396,666.327854,1184.485994,7986.837087,5653.270263,11809.700645,-14995.450079,12253.941566,6962.590750,10217.183556,-4719.257917,8925.051561,3456.585521,17331.944982,4455.753202,-236.192001,-837.895996,-481.656006,2100.000000,1820.000000,2800.000000
10030.524138,14431.403808,612.348391,1128.584281,7919.088950,5634.092466,11764.795991,-15041.829949,12224.437264,6919.429531,10204.823042,-4785.217915,8888.752328,3434.233777,17273.070487,4373.655245,-235.216003,-837.408020,-480.679993,2100.000000,1680.000000,2660.000000
10009.558202,14314.526536,542.700355,1051.984853,7833.548824,5610.801948,11702.904010,-15103.096080,12184.852324,6867.394670,10191.210829,-4865.170105,8849.793237,3411.658515,17198.728585,4279.263828,-236.680008,-838.384033,-478.239990,2520.000000,2100.000000,2380.000000
10001.556277,14222.482052,501.617849,991.277515,7781.111632,5592.227649,11648.745733,-15154.639203,12167.194446,6855.592949,10186.159335,-4919.261327,8827.642659,3408.708085,17142.938631,4216.522481,-236.680008,-840.335999,-477.752014,2660.000000,2100.000000,2100.000000
10036.804978,14288.889085,573.344597,1033.924643,7873.156115,5605.258716,11670.382222,-15112.886144,12209.416891,6944.105857,10195.323550,-4866.287692,8859.069211,3444.694393,17174.566349,4270.189019,-236.192001,-841.312012,-479.704010,2660.000000,2100.000000,1680.000000
10104.128433,14532.411341,741.764991,1194.097244,8090.258609,5658.701737,11794.121479,-14967.152770,12305.887020,7086.397062,10220.424559,-4702.561164,8943.715268,3506.049932,17310.330845,4447.885388,-237.167999,-837.408020,-480.192017,2940.000000,2380.000000,1400.000000
10128.603593,14724.345770,843.621891,1322.664478,8220.301058,5702.779377,11906.170774,-14859.082086,12363.643928,7143.081086,10241.077571,-4576.586732,9004.690826,3531.866197,17431.812576,4590.802442,-235.704010,-840.335999,-479.216003,2800.000000,2380.000000,1120.000000
10083.475421,14677.496514,777.080748,1296.557641,8131.698743,5694.911563,11900.135803,-14899.650502,12327.858785,7057.853884,10236.920147,-4601.933611,8987.211762,3502.540708,17429.398588,4567.802497,-233.751999,-838.872009,-482.144012,2800.000000,2240.000000,560.000000
10047.533816,14560.351021,691.115939,1216.493692,8018.934193,5665.004929,11842.378896,-14973.523018,12273.342880,6983.556686,10221.408036,-4681.081138,8942.910605,3473.416385,17362.902148,4478.596685,-234.727997,-840.335999,-480.679993,2660.000000,2660.000000,560.000000
10033.072237,14466.049011,633.426086,1150.980729,7946.425134,5642.452019,11794.613218,-15024.797919,12234.674363,6933.935813,10206.946457,-4753.925473,8903.727997,3447.510713,17293.343519,4394.040035,-235.704010,-840.824036,-481.656006,2520.000000,2660.000000,420.000000
10017.001333,14362.292214,570.729443,1083.634923,7871.189162,5621.642544,11742.220729,-15076.050469,12198.889220,6884.940789,10192.261361,-4828.088561,8866.847618,3426.164797,17222.332027,4306.890584,-233.751999,-840.824036,-481.167999,2520.000000,2660.000000,280.000000
9999.969304,14248.968869,513.285460,1008.801283,7796.310818,5597.793233,11679.322920,-15135.796682,12169.764897,6852.173132,10181.599579,-4897.401321,8834.772865,3413.737227,17153.533358,4225.329068,-231.800003,-842.288025,-478.239990,2240.000000,2940.000000,140.000000
10021.315220,14249.617070,540.331070,1007.303716,7827.759722,5596.496832,11663.944920,-15135.506110,12190.552019,6903.157461,10184.929989,-4886.068986,8840.316098,3431.864492,17146.783131,4230.984060,-228.872009,-839.359985,-482.632019,2100.000000,2520.000000,0.000000
10081.240246,14446.155959,689.439558,1137.234406,8018.151881,5638.920443,11754.491836,-15016.863050,12272.605273,7041.380649,10206.924106,-4752.807886,8908.935953,3486.112176,17254.227967,4378.170297,-231.800003,-841.312012,-480.192017,1960.000000,2380.000000,-140.000000
10122.993305,14674.814305,829.361478,1289.874469,8195.803546,5690.262400,11877.359376,-14883.065508,12345.516663,7135.526196,10232.315687,-4605.822814,8986.630617,3524.311307,17392.361747,4547.864741,-232.288010,-840.824036,-482.144012,1400.000000,2520.000000,-140.000000
10099.166345,14708.990122,815.749266,1315.534272,8176.961026,5700.454795,11908.003617,-14873.878941,12340.822797,7089.950989,10240.742295,-4584.879230,8998.052358,3507.368685,17434.919469,4581.302951,-232.288010,-839.359985,-483.608002,1820.000000,2520.000000,140.000000
10045.902138,14584.043870,713.981773,1233.235149,8047.499722,5668.469449,11847.050410,-14955.775732,12278.908465,6993.503212,10227.778283,-4669.100603,8953.281814,3468.677815,17373.832151,4494.220554,-227.895996,-842.288025,-480.192017,1400.000000,2100.000000,280.000000
10027.529005,14485.807954,648.491162,1166.314026,7963.881846,5642.653184,11793.316816,-15011.453928,12239.278822,6943.144732,10213.048483,-4742.391973,8914.188613,3443.152123,17306.039310,4408.211041,-229.848007,-845.216003,-481.167999,1260.000000,2100.000000,560.000000
10019.325914,14390.477763,593.237650,1102.186871,7893.764424,5619.630887,11744.835883,-15059.376068,12205.862964,6897.949505,10194.273018,-4814.029314,8873.441383,3418.967535,17239.766388,4321.754494,-229.848007,-842.776001,-482.144012,840.000000,1820.000000,700.000000
10001.466870,14271.164152,529.378716,1028.984908,7812.337019,5600.073111,11688.196562,-15119.949296,12170.658966,6845.624071,10177.755079,-4890.584039,8835.577528,3404.729474,17176.980338,4236.415534,-228.872009,-847.168030,-484.096008,840.000000,1540.000000,980.000000
10009.334685,14218.346979,520.370963,996.351361,7797.763681,5593.211126,11651.718515,-15150.481778,12173.050603,6866.299434,10178.269169,-4913.494577,8829.453150,3416.106512,17146.626669,4208.118225,-229.360001,-842.776001,-483.608002,700.000000,1400.000000,1260.000000
10063.515313,14353.955013,635.191874,1080.885658,7941.083067,5619.697943,11703.239286,-15073.278853,12241.625755,6987.557648,10197.826946,-4818.365552,8882.560895,3460.631187,17211.022045,4307.717598,-228.872009,-842.776001,-484.584015,420.000000,980.000000,1820.000000
10119.618192,14601.411176,798.471367,1245.148628,8149.177807,5672.179839,11830.487768,-14924.840918,12331.591526,7114.292039,10226.459530,-4654.460210,8967.274006,3508.352161,17352.352125,4488.543211,-230.335999,-844.728027,-485.559998,280.000000,560.000000,1960.000000
10122.278049,14728.682009,852.607292,1339.070659,8217.797663,5703.360522,11915.245582,-14855.438752,12364.828570,7124.283269,10243.648022,-4568.473049,9009.742321,3519.013944,17448.285812,4588.321398,-233.264008,-846.192017,-482.144012,140.000000,560.000000,2380.000000
10071.830162,14627.763883,759.199352,1277.022216,8093.946647,5681.656978,11877.560541,-14925.355008,12312.413730,7024.169806,10230.549899,-4632.555501,8972.638425,3482.692359,17413.439442,4525.423589,-229.848007,-842.776001,-487.511993,280.000000,420.000000,2800.000000
10039.375429,14515.334608,679.671845,1199.461663,7994.526088,5652.689118,11819.513061,-14990.197419,12258.948357,6959.081526,10208.958114,-4717.134502,8925.185671,3451.958710,17346.048933,4438.385896,-231.800003,-840.824036,-482.632019,280.000000,420.000000,2940.000000
10023.885670,14421.077302,619.344487,1132.115857,7922.397008,5627.968088,11768.484028,-15036.197309,12220.838633,6911.293496,10193.825983,-4792.459880,8886.137174,3425.427190,17274.679813,4351.504666,-230.335999,-844.239990,-480.679993,140.000000,0.000000,3500.000000
10002.852679,14304.937637,550.545818,1054.063565,7837.438028,5601.749492,11707.955504,-15097.508144,12181.723080,6858.386917,10179.409108,-4872.836753,8847.803932,3401.220250,17199.354434,4256.800325,-231.800003,-843.264038,-484.096008,280.000000,-140.000000,3640.000000
9994.359016,14208.355750,504.210651,989.154099,7778.697643,5581.118832,11649.416286,-15153.454560,12162.500580,6844.886463,10172.614178,-4928.157321,8821.317115,3396.973419,17138.714151,4192.270838,-231.311996,-843.752014,-485.071991,280.000000,-280.000000,3780.000000
10029.987696,14269.331309,572.070548,1025.520387,7863.589569,5590.260695,11664.637824,-15114.629580,12200.655007,6932.460598,10182.001910,-4879.251704,8849.972051,3431.037477,17161.021192,4243.791609,-235.216003,-843.264038,-486.536011,140.000000,0.000000,4060.000000
10096.215915,14509.657265,741.653233,1182.787261,8076.579341,5638.786332,11781.872723,-14972.316023,12295.113480,7076.428184,10209.136928,-4720.710781,8932.494692,3488.570868,17291.577732,4419.006934,-233.264008,-841.799988,-487.024017,280.000000,-140.000000,4200.000000
10119.931116,14703.044558,849.746269,1315.064885,8207.091177,5683.288656,11891.865658,-14859.909101,12351.775152,7133.223967,10230.907527,-4595.876288,8993.358492,3516.398789,17413.350035,4563.980349,-235.704010,-841.799988,-482.632019,420.000000,-280.000000,4200.000000
10073.238322,14657.514054,786.803757,1289.494489,8122.579232,5675.599656,11883.796678,-14894.353139,12316.101768,7045.672184,10227.957097,-4622.228995,8976.594684,3488.235591,17411.740710,4545.540159,-234.727997,-841.799988,-483.119995,700.000000,-140.000000,4340.000000
10043.018763,14543.140178,699.006104,1211.911584,8013.592126,5647.704679,11826.822081,-14964.336451,12265.475066,6973.610160,10212.802614,-4702.583516,8934.931032,3459.334786,17349.178177,4460.290606,-237.167999,-839.848022,-487.024017,560.000000,-140.000000,4060.000000
10026.232603,14449.307555,636.532979,1148.857313,7942.111247,5626.671687,11782.409165,-15009.688140,12224.973705,6922.849348,10195.658826,-4775.517258,8896.486032,3436.491303,17288.470839,4376.426861,-237.656006,-839.848022,-485.559998,840.000000,-140.000000,4200.000000
10008.440615,14346.958917,572.316417,1079.611609,7864.014252,5606.644524,11731.335429,-15059.510179,12190.104984,6871.172115,10183.767698,-4848.361593,8858.085735,3415.190091,17221.259144,4286.706959,-233.264008,-842.288025,-483.608002,840.000000,0.000000,4060.000000
9984.323082,14229.522852,509.686829,1002.542794,7783.391509,5583.264599,11666.291853,-15123.190298,12155.437428,6834.850530,10176.525733,-4919.149568,8824.267545,3401.287306,17150.471169,4199.915135,-237.167999,-841.799988,-482.144012,1260.000000,0.000000,3780.000000
9999.544620,14221.923259,529.937509,996.865451,7809.230126,5578.794250,11650.757390,-15125.358418,12169.988414,6884.627865,10170.848390,-4911.438216,8828.603784,3420.621564,17142.424541,4199.758673,-236.192001,-839.848022,-485.071991,1260.000000,0.000000,3500.000000
10064.856418,14416.517546,681.147061,1126.103237,7997.856498,5619.407370,11742.377191,-15006.447137,12256.422610,7024.125102,10188.796841,-4775.293741,8897.961247,3477.171478,17249.131769,4344.016831,-237.656006,-840.335999,-483.119995,1540.000000,140.000000,3220.000000
10117.718293,14654.317755,831.171969,1284.845327,8181.721947,5671.486935,11867.949291,-14869.050964,12343.482655,7128.038362,10216.401245,-4619.278564,8976.415870,3518.745723,17387.936102,4518.315735,-239.608002,-839.848022,-481.167999,1400.000000,140.000000,2940.000000
10096.931171,14702.955151,826.969841,1319.378772,8174.234113,5684.786223,11905.254353,-14851.996583,12347.729486,7091.068577,10224.671391,-4587.807308,8990.676283,3504.708827,17435.657076,4563.019224,-235.704010,-841.799988,-486.536011,1540.000000,140.000000,2520.000000
10048.584348,14580.467591,726.074067,1237.794904,8044.415181,5654.834885,11846.156340,-14934.742741,12286.642168,6997.615933,10211.483861,-4668.340643,8945.816332,3470.287141,17375.039145,4476.629731,-235.216003,-841.312012,-485.071991,1540.000000,280.000000,2240.000000
10026.880804,14477.113125,656.984825,1167.029282,7959.880884,5625.889376,11794.546162,-14991.404413,12237.110703,6941.848331,10194.943570,-4744.425982,8900.866974,3445.521408,17307.559229,4390.955495,-232.776001,-837.895996,-484.096008,1680.000000,140.000000,1680.000000
10012.463929,14378.944263,597.372722,1103.058589,7889.227019,5605.728102,11747.004002,-15038.521890,12199.068034,6894.596743,10182.493649,-4817.940869,8863.651319,3423.884919,17241.085141,4310.645677,-231.800003,-840.824036,-483.119995,1680.000000,280.000000,1400.000000
9995.834231,14264.212759,531.144503,1030.191902,7809.051312,5584.181021,11686.475478,-15100.972664,12167.775591,6849.312109,10171.183666,-4894.763815,8830.794255,3404.148329,17173.761687,4224.904385,-234.727997,-840.335999,-479.704010,1540.000000,420.000000,980.000000
9992.950856,14198.722148,505.797625,987.410663,7784.911428,5570.814678,11643.537777,-15135.349647,12160.533626,6855.011804,10163.919349,-4931.040696,8818.456092,3405.824710,17137.328343,4189.186298,-231.800003,-844.728027,-482.632019,1400.000000,560.000000,700.000000
10044.605737,14329.681019,617.824568,1071.117946,7926.621488,5597.793233,11698.478365,-15054.861016,12227.745322,6971.754965,10179.856143,-4840.002041,8868.680461,3451.735193,17204.584742,4287.958656,-233.264008,-842.288025,-480.679993,1400.000000,700.000000,420.000000
10103.837860,14576.712498,784.926210,1234.419791,8133.062200,5651.303309,11824.497500,-14908.881773,12317.889907,7101.685655,10206.722940,-4679.047129,8953.907663,3503.054798,17344.238441,4466.526743,-228.384003,-844.239990,-481.656006,1400.000000,840.000000,0.000000
10108.330561,14701.994026,840.917330,1320.451655,8197.904610,5682.528696,11900.381672,-14842.497092,12349.316460,7115.633144,10225.453702,-4595.876288,8995.794832,3511.056723,17431.656114,4564.248570,-229.848007,-840.824036,-483.119995,1260.000000,980.000000,-140.000000
10054.574615,14592.626940,741.206198,1248.948425,8066.409298,5657.517094,11850.604338,-14920.214107,12291.336035,7014.111521,10215.775396,-4663.177390,8958.892102,3470.018920,17384.024547,4494.667589,-230.335999,-839.848022,-483.608002,1260.000000,1540.000000,-280.000000
10032.200519,14485.472677,669.367691,1177.199325,7972.576675,5630.650297,11796.982503,-14986.151753,12246.610194,6956.399316,10200.129175,-4737.832217,8917.407264,3444.135600,17320.590296,4409.373332,-228.872009,-840.824036,-483.608002,1260.000000,1680.000000,-420.000000
10020.689371,14396.177458,612.974240,1118.615403,7907.153119,5610.533727,11755.184740,-15029.670600,12209.774519,6911.069979,10184.773527,-4806.586183,8878.984616,3423.460236,17261.224063,4329.711715,-231.311996,-841.312012,-482.632019,1400.000000,2100.000000,-420.000000
10000.796318,14282.071803,543.683832,1045.122867,7825.636306,5587.913762,11700.087690,-15088.746260,12170.547208,6857.112867,10170.468410,-4884.906695,8835.063438,3401.644933,17192.514800,4238.583653,-228.384003,-841.799988,-481.656006,1400.000000,2380.000000,-560.000000
9987.206458,14181.734822,495.001733,980.258105,7768.929931,5569.540628,11642.151969,-15144.267993,12147.010821,6836.348097,10162.801762,-4942.551844,8807.011999,3397.532212,17133.930878,4171.863696,-231.800003,-842.776001,-479.216003,1540.000000,2520.000000,-560.000000
10023.617449,14244.006782,560.872324,1020.692411,7855.833513,5583.398710,11662.089725,-15108.304037,12189.434432,6920.189490,10173.128268,-4890.919315,8835.532824,3433.071486,17163.032849,4221.506920,-228.872009,-841.312012,-480.679993,1820.000000,2940.000000,-420.000000
10091.164421,14479.080078,725.962308,1175.969979,8065.023490,5633.488969,11778.564665,-14972.070154,12286.508058,7062.525399,10201.649094,-4733.898310,8917.697837,3490.023731,17294.192886,4390.463756,-230.335999,-839.359985,-481.167999,2100.000000,2940.000000,-280.000000
10116.801872,14675.060174,833.004812,1309.320487,8201.391483,5678.684196,11890.390443,-14860.445542,12347.662431,7122.003391,10220.983353,-4611.746026,8980.997977,3517.359914,17418.960323,4535.459523,-228.872009,-844.239990,-479.704010,2100.000000,3220.000000,-420.000000
10076.769898,14643.097179,775.046739,1289.896821,8125.775531,5674.504420,11887.127088,-14890.821563,12318.471052,7042.408829,10217.608239,-4633.270756,8967.765745,3489.911972,17418.133309,4520.863834,-230.335999,-842.288025,-481.656006,1820.000000,3220.000000,-280.000000
10046.125656,14535.048847,692.546450,1215.577270,8015.827300,5645.648318,11831.962983,-14959.731991,12269.096049,6972.827849,10205.068911,-4707.702065,8924.805692,3462.016995,17354.632003,4437.469475,-229.360001,-843.264038,-482.144012,1960.000000,3780.000000,-140.000000
10021.829310,14436.298840,634.230749,1150.466639,7940.054886,5620.971992,11785.247837,-15003.697873,12220.704522,6920.122435,10187.768661,-4781.976912,8883.611427,3438.413553,17287.062679,4356.489105,-231.311996,-844.239990,-481.167999,1820.000000,3640.000000,-140.000000
10001.600981,14328.652838,569.813021,1078.717539,7861.332042,5598.463785,11731.000153,-15052.625841,12180.158458,6867.819353,10172.256550,-4859.023375,8845.434647,3412.910213,17216.162946,4270.658406,-231.311996,-845.216003,-481.167999,1820.000000,3640.000000,140.000000
9981.774984,14215.798881,505.864681,1003.727437,7783.659730,5574.525067,11666.023632,-15113.735511,12147.390800,6830.760161,10164.746364,-4930.392495,8813.114025,3394.693541,17144.972640,4187.196992,-231.800003,-843.752014,-483.119995,1680.000000,3500.000000,420.000000
9996.393024,14205.807651,522.315564,997.178375,7808.693684,5570.725271,11650.600928,-15117.557659,12164.713402,6878.548190,10170.535466,-4926.257423,8820.020714,3411.278535,17136.724846,4187.152289,-233.264008,-841.799988,-481.656006,1400.000000,3500.000000,560.000000
10068.030365,14403.799403,674.732110,1126.639679,8001.343370,5611.852480,11745.908766,-14998.266399,12256.623776,7024.013343,10192.149602,-4788.928305,8892.775642,3470.689472,17244.124978,4336.707811,-231.311996,-844.239990,-488.488007,1400.000000,3080.000000,700.000000
10118.277087,14646.114665,826.098123,1290.209745,8192.562543,5667.016586,11879.303977,-14855.103475,12339.124064,7123.925641,10214.657809,-4629.068628,8974.292454,3516.622307,17391.579436,4519.768598,-232.288010,-841.312012,-484.096008,1400.000000,3360.000000,840.000000
10099.993360,14697.747194,824.287632,1331.538121,8191.668474,5683.132193,11924.946240,-14830.248336,12342.074495,7087.022911,10220.513966,-4593.439948,8991.011559,3505.826414,17445.938879,4572.876343,-232.288010,-840.824036,-484.096008,1400.000000,2940.000000,840.000000
10051.870054,14574.589083,720.508483,1250.602454,8059.793181,5652.622062,11866.898759,-14910.491098,12281.434212,6992.273866,10206.074739,-4675.180277,8944.989317,3465.615626,17385.276244,4489.325522,-232.776001,-838.872009,-487.511993,1260.000000,2800.000000,840.000000
10027.193728,14470.452305,648.893493,1179.926238,7972.733137,5627.029315,11810.527660,-14967.108067,12233.802644,6936.103932,10190.003835,-4753.232569,8901.492822,3437.899463,17315.807023,4400.834966,-232.776001,-842.288025,-487.511993,700.000000,2800.000000,840.000000
10011.972190,14375.390336,590.488385,1116.804912,7901.676941,5605.929268,11760.280938,-15016.170146,12197.771632,6889.902877,10178.358576,-4827.127436,8862.109049,3415.726532,17245.890766,4314.601936,-230.335999,-840.335999,-485.559998,560.000000,2800.000000,700.000000
9995.454251,14262.312861,524.796608,1042.083030,7819.087245,5584.762166,11699.864173,-15075.603435,12162.992318,6847.009879,10169.999024,-4904.889155,8825.787464,3397.018122,17172.420582,4229.084161,-232.776001,-842.288025,-485.559998,0.000000,2660.000000,700.000000
10006.339551,14213.429596,513.039590,1010.365905,7802.591658,5575.799117,11665.844818,-15103.811336,12168.692013,6866.210027,10173.351785,-4928.000859,8818.836071,3405.377675,17141.463416,4198.059940,-231.311996,-843.752014,-485.559998,0.000000,2240.000000,560.000000
10057.256825,14338.107626,619.053914,1093.045007,7937.082104,5599.827242,11717.432644,-15032.688085,12233.735589,6980.539200,10188.215695,-4839.376192,8865.908845,3448.673004,17205.434108,4290.260886,-231.800003,-844.239990,-483.608002,-420.000000,2240.000000,420.000000
10112.778558,14585.273216,785.842632,1259.029062,8146.473246,5654.298443,11848.346811,-14885.345386,12322.427311,7108.771158,10214.367236,-4677.594266,8949.459666,3498.584449,17350.787503,4474.908647,-233.264008,-847.168030,-477.264008,-560.000000,1820.000000,280.000000
10116.533651,14721.618858,848.718089,1351.989967,8222.022143,5688.831888,11933.574013,-14810.578801,12355.217320,7124.819711,10230.125216,-4587.516735,8995.325446,3508.150996,17448.397571,4584.208677,-235.704010,-845.703979,-482.144012,-700.000000,1260.000000,140.000000
10061.481304,14621.080711,750.325710,1284.465347,8097.969961,5667.217751,11888.401137,-14880.428002,12297.214543,7018.380704,10216.378893,-4652.113277,8957.796867,3467.224952,17406.711567,4521.780255,-233.751999,-844.239990,-479.704010,-1120.000000,700.000000,-280.000000
10034.569804,14508.517326,671.379348,1208.022381,7997.565925,5637.914614,11830.934802,-14945.024543,12247.548967,6952.688927,10199.413919,-4729.874996,8912.512232,3440.648727,17338.426988,4432.730905,-232.288010,-845.703979,-482.632019,-980.000000,0.000000,-560.000000
10019.191804,14413.634171,614.248289,1146.711546,7925.213328,5617.507472,11785.046671,-14989.392756,12210.154499,6905.035008,10182.963035,-4800.215936,8873.687252,3420.688620,17272.578749,4348.934215,-232.776001,-844.728027,-481.656006,-1120.000000,-700.000000,-840.000000
10002.360940,14301.607228,547.528332,1075.297722,7840.544920,5594.060492,11727.155653,-15050.904757,12175.285777,6854.721231,10170.177838,-4876.636550,8836.270432,3400.013256,17201.276684,4258.208484,-232.776001,-844.239990,-481.167999,-700.000000,-1120.000000,-1260.000000
9995.118975,14207.282866,502.690733,1015.015067,7783.995007,5574.502715,11671.142181,-15106.538249,12155.102152,6839.700859,10163.695832,-4930.034868,8811.817624,3395.475852,17147.610146,4193.075501,-231.800003,-842.288025,-480.679993,-980.000000,-1820.000000,-1400.000000
10028.624240,14263.899835,563.822754,1051.023728,7865.556522,5584.940980,11683.793269,-15074.172923,12194.061243,6923.162272,10173.754117,-4882.157431,8839.422028,3429.092876,17172.979375,4239.790647,-230.824005,-841.799988,-483.608002,-1260.000000,-2520.000000,-1540.000000
10087.968122,14496.916771,727.258709,1202.702666,8073.628911,5633.399562,11794.300293,-14936.642639,12283.021186,7064.514704,10197.826946,-4729.562072,8918.033113,3484.256981,17300.205505,4411.407341,-231.800003,-841.312012,-484.096008,-980.000000,-2660.000000,-1540.000000
10104.821337,14694.170915,839.039783,1334.779124,8211.896802,5678.371272,11906.014312,-14821.709969,12336.106579,7121.355190,10219.463434,-4605.979276,8982.406137,3509.760321,17423.631838,4561.946340,-229.360001,-844.239990,-481.167999,-1120.000000,-2660.000000,-1680.000000
10059.871979,14659.078677,783.406291,1312.785007,8132.928089,5673.140964,11901.655722,-14852.421266,12305.261171,7042.006498,10216.200079,-4626.386419,8971.163210,3478.490231,17424.503556,4549.988157,-233.751999,-847.168030,-481.656006,-1120.000000,-2660.000000,-1540.000000
10030.300621,14538.356905,691.205346,1230.776457,8015.201451,5642.720239,11841.104846,-14927.903107,12254.455656,6967.128154,10196.105861,-4706.428016,8922.637573,3447.130733,17358.275337,4461.363490,-230.824005,-848.143982,-475.800018,-1400.000000,-2380.000000,-1540.000000
10019.124749,14443.272584,629.067496,1168.102165,7939.630203,5620.636716,11792.176878,-14975.735840,12215.541269,6918.267240,10179.453812,-4777.618322,8881.823287,3422.409704,17291.734194,4378.349111,-228.384003,-846.679993,-477.264008,-1400.000000,-2660.000000,-1820.000000
10007.233621,14341.929775,569.433042,1103.930307,7864.148362,5602.151823,11742.891281,-15027.502480,12182.974778,6873.899028,10167.562684,-4851.021451,8845.322889,3402.024913,17225.885955,4293.501889,-227.408005,-848.143982,-477.264008,-1260.000000,-2940.000000,-1960.000000
9993.844926,14234.283773,513.441922,1031.130675,7793.449794,5580.962370,11683.972083,-15086.242865,12156.778533,6844.282966,10158.666689,-4919.708362,8813.046970,3391.899573,17158.964832,4212.655629,-225.456009,-849.119995,-477.264008,-1540.000000,-3360.000000,-1960.000000
10013.246240,14227.175918,530.183378,1020.424190,7813.812234,5577.274332,11664.771934,-15093.641292,12176.962158,6888.360606,10164.366384,-4917.473187,8817.405560,3411.949088,17146.581965,4207.514728,-225.944000,-850.096008,-482.144012,-1400.000000,-4200.000000,-2240.000000
10073.439488,14417.188098,674.039206,1140.028374,7997.208297,5616.188719,11749.887377,-14982.798992,12259.462447,7026.650849,10187.053405,-4790.291761,8884.661959,3468.364891,17244.683772,4344.262701,-223.016006,-850.583984,-483.119995,-1120.000000,-4760.000000,-2380.000000
10113.359703,14652.015525,820.756056,1295.574164,8180.693767,5668.000062,11877.337024,-14845.626336,12334.765474,7128.664211,10212.892021,-4638.590472,8961.104925,3509.290935,17383.197532,4519.366267,-224.479996,-847.656006,-486.048004,-980.000000,-5460.000000,-2520.000000
10092.103194,14701.882267,820.487835,1329.034725,8173.965892,5681.746385,11915.849080,-14825.375655,12335.123102,7095.002484,10222.190347,-4603.922916,8979.232190,3495.343446,17430.650286,4567.601331,-224.479996,-851.559998,-483.119995,-420.000000,-6020.000000,-2380.000000
10044.628089,14578.120658,718.720343,1247.160285,8039.006059,5652.599711,11856.974585,-14906.847764,12277.679119,7000.767529,10207.214678,-4683.226905,8934.573404,3455.847914,17373.094544,4483.469365,-223.016006,-850.583984,-485.071991,140.000000,-6440.000000,-2520.000000
10025.070313,14477.001366,650.905150,1184.418939,7955.142314,5628.146902,11805.811442,-14961.341317,12235.836653,6947.235101,10189.646207,-4758.485229,8894.474375,3434.278480,17311.895467,4399.896193,-223.503998,-847.168030,-485.071991,280.000000,-6580.000000,-2380.000000
10012.978019,14387.437926,595.808100,1127.310232,7890.702235,5608.879698,11759.766848,-15005.083681,12203.001941,6904.364455,10177.553913,-4828.200320,8860.030336,3416.620602,17251.925737,4319.876947,-220.576004,-848.143982,-478.727997,1120.000000,-6720.000000,-2380.000000
9998.650551,14271.991166,526.338878,1050.219065,7806.324399,5585.678588,11696.623170,-15073.502371,12170.368394,6855.928225,10168.635567,-4906.029094,8823.887566,3394.626486,17180.847190,4225.999621,-221.552002,-845.703979,-483.608002,1260.000000,-6440.000000,-2380.000000
10001.399815,14210.032130,506.222308,1010.142387,7780.731652,5570.568808,11653.327841,-15111.254467,12163.506408,6864.354833,10165.528675,-4938.662641,8811.147071,3397.375750,17141.642230,4186.459385,-221.552002,-844.728027,-480.192017,1820.000000,-6020.000000,-2380.000000
10046.527987,14331.603269,611.543728,1089.178156,7914.171566,5593.680512,11703.015769,-15037.381951,12219.430473,6974.057194,10177.375099,-4851.043803,8859.538598,3442.503922,17201.477850,4281.230781,-223.503998,-841.799988,-479.704010,2240.000000,-5320.000000,-1960.000000
10102.049721,14579.461763,775.359663,1250.289530,8120.567575,5648.352879,11829.571346,-14891.045081,12308.390416,7098.489356,10202.185536,-4688.077234,8943.894082,3494.494080,17339.566927,4462.503429,-220.087997,-842.288025,-477.752014,2240.000000,-4480.000000,-1960.000000
10111.012770,14726.715055,841.163199,1350.291234,8202.956105,5686.350845,11922.845176,-14807.583667,12352.333945,7120.885804,10221.452739,-4589.796613,8992.106794,3509.581507,17442.921393,4576.810250,-223.992004,-838.384033,-480.679993,2100.000000,-3780.000000,-1400.000000
10064.901121,14636.056380,750.862151,1293.182527,8086.972903,5669.095298,11890.345739,-14872.157856,12304.165936,7025.622669,10215.842452,-4643.552559,8960.233207,3474.198696,17413.126518,4521.400275,-224.968002,-839.359985,-479.216003,1820.000000,-3360.000000,-1120.000000
10033.228699,14518.553259,669.054767,1211.933936,7984.981893,5639.948623,11829.303125,-14941.783540,12246.543139,6958.075697,10197.826946,-4724.667039,8916.401436,3445.163780,17340.997439,4430.898062,-227.408005,-840.824036,-477.752014,1260.000000,-2240.000000,-700.000000
10014.497938,14423.334828,611.633135,1145.169275,7912.785758,5618.066265,11779.950473,-14989.862143,12205.058301,6907.896031,10182.471297,-4799.388921,8875.229523,3419.951012,17274.277481,4345.983785,-230.335999,-839.848022,-481.167999,840.000000,-1540.000000,0.000000
9989.866315,14306.256390,542.208617,1069.620379,7825.882176,5593.166422,11720.673647,-15051.485902,12164.221664,6851.279062,10171.295425,-4882.984445,8833.789388,3396.705198,17200.002635,4252.374679,-231.311996,-841.312012,-483.608002,0.000000,-840.000000,560.000000
9980.567989,14212.110843,497.795701,1009.516538,7771.008643,5572.245189,11665.218969,-15102.939618,12142.898100,6837.152760,10163.695832,-4936.047487,8810.387112,3391.251372,17143.184500,4187.889896,-233.264008,-843.264038,-482.144012,-420.000000,-140.000000,1260.000000
10022.656324,14264.480980,558.614797,1044.273501,7849.373859,5579.733024,11678.697071,-15073.256501,12186.640464,6918.781330,10168.836733,-4890.137004,8836.404542,3423.370829,17167.167922,4229.754714,-238.143997,-841.799988,-481.656006,-700.000000,700.000000,1680.000000
10097.668779,14501.454175,729.292718,1198.746407,8062.542446,5629.979745,11792.847430,-14932.015828,12287.491535,7066.034623,10195.435309,-4732.288984,8919.217756,3482.580600,17294.639921,4401.304352,-241.072006,-846.192017,-480.679993,-1400.000000,1400.000000,1960.000000
10130.078808,14707.313741,848.673385,1338.556568,8208.476986,5678.103051,11907.221306,-14812.299885,12353.809160,7139.191883,10217.340018,-4598.759663,8986.943541,3513.560118,17420.614352,4553.743250,-241.559998,-846.679993,-483.608002,-1820.000000,2380.000000,2100.000000
10085.710595,14674.657842,791.855251,1319.445827,8131.765799,5673.051557,11902.840364,-14838.362019,12322.404959,7060.357280,10215.730693,-4618.295088,8974.515971,3483.944057,17419.317951,4545.026069,-242.048004,-848.143982,-484.096008,-2380.000000,3220.000000,1960.000000
10049.187845,14552.237338,700.414264,1239.650099,8014.173271,5642.273205,11843.876462,-14912.569810,12268.649014,6982.863782,10201.067948,-4700.929487,8926.392666,3451.735193,17354.386133,4459.530647,-246.928009,-844.239990,-478.727997,-2660.000000,3780.000000,1820.000000
10037.855510,14461.310442,642.769115,1180.708549,7944.838160,5618.915632,11801.497555,-14960.916634,12235.546081,6935.053400,10187.120460,-4770.175191,8886.964188,3429.450504,17297.702110,4377.790317,-245.951996,-848.632019,-481.656006,-2520.000000,3220.000000,1680.000000
10019.996467,14356.972499,578.977237,1113.698019,7869.669243,5598.128509,11751.630813,-15011.968018,12196.318769,6883.085595,10172.949454,-4845.791143,8845.993441,3408.886899,17231.540946,4288.137470,-242.535995,-845.216003,-481.167999,-2660.000000,3360.000000,980.000000
9995.789527,14233.970849,509.910346,1029.700164,7786.788975,5571.753451,11681.625149,-15079.023251,12155.772705,6843.388896,10161.237140,-4923.508158,8806.944943,3392.726587,17152.549881,4196.607077,-244.000000,-847.656006,-482.632019,-2660.000000,3080.000000,280.000000
10007.144214,14216.849413,524.908367,1015.573861,7805.542088,5567.908951,11661.530931,-15087.539266,12163.238187,6884.046720,10161.483009,-4924.201062,8809.314228,3410.272707,17139.027076,4192.762577,-244.488007,-846.192017,-477.264008,-2380.000000,2100.000000,0.000000
10063.381203,14397.049176,667.870124,1134.842769,7985.898314,5606.197489,11747.205168,-14974.439439,12236.998944,7018.760683,10182.448945,-4800.797081,8874.983653,3461.815829,17239.408760,4333.757381,-237.167999,-843.752014,-481.656006,-1960.000000,560.000000,-420.000000
10108.285857,14633.642391,820.487835,1293.182527,8173.161229,5658.344109,11874.051317,-14832.863490,12317.867555,7121.310487,10206.499422,-4648.961681,8952.924186,3501.959563,17379.733012,4511.878432,-235.704010,-842.288025,-478.727997,-2100.000000,-560.000000,-840.000000
10092.349063,14698.395395,832.356612,1340.277653,8179.084442,5676.404318,11921.973458,-14804.946161,12327.232936,7091.694426,10216.691818,-4606.158090,8975.320634,3492.102443,17436.886422,4567.288407,-234.240005,-838.384033,-480.192017,-1680.000000,-1540.000000,-1540.000000
10044.382220,14573.918530,731.550244,1260.370166,8044.884568,5647.995251,11866.474076,-14887.245284,12266.994985,6994.732558,10203.794861,-4686.467908,8932.181767,3453.076297,17379.554198,4482.776461,-232.776001,-840.824036,-481.167999,-1540.000000,-2800.000000,-1960.000000
10026.903156,14473.961529,664.226790,1190.520965,7960.819657,5621.620193,11814.305105,-14943.012886,12226.918307,6943.390601,10188.349806,-4759.602816,8891.389834,3427.282384,17311.739005,4396.878707,-229.848007,-840.824036,-483.119995,-1400.000000,-3220.000000,-2380.000000
10018.968286,14388.399051,611.186100,1133.479313,7896.603095,5604.163480,11773.177895,-14985.883532,12198.419833,6902.151633,10178.045652,-4822.858253,8859.784467,3408.305753,17250.204653,4317.954697,-226.919998,-840.824036,-482.632019,-700.000000,-3080.000000,-3220.000000
10000.706911,14268.772515,539.816980,1056.030519,7810.191251,5580.403576,11710.838879,-15053.899891,12159.997184,6852.419001,10167.942663,-4901.178765,8822.904089,3388.613866,17176.354489,4224.457350,-229.848007,-839.848022,-484.584015,-700.000000,-2660.000000,-3920.000000
10002.919734,14202.387834,515.788855,1010.388256,7780.888114,5564.757355,11663.877864,-15094.624769,12154.431600,6862.790211,10165.103992,-4935.287527,8810.141243,3393.821823,17131.941573,4178.815088,-224.479996,-841.312012,-483.608002,-840.000000,-2800.000000,-4480.000000
10043.599909,14309.340931,614.091827,1078.605780,7903.889764,5586.438547,11706.100310,-15027.457777,12205.415929,6968.089279,10174.871704,-4858.688099,8852.631909,3434.859626,17183.462344,4262.991758,-223.992004,-841.799988,-486.536011,-840.000000,-2380.000000,-4760.000000
10099.054587,14557.892329,782.445166,1241.013556,8114.465548,5640.216844,11833.058218,-14879.377470,12294.867610,7096.030664,10199.346864,-4698.269629,8938.507311,3487.453280,17324.367741,4448.734754,-226.432007,-839.359985,-484.584015,-840.000000,-1680.000000,-5180.000000
10109.492851,14708.766605,851.422650,1344.189208,8197.792852,5674.526772,11921.749940,-14799.425280,12336.643021,7120.908156,10217.965867,-4601.307762,8991.279780,3501.400769,17428.750387,4564.360328,-223.992004,-842.776001,-487.024017,-980.000000,-1260.000000,-5180.000000
10064.096458,14624.992266,763.043852,1290.612077,8083.284865,5657.293577,11888.758765,-14863.910063,12291.313683,7027.768436,10213.339056,-4654.348451,8960.926111,3467.448469,17403.202343,4510.894956,-225.944000,-843.264038,-485.071991,-980.000000,-980.000000,-5040.000000
10033.072237,14510.573686,683.516345,1213.833834,7984.177230,5629.756228,11831.359486,-14931.613497,12239.658802,6961.182590,10196.932876,-4735.440580,8914.658000,3438.905291,17336.705904,4421.711495,-222.528000,-840.335999,-487.024017,-1120.000000,-420.000000,-5180.000000
10015.123786,14412.203659,624.127760,1149.751383,7910.796453,5609.080864,11782.967959,-14978.306291,12200.431490,6908.320714,10182.292483,-4811.570622,8872.234389,3416.262974,17270.254167,4334.807913,-222.040009,-844.728027,-488.000000,-980.000000,0.000000,-4900.000000
9993.554353,14301.406062,558.815963,1080.975065,7831.537167,5588.070224,11727.647391,-15035.996143,12162.165303,6855.972929,10174.402317,-4889.064120,8833.588223,3394.402968,17200.717890,4244.126885,-219.600006,-843.264038,-488.000000,-980.000000,280.000000,-4760.000000
9987.295864,14205.517078,512.592556,1022.234681,7774.674329,5570.948788,11674.830219,-15089.372109,12143.076914,6841.891330,10167.719146,-4942.440086,8808.040179,3389.574991,17144.369143,4177.473983,-219.112000,-842.776001,-488.488007,-420.000000,280.000000,-4480.000000
10020.309391,14246.912509,569.365987,1051.403707,7847.719830,5578.101346,11685.670815,-15061.991222,12176.962158,6914.914479,10169.507285,-4903.324533,8830.101351,3421.180358,17166.989108,4216.589536,-221.063995,-843.264038,-492.391998,-140.000000,280.000000,-4060.000000
10086.895238,14473.872122,731.617300,1200.020456,8054.875798,5625.442341,11796.893096,-14924.840918,12269.945415,7056.736297,10192.775451,-4751.735002,8909.271229,3476.858554,17293.969368,4386.373387,-220.576004,-844.728027,-489.464020,140.000000,-280.000000,-3500.000000
10121.585145,14683.687947,846.438211,1338.422458,8200.720930,5670.257589,11910.171736,-14804.588533,12338.028829,7132.419304,10216.691818,-4619.703248,8977.131126,3505.938173,17419.474413,4541.829770,-223.016006,-842.288025,-489.464020,560.000000,-700.000000,-2800.000000
10078.267464,14656.731743,793.464576,1320.228138,8128.681258,5666.748365,11908.182431,-14829.130748,12306.177593,7056.691594,10216.065969,-4635.170655,8965.821143,3477.976141,17422.760120,4537.202959,-222.528000,-843.264038,-490.440002,980.000000,-1120.000000,-2100.000000
10037.810807,14533.528928,703.029418,1235.135047,8008.987666,5636.148827,11845.575195,-14904.344368,12246.721953,6975.934741,10201.202059,-4718.050923,8918.144872,3444.090896,17353.357953,4448.868865,-219.112000,-839.848022,-493.368011,1400.000000,-1820.000000,-1260.000000
10019.929411,14438.265793,644.534903,1174.561819,7934.265785,5613.618268,11799.821174,-14948.779636,12206.757034,6923.363438,10186.204038,-4791.856383,8877.621159,3417.782893,17292.672967,4368.268474,-221.063995,-840.824036,-492.880005,1540.000000,-2380.000000,-560.000000
10001.802147,14327.602306,581.570039,1105.606688,7853.151304,5589.836012,11747.831017,-15001.976788,12167.440315,6870.501562,10175.117573,-4872.412070,8835.197548,3392.301904,17223.784891,4277.430985,-221.552002,-839.848022,-489.464020,1680.000000,-2940.000000,420.000000
9991.609751,14216.447081,524.416628,1033.231739,7778.787050,5565.986701,11686.363719,-15063.153513,12143.009858,6836.392800,10168.322643,-4943.445914,8799.233591,3379.382596,17153.756875,4191.354417,-223.016006,-839.848022,-490.928009,1540.000000,-3360.000000,1260.000000
10009.848775,14203.304255,540.331070,1025.453332,7797.495460,5564.265616,11668.750545,-15070.708402,12162.455876,6876.916513,10172.480067,-4937.634461,8804.933286,3399.253297,17144.704419,4185.744129,-224.479996,-840.335999,-489.464020,1540.000000,-3360.000000,1680.000000
10067.337461,14382.297025,680.856488,1144.051688,7975.124773,5603.336466,11749.552101,-14963.665898,12240.843444,7011.161090,10191.836678,-4812.978782,8871.027395,3455.110306,17242.493301,4319.541671,-224.479996,-836.919983,-492.880005,1540.000000,-3500.000000,2380.000000
10117.047741,14627.607420,835.105876,1307.979382,8169.428488,5658.768792,11877.694652,-14818.893649,12324.796596,7122.986868,10219.910469,-4652.426201,8953.885311,3501.981914,17389.456021,4500.680208,-224.968002,-836.432007,-492.391998,1400.000000,-3500.000000,2660.000000
10102.228534,14698.171878,841.766696,1354.985101,8180.090270,5676.694891,11928.187243,-14783.712004,12333.312611,7098.198783,10230.751065,-4605.107558,8975.566503,3494.672894,17450.319821,4561.968692,-227.408005,-834.968018,-493.368011,1120.000000,-3220.000000,3080.000000
10055.602796,14578.947673,736.780552,1274.518821,8048.751420,5647.570568,11870.028003,-14862.591310,12277.410898,7003.047407,10217.116501,-4684.165679,8929.924241,3455.892617,17390.171276,4478.015539,-227.408005,-836.432007,-492.880005,700.000000,-3080.000000,3080.000000
10035.218005,14477.202532,665.500839,1205.854262,7962.808962,5619.764998,11813.411035,-14918.873002,12233.623831,6947.883302,10201.067948,-4758.731098,8887.008892,3428.467027,17319.942095,4391.693102,-232.776001,-838.384033,-493.368011,980.000000,-3080.000000,3220.000000
10019.236507,14379.100726,605.329943,1140.967147,7889.294075,5597.323846,11762.516113,-14965.096410,12193.323635,6900.475252,10186.695777,-4831.195454,8845.769923,3405.154157,17249.087065,4306.063569,-234.727997,-836.432007,-487.511993,980.000000,-2940.000000,3220.000000
9997.220039,14254.176826,534.944300,1061.193772,7798.277771,5573.429832,11698.657179,-15027.681294,12152.397591,6850.049716,10173.150620,-4912.600507,8804.754472,3383.629427,17172.308823,4212.365057,-238.143997,-838.872009,-489.464020,840.000000,-3080.000000,3220.000000
9997.622370,14186.383985,512.190224,1021.385315,7771.746251,5562.142201,11657.865245,-15065.656908,12145.222681,6854.162437,10169.730803,-4947.268063,8792.572772,3390.424358,17137.484805,4170.075556,-240.584000,-838.384033,-486.536011,840.000000,-3360.000000,3080.000000
10042.862301,14299.550867,612.638964,1098.968220,7901.252258,5586.282085,11705.161536,-14997.037053,12201.437318,6959.573264,10185.041748,-4867.718204,8838.617365,3434.792570,17199.957931,4257.247359,-239.119995,-838.872009,-490.440002,980.000000,-3640.000000,2800.000000
10098.898125,14550.717419,781.729911,1267.634483,8114.197327,5640.194492,11833.639363,-14850.141388,12292.587732,7091.560315,10215.708341,-4705.757464,8925.431541,3487.632094,17343.947869,4439.570539,-237.656006,-842.776001,-488.976013,980.000000,-3360.000000,2520.000000
10112.577392,14709.258343,858.977539,1374.095842,8208.253468,5676.381967,11924.834481,-14768.445762,12338.855843,7125.356153,10231.019286,-4603.162957,8976.080594,3501.154900,17446.520024,4557.990081,-240.096008,-840.335999,-484.096008,980.000000,-3780.000000,2380.000000
10068.477400,14624.321714,774.733815,1319.758751,8097.187650,5658.411164,11891.910361,-14830.941240,12293.548857,7028.707210,10219.508138,-4653.454382,8944.855207,3463.939245,17414.489974,4506.357551,-241.559998,-840.824036,-486.048004,980.000000,-4060.000000,1960.000000
10045.902138,14509.947838,697.620296,1243.807524,7996.738910,5630.426780,11836.902718,-14896.901238,12245.090275,6966.010566,10206.432367,-4728.019801,8902.096319,3436.804227,17349.535805,4419.833949,-245.951996,-840.824036,-483.119995,1120.000000,-4200.000000,1680.000000
10036.313240,14419.691493,640.690403,1187.838756,7928.923718,5610.377265,11797.228372,-14938.766055,12211.964990,6918.736627,10192.417823,-4793.979799,8866.132363,3419.436922,17294.416403,4340.731125,-241.072006,-839.848022,-479.216003,1400.000000,-4480.000000,1260.000000
10013.223888,14303.864754,570.550629,1116.134359,7844.255310,5588.405500,11740.097313,-14994.176029,12170.569559,6863.416059,10178.939721,-4872.769698,8825.407484,3398.649800,17225.662437,4251.055926,-242.535995,-840.335999,-481.167999,1400.000000,-4480.000000,840.000000
10003.389121,14203.438366,523.768428,1048.341518,7783.346806,5568.400689,11678.272388,-15047.999030,12146.764952,6847.568673,10173.977634,-4932.247690,8797.423100,3389.597343,17160.328288,4180.133841,-244.000000,-837.895996,-480.192017,1680.000000,-4340.000000,280.000000
10034.815673,14238.888233,573.858687,1064.926513,7843.875330,5572.088727,11678.115926,-15029.290620,12181.678376,6921.977630,10183.432422,-4901.648152,8818.389036,3413.133730,17168.374916,4209.951068,-243.024002,-838.872009,-481.167999,1820.000000,-4340.000000,0.000000
10096.260619,14464.462038,733.383087,1212.828006,8050.137228,5619.675591,11788.846468,-14895.940113,12269.833657,7064.447649,10208.578135,-4752.338499,8898.430633,3471.963521,17294.282293,4376.516268,-242.048004,-842.776001,-478.727997,1960.000000,-3920.000000,-280.000000
10132.850424,14684.134982,856.027109,1361.534162,8207.985247,5670.078775,11912.339856,-14772.647890,12339.861672,7141.136484,10233.947365,-4612.550689,8969.933864,3507.748664,17430.471472,4537.761752,-240.584000,-840.335999,-479.216003,2100.000000,-3360.000000,-700.000000
10095.791232,14671.886226,811.569489,1355.476839,8145.378011,5669.832906,11919.246545,-14794.127917,12318.873384,7070.259103,10237.545995,-4619.457378,8964.860018,3482.670007,17443.949574,4537.851159,-240.096008,-842.776001,-481.656006,2240.000000,-3220.000000,-980.000000
10054.328746,14546.045905,714.428808,1268.595608,8019.269469,5638.093428,11854.940576,-14873.409554,12260.334165,6985.724805,10220.648077,-4703.835214,8916.714360,3446.370774,17374.256834,4444.554978,-238.632004,-840.824036,-479.704010,2520.000000,-2800.000000,-1260.000000
10039.598947,14451.498026,651.396889,1204.759026,7944.212311,5614.758207,11805.319703,-14922.337523,12220.570412,6936.036877,10204.465414,-4777.528915,8877.263531,3423.013201,17307.492174,4361.741765,-238.632004,-841.312012,-478.727997,2520.000000,-2100.000000,-1400.000000
10026.925507,14353.485626,589.661370,1141.034203,7872.329101,5593.591105,11755.855293,-14975.154695,12187.355719,6889.277028,10193.669521,-4849.702698,8841.724258,3403.701294,17241.018086,4276.425156,-236.192001,-841.799988,-479.704010,2660.000000,-1680.000000,-1540.000000
10010.765196,14235.222546,525.020126,1061.350234,7792.131042,5568.244227,11689.492963,-15042.031114,12154.945690,6850.340289,10185.421727,-4923.686972,8808.420158,3389.865564,17165.044506,4187.219344,-234.727997,-845.216003,-479.704010,2800.000000,-1400.000000,-1680.000000
10023.483339,14207.864011,532.284442,1042.105382,7802.166975,5562.924512,11662.559111,-15056.403286,12164.780458,6884.158478,10188.483916,-4930.727772,8808.666028,3405.243564,17143.631535,4174.814126,-233.751999,-842.288025,-476.287994,2800.000000,-840.000000,-1680.000000
10080.837915,14383.325205,670.284113,1155.629892,7975.840029,5600.117815,11742.243080,-14950.835997,12241.782217,7015.966715,10207.996989,-4813.381113,8870.982691,3456.563170,17239.073484,4308.119930,-238.143997,-842.776001,-477.752014,2800.000000,-840.000000,-1400.000000
10129.877642,14629.060284,822.499492,1319.892862,8170.233151,5653.203208,11874.699518,-14808.522440,12328.439930,7125.914946,10230.304030,-4655.242521,8950.197274,3503.010095,17387.600826,4491.761862,-234.240005,-844.728027,-476.776001,2800.000000,-700.000000,-1400.000000
10116.533651,14710.130061,839.799743,1377.225086,8192.383730,5674.392661,11933.439902,-14770.412716,12343.057971,7102.892650,10240.563481,-4601.508928,8976.013538,3498.472690,17453.382010,4560.940511,-233.751999,-843.752014,-479.216003,2800.000000,-420.000000,-980.000000
10067.002185,14593.208086,739.865093,1296.714103,8058.630891,5645.894187,11877.806411,-14853.829426,12284.585808,7002.689779,10227.957097,-4679.427109,8933.277003,3460.139449,17394.976901,4479.826031,-237.167999,-843.264038,-477.752014,2520.000000,-140.000000,-840.000000
10045.276290,14491.708814,672.809860,1229.077724,7972.710785,5620.323792,11827.313820,-14913.240363,12240.217595,6947.436267,10213.070835,-4752.964348,8892.216848,3435.306661,17330.447415,4397.281038,-232.288010,-844.728027,-481.656006,2520.000000,-280.000000,-700.000000
10026.523176,14390.343653,611.275507,1163.341244,7899.911153,5597.525012,11779.011700,-14961.877759,12197.861039,6895.937848,10198.229277,-4828.110913,8853.525979,3410.898556,17262.587519,4310.623325,-229.848007,-842.776001,-479.216003,2240.000000,-140.000000,-420.000000
10004.372597,14267.029079,539.414649,1087.613533,7813.789882,5574.010977,11719.667819,-15025.781396,12158.521969,6842.941862,10184.371195,-4908.264268,8813.248135,3391.407834,17191.665434,4218.467083,-235.216003,-844.239990,-479.216003,2240.000000,-420.000000,-140.000000
10002.919734,14198.856258,513.061942,1045.301681,7784.129117,5562.075145,11678.764126,-15062.751181,12150.475341,6848.306280,10181.577227,-4945.234054,8798.272466,3397.018122,17153.980393,4175.328216,-229.848007,-843.264038,-479.704010,1960.000000,-420.000000,0.000000
10046.237415,14303.037739,606.603993,1112.379266,7902.302790,5581.096480,11717.253830,-15003.072024,12203.068996,6951.437229,10199.570382,-4871.607408,8837.566833,3438.882940,17203.780079,4252.598197,-230.335999,-843.264038,-480.679993,1820.000000,-700.000000,140.000000
10103.882564,14549.175149,774.957332,1274.921152,8110.486938,5632.259623,11840.367239,-14857.606871,12292.699491,7084.295998,10228.247670,-4711.054827,8921.207061,3491.409539,17342.249136,4433.893196,-229.360001,-845.703979,-483.119995,1680.000000,-560.000000,140.000000
10124.915555,14711.180593,855.803592,1386.456357,8206.420625,5671.084603,11934.244565,-14768.378707,12344.823759,7121.913984,10245.279699,-4604.369951,8974.359509,3507.145167,17449.381047,4556.783087,-229.360001,-843.264038,-477.264008,1540.000000,-840.000000,420.000000
10083.274255,14629.730836,770.419928,1334.399144,8091.577362,5652.823228,11902.661550,-14830.382446,12303.920067,7025.533262,10237.858920,-4652.917940,8943.379991,3470.957693,17422.313085,4504.882336,-227.895996,-844.728027,-482.632019,1400.000000,-980.000000,420.000000
10057.413287,14513.993503,690.423034,1255.631597,7988.155840,5624.950603,11844.658774,-14897.929418,12254.746229,6962.210770,10221.028056,-4733.317165,8898.475337,3444.873207,17356.353087,4415.765931,-227.408005,-843.752014,-480.192017,1120.000000,-1120.000000,420.000000
10042.862301,14417.992761,635.862426,1195.393645,7920.541813,5605.214012,11800.290561,-14942.275279,12215.138938,6917.216708,10207.393492,-4804.574526,8863.025470,3423.259070,17293.879961,4333.310346,-225.944000,-843.752014,-482.632019,980.000000,-1120.000000,420.000000
10018.007161,14299.550867,569.902428,1122.594014,7837.438028,5582.571695,11743.248909,-14999.942780,12172.044775,6862.566693,10194.474184,-4887.410091,8823.574641,3399.543869,17222.712007,4240.751772,-226.919998,-843.752014,-484.584015,700.000000,-1400.000000,700.000000
10000.505745,14190.899037,516.504111,1052.722460,7772.103879,5561.181076,11681.759260,-15059.756048,12144.350963,6834.381143,10183.186553,-4953.347737,8792.863344,3389.642047,17158.227224,4166.432222,-229.848007,-844.239990,-483.119995,420.000000,-1540.000000,560.000000
10031.775836,14225.477186,565.186210,1071.475574,7835.314612,5566.836067,11683.234475,-15040.466492,12179.733775,6905.347932,10191.411995,-4922.211757,8811.035313,3415.815939,17168.889006,4195.936524,-229.360001,-841.312012,-487.511993,700.000000,-1680.000000,560.000000
10100.038064,14452.034468,727.124599,1221.232262,8043.968146,5616.300478,11793.316816,-14905.618418,12274.549875,7053.003556,10219.418731,-4768.051775,8889.892267,3473.505792,17293.678796,4362.255855,-226.919998,-840.824036,-485.559998,560.000000,-1960.000000,700.000000
10135.599689,14674.389622,856.809420,1372.888848,8207.314695,5668.380042,11915.178527,-14778.369937,12344.555538,7134.654478,10243.938594,-4623.659506,8962.893064,3508.173347,17431.097320,4526.563528,-225.944000,-843.752014,-485.071991,420.000000,-2100.000000,840.000000
10097.311151,14668.578168,816.129245,1373.760566,8151.189464,5670.838734,11927.494338,-14793.032681,12321.019151,7062.435992,10243.402152,-4628.018096,8960.277910,3484.592257,17451.571518,4533.783142,-225.944000,-844.239990,-488.488007,840.000000,-2380.000000,1260.000000
10055.938072,14549.041039,722.497788,1294.478928,8028.657201,5641.133266,11868.396326,-14874.124810,12260.982366,6977.119383,10226.437178,-4709.534908,8914.725055,3452.070469,17386.326776,4445.404344,-225.456009,-845.216003,-486.536011,700.000000,-2940.000000,1260.000000
10038.906042,14450.671011,656.448383,1223.668602,7947.922700,5615.227594,11811.242916,-14930.764130,12219.139900,6925.956240,10209.226335,-4786.179040,8873.597845,3425.985983,17313.236572,4356.600864,-225.944000,-842.288025,-483.608002,700.000000,-3080.000000,1260.000000
10022.008124,14343.226176,591.673027,1152.165371,7867.948159,5590.975951,11756.972880,-14981.390832,12181.767783,6875.865981,10193.222486,-4865.997120,8832.783560,3402.539003,17241.889804,4265.584560,-228.384003,-844.728027,-487.024017,840.000000,-3500.000000,1540.000000
10012.128653,14232.272116,533.960823,1078.583429,7792.712187,5568.624207,11697.919571,-15037.672524,12155.728001,6844.238263,10184.997044,-4934.907548,8800.150013,3393.195974,17175.505123,4182.279609,-227.408005,-843.264038,-488.976013,700.000000,-3920.000000,1820.000000
10023.058656,14206.522907,540.174608,1060.366757,7801.518774,5562.321015,11674.919626,-15049.854225,12164.087554,6877.251789,10184.773527,-4940.182560,8801.155841,3406.763483,17156.439085,4169.583818,-226.919998,-844.239990,-488.000000,840.000000,-3920.000000,2100.000000
10074.959406,14376.396164,670.015892,1171.052596,7971.928474,5593.725216,11751.273185,-14946.142131,12235.903708,7003.270924,10205.158318,-4824.892262,8862.556084,3457.434888,17247.254222,4296.988761,-230.335999,-841.312012,-488.000000,700.000000,-4340.000000,2240.000000
10122.233346,14621.036008,822.298327,1335.494379,8166.612168,5647.034126,11879.348681,-14803.470946,12319.923916,7114.806129,10229.812292,-4664.183219,8943.648212,3502.496004,17390.908884,4478.641388,-227.408005,-845.216003,-486.536011,840.000000,-4200.000000,2520.000000
10113.404407,14703.558648,839.933853,1391.127871,8190.237962,5668.648263,11933.775179,-14767.439934,12333.402018,7098.489356,10235.891966,-4606.850994,8967.475172,3497.668028,17454.387838,4548.378831,-227.895996,-842.288025,-487.511993,980.000000,-4200.000000,2800.000000
10069.103249,14591.464650,739.462762,1316.651859,8064.196475,5641.535597,11880.376861,-14844.508749,12276.583883,7004.343808,10222.033885,-4677.840135,8923.822215,3461.167629,17404.185820,4475.445089,-228.872009,-842.776001,-488.488007,1120.000000,-4200.000000,3080.000000
10051.288909,14487.953721,667.803069,1247.853189,7977.717576,5616.658105,11827.447930,-14902.153898,12234.048514,6951.191360,10207.102919,-4751.667947,8884.505497,3438.011222,17341.533880,4393.928277,-229.848007,-840.824036,-488.976013,1540.000000,-4060.000000,3080.000000
10040.202444,14395.059871,610.023810,1184.195421,7902.772177,5594.731044,11775.748345,-14950.925404,12200.990284,6908.790101,10196.619951,-4824.266413,8848.340374,3416.039457,17274.590406,4307.136453,-232.288010,-841.312012,-487.511993,1680.000000,-3780.000000,3220.000000
10019.884708,14274.628672,542.767411,1106.053723,7815.488614,5570.971140,11711.710597,-15013.979675,12164.400478,6858.476324,10184.818230,-4908.241917,8809.068359,3393.464195,17199.712062,4211.761559,-231.311996,-841.312012,-488.488007,1820.000000,-3920.000000,3360.000000
10018.431845,14202.477241,514.671268,1059.562094,7783.793841,5556.844837,11669.130524,-15052.424676,12155.325670,6860.510333,10182.426594,-4949.369126,8791.835164,3395.811128,17158.718963,4163.504143,-233.264008,-841.799988,-488.000000,2100.000000,-3500.000000,3500.000000
10059.939034,14302.568353,604.413522,1124.873891,7901.252258,5576.670835,11709.028388,-14990.510343,12206.108833,6963.864799,10196.284675,-4877.642379,8830.369571,3435.552530,17210.865582,4240.595310,-229.848007,-841.312012,-491.416016,2380.000000,-3220.000000,3640.000000
10120.489910,14550.516254,772.990378,1291.439091,8114.599659,5631.231443,11835.740427,-14839.680772,12298.265075,7099.584591,10223.151472,-4715.011086,8912.713398,3490.247248,17353.849692,4424.505463,-232.776001,-840.824036,-488.976013,2520.000000,-3220.000000,3640.000000
10135.376172,14713.281657,851.869685,1403.644848,8213.394369,5670.078775,11932.612888,-14748.731524,12343.370896,7132.285193,10241.211682,-4609.734369,8964.234169,3506.832243,17461.249824,4550.479895,-232.776001,-838.384033,-490.440002,3220.000000,-2940.000000,3640.000000
10086.582313,14632.949487,766.418966,1350.671214,8098.059368,5653.270263,11900.828707,-14810.869373,12296.432232,7036.127989,10234.372048,-4660.539885,8936.674468,3470.175382,17431.142024,4503.697694,-234.727997,-840.335999,-490.928009,3080.000000,-2520.000000,3780.000000
10055.803961,14517.145099,685.103319,1268.953236,7990.748643,5623.497739,11839.584928,-14883.691357,12246.207863,6969.296273,10216.714170,-4740.201502,8891.412186,3438.570015,17358.767075,4414.313068,-233.264008,-839.359985,-485.559998,3640.000000,-2520.000000,3640.000000
10039.375429,14423.826566,627.435819,1206.614221,7919.088950,5600.430739,11793.205058,-14930.808834,12204.074824,6920.502415,10198.005759,-4811.749436,8849.636775,3416.665306,17292.315339,4331.119875,-235.216003,-836.919983,-486.048004,3780.000000,-2520.000000,3640.000000
10019.817653,14312.805451,562.235780,1135.021583,7836.320440,5578.190753,11738.331525,-14988.901018,12164.892216,6868.087574,10185.622893,-4889.801728,8809.247173,3398.158061,17223.047283,4240.148275,-236.680008,-836.919983,-488.000000,4480.000000,-2240.000000,3640.000000
10008.954705,14210.814442,514.380695,1069.419213,7774.495515,5558.387108,11680.529914,-15043.998068,12141.445236,6846.316975,10178.604445,-4951.671356,8780.972216,3390.960800,17163.748105,4169.360300,-236.192001,-839.848022,-488.488007,4620.000000,-2520.000000,3360.000000
10036.067371,14238.240032,558.413632,1086.875926,7829.793731,5562.186904,11681.960426,-15026.653114,12172.670623,6911.673476,10185.265265,-4923.150530,8797.780728,3417.045285,17173.091134,4194.863641,-237.167999,-834.479980,-487.024017,5040.000000,-2380.000000,3220.000000
10099.434566,14454.895491,718.407419,1229.323593,8030.288879,5607.225669,11785.292540,-14897.124755,12259.373040,7052.735335,10210.142757,-4777.908895,8876.235351,3473.170516,17290.840124,4355.997366,-236.680008,-836.919983,-485.071991,5320.000000,-2520.000000,3220.000000
10135.756151,14672.981462,845.901769,1374.207601,8188.315712,5655.572493,11901.543963,-14774.614844,12328.641096,7134.632127,10233.366219,-4637.428181,8948.945576,3504.015923,17419.563820,4517.511072,-236.192001,-836.919983,-486.536011,5320.000000,-2520.000000,2800.000000
10101.669741,14675.283691,810.116626,1378.901467,8141.578214,5660.623987,11919.201841,-14785.142515,12308.926858,7070.147344,10237.858920,-4635.058896,8949.325555,3481.865344,17442.340248,4531.995002,-235.216003,-834.479980,-487.024017,5600.000000,-2660.000000,2660.000000
10056.541569,14550.538606,711.925413,1293.808376,8017.548384,5629.644469,11860.461457,-14862.926586,12246.498435,6982.327340,10223.062065,-4719.481435,8902.878631,3447.734230,17378.302500,4446.946615,-234.727997,-835.944031,-482.632019,5600.000000,-2660.000000,2380.000000
10038.570766,14455.901319,650.301653,1228.653041,7940.300756,5606.331600,11814.796843,-14912.480403,12206.153537,6931.275956,10212.981428,-4793.152784,8863.383098,3423.773160,17314.756491,4363.909884,-235.216003,-835.944031,-484.096008,5740.000000,-2520.000000,2240.000000
10029.920641,14361.018164,589.996647,1164.592941,7868.126973,5586.349140,11765.488895,-14960.134323,12179.309091,6888.651179,10197.111690,-4864.343091,8825.496891,3402.695465,17248.349458,4277.900371,-238.632004,-836.919983,-487.024017,5740.000000,-2380.000000,1820.000000
10017.001333,14247.627765,524.327221,1091.279220,7791.527544,5564.332672,11704.759205,-15019.165280,12152.129370,6849.535626,10181.957207,-4935.801618,8789.287065,3389.954971,17180.198989,4194.438958,-233.264008,-836.432007,-484.584015,5460.000000,-1960.000000,1680.000000
10031.753484,14218.011703,528.864626,1071.676740,7799.216545,5558.834143,11679.859362,-15034.275059,12162.344117,6882.124470,10180.370233,-4941.925996,8787.208353,3406.607021,17162.988146,4181.363187,-236.192001,-840.335999,-485.071991,5740.000000,-1680.000000,1260.000000
10088.169287,14381.917045,663.757403,1178.227505,7967.681642,5593.144070,11749.239176,-14935.636811,12236.931889,7013.999762,10200.062120,-4825.786331,8848.854464,3459.021861,17249.154121,4303.850747,-236.192001,-840.824036,-482.144012,5460.000000,-1400.000000,980.000000
10135.532634,14622.712388,819.034972,1340.054135,8165.092250,5645.782428,11876.085326,-14791.982149,12319.521584,7125.244394,10227.800635,-4668.519457,8930.751256,3503.166557,17391.244160,4483.894048,-234.240005,-841.799988,-484.584015,5320.000000,-1120.000000,980.000000
10125.317887,14706.062043,838.726859,1402.549613,8193.814241,5666.748365,11935.451559,-14750.072628,12335.078399,7108.368827,10238.171844,-4611.321343,8959.383840,3499.009132,17461.719210,4557.654805,-236.192001,-841.312012,-481.656006,5320.000000,-980.000000,700.000000
10075.518200,14594.750356,735.752372,1329.168836,8064.643510,5640.797989,11885.048376,-14825.979152,12276.807401,7012.546898,10225.207832,-4683.740995,8917.161395,3461.122925,17410.354902,4486.978589,-235.704010,-843.264038,-483.119995,5180.000000,-840.000000,560.000000
10054.284043,14489.786564,662.706871,1259.185524,7974.789497,5614.378228,11831.292430,-14887.245284,12230.874566,6955.728764,10209.025169,-4759.803982,8874.894246,3436.267786,17341.511529,4400.477338,-234.240005,-842.776001,-485.559998,4760.000000,-700.000000,560.000000
10041.565900,14394.881057,609.666182,1202.166224,7905.923773,5596.832108,11788.622950,-14930.719427,12194.776499,6908.991266,10195.815289,-4828.848520,8837.388019,3416.285326,17282.212351,4319.519319,-237.656006,-841.799988,-483.119995,4900.000000,-700.000000,560.000000
10021.874013,14277.221474,540.554588,1126.103237,7819.646039,5573.608646,11728.340295,-14992.656111,12157.762010,6856.218798,10184.482954,-4907.504309,8798.987722,3394.805300,17209.904457,4226.737228,-235.704010,-841.799988,-483.119995,4900.000000,-700.000000,560.000000
10020.912888,14204.287732,511.698486,1075.185964,7780.374024,5558.208294,11678.562960,-15036.174957,12148.709553,6856.196446,10182.538352,-4947.424525,8783.587370,3396.481680,17160.171826,4176.266989,-235.704010,-842.776001,-483.608002,4900.000000,-700.000000,840.000000
10059.939034,14295.482850,596.590411,1130.528883,7888.534115,5575.732061,11709.497775,-14982.240198,12198.889220,6953.359479,10193.222486,-4881.576286,8822.233537,3434.814922,17203.869486,4246.429115,-235.216003,-841.799988,-485.071991,4480.000000,-1120.000000,700.000000
10121.004000,14540.212100,762.194486,1288.466309,8099.892211,5628.191606,11831.471244,-14837.736170,12295.292293,7089.302789,10219.441082,-4722.878900,8908.220697,3486.626266,17340.975087,4425.488940,-234.240005,-841.799988,-485.559998,4760.000000,-980.000000,840.000000
10143.802779,14714.756872,853.858990,1402.326095,8209.013427,5669.654092,11930.936507,-14741.221337,12354.367954,7132.396952,10243.223339,-4611.880137,8966.111716,3504.351199,17450.655097,4554.011471,-233.264008,-840.335999,-485.559998,4480.000000,-840.000000,980.000000
10099.993360,14648.618060,778.131280,1360.394223,8108.497633,5658.031184,11911.758710,-14794.284379,12314.783015,7042.587643,10240.116446,-4650.749821,8940.653079,3475.651559,17437.825196,4516.818168,-232.288010,-839.359985,-488.000000,4340.000000,-1120.000000,980.000000
10067.203351,14534.534756,691.920601,1282.006655,8001.499832,5628.191606,11853.331250,-14865.586444,12262.368174,6971.196171,10222.302106,-4730.433790,8890.629875,3450.125867,17370.613500,4429.847530,-232.288010,-841.799988,-484.584015,4200.000000,-1260.000000,1260.000000
10043.778723,14441.193872,630.006269,1220.986393,7929.415456,5606.622172,11806.481994,-14911.295761,12216.100063,6918.870737,10209.181632,-4806.764997,8848.921519,3427.617660,17305.927551,4347.682517,-232.288010,-841.799988,-485.071991,4200.000000,-1260.000000,1260.000000
10018.521252,14325.836519,559.285350,1145.035165,7845.574063,5582.482288,11748.434514,-14969.253834,12169.496676,6866.701766,10191.926085,-4891.656922,8809.537746,3401.466119,17232.211498,4253.693432,-231.800003,-842.288025,-484.584015,4060.000000,-1400.000000,1400.000000
10014.654400,14229.679314,512.212576,1084.528993,7789.135908,5564.556189,11697.204315,-15021.109882,12150.184768,6847.412210,10178.157410,-4947.245711,8784.995530,3397.576916,17179.170809,4183.039568,-233.264008,-841.312012,-487.511993,3640.000000,-1680.000000,1680.000000
10042.079990,14252.142817,555.194981,1098.677647,7842.131894,5569.361814,11697.204315,-15006.581248,12177.029214,6910.891165,10180.973730,-4917.763760,8802.608705,3425.695410,17190.279626,4206.665362,-232.288010,-840.335999,-486.536011,3640.000000,-1540.000000,1540.000000
10106.989456,14464.394982,712.819482,1234.442143,8037.799065,5612.053646,11795.104956,-14880.875037,12265.139790,7055.641062,10203.772510,-4774.734947,8878.559933,3480.144260,17306.598104,4360.735936,-230.335999,-840.335999,-486.048004,3640.000000,-1540.000000,1680.000000
10149.256605,14689.544104,846.549970,1383.863554,8202.732587,5662.590940,11915.200879,-14752.620727,12343.415599,7143.908101,10231.935708,-4630.923823,8954.511160,3514.118912,17441.602640,4523.613098,-234.727997,-840.335999,-487.024017,3220.000000,-1540.000000,1820.000000
10115.684285,14695.020282,813.804664,1390.792595,8157.671470,5666.927179,11932.679943,-14760.399134,12328.641096,7078.909228,10233.947365,-4626.118198,8955.695803,3491.320132,17466.949519,4539.840465,-231.800003,-840.824036,-484.584015,3080.000000,-1820.000000,1820.000000
10069.259711,14568.487056,715.166416,1307.062961,8029.998306,5634.897129,11868.083402,-14844.195824,12265.564473,6989.859878,10217.094149,-4710.585440,8907.281924,3452.852780,17399.670768,4451.193446,-234.240005,-841.312012,-483.608002,2940.000000,-1680.000000,1960.000000
10050.260729,14467.144247,650.391060,1239.024250,7950.694317,5608.857347,11814.685084,-14898.197639,12222.805586,6939.456694,10199.749196,-4785.307322,8863.025470,3426.209501,17330.760340,4365.250989,-232.288010,-840.335999,-482.144012,2660.000000,-1820.000000,1960.000000
10041.208272,14368.975385,588.677894,1172.170183,7878.721700,5587.466727,11763.790162,-14948.690229,12193.234228,6896.250772,10189.065062,-4854.731840,8824.088731,3406.718779,17261.089952,4277.185115,-234.727997,-840.824036,-482.632019,2240.000000,-2100.000000,2100.000000
10021.695199,14249.885291,518.627527,1092.888545,7796.847260,5563.818582,11701.920533,-15013.040902,12156.242091,6853.894216,10176.391623,-4930.057219,8788.236533,3389.306770,17189.586722,4187.129937,-237.167999,-841.799988,-482.144012,2100.000000,-2100.000000,2240.000000
10028.087798,14212.222601,512.681963,1068.145164,7796.422576,5557.671852,11676.193676,-15030.363504,12159.304280,6876.558885,10174.827000,-4943.043583,8785.688434,3400.728512,17169.403096,4168.712100,-235.704010,-842.288025,-482.632019,1960.000000,-1960.000000,2240.000000
10080.390880,14363.476856,637.047069,1167.968055,7956.572826,5589.567791,11745.305269,-14938.274317,12227.633563,6997.660637,10191.814326,-4836.515169,8843.981784,3449.991757,17251.992792,4286.684607,-237.167999,-842.776001,-483.119995,1540.000000,-2100.000000,2380.000000
10131.174044,14605.613304,794.716274,1328.274766,8153.938729,5643.033164,11870.072707,-14797.614789,12313.620724,7114.739074,10217.272963,-4677.974245,8927.174977,3496.997475,17387.734936,4465.163286,-237.656006,-845.216003,-480.192017,1120.000000,-2240.000000,2380.000000
10127.016619,14710.487689,832.848350,1399.800348,8196.228230,5668.648263,11935.809187,-14745.714038,12337.000649,7111.229850,10229.074684,-4610.695494,8961.730774,3495.946943,17461.585100,4547.373002,-237.656006,-841.799988,-481.167999,840.000000,-2240.000000,2380.000000
10080.837915,14605.926228,737.451105,1331.381658,8072.310158,5645.804780,11889.585780,-14820.190051,12285.546933,7013.508023,10217.384722,-4678.264818,8922.771683,3456.339652,17416.009893,4476.026234,-238.143997,-843.752014,-482.632019,560.000000,-2240.000000,2520.000000
10064.521142,14503.577590,667.266627,1263.745280,7983.439622,5621.016696,11839.339058,-14879.779801,12243.793874,6955.728764,10203.437233,-4752.003223,8881.532715,3432.758562,17352.307421,4393.190669,-237.656006,-844.728027,-486.048004,420.000000,-2100.000000,2520.000000
10051.311261,14409.655560,611.320211,1200.020456,7912.383427,5600.855422,11792.288636,-14925.645581,12205.237115,6908.141900,10189.668559,-4825.942794,8847.356897,3413.536061,17285.498057,4309.237517,-242.048004,-845.703979,-484.096008,420.000000,-2520.000000,2660.000000
10030.300621,14291.750108,543.683832,1125.902072,7829.547862,5578.682492,11733.816473,-14985.861181,12164.020498,6857.001109,10175.810477,-4905.224431,8809.202469,3396.302866,17213.659550,4217.483606,-240.096008,-843.264038,-484.584015,140.000000,-2240.000000,2520.000000
10019.080045,14208.288694,508.435131,1075.700054,7787.884210,5562.589236,11687.414251,-15027.681294,12143.278079,6847.658080,10165.461620,-4949.883217,8786.962484,3395.744073,17166.720887,4167.125126,-239.119995,-841.799988,-484.096008,140.000000,-2240.000000,2660.000000
10054.216987,14287.145649,590.443682,1122.594014,7885.829554,5577.184925,11712.381150,-14980.966148,12187.355719,6941.088371,10173.664710,-4889.757024,8819.506624,3432.467989,17200.092042,4232.146350,-237.656006,-844.728027,-481.656006,140.000000,-2380.000000,2520.000000
10122.009828,14531.159643,759.199352,1281.850193,8096.897077,5629.420952,11833.617012,-14837.780874,12288.787936,7083.424280,10203.034902,-4728.802112,8903.862107,3486.290990,17336.527090,4410.937954,-239.119995,-842.288025,-482.632019,280.000000,-2380.000000,2520.000000
10144.026297,14707.000817,850.215656,1400.984991,8207.448805,5670.011719,11931.763522,-14740.327268,12344.376724,7130.295888,10223.486748,-4616.663410,8960.680242,3503.054798,17449.805731,4540.175741,-240.096008,-841.799988,-484.096008,280.000000,-2380.000000,2380.000000
10097.266447,14642.828958,774.555001,1364.752813,8107.938839,5656.645376,11912.496318,-14788.897608,12303.204811,7039.279585,10215.127196,-4655.711908,8935.221605,3470.622417,17437.847547,4505.597592,-238.632004,-842.288025,-482.144012,420.000000,-2240.000000,2240.000000
10064.454086,14523.738864,690.110110,1283.839498,7999.376416,5626.716390,11852.951271,-14858.143313,12247.034877,6970.458564,10198.497498,-4736.692278,8889.065252,3443.420344,17369.831189,4417.285850,-238.632004,-842.288025,-480.679993,700.000000,-1960.000000,2100.000000
10041.297679,14423.133662,625.804141,1212.492730,7921.145311,5601.145995,11799.038863,-14908.859421,12201.079691,6917.775502,10183.879457,-4815.102198,8849.390906,3418.095817,17296.361005,4327.387134,-238.143997,-841.799988,-483.608002,980.000000,-1820.000000,1820.000000
10014.229717,14309.318579,554.502076,1135.602729,7838.577967,5576.044986,11738.331525,-14966.079887,12157.985527,6862.052603,10172.211846,-4898.988294,8811.482347,3391.407834,17222.197917,4233.085124,-237.167999,-842.288025,-482.632019,1260.000000,-1400.000000,1680.000000
10004.014969,14201.136136,496.499300,1063.786574,7768.415841,5552.709765,11673.399707,-15026.966039,12135.857300,6836.258690,10157.035012,-4966.825839,8779.385242,3378.622637,17156.327326,4157.491524,-238.143997,-840.335999,-485.071991,1260.000000,-1540.000000,1540.000000
10035.910909,14224.717227,537.872379,1077.309379,7819.958963,5555.950768,11671.455106,-15014.382006,12168.423792,6900.005865,10160.454829,-4942.261272,8792.505716,3404.483605,17162.272890,4180.938504,-239.608002,-839.359985,-484.584015,1260.000000,-1540.000000,1400.000000
10102.988494,14440.769188,698.939049,1221.500483,8022.689286,5601.749492,11776.776526,-14885.479496,12257.920177,7045.515722,10183.924160,-4795.209145,8866.378232,3463.648673,17281.586502,4341.401677,-236.192001,-841.312012,-485.559998,1540.000000,-980.000000,1120.000000
10140.271204,14664.599557,830.680231,1374.945208,8191.534363,5652.264434,11904.494393,-14754.520625,12330.742160,7135.056810,10207.348789,-4648.738164,8936.897986,3503.367722,17420.636704,4510.537328,-237.167999,-839.848022,-484.096008,1820.000000,-1120.000000,980.000000
10107.972933,14676.781258,802.919364,1389.518546,8154.765744,5661.339243,11930.042437,-14756.599338,12317.554631,7080.004463,10213.920202,-4637.472884,8942.217701,3486.335693,17453.605527,4534.699563,-237.656006,-839.359985,-486.536011,1820.000000,-980.000000,980.000000
10062.956519,14550.292736,705.443407,1308.068789,8029.730085,5633.220748,11868.932768,-14836.752693,12254.545063,6991.223334,10198.072815,-4719.682600,8899.034130,3450.684661,17389.903055,4447.326594,-238.632004,-840.335999,-483.608002,1820.000000,-840.000000,840.000000
10046.729153,14450.983936,644.490200,1242.444067,7952.325994,5610.556079,11817.076721,-14889.547514,12212.993170,6939.300232,10183.253608,-4791.722273,8861.997290,3425.650707,17323.205450,4361.294730,-233.751999,-839.848022,-487.024017,1820.000000,-840.000000,840.000000
10034.011010,14351.786894,587.247382,1176.349959,7877.022967,5589.187812,11764.393659,-14940.375381,12178.303263,6893.546211,10170.624873,-4865.617140,8826.458016,3403.455425,17250.606984,4270.658406,-235.704010,-840.335999,-486.536011,2240.000000,-840.000000,700.000000
10019.974115,14239.692895,525.511864,1100.689304,7795.483803,5565.673776,11700.735891,-15004.346073,12149.044829,6854.408306,10158.890207,-4939.489655,8792.773937,3387.853907,17177.852056,4182.212553,-236.192001,-839.848022,-481.167999,2380.000000,-1120.000000,700.000000
10030.859414,14203.147793,522.717896,1076.191792,7791.885172,5557.090706,11672.282120,-15028.821233,12155.951519,6879.039929,10159.493704,-4954.487676,8789.577638,3399.208593,17156.439085,4161.581893,-234.240005,-838.384033,-481.656006,2380.000000,-980.000000,560.000000
10085.889409,14355.564339,647.597092,1175.612351,7949.599081,5586.550306,11739.203243,-14938.587241,12226.091293,7004.410863,10177.173934,-4847.758096,8845.814627,3445.655518,17238.849966,4277.386281,-232.776001,-841.799988,-484.584015,2660.000000,-700.000000,700.000000
10138.997154,14600.785327,809.311963,1339.674156,8149.021345,5640.038030,11867.502256,-14794.306731,12312.056102,7123.255089,10202.476108,-4689.038359,8929.611317,3490.962504,17383.711622,4460.044737,-231.800003,-838.872009,-479.704010,2660.000000,-840.000000,700.000000
10136.471407,14708.856011,850.841504,1416.139473,8193.121337,5666.055461,11937.262051,-14739.679067,12338.274698,7120.774045,10216.982391,-4619.658544,8963.831838,3494.583487,17464.490827,4548.021203,-233.264008,-839.359985,-487.511993,2940.000000,-980.000000,700.000000
10083.833049,14595.018577,749.811619,1341.752868,8063.704737,5639.747457,11885.562466,-14817.597248,12281.076584,7015.720846,10202.297294,-4690.200650,8918.726017,3456.093783,17413.484146,4472.539362,-232.776001,-839.848022,-481.167999,2800.000000,-560.000000,700.000000
10056.943900,14483.237503,675.961456,1265.198143,7970.006224,5612.545384,11825.659791,-14882.238493,12230.785159,6952.599520,10185.958169,-4766.487153,8874.134287,3429.517559,17343.634944,4383.512364,-233.751999,-839.848022,-484.584015,3080.000000,-840.000000,700.000000
10043.376391,14388.980197,622.920766,1202.881480,7900.000560,5592.898201,11777.268264,-14927.746645,12195.134127,6906.599630,10171.630701,-4837.118666,8837.835054,3409.177471,17279.865417,4299.894488,-235.216003,-838.872009,-483.119995,3080.000000,-840.000000,700.000000
10022.052827,14271.387669,553.228027,1125.589147,7811.621763,5569.562980,11714.906897,-14991.560875,12158.030231,6854.385955,10160.276015,-4917.830815,8798.473632,3387.719797,17208.116318,4206.419493,-232.288010,-837.895996,-485.071991,3220.000000,-980.000000,840.000000
10016.911926,14192.351901,520.415666,1073.107251,7770.606312,5552.709765,11666.805943,-15037.583117,12144.440370,6848.596853,10159.717221,-4961.550827,8778.737042,3387.876259,17162.317593,4153.691727,-231.311996,-839.359985,-484.096008,3360.000000,-1120.000000,980.000000
10062.554188,14281.647120,607.185138,1130.662993,7877.827630,5570.211180,11702.412272,-14983.290730,12195.782327,6947.726840,10168.724974,-4893.690931,8813.002266,3429.294041,17212.273742,4224.211481,-229.360001,-840.824036,-484.096008,3500.000000,-1260.000000,980.000000
10127.150730,14524.610582,778.645370,1290.209745,8092.762004,5622.782483,11824.788073,-14836.216251,12289.279674,7086.866449,10190.786146,-4731.014935,8898.408282,3486.447452,17353.939099,4407.607544,-230.824005,-839.359985,-485.559998,3640.000000,-1260.000000,1120.000000
10143.132227,14697.434270,870.466336,1402.281392,8206.018294,5661.026318,11921.526423,-14737.980335,12337.067704,7131.592289,10207.840527,-4619.300916,8956.254596,3506.139339,17465.474303,4542.120343,-232.776001,-838.384033,-484.584015,3780.000000,-1680.000000,1260.000000
10098.987532,14636.950450,792.615210,1360.103650,8106.664790,5650.520998,11901.052225,-14785.298978,12302.623666,7045.001631,10202.587867,-4657.634158,8933.969907,3473.148164,17448.732847,4510.112644,-230.335999,-840.335999,-480.679993,3780.000000,-1960.000000,1540.000000
10073.014804,14526.130501,707.164491,1283.683036,7999.823451,5624.056533,11844.256442,-14858.255071,12257.920177,6979.265151,10190.584980,-4735.351173,8892.060386,3446.549588,17382.482276,4423.052600,-230.335999,-840.335999,-484.096008,3640.000000,-2240.000000,1400.000000
10059.246130,14432.364933,647.887665,1220.025268,7928.096703,5600.676608,11796.155488,-14907.093633,12218.938734,6930.270127,10176.369271,-4807.748474,8852.453095,3420.889785,17316.879906,4338.563006,-229.360001,-842.288025,-482.632019,3780.000000,-2520.000000,1540.000000
10043.219929,14323.646048,585.168670,1150.109011,7851.631385,5580.917666,11741.952508,-14958.882625,12182.661853,6880.671606,10165.685137,-4881.598637,8815.438606,3399.476814,17249.265879,4249.357194,-232.288010,-838.872009,-485.071991,3640.000000,-2520.000000,1680.000000
10028.288964,14217.296447,529.468123,1081.913839,7787.526582,5560.197599,11684.575580,-15013.912620,12152.196425,6851.882559,10155.559797,-4944.250577,8786.247228,3388.099776,17188.066803,4173.897704,-230.824005,-842.288025,-481.656006,3780.000000,-2800.000000,1820.000000
10043.689316,14225.097206,560.984082,1083.009074,7825.077513,5559.415288,11675.791344,-15011.766852,12167.574426,6903.984476,10158.219654,-4928.760818,8797.378397,3408.395160,17187.508009,4186.705254,-231.800003,-841.799988,-484.096008,3780.000000,-2940.000000,1960.000000
10104.821337,14432.074360,718.876805,1218.013611,8018.308344,5602.710617,11773.177895,-14888.631092,12253.695697,7042.855864,10183.030091,-4789.040064,8871.541485,3464.498039,17299.534953,4340.954642,-229.848007,-840.824036,-486.536011,3500.000000,-3080.000000,2100.000000
10144.540387,14659.436305,854.909522,1368.753775,8184.717081,5655.013699,11892.871486,-14758.946271,12329.915146,7131.547586,10207.728768,-4641.786771,8946.464532,3498.852670,17434.293620,4508.883299,-230.824005,-837.895996,-487.511993,3640.000000,-3080.000000,2240.000000
10114.969029,14681.698642,829.182664,1388.110386,8153.402287,5665.787240,11920.967629,-14758.387477,12319.387474,7076.986978,10212.489690,-4623.883024,8951.113695,3480.881868,17471.665737,4538.097029,-229.360001,-838.872009,-481.167999,3500.000000,-3220.000000,2380.000000
10068.186828,14558.875806,729.091552,1304.224289,8027.137283,5635.701792,11862.316652,-14838.496129,12256.891996,6988.518773,10197.290504,-4706.964458,8901.962209,3445.342594,17408.522059,4452.534551,-231.311996,-840.824036,-483.608002,3360.000000,-3360.000000,2660.000000
10053.188807,14463.322099,664.003273,1237.347870,7948.950881,5612.143053,11811.332323,-14893.235552,12218.446996,6940.395467,10184.929989,-4777.573619,8861.527903,3421.515634,17342.003267,4365.608617,-234.240005,-839.848022,-485.559998,3220.000000,-3220.000000,2800.000000
10041.700011,14366.516693,599.339676,1172.527811,7877.380595,5590.752434,11760.951491,-14944.018715,12185.366414,6896.273124,10174.156448,-4848.518056,8823.284068,3401.399064,17275.015089,4277.185115,-234.727997,-838.872009,-484.096008,3220.000000,-3080.000000,2940.000000
10023.125711,14247.113675,530.853931,1097.537708,7797.584867,5567.797192,11702.479327,-15006.223620,12152.375239,6853.558940,10161.192436,-4924.961022,8785.375510,3386.691616,17205.992902,4191.466175,-235.704010,-836.919983,-485.559998,3220.000000,-2940.000000,2940.000000
10037.408476,14209.942724,529.356364,1073.643693,7793.338036,5559.862323,11675.545475,-15028.284792,12164.802809,6880.962179,10163.159390,-4940.383725,8784.637902,3399.789739,17181.674204,4168.577989,-234.240005,-837.895996,-483.608002,2940.000000,-3220.000000,3220.000000
10100.619209,14366.673156,655.576665,1174.718282,7951.387221,5589.657198,11742.891281,-14938.699000,12244.285613,7010.490538,10186.561666,-4831.798951,8846.015793,3449.567074,17260.955842,4280.202601,-236.192001,-836.432007,-487.024017,2800.000000,-2940.000000,3220.000000
10162.019451,14621.460691,820.979574,1346.692603,8161.538322,5647.123533,11878.208742,-14787.802373,12340.599279,7138.096647,10215.775396,-4663.713832,8933.791093,3502.652467,17410.466660,4467.107888,-239.119995,-840.824036,-484.096008,2800.000000,-2940.000000,3360.000000
10164.500495,14741.266041,870.555743,1434.490256,8221.329239,5679.220638,11958.272691,-14721.395340,12372.897550,7143.326955,10234.059123,-4584.834526,8975.544152,3511.302592,17501.818240,4564.159163,-235.704010,-840.335999,-487.024017,2940.000000,-2940.000000,3360.000000
10118.053570,14637.375133,776.410195,1370.452508,8100.071025,5656.868894,11915.893783,-14794.239675,12322.829643,7046.298033,10225.364295,-4649.073440,8938.239090,3476.232705,17461.719210,4496.366322,-238.143997,-836.432007,-482.632019,2940.000000,-2940.000000,3500.000000
10099.054587,14535.182957,704.705799,1300.648010,8011.222841,5628.459827,11863.098963,-14855.170531,12280.808363,6990.597485,10213.406111,-4722.476569,8894.496726,3451.869303,17399.424899,4409.418036,-237.167999,-838.384033,-484.584015,2800.000000,-2800.000000,3640.000000
10081.575523,14441.529148,641.942101,1236.632614,7939.607851,5606.219841,11814.193346,-14901.639807,12240.865796,6941.870682,10199.100995,-4794.873869,8854.129476,3429.629317,17333.219031,4324.369648,-238.143997,-838.384033,-485.071991,2800.000000,-2800.000000,3500.000000
10051.937109,14320.159175,567.264923,1158.960302,7855.230016,5581.789384,11755.944700,-14961.184855,12193.524801,6888.539420,10187.187515,-4879.095242,8812.421121,3409.266878,17258.586557,4231.386391,-239.119995,-839.848022,-484.096008,2800.000000,-2800.000000,3640.000000
10051.221854,14240.989297,533.536140,1106.947792,7811.912335,5564.802058,11708.804871,-15006.357730,12184.338234,6884.851382,10178.403280,-4923.642269,8791.946923,3409.222175,17210.284437,4174.657664,-238.632004,-836.919983,-484.096008,2520.000000,-2660.000000,3500.000000
10098.249924,14320.516803,615.879967,1159.563799,7910.505880,5580.582390,11738.465636,-14960.938985,12235.255508,6978.549895,10186.673425,-4860.856218,8827.955583,3446.728402,17250.830501,4234.158007,-238.632004,-838.872009,-486.536011,2520.000000,-3080.000000,3500.000000
10164.031108,14561.781533,786.356722,1320.094028,8122.981563,5633.667783,11862.137838,-14814.937391,12328.015247,7120.282307,10212.333228,-4701.220060,8912.176956,3501.914859,17390.126573,4412.033190,-238.632004,-838.872009,-484.096008,2660.000000,-2660.000000,3500.000000
10179.409108,14740.662544,882.469223,1439.072363,8239.992945,5674.727938,11964.218255,-14711.895849,12378.083155,7169.612607,10228.918222,-4584.588657,8970.403251,3521.025601,17503.405214,4548.602348,-238.632004,-841.799988,-486.048004,2380.000000,-2520.000000,3220.000000
10126.323715,14678.882322,805.378056,1398.146319,8140.527682,5661.272187,11943.297022,-14759.125085,12335.279564,7077.478716,10220.670428,-4622.273698,8947.693878,3483.720539,17487.758993,4517.756941,-239.608002,-840.335999,-482.632019,2520.000000,-2380.000000,3080.000000
10088.281046,14557.601757,714.875843,1316.115417,8029.104236,5631.633774,11881.360338,-14831.857661,12278.975520,7000.789881,10202.543164,-4705.668057,8898.922372,3450.930530,17421.709588,4429.355792,-240.096008,-840.824036,-482.632019,2240.000000,-1960.000000,2940.000000
10073.417136,14458.918805,651.285130,1248.322576,7950.157875,5606.868041,11826.732674,-14884.384261,12239.368229,6949.783200,10187.612198,-4781.619284,8855.224711,3426.567128,17354.319078,4340.395849,-240.584000,-840.335999,-482.144012,2520.000000,-1680.000000,2800.000000
10052.250034,14348.478836,582.620571,1173.086604,7866.338833,5582.594047,11764.974805,-14942.409389,12197.995150,6896.608400,10171.854218,-4864.566608,8812.801100,3401.846099,17276.043269,4246.674984,-243.512009,-840.335999,-481.656006,2100.000000,-1680.000000,2380.000000
10037.453179,14240.899890,524.550739,1104.310287,7798.769510,5561.605759,11704.938019,-14999.942780,12169.161400,6864.757164,10160.633643,-4931.554786,8781.888638,3389.932619,17209.077443,4168.957969,-241.072006,-841.799988,-481.167999,2380.000000,-1120.000000,2240.000000
10051.713592,14243.582099,549.942321,1103.103292,7837.348621,5561.426945,11692.353987,-14995.181858,12182.773612,6912.344028,10161.505361,-4922.099998,8791.633998,3410.429169,17204.607094,4181.340835,-239.608002,-839.359985,-479.216003,2100.000000,-1120.000000,2240.000000
10115.170195,14449.106389,701.978886,1235.760896,8031.294707,5603.895259,11787.483011,-14870.325013,12269.073697,7049.695498,10185.198210,-4786.134337,8865.305348,3465.727385,17316.388168,4336.774866,-241.072006,-841.799988,-482.632019,1960.000000,-700.000000,1820.000000
10152.519960,14676.222465,840.827923,1384.735272,8201.100910,5654.186684,11909.188260,-14737.779169,12342.454474,7140.018897,10207.661713,-4640.535073,8939.289622,3500.037313,17451.996202,4504.457653,-241.072006,-843.264038,-478.239990,2240.000000,-700.000000,1680.000000
10120.579317,14698.015415,821.381905,1402.594316,8169.003805,5664.624949,11935.451559,-14733.487634,12330.876271,7084.787737,10211.260344,-4625.514701,8946.084553,3479.719577,17486.417888,4533.134941,-241.072006,-843.264038,-479.704010,2380.000000,-420.000000,1540.000000
10074.288854,14571.236321,719.547358,1317.925908,8039.162521,5634.986536,11876.912341,-14812.970437,12268.894883,6994.531392,10195.278847,-4711.680676,8899.324703,3444.582635,17423.162451,4446.857208,-243.024002,-840.824036,-481.167999,2520.000000,-280.000000,1400.000000
10053.859359,14468.463000,652.022738,1251.608283,7959.612663,5612.165405,11826.397398,-14866.547569,12222.671476,6944.776409,10179.118535,-4787.743662,8858.376307,3420.621564,17356.978936,4361.630006,-240.584000,-841.799988,-479.704010,2660.000000,-280.000000,1120.000000
10042.817598,14370.741173,592.857670,1188.732825,7887.304769,5592.875849,11776.553008,-14919.029465,12189.903818,6898.284781,10168.389698,-4858.062250,8821.898260,3400.594401,17288.046156,4275.620493,-240.096008,-842.776001,-481.167999,2660.000000,0.000000,1260.000000
10027.394894,14253.126294,526.651803,1110.792292,7803.798652,5567.126640,11711.040045,-14989.549218,12156.175036,6854.184789,10158.957262,-4935.086362,8786.694263,3384.188221,17211.625542,4185.654722,-240.584000,-843.752014,-481.656006,2940.000000,0.000000,1120.000000
10033.541624,14206.992293,517.532291,1081.287990,7793.807422,5554.766125,11678.764126,-15015.141966,12159.214873,6874.256655,10156.543274,-4953.839475,8781.799231,3392.972457,17182.143591,4162.297149,-241.072006,-843.264038,-483.119995,3220.000000,-280.000000,1120.000000
10086.403499,14347.785932,634.320156,1173.913619,7943.318241,5583.555172,11740.410237,-14926.941982,12227.387694,6994.084358,10172.256550,-4853.033108,8835.197548,3441.453390,17255.837292,4269.540819,-242.535995,-845.216003,-481.167999,3080.000000,-280.000000,980.000000
10140.606480,14596.896124,799.164271,1338.020127,8151.994127,5639.032202,11869.178637,-14777.051184,12316.906430,7117.577746,10200.307989,-4687.406681,8918.435445,3491.074263,17401.190686,4454.926187,-240.096008,-843.264038,-483.119995,3640.000000,-140.000000,1120.000000
10141.545253,14715.785052,845.410031,1418.866386,8211.449768,5669.497629,11943.252318,-14717.260267,12347.505969,7120.796397,10216.781225,-4608.057989,8957.908625,3497.332751,17486.864923,4550.099915,-240.096008,-843.752014,-480.192017,3640.000000,0.000000,1120.000000
10091.231476,14611.983551,745.587140,1353.934569,8085.989426,5644.977766,11896.648931,-14792.630350,12294.755852,7020.258250,10207.728768,-4674.777946,8922.883442,3459.357138,17443.949574,4481.323598,-241.559998,-844.239990,-477.752014,3640.000000,140.000000,1260.000000
10060.944862,14497.028529,666.551371,1276.619885,7985.630093,5614.020600,11837.014477,-14859.104438,12243.257432,6956.421668,10193.691873,-4755.691261,8879.789278,3429.472855,17370.434686,4390.128480,-241.072006,-842.776001,-483.119995,3780.000000,0.000000,1400.000000
10050.260729,14403.978217,611.946060,1214.347925,7918.820729,5593.948733,11790.053462,-14902.690339,12207.919324,6915.517976,10174.804649,-4824.892262,8840.830188,3409.266878,17300.786650,4306.488252,-241.072006,-843.752014,-480.679993,3920.000000,420.000000,1400.000000
10033.563976,14291.034852,542.655652,1142.509418,7840.343754,5573.809811,11736.275165,-14958.323831,12172.737679,6863.572522,10158.286710,-4901.826966,8800.306475,3391.452538,17230.870394,4217.729475,-238.143997,-841.799988,-483.119995,3920.000000,560.000000,1680.000000
10030.010048,14203.952456,505.574108,1087.233554,7792.578076,5557.716555,11687.794231,-15007.721187,12154.453952,6853.625995,10151.223558,-4951.492542,8777.261827,3390.156137,17178.500256,4157.670338,-241.072006,-843.752014,-483.119995,3920.000000,980.000000,1820.000000
10067.650386,14275.858018,582.844088,1135.736839,7887.572990,5572.871038,11714.281048,-14962.011869,12196.028196,6946.139866,10160.410125,-4897.155451,8808.889545,3423.035553,17213.860716,4215.226080,-242.048004,-842.776001,-486.048004,3920.000000,1120.000000,1820.000000
10133.364515,14515.803995,749.409288,1292.534327,8098.796975,5624.615326,11830.912451,-14822.581687,12295.985198,7088.140498,10190.607332,-4736.804037,8891.546296,3478.803155,17344.193738,4390.374349,-241.559998,-842.776001,-480.679993,3780.000000,1260.000000,1820.000000
10160.477181,14709.101881,852.182609,1421.146264,8226.961878,5668.357690,11937.105589,-14717.819061,12359.553559,7145.897406,10214.814271,-4610.740198,8955.516989,3506.116987,17461.741562,4532.062058,-243.024002,-844.239990,-480.192017,3640.000000,1540.000000,2100.000000
10111.973895,14661.492665,783.741568,1392.692494,8137.689011,5659.908731,11926.175586,-14758.901567,12319.007494,7057.719774,10208.533431,-4641.362088,8937.836759,3474.377510,17457.718248,4508.749188,-240.584000,-842.776001,-479.216003,3220.000000,1820.000000,2100.000000
10079.295645,14543.810730,695.854508,1311.957993,8023.404541,5629.175082,11864.596530,-14834.204594,12266.257377,6983.824907,10192.194306,-4722.565975,8890.205191,3444.493228,17388.360785,4418.761065,-242.535995,-839.848022,-479.216003,2940.000000,1820.000000,2100.000000
10064.007051,14447.899395,634.744839,1245.305091,7947.207445,5606.421006,11814.103939,-14886.060642,12226.091293,6933.578185,10177.218637,-4796.058511,8848.362726,3422.052076,17320.925572,4330.941061,-244.975998,-840.824036,-483.119995,2940.000000,1960.000000,2240.000000
10042.057638,14336.140673,568.293103,1171.544334,7864.193066,5583.555172,11756.682307,-14943.057590,12185.746394,6879.509315,10163.137038,-4876.256570,8807.727254,3398.985076,17247.522443,4238.650708,-242.048004,-843.752014,-481.656006,2800.000000,1820.000000,2100.000000
10025.606754,14224.605468,512.883128,1100.286973,7794.366216,5559.974082,11698.903048,-15000.613332,12152.576405,6851.144952,10154.017526,-4944.898778,8777.842972,3388.882087,17180.377803,4160.687823,-244.488007,-842.288025,-482.144012,2660.000000,1820.000000,2100.000000
10043.734019,14226.795939,541.046326,1103.036237,7831.447760,5559.392936,11692.085766,-14995.830059,12169.653138,6902.710426,10157.750268,-4934.840493,8790.762280,3410.697390,17181.920073,4171.528419,-244.975998,-840.335999,-485.559998,2380.000000,1680.000000,1960.000000
10103.703750,14423.871270,692.881726,1233.033983,8023.717466,5599.402559,11785.694872,-14875.018880,12252.958089,7040.710096,10180.861971,-4803.278125,8862.556084,3464.810963,17293.969368,4324.257889,-245.464005,-843.752014,-484.096008,2240.000000,1260.000000,1960.000000
10144.763904,14653.289575,833.608309,1383.975313,8197.234058,5647.324699,11906.997789,-14740.841358,12330.116311,7135.369734,10206.633533,-4654.080230,8939.267270,3501.087845,17431.544355,4496.053397,-244.488007,-843.264038,-482.632019,2100.000000,980.000000,1820.000000
10122.792139,14689.991139,822.857120,1408.741046,8174.345872,5657.293577,11935.965650,-14736.259250,12330.518643,7090.956818,10215.931859,-4627.928689,8949.884349,3484.011112,17471.531626,4528.597537,-244.975998,-840.824036,-479.704010,2100.000000,700.000000,1680.000000
10075.898180,14569.582292,727.728096,1329.392353,8045.756286,5629.398600,11875.168905,-14820.815899,12271.510037,7001.169861,10202.766681,-4702.784682,8904.353846,3448.158914,17409.080852,4445.024365,-242.535995,-841.312012,-484.096008,2100.000000,560.000000,1260.000000
10061.503656,14471.704003,660.985787,1263.074727,7964.015956,5606.644524,11824.721017,-14871.889636,12232.573299,6953.515941,10181.621931,-4769.683453,8863.696022,3425.158969,17342.785578,4365.340396,-244.000000,-838.384033,-484.096008,2100.000000,140.000000,980.000000
10053.322918,14376.709089,596.277487,1196.690046,7891.685711,5586.751471,11776.150677,-14916.347255,12201.124394,6905.817319,10166.422745,-4839.175026,8826.458016,3406.316448,17275.618586,4281.230781,-243.024002,-837.408020,-484.584015,1540.000000,-280.000000,560.000000
10037.721400,14258.781285,523.254338,1118.727162,7808.581925,5562.388070,11713.901068,-14981.077907,12166.836818,6863.349004,10155.492742,-4916.154434,8788.996493,3391.206669,17202.193105,4190.862678,-239.608002,-839.848022,-485.559998,1680.000000,-420.000000,280.000000
10045.052772,14210.233296,511.765541,1088.440548,7800.177670,5553.290910,11681.602798,-15006.424785,12170.144876,6885.633693,10154.553968,-4936.539225,8782.022748,3404.796529,17175.505123,4163.750012,-240.096008,-836.919983,-486.536011,1400.000000,-560.000000,-280.000000
10099.412215,14352.859778,629.559234,1183.547221,7951.878959,5584.091614,11745.975822,-14918.247154,12240.888147,7007.361294,10173.374137,-4836.403410,8836.046915,3454.149181,17253.378600,4274.726424,-241.072006,-837.408020,-485.559998,980.000000,-980.000000,-700.000000
10151.380021,14597.499621,791.341161,1347.586673,8154.452819,5638.875739,11876.487658,-14767.954024,12329.535166,7127.524272,10200.173879,-4675.023815,8918.703666,3501.244307,17396.854448,4461.274083,-236.680008,-841.312012,-485.559998,840.000000,-1540.000000,-840.000000
10148.518997,14718.131985,841.163199,1430.913977,8210.868622,5667.128344,11952.952975,-14702.396357,12356.848998,7129.826502,10213.763739,-4596.770358,8955.025250,3504.842938,17487.468420,4559.197075,-233.751999,-838.872009,-484.584015,560.000000,-1820.000000,-1120.000000
10097.042930,14617.839708,745.944768,1364.417537,8084.245990,5643.994289,11909.545888,-14774.816009,12301.416671,7027.522567,10201.917315,-4662.484486,8915.239145,3465.593274,17449.515158,4492.387711,-235.216003,-838.872009,-477.752014,420.000000,-2520.000000,-1120.000000
10071.651348,14508.159698,672.429880,1289.785062,7988.222896,5615.227594,11854.493541,-14838.518481,12251.751095,6968.424555,10185.958169,-4740.447371,8872.189685,3437.050097,17383.957491,4406.199384,-234.240005,-843.264038,-479.216003,420.000000,-3220.000000,-1260.000000
10055.625147,14407.778014,613.354220,1221.545186,7914.059808,5589.366625,11803.799785,-14888.295816,12209.998037,6919.876566,10169.909617,-4816.823282,8833.767037,3415.413608,17312.610723,4317.664125,-232.288010,-842.776001,-475.800018,700.000000,-3500.000000,-1260.000000
10038.146083,14289.358472,546.231931,1145.035165,7828.676144,5565.226741,11742.913633,-14950.701886,12172.558865,6870.658025,10159.739573,-4896.909582,8794.271504,3396.928715,17237.642972,4222.065714,-230.335999,-845.703979,-476.287994,840.000000,-4060.000000,-1540.000000
10032.424037,14204.980636,511.340858,1090.005170,7783.793841,5550.608701,11692.599856,-14997.841716,12154.163379,6860.599740,10154.151637,-4946.642214,8773.149106,3392.570125,17185.049317,4161.224265,-230.335999,-843.752014,-476.287994,1120.000000,-4200.000000,-1540.000000
10065.705784,14266.358527,578.731367,1127.757266,7867.948159,5561.248131,11709.721292,-14963.621195,12192.898952,6942.071848,10163.382907,-4898.496556,8802.854574,3422.253242,17211.491431,4209.705199,-231.800003,-844.728027,-476.287994,1400.000000,-4200.000000,-1400.000000
10128.156558,14503.666997,747.978776,1283.928905,8080.245028,5613.528861,11827.738503,-14823.162833,12283.132944,7080.786774,10189.243876,-4741.520255,8887.411223,3479.339597,17345.467787,4387.379216,-229.360001,-849.608032,-479.216003,1820.000000,-4620.000000,-840.000000
10150.262433,14697.814250,856.965882,1417.011191,8214.780177,5658.925254,11940.212481,-14711.672331,12340.733390,7136.889653,10208.399321,-4616.953983,8951.247806,3505.558193,17470.324632,4536.912386,-233.751999,-846.192017,-474.824005,2520.000000,-4760.000000,-560.000000
10106.765939,14647.746342,788.435434,1385.204659,8125.842586,5649.045783,11928.209594,-14752.978355,12308.748044,7054.456419,10205.739463,-4646.972376,8935.087494,3474.645731,17459.461684,4514.448883,-234.240005,-848.143982,-477.752014,2800.000000,-4480.000000,140.000000
10078.245113,14531.852547,696.167433,1304.783083,8014.843823,5620.144978,11869.737431,-14825.487414,12262.032898,6986.127136,10191.747271,-4726.030496,8892.932104,3448.717707,17389.858352,4430.786303,-233.751999,-847.656006,-473.847992,3220.000000,-4060.000000,560.000000
10065.348156,14439.517491,634.074287,1238.823085,7940.993660,5596.742701,11820.228317,-14872.917816,12227.275935,6938.182645,10177.509210,-4800.595915,8852.944833,3424.689582,17324.300685,4349.001270,-236.192001,-848.632019,-474.824005,3500.000000,-3780.000000,1120.000000
10046.148008,14334.307830,570.103594,1169.420918,7863.880141,5575.620303,11766.584130,-14926.137319,12190.261446,6886.706577,10165.819247,-4878.067062,8813.650467,3402.203727,17255.725533,4259.303720,-235.704010,-848.632019,-474.335999,3640.000000,-3360.000000,1680.000000
10037.676697,14230.506328,515.900614,1103.282106,7796.780204,5556.062526,11711.285914,-14983.849524,12169.429620,6859.616263,10158.845503,-4941.009574,8784.772013,3393.955933,17197.745108,4185.788832,-239.119995,-849.608032,-478.727997,3780.000000,-2660.000000,1820.000000
10057.078011,14230.372218,542.610948,1105.204356,7831.783036,5555.771954,11702.367568,-14981.368480,12184.785269,6908.790101,10159.493704,-4931.487731,8792.662179,3417.157044,17199.555600,4198.842251,-236.680008,-849.119995,-480.192017,4200.000000,-2660.000000,2380.000000
10110.275162,14420.585563,687.517308,1229.077724,8017.570736,5593.389939,11789.159392,-14866.614624,12258.881302,7043.191140,10178.626797,-4803.211069,8860.589130,3468.476649,17302.328921,4345.648509,-237.656006,-849.119995,-482.144012,4200.000000,-2520.000000,2660.000000
10150.329489,14651.970822,827.439228,1382.410691,8195.736491,5642.921405,11912.205745,-14733.532337,12335.257213,7140.398877,10204.666579,-4653.476733,8937.099151,3502.071321,17438.272230,4517.578127,-239.119995,-847.656006,-484.096008,4200.000000,-2380.000000,2800.000000
10133.073942,14699.267113,818.833806,1413.054933,8184.560619,5654.231388,11948.773199,-14720.277753,12341.582756,7100.322199,10213.383760,-4623.994782,8949.414962,3488.593219,17484.003900,4559.353537,-238.632004,-849.119995,-485.559998,4620.000000,-2380.000000,2800.000000
10082.782517,14573.404440,717.714514,1326.754847,8052.662975,5624.458864,11886.590646,-14802.688635,12278.528485,7004.209698,10199.726844,-4707.836176,8902.006912,3450.304681,17418.155660,4472.807583,-239.119995,-846.679993,-484.584015,4900.000000,-2380.000000,2940.000000
10053.457028,14465.087886,648.245293,1254.849285,7966.519352,5599.022579,11833.281736,-14861.160798,12224.079636,6944.329374,10185.019396,-4786.201392,8861.259682,3423.102608,17350.340468,4385.568724,-238.143997,-846.192017,-488.976013,5600.000000,-2940.000000,2800.000000
10044.024592,14366.427286,588.566135,1189.626895,7893.049168,5578.414271,11783.906732,-14911.899258,12190.552019,6897.390711,10165.886303,-4855.715317,8823.999324,3400.907326,17283.575807,4299.715674,-238.143997,-841.312012,-487.024017,5740.000000,-3360.000000,2800.000000
10035.508577,14253.595680,526.338878,1115.195586,7811.420597,5558.163590,11724.160519,-14974.372384,12163.953443,6855.145914,10153.570492,-4927.710286,8787.096594,3385.261105,17213.078405,4211.493339,-238.143997,-839.359985,-488.488007,6440.000000,-3640.000000,2520.000000
10046.595043,14203.170145,518.471064,1084.104310,7798.925972,5549.513465,11691.258751,-15004.994274,12169.831952,6875.910685,10153.570492,-4948.430353,8779.497001,3397.666323,17185.563408,4178.658626,-237.656006,-838.872009,-490.440002,6860.000000,-4200.000000,2240.000000
10097.512316,14338.487606,634.364859,1177.109918,7947.855645,5574.770936,11751.407296,-14921.242287,12237.893014,6996.565401,10169.887265,-4851.960224,8828.268508,3444.493228,17258.452446,4281.230781,-235.704010,-836.432007,-488.000000,7280.000000,-4200.000000,2240.000000
10151.245910,14586.547266,795.029199,1342.758696,8153.983433,5626.828149,11878.052280,-14773.161980,12328.283468,7121.131673,10198.229277,-4690.178298,8909.025360,3492.705940,17398.687291,4460.268254,-235.216003,-833.504028,-489.464020,7840.000000,-4060.000000,1960.000000
10152.028221,14713.058139,844.583016,1429.304651,8219.049361,5658.031184,11958.987946,-14704.698587,12358.413620,7131.458179,10213.428463,-4605.286372,8949.705535,3501.825452,17487.960158,4559.241779,-238.632004,-829.600037,-488.000000,7700.000000,-3500.000000,1680.000000
10102.697921,14612.765862,745.631843,1366.250380,8097.210002,5636.528806,11917.324295,-14777.498219,12307.518698,7034.004573,10203.705454,-4667.066594,8910.947610,3465.012129,17448.710495,4497.819185,-238.143997,-830.088013,-486.536011,7420.000000,-2660.000000,1400.000000
10081.083784,14508.249105,669.345339,1294.188356,8002.013922,5609.013809,11859.366221,-14840.485435,12263.709279,6974.772450,10187.165163,-4742.861359,8868.479296,3439.777009,17380.738840,4416.570594,-238.632004,-829.112000,-489.464020,7280.000000,-1820.000000,1260.000000
10063.001223,14413.298895,611.722542,1230.217663,7928.901366,5587.511431,11808.404244,-14885.211275,12220.749226,6925.218633,10170.133134,-4818.790235,8832.001249,3415.771236,17310.889639,4334.159712,-242.048004,-828.135986,-488.488007,7420.000000,-700.000000,980.000000
10042.817598,14297.673320,545.181399,1155.808706,7844.724696,5567.081936,11749.663860,-14945.069247,12179.532609,6872.468516,10157.593806,-4897.356617,8794.696187,3395.453500,17237.240641,4244.350403,-245.951996,-825.695984,-487.024017,6720.000000,700.000000,980.000000
10032.558147,14202.723110,500.634372,1094.386112,7788.443004,5550.720459,11697.651350,-14996.478259,12157.650251,6857.045812,10151.290614,-4948.743278,8771.338614,3393.039512,17181.383631,4184.872411,-247.904007,-827.160034,-485.559998,6160.000000,1820.000000,980.000000
10068.432697,14267.029079,569.455393,1135.692136,7876.151249,5561.628111,11719.712522,-14956.312174,12200.275028,6944.709354,10162.131210,-4896.261382,8801.401711,3425.985983,17212.474908,4240.215330,-249.856003,-827.648010,-487.024017,5180.000000,2940.000000,980.000000
10131.598727,14505.611599,735.797076,1292.534327,8088.559877,5612.053646,11836.455683,-14814.915039,12290.419613,7086.978207,10188.081585,-4740.715592,8880.973921,3478.959617,17346.272450,4415.408303,-252.296005,-826.671997,-489.951996,4760.000000,4060.000000,840.000000
10157.973785,14701.546991,843.130153,1423.426142,8219.854023,5655.840713,11942.335897,-14705.369139,12351.439876,7149.049002,10209.606315,-4616.752817,8945.212835,3503.479481,17466.971870,4558.995910,-254.248001,-830.088013,-490.928009,4200.000000,4620.000000,980.000000
10118.813529,14663.481970,781.685207,1401.923764,8138.471322,5648.643452,11935.518615,-14742.115407,12322.337904,7070.572027,10207.840527,-4639.015155,8933.992259,3475.271580,17467.105981,4541.092162,-256.200012,-831.064026,-486.048004,3220.000000,5180.000000,980.000000
10086.783479,14546.805864,690.780662,1324.854949,8028.053704,5619.854405,11878.991053,-14817.083158,12271.018299,6999.471128,10191.032015,-4716.821577,8888.014720,3448.516542,17405.079890,4455.730850,-258.640015,-831.064026,-488.488007,3080.000000,5460.000000,1120.000000
10069.483229,14450.536901,625.602976,1260.280759,7955.298776,5597.279143,11829.727808,-14866.569920,12231.567470,6951.258415,10173.083564,-4790.559982,8847.043973,3426.768294,17339.321058,4372.694120,-255.223999,-835.944031,-483.608002,2240.000000,5320.000000,1120.000000
10054.820484,14347.942394,560.402937,1192.242049,7878.721700,5577.497849,11776.418898,-14920.214107,12197.749281,6903.358627,10160.387774,-4865.684195,8807.481385,3405.377675,17271.349403,4285.924648,-254.736008,-838.384033,-479.704010,2100.000000,4760.000000,840.000000
10038.727228,14231.825081,494.286477,1113.519205,7801.317609,5554.497904,11712.470557,-14988.811611,12165.808638,6865.874751,10148.898977,-4940.316670,8771.450373,3390.849041,17199.175620,4200.362170,-254.248001,-839.848022,-482.632019,1820.000000,4480.000000,700.000000
10054.216987,14223.063198,511.385561,1105.204356,7826.284507,5552.799172,11698.076033,-14994.913637,12178.996167,6910.108854,10149.278957,-4938.215606,8777.373585,3410.742093,17189.542018,4201.278591,-249.856003,-844.239990,-483.119995,1400.000000,3640.000000,0.000000
10113.739683,14417.053988,658.661206,1234.889178,8015.201451,5593.948733,11793.830907,-14875.778839,12260.356517,7046.230977,10170.848390,-4805.781520,8846.038144,3467.068489,17299.199676,4348.442477,-252.296005,-844.239990,-474.824005,1400.000000,2660.000000,-420.000000
10154.866893,14652.306098,801.868832,1393.430101,8198.686921,5644.553083,11920.185318,-14737.667410,12337.447684,7143.282252,10195.748233,-4653.543789,8920.424750,3508.419217,17441.848510,4523.747209,-247.416000,-847.656006,-477.752014,1680.000000,1820.000000,-980.000000
10133.588032,14697.121346,799.588954,1427.360049,8189.567410,5658.232350,11955.121095,-14720.501270,12337.246518,7105.485452,10205.113614,-4622.765437,8934.685163,3495.745778,17488.317786,4566.416689,-244.000000,-847.656006,-478.239990,1960.000000,1120.000000,-1540.000000
10089.599799,14573.382088,702.247107,1345.284444,8060.419030,5629.152731,11894.614922,-14803.873277,12279.936645,7015.519680,10192.931913,-4700.437748,8891.412186,3456.719632,17425.062349,4480.206010,-238.632004,-846.192017,-478.727997,1960.000000,420.000000,-2240.000000
10075.361738,14475.392041,641.584473,1280.263219,7980.064509,5604.409349,11843.608242,-14858.836217,12242.698639,6963.104840,10179.051480,-4773.572656,8853.548330,3433.518521,17360.666974,4395.939934,-239.119995,-849.119995,-479.216003,2240.000000,-280.000000,-2940.000000
10058.821447,14377.334938,586.241554,1213.856186,7904.873241,5583.108137,11790.344034,-14907.138337,12204.723025,6913.372208,10163.092335,-4849.345070,8817.785539,3411.055018,17288.113211,4309.282221,-236.192001,-845.703979,-477.264008,2380.000000,-700.000000,-3640.000000
10037.810807,14255.294413,517.286422,1133.144037,7816.226222,5559.504695,11724.652258,-14973.411259,12166.859170,6861.225588,10148.541349,-4929.319612,8777.507696,3391.810166,17212.698425,4215.337839,-235.216003,-847.656006,-478.239990,2520.000000,-1120.000000,-4200.000000
10040.895348,14204.086566,505.618811,1100.264621,7801.518774,5549.289948,11689.939998,-15006.603599,12166.523894,6877.140031,10151.447076,-4953.794772,8768.656405,3399.119186,17184.758745,4186.951123,-228.872009,-846.679993,-481.656006,2520.000000,-1540.000000,-4620.000000
10082.961331,14335.760693,615.321173,1186.631761,7944.055849,5575.083861,11745.305269,-14929.780654,12223.073807,6990.798651,10167.897960,-4862.599655,8820.065417,3442.928605,17256.664307,4292.831337,-230.824005,-844.728027,-483.119995,2660.000000,-1400.000000,-4900.000000
10138.058381,14582.300434,777.371320,1350.402993,8152.172941,5629.599765,11870.542094,-14782.013271,12309.239782,7118.605926,10186.382852,-4699.878955,8903.683293,3491.320132,17398.687291,4476.897952,-228.384003,-844.728027,-483.119995,2520.000000,-1680.000000,-4760.000000
10150.329489,14721.708265,840.179722,1447.476619,8229.487625,5666.793068,11956.730420,-14706.799651,12350.277585,7136.844949,10201.693797,-4604.548765,8950.174922,3505.513490,17498.152554,4584.588657,-228.384003,-841.799988,-484.584015,2660.000000,-1680.000000,-4760.000000
10109.179927,14629.529670,749.275178,1387.417482,8108.944667,5647.212940,11920.542946,-14776.760611,12307.675160,7044.219320,10194.652998,-4658.975263,8917.563727,3471.315321,17462.434466,4525.468293,-226.919998,-842.288025,-484.096008,2800.000000,-1540.000000,-4480.000000
10085.151802,14516.876878,673.972151,1310.393370,8007.601858,5616.613402,11863.478942,-14847.481531,12261.742325,6984.316645,10179.990253,-4738.100438,8875.833020,3444.381469,17391.355919,4437.223606,-228.384003,-843.264038,-485.559998,2660.000000,-1400.000000,-3920.000000
10076.322863,14425.279430,621.244385,1250.490695,7937.439732,5593.881678,11817.814328,-14894.084918,12229.332296,6941.378944,10167.205056,-4810.140110,8838.729124,3420.018067,17324.948886,4354.969186,-230.335999,-843.264038,-488.976013,2800.000000,-1680.000000,-3500.000000
10059.737868,14310.413815,555.396146,1172.997197,7849.999708,5571.172305,11755.050630,-14953.741724,12193.010711,6890.752243,10156.945605,-4890.137004,8799.770033,3396.772253,17248.684734,4261.605950,-230.824005,-841.312012,-487.024017,2660.000000,-1820.000000,-2660.000000
10048.807865,14217.139985,511.318506,1109.518243,7794.969713,5552.106267,11697.539591,-15006.134213,12170.994243,6874.681339,10151.290614,-4947.044545,8776.144239,3390.826689,17189.676129,4194.438958,-225.944000,-842.288025,-488.488007,2660.000000,-1820.000000,-2100.000000
10078.759203,14269.107791,569.991835,1142.867046,7875.279531,5562.969215,11712.761129,-14972.472486,12204.901839,6950.341994,10159.717221,-4905.805577,8801.178193,3423.706105,17216.565277,4239.209502,-230.335999,-844.728027,-491.416016,2660.000000,-2100.000000,-1260.000000
10137.723105,14493.273436,729.315070,1292.646085,8081.809650,5612.657143,11825.168052,-14834.651629,12293.258285,7088.565181,10182.404242,-4753.187865,8878.649340,3478.959617,17345.557194,4408.456911,-233.264008,-840.824036,-489.951996,2520.000000,-2240.000000,-280.000000
10167.138000,14699.043596,843.085449,1431.808046,8226.000753,5661.451001,11942.961746,-14716.410901,12361.296995,7157.565016,10206.275905,-4618.876233,8944.676393,3509.559156,17477.231321,4563.756831,-230.824005,-840.824036,-488.000000,2520.000000,-2520.000000,420.000000
10126.994267,14671.595653,786.803757,1414.999534,8154.095191,5657.539446,11945.487493,-14746.496349,12334.653715,7080.876181,10207.169975,-4635.237710,8933.388762,3482.267676,17484.942673,4554.682023,-230.824005,-840.335999,-487.024017,2100.000000,-2800.000000,1260.000000
10083.967159,14549.935108,691.920601,1331.113438,8037.240271,5626.582280,11886.344777,-14821.486452,12272.605273,6999.649942,10189.847373,-4717.514481,8886.025415,3448.181265,17419.921448,4465.163286,-233.751999,-839.359985,-488.976013,1680.000000,-2800.000000,1820.000000
10061.548360,14447.586471,627.145246,1260.280759,7955.566997,5602.062416,11833.192329,-14869.654461,12226.113644,6944.485837,10170.222541,-4796.103215,8843.624156,3421.895614,17351.055724,4377.879724,-228.872009,-841.799988,-486.536011,1400.000000,-2800.000000,2520.000000
10052.987641,14347.651821,565.409728,1191.750311,7879.571066,5583.108137,11782.811497,-14922.114005,12195.871734,6900.095272,10160.164256,-4867.047652,8806.296743,3401.823747,17282.324109,4289.947962,-231.800003,-843.752014,-487.511993,1400.000000,-2800.000000,3080.000000
10043.264633,14241.257517,502.377808,1120.135322,7804.670370,5562.902160,11723.467615,-14984.475372,12171.128353,6870.881542,10157.862026,-4930.951289,8774.467859,3390.916096,17214.508917,4207.782949,-235.216003,-840.335999,-484.584015,1400.000000,-2660.000000,3640.000000
10050.886577,14228.360561,516.280593,1111.216976,7825.770417,5559.236474,11707.307304,-14991.225599,12177.342138,6909.058322,10163.114686,-4929.252556,8781.486306,3408.506919,17203.511858,4207.402969,-233.751999,-841.312012,-485.071991,1260.000000,-2660.000000,4060.000000
10109.291686,14413.947095,657.789488,1233.324556,8008.071245,5597.100329,11795.082604,-14877.589330,12254.969746,7045.962756,10179.342053,-4802.361703,8849.413258,3463.201638,17307.536877,4348.956567,-234.727997,-838.384033,-483.119995,1120.000000,-2380.000000,4200.000000
10162.801762,14655.614156,806.585050,1395.084130,8195.892953,5651.526827,11923.068693,-14734.627573,12341.828625,7150.837141,10202.364350,-4643.932539,8929.387799,3509.022714,17452.711457,4527.547005,-236.680008,-841.312012,-482.632019,1120.000000,-2240.000000,4200.000000
10148.787218,14711.940552,809.267260,1440.100544,8197.368169,5669.408222,11968.666252,-14710.465337,12348.332983,7117.644801,10209.069873,-4603.833509,8948.766762,3500.529051,17510.669531,4580.498288,-237.167999,-838.872009,-482.144012,1120.000000,-2100.000000,4340.000000
10102.586162,14587.396632,705.152834,1358.382566,8065.381118,5639.434533,11910.372902,-14792.943274,12289.950227,7025.130931,10192.484879,-4685.037397,8902.319837,3461.122925,17450.766856,4496.723950,-238.143997,-839.848022,-483.119995,1540.000000,-1960.000000,4200.000000
10083.408366,14484.891532,639.103429,1289.762710,7980.355082,5614.333524,11856.214625,-14851.415438,12249.001831,6972.224351,10181.085489,-4759.692223,8861.974938,3435.776047,17381.252930,4409.753312,-240.096008,-837.895996,-481.656006,1680.000000,-1820.000000,4200.000000
10072.768935,14394.814002,587.202679,1233.637480,7917.256107,5596.139204,11813.053407,-14895.068395,12217.888202,6928.169063,10171.921274,-4825.048724,8827.083865,3419.034591,17318.779805,4326.940099,-240.096008,-840.335999,-480.679993,2100.000000,-1540.000000,3920.000000
10056.116886,14276.528570,521.868530,1158.893247,7833.101789,5574.681529,11754.290671,-14958.703811,12184.181772,6876.603589,10160.723050,-4901.424635,8789.912914,3403.410721,17248.774141,4234.739153,-243.512009,-839.848022,-478.239990,2520.000000,-1680.000000,3500.000000
10051.557130,14201.761985,497.572183,1109.272374,7800.959981,5560.309358,11708.022560,-14997.662902,12172.156533,6882.102118,10155.313928,-4942.060106,8773.529085,3404.394198,17204.987074,4192.717873,-244.488007,-839.359985,-476.776001,2940.000000,-1540.000000,3220.000000
10095.902991,14318.773367,605.017019,1180.529735,7931.315354,5581.945846,11750.155598,-14926.919630,12227.722970,6994.844317,10170.557817,-4859.693928,8819.774845,3443.018012,17260.553510,4283.577714,-244.000000,-840.824036,-474.824005,3360.000000,-1680.000000,2800.000000
10156.342108,14571.079859,773.571524,1349.911255,8143.344002,5637.512283,11878.186390,-14782.192085,12322.941401,7125.222042,10197.156393,-4695.274496,8904.264439,3493.488251,17405.482221,4466.169115,-243.024002,-840.335999,-478.727997,3780.000000,-1540.000000,2380.000000
10168.099125,14715.382721,841.789048,1452.326948,8225.441960,5674.012682,11966.006394,-14706.129099,12366.348489,7146.769124,10214.613106,-4600.257230,8951.560730,3508.285106,17504.835725,4578.352520,-244.000000,-838.872009,-474.335999,4200.000000,-1260.000000,2100.000000
10122.523918,14625.394598,752.940864,1393.631267,8104.429615,5655.617196,11928.813091,-14773.117277,12320.147433,7052.601224,10209.852184,-4656.896550,8919.664791,3472.209391,17469.385859,4522.450807,-244.000000,-836.919983,-476.776001,4760.000000,-980.000000,1260.000000
10100.350988,14520.117881,678.017816,1322.865644,8009.613515,5628.482178,11874.565408,-14836.328010,12274.885151,6992.497384,10197.379911,-4730.769066,8878.470526,3444.761448,17407.695044,4440.554016,-245.464005,-840.335999,-475.312012,4760.000000,-700.000000,700.000000
10082.246075,14422.396055,615.991725,1259.386690,7939.429038,5605.057550,11826.576212,-14880.875037,12232.841519,6941.870682,10179.543219,-4805.937982,8838.237386,3419.749846,17341.578584,4359.216018,-244.975998,-838.384033,-475.312012,5180.000000,-420.000000,140.000000
10060.095496,14305.764652,546.924835,1184.329532,7855.095906,5581.856439,11767.724069,-14939.280145,12193.010711,6890.685188,10165.595730,-4886.694835,8798.406577,3396.660494,17265.962632,4268.490287,-243.024002,-835.944031,-477.752014,5320.000000,0.000000,-280.000000
10050.528950,14211.194421,501.997829,1122.482255,7795.752024,5564.042099,11713.722254,-14989.683329,12171.240112,6872.647330,10158.174951,-4942.350679,8774.624321,3389.396177,17206.551696,4204.318429,-244.488007,-835.944031,-476.287994,5320.000000,280.000000,-840.000000
10081.933151,14262.066992,563.241609,1154.557008,7871.591493,5573.765108,11728.340295,-14958.726163,12206.399406,6947.905653,10169.641396,-4900.307047,8798.920667,3422.320297,17228.635219,4249.088973,-244.488007,-839.359985,-476.776001,5320.000000,560.000000,-1260.000000
10141.254680,14494.703948,730.656174,1309.521652,8085.497688,5622.491911,11842.691820,-14820.212402,12295.426404,7092.119109,10197.737539,-4745.521217,8879.811630,3480.881868,17357.873006,4419.968059,-243.024002,-835.944031,-479.704010,5320.000000,840.000000,-1680.000000
10173.664710,14702.038729,845.745307,1450.158829,8235.097913,5669.184705,11960.664327,-14700.876439,12361.788733,7161.945958,10216.624763,-4612.282468,8946.799808,3510.654391,17485.389708,4574.351558,-239.608002,-838.872009,-481.167999,5180.000000,1120.000000,-1960.000000
10142.461675,14679.686985,791.497623,1436.926596,8165.606340,5665.876647,11966.296967,-14725.485709,12343.259137,7085.570048,10214.255478,-4624.084189,8938.149683,3484.145222,17492.721080,4568.987139,-240.584000,-836.919983,-480.192017,4900.000000,1680.000000,-2380.000000
10110.878660,14558.272309,700.123692,1354.828638,8048.170274,5635.970013,11908.405949,-14801.124013,12290.732538,7009.574116,10196.798765,-4703.187013,8891.166316,3453.925664,17424.861184,4483.447013,-238.143997,-836.919983,-479.216003,5040.000000,1820.000000,-2520.000000
10096.014750,14460.438724,640.153961,1287.214611,7971.481439,5613.238289,11859.187407,-14851.214272,12250.253528,6961.316700,10181.554876,-4777.283046,8850.799066,3431.462161,17356.040163,4400.834966,-237.167999,-838.384033,-481.656006,4760.000000,2240.000000,-2660.000000
10077.529857,14355.765504,574.104556,1216.739561,7891.797470,5591.802966,11804.157413,-14904.165555,12211.763824,6910.846461,10170.736631,-4853.726012,8814.946868,3410.585631,17286.995624,4312.053837,-239.119995,-837.408020,-481.167999,4620.000000,2240.000000,-2660.000000
10062.285967,14245.459645,512.078465,1142.934101,7816.941478,5568.735965,11740.678458,-14966.795143,12180.560789,6876.402423,10160.097201,-4922.569385,8785.107289,3399.119186,17221.527364,4228.503016,-237.167999,-838.872009,-482.144012,4620.000000,2380.000000,-2660.000000
10077.328691,14232.674448,526.964727,1132.317022,7836.476903,5564.153858,11720.003095,-14975.758192,12194.798850,6918.177833,10161.885340,-4921.474149,8789.108251,3416.777064,17211.089100,4225.798455,-237.167999,-835.455994,-480.679993,4340.000000,2520.000000,-2520.000000
10129.832939,14414.327075,666.461964,1249.149591,8015.223803,5599.983704,11802.458680,-14867.419287,12269.230159,7050.030774,10180.191419,-4800.595915,8851.760191,3469.728347,17308.430947,4360.847695,-234.727997,-838.872009,-481.167999,4200.000000,2380.000000,-2380.000000
10169.999024,14653.848368,814.005830,1404.248345,8201.793814,5651.862103,11926.287344,-14730.179576,12345.114332,7153.586406,10204.711283,-4647.933501,8928.560785,3510.207356,17445.469492,4534.677212,-236.680008,-840.335999,-483.119995,4200.000000,2380.000000,-1960.000000
10153.123457,14715.181555,823.952356,1449.309462,8205.727721,5669.497629,11974.321243,-14700.943494,12350.925785,7123.076275,10214.031960,-4605.487538,8946.241015,3500.417292,17501.572371,4589.774262,-233.264008,-839.848022,-482.144012,4060.000000,2100.000000,-1680.000000
10112.197413,14598.997187,727.683392,1374.229953,8076.668748,5642.027335,11920.766463,-14778.459344,12297.773337,7029.154245,10202.341998,-4681.103490,8900.554049,3462.374623,17446.072989,4508.883299,-235.704010,-840.824036,-482.144012,3780.000000,1820.000000,-1260.000000
