Interval=	0.001 s
ExcelDateTime=	4.5771604988260631e+004	4/24/2025 14:31:10.985718
TimeFormat=	StartOfBlock
DateFormat=	
ChannelTitle=	Channel 2	Channel 3	Channel 4	Channel 5	Channel 6	Channel 7	Channel 8	Channel 9
Range=	112.50 mV	112.50 mV	112.50 mV	112.50 mV	112.50 mV	112.50 mV	112.50 mV	112.50 mV
0	0	-0.1054688	0.04570313	-0.05625	0.1863281	0.07382813	0.1300781	-0.00703125
0.001	0	-0.1054688	0.04570313	-0.05625	0.1863281	0.07382813	0.1300781	-0.00703125
0.002	0.1230469	0.0421875	0.1652344	0.1300781	0.3621094	0.2003906	0.2390625	0.1371094
0.003	0.2636719	0.2214844	0.3058594	0.3480469	0.5554688	0.3445313	0.3550781	0.2988281
0.004	0.3972656	0.3902344	0.4394531	0.5449219	0.7207031	0.4710938	0.45	0.4289063
0.005	0.4640625	0.4746094	0.50625	0.6503906	0.7980469	0.534375	0.4886719	0.4851563
0.006	0.4746094	0.478125	0.5097656	0.6609375	0.7804688	0.5308594	0.4640625	0.4746094
0.007	0.5097656	0.4886719	0.5273438	0.6539063	0.7523438	0.534375	0.4359375	0.4570313
0.008	0.5414063	0.4886719	0.5414063	0.6257813	0.7136719	0.534375	0.4148438	0.4289063
0.009	0.5132813	0.4148438	0.5027344	0.5167969	0.6011719	0.4957031	0.3550781	0.3515625
0.01	0.4570313	0.3199219	0.4394531	0.3796875	0.4675781	0.4394531	0.2882813	0.2636719
0.011	0.39375	0.2214844	0.3761719	0.2496094	0.3480469	0.3796875	0.2355469	0.1792969
0.012	0.2707031	0.06328125	0.2601563	0.06328125	0.1863281	0.2636719	0.1546875	0.05273438
0.013	0.06679688	-0.1511719	0.0703125	-0.1792969	-0.02109375	0.084375	0.01757813	-0.1195313
0.014	-0.1265625	-0.3375	-0.1054688	-0.3796875	-0.1898438	-0.08085938	-0.1019531	-0.2777344
0.015	-0.2179688	-0.4078125	-0.1757813	-0.4464844	-0.2214844	-0.1511719	-0.1300781	-0.3234375
0.016	-0.2355469	-0.3972656	-0.1863281	-0.4148438	-0.1757813	-0.1476563	-0.1125	-0.2917969
0.017	-0.1757813	-0.2988281	-0.1230469	-0.28125	-0.0421875	-0.0703125	-0.0421875	-0.1863281
0.018	-0.02460938	-0.1089844	0.02460938	-0.05273438	0.1792969	0.07382813	0.0984375	-0.00703125
0.019	0.1265625	0.0703125	0.1757813	0.1652344	0.3902344	0.2214844	0.2355469	0.1652344
0.02	0.28125	0.2496094	0.3199219	0.3832031	0.5871094	0.3621094	0.3480469	0.3199219
0.021	0.4253906	0.4148438	0.4605469	0.5800781	0.7558594	0.4886719	0.45	0.4535156
0.022	0.5132813	0.4992188	0.5378906	0.6820313	0.8296875	0.5484375	0.4992188	0.50625
0.023	0.5238281	0.50625	0.5378906	0.6855469	0.8050781	0.5378906	0.4675781	0.4886719
0.024	0.5132813	0.478125	0.5132813	0.6398438	0.7347656	0.5132813	0.4042969	0.4394531
0.025	0.4921875	0.4253906	0.4851563	0.5660156	0.646875	0.4851563	0.3480469	0.3867188
0.026	0.4605469	0.3445313	0.4429688	0.4464844	0.5238281	0.4394531	0.28125	0.3128906
0.027	0.4148438	0.2566406	0.39375	0.3199219	0.4042969	0.3902344	0.2214844	0.2320313
0.028	0.3515625	0.1617188	0.3339844	0.1863281	0.2847656	0.3304688	0.1757813	0.1476563
0.029	0.2390625	0.02460938	0.2285156	0.01054688	0.1300781	0.2214844	0.1089844	0.03164063
0.03	0.03515625	-0.1828125	0.03515625	-0.2179688	-0.0703125	0.03867188	-0.01757813	-0.140625
0.031	-0.1792969	-0.3832031	-0.1546875	-0.4183594	-0.2390625	-0.1265625	-0.1476563	-0.2988281
0.032	-0.2882813	-0.4640625	-0.2390625	-0.478125	-0.2847656	-0.196875	-0.1933594	-0.3445313
0.033	-0.28125	-0.4289063	-0.2285156	-0.421875	-0.2144531	-0.1757813	-0.1617188	-0.2953125
0.034	-0.16875	-0.28125	-0.1160156	-0.2355469	-0.02460938	-0.05976563	-0.04570313	-0.1476563
0.035	-0.003515625	-0.08085938	0.04570313	0.00703125	0.2074219	0.0984375	0.1054688	0.03867188
0.036	0.1863281	0.1335938	0.2285156	0.2566406	0.4429688	0.2671875	0.2601563	0.225
0.037	0.3726563	0.3410156	0.4042969	0.4992188	0.6644531	0.4289063	0.39375	0.3972656
0.038	0.4535156	0.4464844	0.4816406	0.6328125	0.7664063	0.5097656	0.4429688	0.4746094
0.039	0.4570313	0.45	0.478125	0.6539063	0.7628906	0.5097656	0.4183594	0.4675781
0.04	0.4640625	0.4394531	0.4746094	0.6398438	0.7277344	0.4957031	0.3761719	0.4394531
0.041	0.4746094	0.4183594	0.4675781	0.5976563	0.675	0.4851563	0.3339844	0.4007813
0.042	0.4675781	0.3726563	0.4464844	0.5167969	0.5871094	0.4605469	0.2882813	0.3445313
0.043	0.4710938	0.3269531	0.4359375	0.421875	0.4992188	0.4359375	0.2566406	0.2882813
0.044	0.4535156	0.2671875	0.4148438	0.3164063	0.4042969	0.4042969	0.225	0.2320313
0.045	0.3480469	0.1300781	0.3164063	0.1476563	0.2460938	0.309375	0.1476563	0.1195313
0.046	0.1546875	-0.07382813	0.140625	-0.08789063	0.028125	0.140625	0.0140625	-0.05273438
0.047	-0.07382813	-0.2988281	-0.06679688	-0.3269531	-0.1792969	-0.05273438	-0.1335938	-0.2425781
0.048	-0.2355469	-0.4429688	-0.2109375	-0.4640625	-0.2917969	-0.1792969	-0.2214844	-0.3480469
0.049	-0.2847656	-0.4640625	-0.2425781	-0.4710938	-0.2777344	-0.196875	-0.2179688	-0.3445313
0.05	-0.2144531	-0.3621094	-0.1652344	-0.3445313	-0.140625	-0.1195313	-0.1300781	-0.2320313
0.051	-0.04921875	-0.1546875	0	-0.1019531	0.1019531	0.03867188	0.028125	-0.03164063
0.052	0.0984375	0.02460938	0.1476563	0.1230469	0.3164063	0.1933594	0.16875	0.1441406
0.053	0.2390625	0.196875	0.2882813	0.3339844	0.5097656	0.3339844	0.2882813	0.2953125
0.054	0.3832031	0.3691406	0.4324219	0.5414063	0.6925781	0.4675781	0.3902344	0.4324219
0.055	0.4570313	0.4535156	0.4992188	0.646875	0.7734375	0.5238281	0.421875	0.4851563
0.056	0.4746094	0.4605469	0.4992188	0.6539063	0.7664063	0.5167969	0.39375	0.4710938
0.057	0.50625	0.4710938	0.5132813	0.6503906	0.7417969	0.5203125	0.3761719	0.4570313
0.058	0.5378906	0.4710938	0.5308594	0.6328125	0.7101563	0.5238281	0.365625	0.4429688
0.059	0.5203125	0.4078125	0.4992188	0.5308594	0.6117188	0.4886719	0.3199219	0.3726563
0.06	0.4675781	0.3058594	0.4394531	0.3902344	0.478125	0.4324219	0.2601563	0.28125
0.061	0.3972656	0.2074219	0.3726563	0.2496094	0.3480469	0.3691406	0.2074219	0.196875
0.062	0.2707031	0.05625	0.2496094	0.05625	0.1757813	0.2566406	0.1230469	0.0703125
0.063	0.05976563	-0.1582031	0.05273438	-0.1863281	-0.0421875	0.07734375	-0.0140625	-0.1125
0.064	-0.1441406	-0.3515625	-0.1265625	-0.3902344	-0.2214844	-0.09140625	-0.1441406	-0.2742188
0.065	-0.2425781	-0.4253906	-0.2074219	-0.4675781	-0.2777344	-0.1652344	-0.1792969	-0.3269531
0.066	-0.2636719	-0.4183594	-0.2144531	-0.4464844	-0.2425781	-0.1617188	-0.1582031	-0.3058594
0.067	-0.2074219	-0.3269531	-0.1476563	-0.3164063	-0.1160156	-0.09140625	-0.08085938	-0.2003906
0.068	-0.06328125	-0.1441406	-0.003515625	-0.084375	0.09492188	0.05273438	0.05625	-0.01757813
0.069	0.08085938	0.03515625	0.140625	0.1335938	0.2988281	0.2039063	0.196875	0.1476563
0.07	0.2390625	0.2214844	0.2882813	0.3550781	0.5027344	0.3550781	0.3234375	0.3058594
0.071	0.3867188	0.3867188	0.4289063	0.5414063	0.6785156	0.4816406	0.4289063	0.4359375
0.072	0.4675781	0.4746094	0.50625	0.6292969	0.7558594	0.5308594	0.4710938	0.4816406
0.073	0.4886719	0.4816406	0.5132813	0.6328125	0.7347656	0.5238281	0.4464844	0.4605469
0.074	0.4710938	0.4429688	0.4816406	0.590625	0.6644531	0.4957031	0.3867188	0.4113281
0.075	0.4464844	0.3867188	0.4429688	0.5167969	0.5660156	0.4605469	0.3269531	0.3515625
0.076	0.4113281	0.3058594	0.39375	0.3972656	0.4359375	0.4148438	0.2601563	0.2707031
0.077	0.365625	0.2179688	0.3445313	0.2742188	0.3128906	0.3585938	0.2039063	0.1863281
0.078	0.2988281	0.1195313	0.28125	0.1371094	0.1898438	0.2917969	0.1476563	0.1019531
0.079	0.1863281	-0.02109375	0.1722656	-0.03867188	0.03867188	0.1792969	0.07382813	-0.01054688
0.08	-0.01757813	-0.2320313	-0.0140625	-0.2636719	-0.1582031	0.003515625	-0.05273438	-0.1863281
0.081	-0.2320313	-0.421875	-0.2039063	-0.4535156	-0.3234375	-0.1582031	-0.1722656	-0.3410156
0.082	-0.3304688	-0.4886719	-0.28125	-0.5132813	-0.365625	-0.2179688	-0.2003906	-0.3832031
0.083	-0.3199219	-0.4464844	-0.2601563	-0.4535156	-0.2953125	-0.1863281	-0.1582031	-0.3269531
0.084	-0.2109375	-0.2988281	-0.1476563	-0.2671875	-0.1125	-0.06679688	-0.0421875	-0.1757813
0.085	-0.04921875	-0.0984375	0.0140625	-0.02460938	0.1195313	0.09492188	0.1019531	0.0140625
0.086	0.1265625	0.1019531	0.1898438	0.2109375	0.3445313	0.2566406	0.2460938	0.196875
0.087	0.3023438	0.2988281	0.3550781	0.4429688	0.5589844	0.4078125	0.3691406	0.3585938
0.088	0.4042969	0.4148438	0.45	0.5835938	0.6785156	0.4992188	0.4289063	0.4464844
0.089	0.421875	0.4324219	0.4605469	0.61875	0.6855469	0.50625	0.4253906	0.45
0.09	0.4324219	0.4183594	0.4464844	0.6046875	0.6539063	0.4851563	0.39375	0.4148438
0.091	0.4394531	0.39375	0.4394531	0.5625	0.6011719	0.4640625	0.3621094	0.3726563
0.092	0.4289063	0.3445313	0.4148438	0.478125	0.5097656	0.4394531	0.3164063	0.3164063
0.093	0.4148438	0.2882813	0.3972656	0.3691406	0.4078125	0.4113281	0.2742188	0.2566406
0.094	0.3867188	0.2285156	0.365625	0.2636719	0.3128906	0.3761719	0.2390625	0.2003906
0.095	0.2777344	0.0984375	0.2707031	0.09492188	0.1582031	0.2847656	0.1617188	0.08789063
0.096	0.084375	-0.1019531	0.09492188	-0.1371094	-0.04921875	0.1195313	0.028125	-0.084375
0.097	-0.1371094	-0.3269531	-0.1054688	-0.3726563	-0.2566406	-0.07382813	-0.1160156	-0.2742188
0.098	-0.3058594	-0.4710938	-0.2460938	-0.5132813	-0.3726563	-0.2003906	-0.2039063	-0.3902344
0.099	-0.3585938	-0.4957031	-0.2847656	-0.5273438	-0.365625	-0.2214844	-0.2074219	-0.3867188
0.1	-0.2917969	-0.4007813	-0.2144531	-0.4042969	-0.2320313	-0.1476563	-0.1265625	-0.2742188
0.101	-0.1195313	-0.1933594	-0.04570313	-0.1652344	0.01054688	0.01054688	0.03515625	-0.07382813
0.102	0.03515625	0	0.1054688	0.05976563	0.2355469	0.1652344	0.1792969	0.1054688
0.103	0.1792969	0.1652344	0.2460938	0.2707031	0.4324219	0.3023438	0.2917969	0.2566406
0.104	0.3269531	0.3375	0.3867188	0.4816406	0.61875	0.4359375	0.3972656	0.3972656
0.105	0.3972656	0.421875	0.4535156	0.5976563	0.703125	0.4992188	0.4429688	0.4570313
0.106	0.4042969	0.4253906	0.45	0.6046875	0.6890625	0.4921875	0.4148438	0.4429688
0.107	0.4324219	0.4289063	0.4605469	0.5976563	0.6644531	0.4851563	0.3832031	0.4148438
0.108	0.4675781	0.4289063	0.4816406	0.5730469	0.6328125	0.4816406	0.3726563	0.3832031
0.109	0.4394531	0.3585938	0.4394531	0.4675781	0.5203125	0.4394531	0.3128906	0.309375
0.11	0.3796875	0.253125	0.3691406	0.3199219	0.3796875	0.3761719	0.2390625	0.2179688
0.111	0.3164063	0.1511719	0.3058594	0.1863281	0.2566406	0.3128906	0.1792969	0.1371094
0.112	0.2003906	0.00703125	0.1933594	0.003515625	0.0984375	0.2109375	0.1019531	0.02460938
0.113	0.003515625	-0.196875	0.0140625	-0.2285156	-0.1019531	0.03515625	-0.028125	-0.140625
0.114	-0.1863281	-0.3832031	-0.1546875	-0.4253906	-0.2742188	-0.1265625	-0.1476563	-0.2953125
0.115	-0.2777344	-0.45	-0.2320313	-0.4921875	-0.3199219	-0.1933594	-0.1757813	-0.3410156
0.116	-0.2953125	-0.4429688	-0.2390625	-0.4640625	-0.2777344	-0.1863281	-0.1546875	-0.309375
0.117	-0.2355469	-0.3480469	-0.16875	-0.3304688	-0.1511719	-0.1089844	-0.08085938	-0.2074219
0.118	-0.09492188	-0.1617188	-0.02460938	-0.1019531	0.06328125	0.03515625	0.05273438	-0.028125
0.119	0.04570313	0.01757813	0.1160156	0.1125	0.2671875	0.1792969	0.1792969	0.1371094
0.12	0.1933594	0.1933594	0.2566406	0.3304688	0.4675781	0.3164063	0.3023438	0.2882813
0.121	0.3304688	0.3550781	0.3867188	0.5273438	0.6398438	0.4394531	0.4113281	0.4183594
0.122	0.4078125	0.4359375	0.4535156	0.61875	0.7171875	0.4921875	0.4535156	0.4675781
0.123	0.421875	0.4324219	0.4570313	0.6152344	0.6960938	0.4816406	0.421875	0.4429688
0.124	0.4078125	0.3972656	0.4324219	0.5695313	0.6292969	0.45	0.3621094	0.39375
0.125	0.3902344	0.3445313	0.4078125	0.4957031	0.5484375	0.4148438	0.3058594	0.3339844
0.126	0.3621094	0.2636719	0.3691406	0.3796875	0.4324219	0.3691406	0.2460938	0.2601563
0.127	0.3234375	0.1792969	0.3199219	0.2566406	0.3234375	0.3234375	0.1933594	0.1792969
0.128	0.2707031	0.09140625	0.2601563	0.1230469	0.2109375	0.2671875	0.1511719	0.1054688
0.129	0.1617188	-0.03515625	0.1582031	-0.04921875	0.06328125	0.16875	0.084375	0
0.13	-0.03515625	-0.2355469	-0.01757813	-0.28125	-0.1335938	0	-0.0421875	-0.1722656
0.131	-0.2496094	-0.421875	-0.2003906	-0.478125	-0.3023438	-0.1652344	-0.16875	-0.3304688
0.132	-0.3585938	-0.4921875	-0.2847656	-0.5414063	-0.3480469	-0.2285156	-0.2144531	-0.3761719
0.133	-0.3515625	-0.4570313	-0.2671875	-0.4816406	-0.2847656	-0.2039063	-0.1898438	-0.3199219
0.134	-0.2425781	-0.3164063	-0.1582031	-0.2953125	-0.1089844	-0.08789063	-0.084375	-0.1722656
0.135	-0.08085938	-0.1160156	0	-0.05625	0.1160156	0.06679688	0.05625	0.0140625
0.136	0.084375	0.07734375	0.1617188	0.1722656	0.3445313	0.225	0.2039063	0.1898438
0.137	0.2566406	0.2742188	0.3304688	0.4042969	0.5660156	0.3761719	0.3375	0.3550781
0.138	0.3550781	0.3867188	0.421875	0.5449219	0.6855469	0.4605469	0.4007813	0.4394531
0.139	0.365625	0.4007813	0.4253906	0.5695313	0.6785156	0.4640625	0.3867188	0.4289063
0.14	0.3621094	0.3761719	0.4042969	0.5414063	0.6222656	0.4359375	0.3339844	0.3902344
0.141	0.3550781	0.3480469	0.3832031	0.4957031	0.5554688	0.4148438	0.2847656	0.3410156
0.142	0.3410156	0.2953125	0.3550781	0.4113281	0.4535156	0.3796875	0.2285156	0.28125
0.143	0.3304688	0.2355469	0.3339844	0.309375	0.3515625	0.3480469	0.1828125	0.2214844
0.144	0.309375	0.1722656	0.309375	0.2074219	0.2636719	0.3128906	0.1511719	0.1546875
0.145	0.2109375	0.0421875	0.2144531	0.0421875	0.1230469	0.225	0.084375	0.04921875
0.146	0.02460938	-0.1617188	0.04570313	-0.1792969	-0.07382813	0.0703125	-0.028125	-0.1125
0.147	-0.196875	-0.3796875	-0.1546875	-0.4148438	-0.2847656	-0.1125	-0.1792969	-0.2988281
0.148	-0.3585938	-0.5167969	-0.2953125	-0.5589844	-0.4007813	-0.2355469	-0.2707031	-0.4042969
0.149	-0.4078125	-0.5378906	-0.3269531	-0.5660156	-0.3902344	-0.2601563	-0.2777344	-0.4007813
0.15	-0.3410156	-0.4429688	-0.2566406	-0.4429688	-0.2601563	-0.1863281	-0.1933594	-0.2953125
0.151	-0.1722656	-0.2390625	-0.09140625	-0.2039063	-0.02460938	-0.02460938	-0.028125	-0.0984375
0.152	-0.0140625	-0.04921875	0.05976563	0.02460938	0.1898438	0.1230469	0.1125	0.07382813
0.153	0.1265625	0.1160156	0.2003906	0.2390625	0.3867188	0.2601563	0.2285156	0.2285156
0.154	0.2742188	0.2882813	0.3375	0.4464844	0.5730469	0.39375	0.3410156	0.3691406
0.155	0.3410156	0.3691406	0.3972656	0.5449219	0.6539063	0.4464844	0.3796875	0.4183594
0.156	0.3445313	0.3691406	0.39375	0.5519531	0.6398438	0.4324219	0.3480469	0.3972656
0.157	0.3761719	0.3796875	0.4078125	0.5484375	0.61875	0.4359375	0.3234375	0.3796875
0.158	0.4078125	0.3832031	0.4253906	0.5238281	0.5800781	0.4324219	0.3023438	0.3515625
0.159	0.3832031	0.3199219	0.3902344	0.421875	0.4746094	0.39375	0.2460938	0.28125
0.16	0.3339844	0.2214844	0.3304688	0.2847656	0.3410156	0.3339844	0.1792969	0.1933594
0.161	0.2707031	0.1300781	0.2707031	0.1511719	0.2214844	0.2777344	0.1265625	0.1125
0.162	0.1511719	-0.01054688	0.1652344	-0.02109375	0.05625	0.1757813	0.04570313	0
0.163	-0.04570313	-0.2179688	-0.0140625	-0.253125	-0.1546875	0.00703125	-0.084375	-0.1722656
0.164	-0.2496094	-0.4042969	-0.1933594	-0.45	-0.3304688	-0.1511719	-0.2109375	-0.3304688
0.165	-0.3445313	-0.4746094	-0.2636719	-0.5167969	-0.3726563	-0.2214844	-0.2390625	-0.3726563
0.166	-0.3621094	-0.4605469	-0.2671875	-0.4816406	-0.3234375	-0.2144531	-0.2144531	-0.3410156
0.167	-0.2988281	-0.3691406	-0.2003906	-0.3515625	-0.1828125	-0.1371094	-0.140625	-0.2390625
0.168	-0.1546875	-0.1863281	-0.05625	-0.1230469	0.03515625	0.00703125	0	-0.05976563
0.169	-0.00703125	-0.00703125	0.084375	0.0984375	0.2460938	0.1546875	0.1371094	0.1019531
0.17	0.1511719	0.1722656	0.2390625	0.3269531	0.45	0.3058594	0.2601563	0.2601563
0.171	0.2917969	0.3269531	0.3691406	0.5132813	0.6117188	0.421875	0.3515625	0.3867188
0.172	0.3550781	0.39375	0.421875	0.590625	0.6679688	0.4570313	0.3726563	0.4183594
0.173	0.3691406	0.39375	0.4253906	0.590625	0.6433594	0.45	0.3375	0.3972656
0.174	0.3585938	0.3621094	0.4042969	0.5484375	0.5871094	0.4253906	0.2847656	0.3515625
0.175	0.3410156	0.309375	0.3726563	0.4746094	0.5097656	0.3902344	0.2320313	0.2917969
0.176	0.3164063	0.2355469	0.3339844	0.3515625	0.4007813	0.3445313	0.1792969	0.2144531
0.177	0.2777344	0.1617188	0.2882813	0.2285156	0.2917969	0.2988281	0.1335938	0.1300781
0.178	0.2144531	0.0703125	0.2285156	0.0984375	0.1757813	0.2425781	0.084375	0.04921875
0.179	0.1054688	-0.06328125	0.1265625	-0.0703125	0.03164063	0.1371094	0.0140625	-0.05273438
0.18	-0.08789063	-0.2601563	-0.04921875	-0.2917969	-0.1546875	-0.028125	-0.1125	-0.2214844
0.181	-0.2953125	-0.4464844	-0.2285156	-0.478125	-0.3164063	-0.1863281	-0.2390625	-0.365625
0.182	-0.39375	-0.5167969	-0.309375	-0.534375	-0.3515625	-0.2460938	-0.2742188	-0.4042969
0.183	-0.3796875	-0.478125	-0.2882813	-0.4710938	-0.2777344	-0.2179688	-0.2285156	-0.3480469
0.184	-0.2707031	-0.3304688	-0.1722656	-0.2847656	-0.09492188	-0.0984375	-0.1054688	-0.2003906
0.185	-0.1054688	-0.1265625	-0.00703125	-0.0421875	0.1335938	0.05976563	0.04921875	-0.0140625
0.186	0.0703125	0.08085938	0.1652344	0.1933594	0.3585938	0.225	0.196875	0.16875
0.187	0.2460938	0.28125	0.3339844	0.4289063	0.5730469	0.3832031	0.3304688	0.3339844
0.188	0.3304688	0.3832031	0.4113281	0.5625	0.6820313	0.4570313	0.3832031	0.4078125
0.189	0.3375	0.3867188	0.4042969	0.5800781	0.6785156	0.4464844	0.3585938	0.3972656
0.19	0.3410156	0.3726563	0.39375	0.5660156	0.646875	0.4289063	0.3199219	0.3691406
0.191	0.3445313	0.3480469	0.3796875	0.5273438	0.5976563	0.4113281	0.2847656	0.3304688
0.192	0.3339844	0.2988281	0.3515625	0.4429688	0.50625	0.3832031	0.2425781	0.2707031
0.193	0.3234375	0.2425781	0.3339844	0.3375	0.4042969	0.3550781	0.2003906	0.2109375
0.194	0.3058594	0.1828125	0.3058594	0.2320313	0.3128906	0.3164063	0.1652344	0.1476563
0.195	0.2074219	0.05625	0.2179688	0.06679688	0.1652344	0.2285156	0.09140625	0.03515625
0.196	0.01757813	-0.140625	0.04921875	-0.1582031	-0.03515625	0.0703125	-0.03515625	-0.1300781
0.197	-0.2074219	-0.365625	-0.1511719	-0.3902344	-0.2355469	-0.1160156	-0.1828125	-0.3128906
0.198	-0.3726563	-0.5027344	-0.2917969	-0.5203125	-0.3445313	-0.2355469	-0.2707031	-0.4148438
0.199	-0.421875	-0.5238281	-0.3269531	-0.5273438	-0.3375	-0.253125	-0.2671875	-0.4113281
0.2	-0.3515625	-0.421875	-0.253125	-0.4042969	-0.2074219	-0.1722656	-0.1757813	-0.3023438
0.201	-0.1757813	-0.2179688	-0.08085938	-0.1617188	0.03164063	-0.01054688	-0.003515625	-0.1054688
0.202	-0.01757813	-0.028125	0.0703125	0.06679688	0.2496094	0.140625	0.1371094	0.0703125
0.203	0.1230469	0.1371094	0.2109375	0.2777344	0.4464844	0.2777344	0.2496094	0.2214844
0.204	0.2671875	0.3023438	0.3445313	0.4816406	0.6222656	0.4007813	0.3445313	0.3585938
0.205	0.3269531	0.3726563	0.3972656	0.5765625	0.6890625	0.4464844	0.3726563	0.4042969
0.206	0.3304688	0.3726563	0.39375	0.5871094	0.6644531	0.4359375	0.3410156	0.3832031
0.207	0.3515625	0.3832031	0.3972656	0.5800781	0.6292969	0.4359375	0.309375	0.365625
0.208	0.3761719	0.3761719	0.4078125	0.5484375	0.5835938	0.4359375	0.2847656	0.3410156
0.209	0.3480469	0.309375	0.3726563	0.4394531	0.4675781	0.39375	0.2214844	0.2671875
0.21	0.2917969	0.2144531	0.3128906	0.3023438	0.3339844	0.3339844	0.1546875	0.1722656
0.211	0.2320313	0.1230469	0.2566406	0.1722656	0.2214844	0.28125	0.1054688	0.09492188
0.212	0.1265625	-0.01757813	0.1546875	0	0.07382813	0.1792969	0.03867188	-0.01054688
0.213	-0.05625	-0.2214844	-0.01757813	-0.2285156	-0.1195313	0.0140625	-0.084375	-0.1828125
0.214	-0.2460938	-0.4078125	-0.1898438	-0.421875	-0.2917969	-0.1476563	-0.2003906	-0.3445313
0.215	-0.3375	-0.4710938	-0.2636719	-0.4886719	-0.3339844	-0.2144531	-0.225	-0.3902344
0.216	-0.3515625	-0.4535156	-0.2671875	-0.4605469	-0.2882813	-0.2039063	-0.2003906	-0.3550781
0.217	-0.2917969	-0.3550781	-0.2003906	-0.3304688	-0.1582031	-0.1230469	-0.1230469	-0.2425781
0.218	-0.1476563	-0.16875	-0.05273438	-0.1054688	0.05976563	0.02460938	0.01054688	-0.06328125
0.219	0	0.00703125	0.09140625	0.1125	0.2671875	0.1757813	0.140625	0.1089844
0.22	0.1476563	0.1863281	0.2355469	0.3339844	0.4675781	0.3128906	0.2601563	0.2636719
0.221	0.2847656	0.3445313	0.3691406	0.5273438	0.6328125	0.4324219	0.3585938	0.3902344
0.222	0.3585938	0.4253906	0.4359375	0.6152344	0.6996094	0.478125	0.3972656	0.4359375
0.223	0.3726563	0.4253906	0.4359375	0.6117188	0.6785156	0.4675781	0.3691406	0.4148438
0.224	0.3621094	0.3902344	0.4113281	0.5660156	0.6082031	0.4359375	0.3128906	0.3621094
0.225	0.3445313	0.3375	0.3832031	0.4886719	0.5238281	0.4007813	0.2566406	0.2988281
0.226	0.3128906	0.2566406	0.3410156	0.365625	0.4078125	0.3550781	0.1898438	0.2144531
0.227	0.2742188	0.1722656	0.2917969	0.2355469	0.2882813	0.3023438	0.1371094	0.1300781
0.228	0.2109375	0.07382813	0.2320313	0.0984375	0.1722656	0.2355469	0.084375	0.04570313
0.229	0.0984375	-0.05273438	0.1265625	-0.07382813	0.02460938	0.1371094	0.01054688	-0.05976563
0.23	-0.09140625	-0.2496094	-0.04570313	-0.2988281	-0.1617188	-0.02109375	-0.1125	-0.225
0.231	-0.2917969	-0.4359375	-0.2285156	-0.4816406	-0.3199219	-0.1792969	-0.225	-0.3761719
0.232	-0.3902344	-0.5027344	-0.3128906	-0.5378906	-0.3585938	-0.2390625	-0.2601563	-0.4148438
0.233	-0.3867188	-0.4605469	-0.2988281	-0.4746094	-0.2917969	-0.2144531	-0.225	-0.3621094
0.234	-0.2847656	-0.3199219	-0.1863281	-0.2917969	-0.1195313	-0.0984375	-0.1230469	-0.2144531
0.235	-0.1265625	-0.1195313	-0.02460938	-0.05625	0.09492188	0.05273438	0.0140625	-0.03164063
0.236	0.04570313	0.07382813	0.1371094	0.1757813	0.3058594	0.2074219	0.1511719	0.140625
0.237	0.2109375	0.2636719	0.3023438	0.4078125	0.5097656	0.3480469	0.28125	0.3058594
0.238	0.2988281	0.3726563	0.39375	0.5554688	0.6222656	0.4324219	0.3410156	0.3972656
0.239	0.3058594	0.3832031	0.39375	0.5835938	0.6222656	0.4394531	0.3269531	0.3972656
0.24	0.3023438	0.3585938	0.3761719	0.5660156	0.5765625	0.4183594	0.2882813	0.3585938
0.241	0.3058594	0.3304688	0.3621094	0.5203125	0.5203125	0.3972656	0.2460938	0.3164063
0.242	0.3058594	0.2847656	0.3375	0.4394531	0.4394531	0.365625	0.2039063	0.253125
0.243	0.3058594	0.2285156	0.3199219	0.3339844	0.3445313	0.3339844	0.1652344	0.1863281
0.244	0.2882813	0.16875	0.2988281	0.2285156	0.253125	0.2953125	0.1300781	0.1230469
0.245	0.1933594	0.0421875	0.2039063	0.06328125	0.1125	0.2074219	0.06679688	0.01757813
0.246	0.01757813	-0.1582031	0.03867188	-0.1582031	-0.07734375	0.04921875	-0.04570313	-0.1476563
0.247	-0.2003906	-0.3726563	-0.1511719	-0.3902344	-0.28125	-0.1300781	-0.1898438	-0.3199219
0.248	-0.3691406	-0.50625	-0.2917969	-0.5273438	-0.3972656	-0.2460938	-0.28125	-0.4183594
0.249	-0.4183594	-0.5273438	-0.3269531	-0.5378906	-0.3902344	-0.2636719	-0.28125	-0.4183594
0.25	-0.3480469	-0.4324219	-0.253125	-0.4183594	-0.2566406	-0.1933594	-0.196875	-0.3199219
0.251	-0.1828125	-0.2320313	-0.08789063	-0.1792969	-0.0140625	-0.03867188	-0.03867188	-0.1300781
0.252	-0.03164063	-0.04570313	0.06328125	0.0421875	0.2003906	0.1089844	0.09140625	0.03867188
0.253	0.09140625	0.1089844	0.1898438	0.2460938	0.3832031	0.2355469	0.196875	0.1863281
0.254	0.2320313	0.2707031	0.3199219	0.4464844	0.5589844	0.3585938	0.2988281	0.3199219
0.255	0.3128906	0.3585938	0.3902344	0.5589844	0.6433594	0.4183594	0.3445313	0.3796875
0.256	0.3199219	0.3585938	0.3867188	0.5730469	0.6257813	0.4113281	0.3199219	0.365625
0.257	0.3375	0.3585938	0.3832031	0.5625	0.5871094	0.4042969	0.28125	0.3410156
0.258	0.3621094	0.3550781	0.39375	0.5308594	0.5414063	0.4078125	0.2566406	0.3199219
0.259	0.3339844	0.2847656	0.3550781	0.4289063	0.4324219	0.3691406	0.196875	0.2496094
0.26	0.2742188	0.1828125	0.2917969	0.2917969	0.2988281	0.309375	0.1265625	0.1546875
0.261	0.2144531	0.08789063	0.2320313	0.1582031	0.1828125	0.2460938	0.07734375	0.06679688
0.262	0.1019531	-0.04570313	0.1300781	-0.0140625	0.03164063	0.1441406	0.003515625	-0.04570313
0.263	-0.08085938	-0.2425781	-0.03515625	-0.2390625	-0.16875	-0.01757813	-0.1195313	-0.2214844
0.264	-0.2707031	-0.421875	-0.2039063	-0.4359375	-0.3375	-0.1757813	-0.2390625	-0.3726563
0.265	-0.3621094	-0.4921875	-0.2777344	-0.5027344	-0.3832031	-0.2460938	-0.2671875	-0.4183594
0.266	-0.3761719	-0.4816406	-0.28125	-0.4675781	-0.3375	-0.2390625	-0.2460938	-0.3867188
0.267	-0.3128906	-0.3867188	-0.2109375	-0.3375	-0.2003906	-0.1617188	-0.16875	-0.28125
0.268	-0.16875	-0.2003906	-0.06679688	-0.1089844	0.02460938	-0.01054688	-0.02460938	-0.09492188
0.269	-0.0140625	-0.01757813	0.08085938	0.1125	0.2390625	0.1335938	0.1125	0.07734375
0.27	0.140625	0.1652344	0.2285156	0.3410156	0.45	0.28125	0.2425781	0.2425781
0.271	0.2917969	0.3304688	0.365625	0.5414063	0.6257813	0.4042969	0.3515625	0.3726563
0.272	0.365625	0.4078125	0.4324219	0.6328125	0.6960938	0.45	0.39375	0.4148438
0.273	0.3761719	0.4078125	0.4289063	0.6328125	0.675	0.4394531	0.365625	0.3902344
0.274	0.365625	0.3726563	0.4042969	0.5871094	0.6046875	0.4113281	0.3023438	0.3410156
0.275	0.3445313	0.3164063	0.3691406	0.5132813	0.5167969	0.3761719	0.2390625	0.28125
0.276	0.309375	0.2390625	0.3199219	0.39375	0.3972656	0.3269531	0.1722656	0.2003906
0.277	0.2636719	0.1511719	0.2742188	0.2636719	0.2777344	0.2742188	0.1125	0.1125
0.278	0.2039063	0.06328125	0.2144531	0.1265625	0.1582031	0.2179688	0.06328125	0.03164063
0.279	0.09140625	-0.06328125	0.1160156	-0.04570313	0.003515625	0.1195313	-0.003515625	-0.08085938
0.28	-0.1019531	-0.2707031	-0.05976563	-0.2707031	-0.1898438	-0.04921875	-0.1335938	-0.253125
0.281	-0.309375	-0.4570313	-0.2390625	-0.4570313	-0.3515625	-0.2109375	-0.253125	-0.4042969
0.282	-0.4042969	-0.5273438	-0.3128906	-0.5097656	-0.3867188	-0.2742188	-0.2847656	-0.4394531
0.283	-0.3867188	-0.4886719	-0.2953125	-0.4464844	-0.3128906	-0.2425781	-0.2425781	-0.3796875
0.284	-0.2742188	-0.3375	-0.1792969	-0.2636719	-0.1265625	-0.1265625	-0.1230469	-0.2285156
0.285	-0.1089844	-0.1335938	-0.01054688	-0.01757813	0.1054688	0.03164063	0.028125	-0.03515625
0.286	0.07734375	0.07734375	0.1617188	0.2214844	0.3339844	0.2003906	0.1828125	0.1476563
0.287	0.2566406	0.2847656	0.3375	0.4605469	0.5519531	0.3585938	0.3164063	0.3164063
0.288	0.3375	0.3832031	0.4113281	0.5941406	0.6574219	0.4324219	0.3726563	0.39375
0.289	0.3375	0.3832031	0.4007813	0.6082031	0.6539063	0.421875	0.3515625	0.3761719
0.29	0.3410156	0.365625	0.3832031	0.5871094	0.6117188	0.3972656	0.2988281	0.3375
0.291	0.3410156	0.3375	0.3691406	0.5414063	0.5519531	0.3761719	0.253125	0.2882813
0.292	0.3199219	0.2847656	0.3410156	0.45	0.4570313	0.3480469	0.2003906	0.2214844
0.293	0.3058594	0.2285156	0.3199219	0.3410156	0.3515625	0.3164063	0.1546875	0.1582031
0.294	0.28125	0.1652344	0.2917969	0.2355469	0.253125	0.2777344	0.1230469	0.09492188
0.295	0.1792969	0.03867188	0.196875	0.07382813	0.1089844	0.196875	0.05625	-0.003515625
0.296	0	-0.1582031	0.03164063	-0.1476563	-0.08789063	0.0421875	-0.05625	-0.1652344
0.297	-0.2109375	-0.3796875	-0.1652344	-0.3796875	-0.2882813	-0.1441406	-0.2039063	-0.3480469
0.298	-0.3726563	-0.5203125	-0.3023438	-0.5203125	-0.3972656	-0.2707031	-0.2917969	-0.4535156
0.299	-0.421875	-0.5414063	-0.3375	-0.5308594	-0.3867188	-0.2882813	-0.2917969	-0.4570313
0.3	-0.3515625	-0.4464844	-0.2636719	-0.4113281	-0.2566406	-0.2144531	-0.2109375	-0.3550781
0.301	-0.1863281	-0.2390625	-0.0984375	-0.1722656	-0.0140625	-0.05273438	-0.04921875	-0.1582031
0.302	-0.03164063	-0.04921875	0.04921875	0.05273438	0.2003906	0.0984375	0.09492188	0.0140625
0.303	0.0984375	0.1089844	0.1792969	0.2566406	0.3867188	0.225	0.2039063	0.1617188
0.304	0.2460938	0.2742188	0.3164063	0.4640625	0.5695313	0.3585938	0.3058594	0.3058594
0.305	0.309375	0.3550781	0.3796875	0.5660156	0.646875	0.4148438	0.3445313	0.3621094
0.306	0.3128906	0.3515625	0.3691406	0.5660156	0.6328125	0.3972656	0.3128906	0.3445313
0.307	0.3339844	0.3480469	0.3726563	0.5554688	0.6011719	0.3867188	0.2742188	0.3128906
0.308	0.3585938	0.3445313	0.3832031	0.5273438	0.5554688	0.3796875	0.2425781	0.2847656
0.309	0.3269531	0.2742188	0.3410156	0.4253906	0.4429688	0.3410156	0.1828125	0.2144531
0.31	0.2636719	0.1722656	0.2742188	0.28125	0.2988281	0.28125	0.1125	0.1265625
0.311	0.2003906	0.07734375	0.2109375	0.1441406	0.1757813	0.2214844	0.05625	0.03867188
0.312	0.08789063	-0.06328125	0.1019531	-0.028125	0.02109375	0.1265625	-0.0140625	-0.0703125
0.313	-0.1019531	-0.2707031	-0.0703125	-0.253125	-0.1722656	-0.03515625	-0.140625	-0.2425781
0.314	-0.2953125	-0.4605469	-0.2425781	-0.45	-0.3410156	-0.2003906	-0.2636719	-0.4007813
0.315	-0.3867188	-0.5308594	-0.3199219	-0.5167969	-0.3832031	-0.2671875	-0.2917969	-0.45
0.316	-0.39375	-0.5132813	-0.3199219	-0.4851563	-0.3375	-0.2601563	-0.2636719	-0.4148438
0.317	-0.3269531	-0.4148438	-0.2496094	-0.3515625	-0.196875	-0.1828125	-0.1792969	-0.309375
0.318	-0.1792969	-0.2285156	-0.0984375	-0.1230469	0.02460938	-0.03164063	-0.03164063	-0.1300781
0.319	-0.028125	-0.03867188	0.04921875	0.09492188	0.2355469	0.1125	0.0984375	0.03515625
0.32	0.1195313	0.1371094	0.1933594	0.309375	0.4324219	0.2496094	0.2179688	0.1863281
0.321	0.2671875	0.2988281	0.3304688	0.50625	0.6046875	0.3726563	0.3199219	0.3199219
0.322	0.3515625	0.3832031	0.4042969	0.6082031	0.6820313	0.4324219	0.365625	0.3796875
0.323	0.365625	0.3867188	0.4042969	0.6117188	0.6609375	0.4253906	0.3445313	0.365625
0.324	0.3550781	0.3550781	0.3796875	0.5625	0.5941406	0.4007813	0.2953125	0.3128906
0.325	0.3339844	0.309375	0.3480469	0.478125	0.50625	0.365625	0.2320313	0.2496094
0.326	0.2988281	0.2285156	0.3023438	0.3550781	0.3761719	0.3199219	0.1617188	0.1617188
0.327	0.253125	0.140625	0.253125	0.2320313	0.2566406	0.2671875	0.1054688	0.08085938
0.328	0.1933594	0.04921875	0.196875	0.0984375	0.140625	0.2109375	0.05273438	0.00703125
0.329	0.08789063	-0.08085938	0.1019531	-0.07382813	-0.003515625	0.1125	-0.0140625	-0.1054688
0.33	-0.1019531	-0.28125	-0.0703125	-0.2953125	-0.196875	-0.05625	-0.1476563	-0.2777344
0.331	-0.309375	-0.4675781	-0.2496094	-0.4816406	-0.3621094	-0.2179688	-0.2707031	-0.4289063
0.332	-0.4042969	-0.5378906	-0.3304688	-0.5378906	-0.4007813	-0.2777344	-0.2988281	-0.4675781
0.333	-0.39375	-0.5027344	-0.3128906	-0.4746094	-0.3234375	-0.2496094	-0.253125	-0.4113281
0.334	-0.28125	-0.3585938	-0.2003906	-0.2882813	-0.1335938	-0.1335938	-0.1335938	-0.2636719
0.335	-0.1125	-0.1582031	-0.03164063	-0.04570313	0.0984375	0.02460938	0.01757813	-0.07382813
0.336	0.06328125	0.04921875	0.1371094	0.1898438	0.3234375	0.1863281	0.1722656	0.1054688
0.337	0.2390625	0.2496094	0.3023438	0.4253906	0.5449219	0.3410156	0.3058594	0.2742188
0.338	0.3234375	0.3550781	0.3832031	0.5589844	0.6574219	0.421875	0.3621094	0.3585938
0.339	0.3269531	0.3550781	0.3761719	0.5765625	0.6539063	0.4113281	0.3410156	0.3445313
0.34	0.3269531	0.3339844	0.3585938	0.5449219	0.6082031	0.39375	0.2988281	0.2988281
0.341	0.3269531	0.309375	0.3480469	0.4992188	0.5484375	0.3726563	0.2566406	0.2496094
0.342	0.3128906	0.2566406	0.3234375	0.4148438	0.4570313	0.3375	0.2074219	0.1898438
0.343	0.3058594	0.196875	0.2988281	0.309375	0.3550781	0.3058594	0.1652344	0.1300781
0.344	0.2847656	0.140625	0.2707031	0.2039063	0.2601563	0.2707031	0.1300781	0.0703125
0.345	0.1898438	0.01757813	0.1863281	0.04570313	0.1125	0.1863281	0.05976563	-0.03164063
0.346	0.0140625	-0.1757813	0.02460938	-0.1757813	-0.08789063	0.03515625	-0.06328125	-0.1933594
0.347	-0.2039063	-0.39375	-0.16875	-0.4042969	-0.2953125	-0.1441406	-0.2109375	-0.3761719
0.348	-0.3691406	-0.5378906	-0.309375	-0.5414063	-0.4113281	-0.2601563	-0.3023438	-0.4746094
0.349	-0.4148438	-0.5589844	-0.3445313	-0.5519531	-0.4078125	-0.28125	-0.3023438	-0.4710938
0.35	-0.3515625	-0.4640625	-0.2707031	-0.4324219	-0.2847656	-0.2109375	-0.2214844	-0.3691406
0.351	-0.1898438	-0.2671875	-0.1054688	-0.2003906	-0.05273438	-0.05273438	-0.06679688	-0.1792969
0.352	-0.03867188	-0.084375	0.03867188	0.02460938	0.1582031	0.09140625	0.0703125	0
0.353	0.1019531	0.084375	0.1757813	0.2355469	0.3445313	0.2285156	0.1863281	0.1511719
0.354	0.2496094	0.2566406	0.3199219	0.4429688	0.5273438	0.3621094	0.2917969	0.2917969
0.355	0.3164063	0.3375	0.3796875	0.5449219	0.6082031	0.4183594	0.3304688	0.3515625
0.356	0.3199219	0.3410156	0.3726563	0.5484375	0.590625	0.4113281	0.2988281	0.3339844
0.357	0.3375	0.3410156	0.3761719	0.5378906	0.5589844	0.4078125	0.2671875	0.3128906
0.358	0.365625	0.3375	0.3832031	0.50625	0.5238281	0.4007813	0.2496094	0.2847656
0.359	0.3445313	0.2742188	0.3480469	0.4007813	0.4183594	0.3621094	0.1933594	0.2144531
0.36	0.2882813	0.1722656	0.2882813	0.2636719	0.2882813	0.3023438	0.1195313	0.1195313
0.361	0.2285156	0.07734375	0.225	0.1300781	0.1722656	0.2460938	0.06679688	0.03867188
0.362	0.1160156	-0.05273438	0.1160156	-0.0421875	0.01757813	0.1476563	-0.003515625	-0.06679688
0.363	-0.06679688	-0.2601563	-0.05273438	-0.2671875	-0.1792969	-0.0140625	-0.1230469	-0.2390625
0.364	-0.2601563	-0.4464844	-0.225	-0.4605469	-0.3445313	-0.1792969	-0.2355469	-0.3972656
0.365	-0.3515625	-0.5167969	-0.2953125	-0.5273438	-0.3867188	-0.2460938	-0.2636719	-0.4429688
0.366	-0.3691406	-0.5027344	-0.2988281	-0.4992188	-0.3410156	-0.2390625	-0.2425781	-0.4113281
0.367	-0.309375	-0.4078125	-0.2320313	-0.3726563	-0.2144531	-0.1652344	-0.16875	-0.309375
0.368	-0.16875	-0.225	-0.09140625	-0.1476563	0	-0.02109375	-0.028125	-0.1300781
0.369	-0.02460938	-0.04570313	0.04921875	0.0703125	0.2074219	0.1195313	0.09492188	0.03515625
0.37	0.1300781	0.1335938	0.196875	0.2882813	0.4113281	0.2601563	0.2179688	0.1898438
0.371	0.2671875	0.2917969	0.3304688	0.4710938	0.5800781	0.3832031	0.3199219	0.3164063
0.372	0.3375	0.3621094	0.39375	0.5625	0.6539063	0.4289063	0.3585938	0.365625
0.373	0.3480469	0.3585938	0.3902344	0.5695313	0.6328125	0.4148438	0.3304688	0.3445313
0.374	0.3339844	0.3234375	0.3621094	0.5238281	0.5695313	0.3902344	0.2742188	0.2917969
0.375	0.309375	0.2671875	0.3269531	0.4464844	0.4746094	0.3515625	0.2144531	0.2285156
0.376	0.2707031	0.1863281	0.2742188	0.3234375	0.3515625	0.2988281	0.1441406	0.140625
0.377	0.225	0.0984375	0.2285156	0.196875	0.225	0.2496094	0.084375	0.05976563
0.378	0.1652344	0.01054688	0.1722656	0.06679688	0.1125	0.1898438	0.03515625	-0.01054688
0.379	0.06679688	-0.1160156	0.08085938	-0.09492188	-0.02460938	0.09492188	-0.01757813	-0.1160156
0.38	-0.1160156	-0.3128906	-0.084375	-0.3128906	-0.2144531	-0.06328125	-0.1335938	-0.2742188
0.381	-0.3128906	-0.4957031	-0.2601563	-0.4992188	-0.3691406	-0.2179688	-0.253125	-0.4183594
0.382	-0.4042969	-0.5589844	-0.3304688	-0.5554688	-0.4042969	-0.2777344	-0.28125	-0.4570313
0.383	-0.39375	-0.5203125	-0.3128906	-0.4921875	-0.3375	-0.2496094	-0.2390625	-0.4042969
0.384	-0.2882813	-0.3796875	-0.2003906	-0.3128906	-0.1546875	-0.1335938	-0.1265625	-0.2601563
0.385	-0.1230469	-0.1792969	-0.03867188	-0.0703125	0.0703125	0.02460938	0.01757813	-0.0703125
0.386	0.05273438	0.028125	0.1300781	0.1652344	0.2917969	0.1863281	0.16875	0.1089844
0.387	0.2285156	0.2285156	0.2953125	0.4007813	0.5027344	0.3410156	0.3023438	0.2742188
0.388	0.3164063	0.3304688	0.3761719	0.5378906	0.6082031	0.4113281	0.3550781	0.3550781
0.389	0.3199219	0.3339844	0.3726563	0.5589844	0.5976563	0.3972656	0.3304688	0.3375
0.39	0.3199219	0.3164063	0.3550781	0.534375	0.5554688	0.3761719	0.28125	0.2988281
0.391	0.3199219	0.2917969	0.3445313	0.4886719	0.4992188	0.3550781	0.2320313	0.253125
0.392	0.3023438	0.2390625	0.3164063	0.3972656	0.4078125	0.3234375	0.1757813	0.1898438
0.393	0.2882813	0.1828125	0.2917969	0.2882813	0.3058594	0.2917969	0.1335938	0.1265625
0.394	0.2671875	0.1195313	0.2636719	0.1828125	0.2179688	0.2601563	0.1054688	0.06679688
0.395	0.1792969	0	0.1792969	0.028125	0.07734375	0.1828125	0.0421875	-0.028125
0.396	0.003515625	-0.1828125	0.01757813	-0.1933594	-0.1160156	0.03867188	-0.0703125	-0.1863281
0.397	-0.2144531	-0.3972656	-0.1722656	-0.421875	-0.3164063	-0.1371094	-0.2179688	-0.3726563
0.398	-0.3726563	-0.5378906	-0.3058594	-0.5554688	-0.4253906	-0.2636719	-0.309375	-0.4816406
0.399	-0.421875	-0.5589844	-0.3375	-0.5625	-0.4183594	-0.2882813	-0.3128906	-0.4851563
0.4	-0.3585938	-0.4675781	-0.2742188	-0.4464844	-0.3023438	-0.2179688	-0.2355469	-0.3832031
0.401	-0.2039063	-0.2707031	-0.1195313	-0.2109375	-0.07734375	-0.06328125	-0.07382813	-0.1933594
0.402	-0.04921875	-0.084375	0.028125	0.02109375	0.1371094	0.08789063	0.0703125	-0.01054688
0.403	0.09140625	0.08085938	0.1652344	0.2390625	0.3304688	0.225	0.1933594	0.1441406
0.404	0.2355469	0.2496094	0.3023438	0.4429688	0.5132813	0.3550781	0.2988281	0.28125
0.405	0.2953125	0.3199219	0.3585938	0.5414063	0.590625	0.4042969	0.3304688	0.3304688
0.406	0.2988281	0.3164063	0.3480469	0.5484375	0.5730469	0.3867188	0.2988281	0.309375
0.407	0.3234375	0.3164063	0.3550781	0.5414063	0.5484375	0.3761719	0.2742188	0.2777344
0.408	0.3550781	0.3128906	0.365625	0.5097656	0.5132813	0.3726563	0.253125	0.2460938
0.409	0.3269531	0.2496094	0.3304688	0.4042969	0.4078125	0.3339844	0.1933594	0.1757813
0.41	0.2671875	0.1511719	0.2707031	0.2636719	0.2742188	0.2742188	0.1230469	0.084375
0.411	0.2074219	0.05625	0.2074219	0.1300781	0.1582031	0.2179688	0.07382813	0.00703125
0.412	0.1019531	-0.07382813	0.1089844	-0.03515625	0.01054688	0.1230469	0.00703125	-0.0984375
0.413	-0.08085938	-0.2742188	-0.05625	-0.2566406	-0.1792969	-0.03164063	-0.1089844	-0.2671875
0.414	-0.2707031	-0.4570313	-0.2285156	-0.4535156	-0.3445313	-0.1933594	-0.2355469	-0.421875
0.415	-0.365625	-0.5308594	-0.3058594	-0.5238281	-0.3902344	-0.2636719	-0.2742188	-0.4710938
0.416	-0.3761719	-0.5167969	-0.309375	-0.4921875	-0.3410156	-0.2566406	-0.2460938	-0.4394531
0.417	-0.309375	-0.421875	-0.2390625	-0.3550781	-0.2074219	-0.1792969	-0.1582031	-0.3269531
0.418	-0.1652344	-0.2355469	-0.08789063	-0.1265625	0.01054688	-0.028125	-0.0140625	-0.1441406
0.419	-0.0140625	-0.05273438	0.05625	0.09140625	0.2179688	0.1160156	0.1160156	0.02109375
0.42	0.1335938	0.1160156	0.2003906	0.3058594	0.4113281	0.253125	0.2355469	0.1722656
0.421	0.2742188	0.2777344	0.3304688	0.4957031	0.5835938	0.3761719	0.3339844	0.2988281
0.422	0.3480469	0.3585938	0.4007813	0.5941406	0.6609375	0.4289063	0.3726563	0.3515625
0.423	0.3550781	0.3550781	0.39375	0.5941406	0.6363281	0.4148438	0.3339844	0.3269531
0.424	0.3339844	0.3164063	0.3621094	0.5449219	0.5660156	0.3832031	0.2707031	0.2742188
0.425	0.309375	0.2601563	0.3269531	0.4605469	0.4746094	0.3480469	0.2109375	0.2109375
0.426	0.2707031	0.1828125	0.2742188	0.3375	0.3550781	0.2988281	0.1441406	0.1265625
0.427	0.2285156	0.1019531	0.2285156	0.2109375	0.2390625	0.2496094	0.084375	0.04570313
0.428	0.1757813	0.0140625	0.1757813	0.07734375	0.1300781	0.1898438	0.0421875	-0.03164063
0.429	0.0703125	-0.1125	0.08085938	-0.09140625	-0.01054688	0.09492188	-0.02109375	-0.1371094
0.43	-0.1125	-0.309375	-0.08789063	-0.309375	-0.2039063	-0.05976563	-0.1476563	-0.2988281
0.431	-0.3128906	-0.4921875	-0.2671875	-0.4921875	-0.3621094	-0.2179688	-0.2671875	-0.4429688
0.432	-0.4042969	-0.5554688	-0.3375	-0.5449219	-0.39375	-0.2742188	-0.2953125	-0.4710938
0.433	-0.3867188	-0.5167969	-0.3199219	-0.4816406	-0.3199219	-0.2425781	-0.2496094	-0.4113281
0.434	-0.2742188	-0.365625	-0.2003906	-0.2953125	-0.1335938	-0.1230469	-0.1230469	-0.2601563
0.435	-0.1089844	-0.1617188	-0.03164063	-0.05273438	0.09492188	0.03164063	0.028125	-0.06328125
0.436	0.05976563	0.03515625	0.1300781	0.1792969	0.3128906	0.1898438	0.1722656	0.1125
0.437	0.2285156	0.2285156	0.2882813	0.4078125	0.5203125	0.3375	0.3023438	0.2742188
0.438	0.3234375	0.3410156	0.3796875	0.5484375	0.6328125	0.4148438	0.3621094	0.3585938
0.439	0.3304688	0.3515625	0.3832031	0.5660156	0.6328125	0.4113281	0.3445313	0.3445313
0.44	0.3234375	0.3269531	0.365625	0.5378906	0.5871094	0.3867188	0.2882813	0.3023438
0.441	0.3128906	0.2988281	0.3445313	0.4921875	0.5203125	0.365625	0.2355469	0.2566406
0.442	0.2953125	0.2425781	0.3128906	0.4042969	0.4289063	0.3269531	0.1828125	0.1933594
0.443	0.28125	0.1792969	0.2847656	0.2988281	0.3269531	0.2953125	0.1371094	0.1265625
0.444	0.2601563	0.1160156	0.2566406	0.1933594	0.2320313	0.2566406	0.1019531	0.06328125
0.445	0.1652344	-0.003515625	0.1722656	0.03867188	0.09492188	0.1792969	0.03867188	-0.03164063
0.446	0	-0.1933594	0.02109375	-0.1792969	-0.09140625	0.03867188	-0.06679688	-0.1863281
0.447	-0.2074219	-0.3972656	-0.16875	-0.4078125	-0.2882813	-0.1371094	-0.2039063	-0.3621094
0.448	-0.3621094	-0.534375	-0.3023438	-0.5414063	-0.3902344	-0.2566406	-0.2882813	-0.4710938
0.449	-0.4113281	-0.5554688	-0.3375	-0.5484375	-0.3761719	-0.2742188	-0.2847656	-0.4675781
0.45	-0.3515625	-0.4640625	-0.2671875	-0.4324219	-0.2496094	-0.2039063	-0.2039063	-0.365625
0.451	-0.1828125	-0.2636719	-0.1054688	-0.1933594	-0.01757813	-0.0421875	-0.04570313	-0.1722656
0.452	-0.028125	-0.07382813	0.04570313	0.03515625	0.1933594	0.1089844	0.09492188	0.003515625
0.453	0.09492188	0.08085938	0.16875	0.2355469	0.3691406	0.2285156	0.2003906	0.1476563
0.454	0.2285156	0.2355469	0.2953125	0.4359375	0.5378906	0.3480469	0.2953125	0.2777344
0.455	0.2988281	0.3164063	0.3621094	0.5449219	0.61875	0.4078125	0.3304688	0.3375
0.456	0.3023438	0.3164063	0.3550781	0.5519531	0.6046875	0.39375	0.3023438	0.3199219
0.457	0.3199219	0.3058594	0.3515625	0.5378906	0.5730469	0.3796875	0.2671875	0.2917969
0.458	0.3445313	0.3023438	0.3585938	0.50625	0.5273438	0.3726563	0.2460938	0.2636719
0.459	0.3164063	0.2390625	0.3199219	0.3972656	0.4148438	0.3339844	0.1863281	0.1898438
0.46	0.2601563	0.140625	0.2601563	0.2566406	0.2777344	0.2707031	0.1160156	0.09140625
0.461	0.2039063	0.04570313	0.2039063	0.1265625	0.1652344	0.2109375	0.06328125	0.00703125
0.462	0.1019531	-0.084375	0.1089844	-0.03867188	0.02460938	0.1195313	-0.003515625	-0.09492188
0.463	-0.07382813	-0.28125	-0.04921875	-0.2601563	-0.1652344	-0.03164063	-0.1230469	-0.2566406
0.464	-0.2636719	-0.4640625	-0.2179688	-0.4535156	-0.3304688	-0.1898438	-0.2390625	-0.4078125
0.465	-0.3550781	-0.5308594	-0.2953125	-0.5203125	-0.3691406	-0.2566406	-0.2671875	-0.45
0.466	-0.365625	-0.5132813	-0.2988281	-0.4921875	-0.3199219	-0.2460938	-0.2355469	-0.4148438
0.467	-0.2988281	-0.4148438	-0.225	-0.365625	-0.1792969	-0.1652344	-0.1476563	-0.3023438
0.468	-0.1476563	-0.2179688	-0.07382813	-0.1371094	0.04921875	-0.0140625	0	-0.1195313
0.469	0	-0.028125	0.07382813	0.08085938	0.2566406	0.1300781	0.1335938	0.04570313
0.47	0.1546875	0.1441406	0.2179688	0.2988281	0.4535156	0.2707031	0.253125	0.2003906
0.471	0.2917969	0.3023438	0.3480469	0.4921875	0.6152344	0.3867188	0.3480469	0.3199219
0.472	0.3585938	0.3691406	0.4078125	0.5765625	0.675	0.4289063	0.3761719	0.3621094
0.473	0.3621094	0.365625	0.3972656	0.5695313	0.6398438	0.4078125	0.3410156	0.3339844
0.474	0.3375	0.3234375	0.365625	0.5203125	0.5625	0.3726563	0.2742188	0.2742188
0.475	0.309375	0.2636719	0.3269531	0.4429688	0.4675781	0.3304688	0.2074219	0.2074219
0.476	0.2636719	0.1757813	0.2742188	0.3234375	0.3375	0.2777344	0.1371094	0.1265625
0.477	0.2144531	0.09140625	0.2214844	0.196875	0.2214844	0.2320313	0.084375	0.04921875
0.478	0.1582031	0.00703125	0.16875	0.06679688	0.1125	0.1792969	0.04570313	-0.028125
0.479	0.06328125	-0.1089844	0.084375	-0.0984375	-0.0140625	0.08789063	-0.003515625	-0.1335938
0.48	-0.1160156	-0.2988281	-0.07382813	-0.3128906	-0.1933594	-0.06679688	-0.1195313	-0.2917969
0.481	-0.3128906	-0.4816406	-0.2496094	-0.4921875	-0.3515625	-0.2179688	-0.2425781	-0.4324219
0.482	-0.4078125	-0.5484375	-0.3269531	-0.5449219	-0.3902344	-0.2742188	-0.2777344	-0.4675781
0.483	-0.3972656	-0.5097656	-0.3058594	-0.4851563	-0.3234375	-0.2460938	-0.2390625	-0.4183594
0.484	-0.2847656	-0.3691406	-0.1933594	-0.309375	-0.1476563	-0.1371094	-0.1265625	-0.2742188
0.485	-0.1195313	-0.1652344	-0.03164063	-0.0703125	0.07734375	0.01757813	0.02109375	-0.08085938
0.486	0.04921875	0.03164063	0.1300781	0.1652344	0.2988281	0.1722656	0.1722656	0.09492188
0.487	0.2179688	0.2214844	0.2917969	0.39375	0.50625	0.3234375	0.2988281	0.2601563
0.488	0.3058594	0.3269531	0.3761719	0.534375	0.6222656	0.4042969	0.3621094	0.3445313
0.489	0.3199219	0.3410156	0.3796875	0.5589844	0.6292969	0.4007813	0.3480469	0.3375
0.49	0.3199219	0.3304688	0.3691406	0.5378906	0.590625	0.3796875	0.3023438	0.3023438
0.491	0.3199219	0.3023438	0.3480469	0.4957031	0.5273438	0.3585938	0.2496094	0.2601563
0.492	0.2988281	0.2460938	0.3199219	0.4148438	0.4359375	0.3269531	0.1933594	0.2003906
0.493	0.2847656	0.1828125	0.2882813	0.309375	0.3304688	0.2917969	0.140625	0.1335938
0.494	0.2636719	0.1195313	0.2566406	0.2039063	0.2320313	0.253125	0.1054688	0.0703125
0.495	0.1757813	0	0.1722656	0.04921875	0.0984375	0.1757813	0.04570313	-0.02460938
0.496	0.0140625	-0.1828125	0.02460938	-0.1652344	-0.08789063	0.03164063	-0.05273438	-0.1792969
0.497	-0.1933594	-0.3902344	-0.1582031	-0.3867188	-0.2847656	-0.1441406	-0.1863281	-0.3550781
0.498	-0.3515625	-0.5273438	-0.2953125	-0.5203125	-0.3972656	-0.2636719	-0.2671875	-0.4570313
0.499	-0.4078125	-0.5519531	-0.3339844	-0.5273438	-0.39375	-0.28125	-0.2671875	-0.4570313
0.5	-0.3480469	-0.4605469	-0.2671875	-0.4148438	-0.2707031	-0.2109375	-0.1898438	-0.3585938
0.501	-0.1863281	-0.2601563	-0.1054688	-0.1828125	-0.0421875	-0.05273438	-0.0421875	-0.16875
0.502	-0.0421875	-0.07734375	0.03515625	0.03515625	0.16875	0.09492188	0.09492188	0
0.503	0.08085938	0.07382813	0.1617188	0.2320313	0.3515625	0.2214844	0.2039063	0.1476563
0.504	0.2214844	0.2320313	0.2917969	0.4324219	0.5308594	0.3410156	0.3058594	0.28125
0.505	0.2988281	0.3164063	0.3585938	0.5378906	0.6257813	0.39375	0.3550781	0.3410156
0.506	0.309375	0.3199219	0.3585938	0.5484375	0.6222656	0.3832031	0.3339844	0.3234375
0.507	0.3304688	0.3199219	0.3621094	0.5273438	0.590625	0.3726563	0.2988281	0.2917969
0.508	0.3515625	0.3128906	0.3726563	0.4921875	0.5449219	0.3621094	0.2636719	0.2566406
0.509	0.3128906	0.2355469	0.3234375	0.3832031	0.4324219	0.3199219	0.1933594	0.1828125
0.51	0.253125	0.1335938	0.253125	0.2425781	0.2847656	0.2601563	0.1125	0.084375
0.511	0.1898438	0.0421875	0.196875	0.1089844	0.1582031	0.2003906	0.05273438	0
0.512	0.084375	-0.084375	0.1019531	-0.05625	0.00703125	0.1089844	-0.01757813	-0.1054688
0.513	-0.09140625	-0.2742188	-0.05625	-0.2742188	-0.1828125	-0.0421875	-0.1335938	-0.2636719
0.514	-0.2777344	-0.4535156	-0.225	-0.4675781	-0.3480469	-0.2003906	-0.2460938	-0.4078125
0.515	-0.365625	-0.5238281	-0.2988281	-0.5378906	-0.3902344	-0.2671875	-0.2707031	-0.45
0.516	-0.3761719	-0.5097656	-0.2988281	-0.50625	-0.3445313	-0.2601563	-0.2460938	-0.4183594
0.517	-0.3164063	-0.4183594	-0.2285156	-0.3761719	-0.2144531	-0.1828125	-0.16875	-0.3128906
0.518	-0.16875	-0.2320313	-0.08085938	-0.1476563	0.003515625	-0.03164063	-0.02109375	-0.1300781
0.519	-0.0140625	-0.04921875	0.06328125	0.0703125	0.2109375	0.1089844	0.1089844	0.03164063
0.52	0.1265625	0.1195313	0.2039063	0.28125	0.4042969	0.2425781	0.2285156	0.1757813
0.521	0.2636719	0.2777344	0.3339844	0.4746094	0.5730469	0.3621094	0.3304688	0.3023438
0.522	0.3445313	0.3621094	0.4042969	0.5730469	0.6503906	0.4183594	0.3726563	0.3585938
0.523	0.3515625	0.3585938	0.3972656	0.5730469	0.6222656	0.4078125	0.3375	0.3445313
0.524	0.3304688	0.3128906	0.365625	0.5238281	0.5519531	0.3726563	0.2707031	0.2917969
0.525	0.3058594	0.2566406	0.3304688	0.4394531	0.4675781	0.3375	0.2109375	0.2285156
0.526	0.2707031	0.1792969	0.2847656	0.3164063	0.3480469	0.2882813	0.1441406	0.140625
0.527	0.2285156	0.09140625	0.2320313	0.1898438	0.2285156	0.2320313	0.08789063	0.05976563
0.528	0.16875	0.003515625	0.1757813	0.05976563	0.1160156	0.1757813	0.04570313	-0.01757813
0.529	0.07382813	-0.1125	0.09140625	-0.0984375	-0.02109375	0.084375	-0.01054688	-0.1230469
0.53	-0.09492188	-0.2988281	-0.06679688	-0.3128906	-0.196875	-0.0703125	-0.1265625	-0.28125
0.531	-0.2917969	-0.478125	-0.2390625	-0.4957031	-0.3550781	-0.225	-0.2390625	-0.4289063
0.532	-0.3832031	-0.5449219	-0.309375	-0.5519531	-0.3972656	-0.2847656	-0.2742188	-0.4710938
0.533	-0.3761719	-0.5097656	-0.2917969	-0.4921875	-0.3269531	-0.253125	-0.2355469	-0.4183594
0.534	-0.2707031	-0.3691406	-0.1828125	-0.3058594	-0.1441406	-0.140625	-0.1230469	-0.2707031
0.535	-0.1054688	-0.16875	-0.02109375	-0.06328125	0.08789063	0.0140625	0.02460938	-0.084375
0.536	0.06679688	0.02460938	0.1441406	0.16875	0.309375	0.1722656	0.16875	0.08789063
0.537	0.2320313	0.2144531	0.2988281	0.4007813	0.5203125	0.3234375	0.2988281	0.2566406
0.538	0.3199219	0.3234375	0.3832031	0.5484375	0.6363281	0.4113281	0.3621094	0.3410156
0.539	0.3234375	0.3375	0.3832031	0.5730469	0.6398438	0.4113281	0.3445313	0.3375
0.54	0.3128906	0.3164063	0.3621094	0.5449219	0.5976563	0.3796875	0.2917969	0.2953125
0.541	0.309375	0.28125	0.3445313	0.4992188	0.5414063	0.3515625	0.2425781	0.2460938
0.542	0.2917969	0.225	0.3128906	0.4113281	0.45	0.3164063	0.1898438	0.1863281
0.543	0.2777344	0.1652344	0.2847656	0.3023438	0.3445313	0.28125	0.140625	0.1160156
0.544	0.2566406	0.1019531	0.2566406	0.196875	0.2496094	0.2425781	0.1054688	0.05273438
0.545	0.1757813	-0.01054688	0.1757813	0.0421875	0.1160156	0.1652344	0.0421875	-0.0421875
0.546	0.0140625	-0.196875	0.028125	-0.16875	-0.0703125	0.02460938	-0.06328125	-0.2003906
0.547	-0.196875	-0.4078125	-0.1546875	-0.39375	-0.2671875	-0.1511719	-0.2003906	-0.3761719
0.548	-0.3550781	-0.5484375	-0.2917969	-0.5308594	-0.3796875	-0.2707031	-0.2882813	-0.4851563
0.549	-0.4007813	-0.5695313	-0.3304688	-0.5378906	-0.3691406	-0.2917969	-0.2847656	-0.4816406
0.55	-0.3410156	-0.4816406	-0.2636719	-0.4183594	-0.2496094	-0.2214844	-0.2074219	-0.3832031
0.551	-0.1863281	-0.2882813	-0.1019531	-0.1863281	-0.02460938	-0.0703125	-0.04921875	-0.1933594
0.552	-0.028125	-0.09492188	0.04921875	0.03515625	0.1863281	0.07734375	0.09140625	-0.01757813
0.553	0.1125	0.07734375	0.1898438	0.2460938	0.3761719	0.2109375	0.2109375	0.1300781
0.554	0.253125	0.2390625	0.3234375	0.45	0.5589844	0.3410156	0.3164063	0.2636719
0.555	0.309375	0.309375	0.3726563	0.5449219	0.6292969	0.3902344	0.3445313	0.3164063
0.556	0.3023438	0.309375	0.3585938	0.5449219	0.5976563	0.3726563	0.3023438	0.2953125
0.557	0.3199219	0.309375	0.3621094	0.5273438	0.5625	0.3621094	0.2636719	0.2707031
0.558	0.3445313	0.3023438	0.3691406	0.4957031	0.5203125	0.3585938	0.2425781	0.2425781
0.559	0.3164063	0.2320313	0.3269531	0.3867188	0.4148438	0.3128906	0.1863281	0.16875
0.56	0.2636719	0.1300781	0.2601563	0.2460938	0.2777344	0.2496094	0.1160156	0.0703125
0.561	0.2039063	0.03515625	0.2003906	0.1125	0.1546875	0.1898438	0.05625	-0.00703125
0.562	0.1019531	-0.09492188	0.1054688	-0.04921875	0.0140625	0.0984375	-0.0140625	-0.1125
0.563	-0.07382813	-0.2882813	-0.05625	-0.2707031	-0.1757813	-0.05273438	-0.1371094	-0.2777344
0.564	-0.2601563	-0.4675781	-0.225	-0.4710938	-0.3375	-0.2144531	-0.2566406	-0.4324219
0.565	-0.3515625	-0.5378906	-0.2988281	-0.5414063	-0.3832031	-0.28125	-0.2847656	-0.4746094
0.566	-0.3726563	-0.5238281	-0.3023438	-0.50625	-0.3445313	-0.2671875	-0.253125	-0.4394531
0.567	-0.3128906	-0.4324219	-0.2355469	-0.3796875	-0.2179688	-0.1933594	-0.16875	-0.3375
0.568	-0.1652344	-0.2460938	-0.08789063	-0.1511719	0	-0.0421875	-0.02109375	-0.1582031
0.569	-0.0140625	-0.05625	0.06328125	0.06679688	0.2109375	0.1019531	0.1125	0.01054688
0.57	0.140625	0.1195313	0.2109375	0.2847656	0.4113281	0.2390625	0.2320313	0.1617188
0.571	0.2777344	0.2742188	0.3410156	0.478125	0.5800781	0.3585938	0.3304688	0.2882813
0.572	0.3410156	0.3445313	0.4007813	0.5625	0.6433594	0.4042969	0.3621094	0.3375
0.573	0.3480469	0.3410156	0.3902344	0.5589844	0.61875	0.3902344	0.3269531	0.309375
0.574	0.3304688	0.309375	0.3585938	0.5132813	0.5484375	0.3585938	0.2671875	0.2566406
0.575	0.309375	0.2566406	0.3269531	0.4394531	0.4605469	0.3234375	0.2144531	0.2039063
0.576	0.2777344	0.1792969	0.28125	0.3234375	0.3480469	0.2742188	0.1582031	0.1300781
0.577	0.2390625	0.0984375	0.2285156	0.196875	0.2320313	0.225	0.1054688	0.04570313
0.578	0.1933594	0.0140625	0.1792969	0.06679688	0.1265625	0.16875	0.06679688	-0.03164063
0.579	0.0984375	-0.1054688	0.09492188	-0.09492188	0	0.07734375	0.00703125	-0.1371094
0.58	-0.08085938	-0.2988281	-0.06679688	-0.3058594	-0.1898438	-0.07734375	-0.1089844	-0.2953125
0.581	-0.28125	-0.4816406	-0.2390625	-0.4886719	-0.3550781	-0.2355469	-0.2355469	-0.4394531
0.582	-0.3761719	-0.5554688	-0.3164063	-0.5484375	-0.4007813	-0.2953125	-0.2707031	-0.4746094
0.583	-0.3726563	-0.5167969	-0.2953125	-0.4886719	-0.3445313	-0.2636719	-0.2285156	-0.4183594
0.584	-0.2707031	-0.3691406	-0.1863281	-0.309375	-0.1757813	-0.1441406	-0.1089844	-0.2707031
0.585	-0.1089844	-0.1652344	-0.02460938	-0.0703125	0.04921875	0.0140625	0.03164063	-0.07734375
0.586	0.05976563	0.03867188	0.140625	0.1617188	0.2707031	0.1757813	0.1757813	0.0984375
0.587	0.2285156	0.2355469	0.2988281	0.3972656	0.4816406	0.3304688	0.3023438	0.2671875
0.588	0.3199219	0.3445313	0.3832031	0.5378906	0.6046875	0.4078125	0.3621094	0.3515625
0.589	0.3304688	0.3550781	0.3832031	0.5625	0.6117188	0.4042969	0.3515625	0.3410156
0.59	0.3304688	0.3339844	0.365625	0.5449219	0.5800781	0.3761719	0.3128906	0.3023438
0.591	0.3304688	0.3058594	0.3480469	0.4992188	0.5273438	0.3550781	0.2636719	0.253125
0.592	0.3128906	0.253125	0.3164063	0.4148438	0.4394531	0.3199219	0.2074219	0.1933594
0.593	0.2953125	0.1863281	0.2882813	0.3058594	0.3375	0.28125	0.1617188	0.1265625
0.594	0.2777344	0.1195313	0.2636719	0.196875	0.2496094	0.2425781	0.1265625	0.06679688
0.595	0.1933594	0.00703125	0.1828125	0.0421875	0.1160156	0.1617188	0.06328125	-0.028125
0.596	0.02460938	-0.1792969	0.028125	-0.1722656	-0.07382813	0.01757813	-0.04921875	-0.1863281
0.597	-0.1898438	-0.39375	-0.1652344	-0.4007813	-0.2742188	-0.1582031	-0.1898438	-0.3621094
0.598	-0.3480469	-0.5273438	-0.3058594	-0.534375	-0.3902344	-0.2742188	-0.2742188	-0.4605469
0.599	-0.39375	-0.5484375	-0.3339844	-0.5414063	-0.3796875	-0.2882813	-0.2671875	-0.4570313
0.6	-0.3304688	-0.4605469	-0.2671875	-0.4324219	-0.2636719	-0.2179688	-0.1828125	-0.3621094
0.601	-0.1757813	-0.2636719	-0.1125	-0.2003906	-0.03515625	-0.06679688	-0.028125	-0.1722656
0.602	-0.02109375	-0.07734375	0.03867188	0.02109375	0.1792969	0.08085938	0.1089844	0
0.603	0.1089844	0.08085938	0.16875	0.2285156	0.365625	0.2144531	0.2179688	0.1441406
0.604	0.2496094	0.2460938	0.3058594	0.4324219	0.5449219	0.3410156	0.3234375	0.28125
0.605	0.3234375	0.3304688	0.3691406	0.534375	0.6257813	0.39375	0.365625	0.3410156
0.606	0.3234375	0.3304688	0.3621094	0.5378906	0.6117188	0.3796875	0.3304688	0.3199219
0.607	0.3339844	0.3234375	0.3621094	0.5203125	0.5765625	0.365625	0.2917969	0.2882813
0.608	0.3585938	0.3128906	0.3691406	0.4886719	0.534375	0.3550781	0.2636719	0.2601563
0.609	0.3304688	0.2496094	0.3269531	0.3796875	0.421875	0.3128906	0.196875	0.1898438
0.61	0.2707031	0.1476563	0.2601563	0.2355469	0.28125	0.2496094	0.1195313	0.09140625
0.611	0.2074219	0.05273438	0.2003906	0.1019531	0.1582031	0.1898438	0.06328125	0.00703125
0.612	0.1054688	-0.07382813	0.1054688	-0.06328125	0.01757813	0.1054688	-0.00703125	-0.09492188
0.613	-0.0703125	-0.2707031	-0.05625	-0.2777344	-0.1722656	-0.0421875	-0.1265625	-0.2566406
0.614	-0.2601563	-0.4535156	-0.2285156	-0.4710938	-0.3375	-0.2039063	-0.2496094	-0.4078125
0.615	-0.3515625	-0.5238281	-0.3023438	-0.5414063	-0.3832031	-0.2777344	-0.2777344	-0.4605469
0.616	-0.3621094	-0.50625	-0.3023438	-0.5132813	-0.3445313	-0.2707031	-0.253125	-0.4289063
0.617	-0.3058594	-0.4148438	-0.2390625	-0.3867188	-0.2214844	-0.1933594	-0.1757813	-0.3234375
0.618	-0.1652344	-0.2320313	-0.09492188	-0.1582031	-0.003515625	-0.04921875	-0.03164063	-0.1476563
0.619	-0.01054688	-0.05273438	0.05273438	0.05976563	0.2039063	0.09140625	0.1054688	0.0140625
0.62	0.1371094	0.1160156	0.1933594	0.2777344	0.4007813	0.2285156	0.225	0.16875
0.621	0.28125	0.2777344	0.3234375	0.4746094	0.5695313	0.3480469	0.3269531	0.3023438
0.622	0.3550781	0.3585938	0.3867188	0.5660156	0.6433594	0.3972656	0.3761719	0.3550781
0.623	0.3621094	0.3585938	0.3832031	0.5695313	0.6222656	0.3867188	0.3445313	0.3375
0.624	0.3410156	0.3199219	0.3515625	0.5203125	0.5519531	0.3550781	0.2777344	0.2847656
0.625	0.3164063	0.2671875	0.3128906	0.4429688	0.4605469	0.3199219	0.2109375	0.2179688
0.626	0.28125	0.1863281	0.2671875	0.3234375	0.3375	0.2671875	0.1441406	0.1300781
0.627	0.2355469	0.0984375	0.2179688	0.1898438	0.2109375	0.2109375	0.084375	0.0421875
0.628	0.1757813	0.003515625	0.1617188	0.05976563	0.09140625	0.1511719	0.03515625	-0.03867188
0.629	0.07382813	-0.1230469	0.06679688	-0.1019531	-0.0421875	0.06328125	-0.02460938	-0.140625
0.63	-0.1054688	-0.309375	-0.09492188	-0.3199219	-0.2285156	-0.08789063	-0.1441406	-0.2953125
0.631	-0.3023438	-0.4886719	-0.2671875	-0.50625	-0.39375	-0.2390625	-0.2601563	-0.4429688
0.632	-0.39375	-0.5554688	-0.3410156	-0.5625	-0.4253906	-0.2988281	-0.2882813	-0.4851563
0.633	-0.3796875	-0.5132813	-0.3199219	-0.4992188	-0.3515625	-0.2707031	-0.2425781	-0.4289063
0.634	-0.2742188	-0.3726563	-0.2109375	-0.3199219	-0.16875	-0.1546875	-0.1300781	-0.28125
0.635	-0.1054688	-0.16875	-0.04570313	-0.07382813	0.06328125	0	0.02109375	-0.08789063
0.636	0.06328125	0.02460938	0.1195313	0.1582031	0.28125	0.1546875	0.16875	0.08789063
0.637	0.2320313	0.2179688	0.28125	0.3867188	0.4886719	0.3058594	0.3023438	0.253125
0.638	0.3269531	0.3304688	0.3691406	0.534375	0.6046875	0.39375	0.3691406	0.3480469
0.639	0.3339844	0.3410156	0.3691406	0.5660156	0.6046875	0.39375	0.3550781	0.3480469
0.64	0.3304688	0.3164063	0.3480469	0.534375	0.5589844	0.3621094	0.3023438	0.309375
0.641	0.3234375	0.2882813	0.3269531	0.4816406	0.4957031	0.3375	0.2460938	0.2636719
0.642	0.3023438	0.2390625	0.2988281	0.3902344	0.4078125	0.3023438	0.1863281	0.196875
0.643	0.2917969	0.1792969	0.2742188	0.28125	0.3058594	0.2707031	0.140625	0.1265625
0.644	0.2777344	0.1160156	0.2496094	0.1828125	0.2214844	0.2320313	0.1160156	0.06679688
0.645	0.1933594	-0.003515625	0.16875	0.03164063	0.09140625	0.1546875	0.05625	-0.028125
0.646	0.02460938	-0.1933594	0.01757813	-0.1792969	-0.1019531	0.01054688	-0.04570313	-0.1863281
0.647	-0.1792969	-0.3972656	-0.1652344	-0.3972656	-0.2988281	-0.1582031	-0.1828125	-0.3585938
0.648	-0.3304688	-0.5273438	-0.2953125	-0.5308594	-0.4113281	-0.2742188	-0.2636719	-0.4605469
0.649	-0.3832031	-0.5519531	-0.3304688	-0.5414063	-0.4078125	-0.2988281	-0.2636719	-0.4570313
0.65	-0.3304688	-0.4675781	-0.2671875	-0.4359375	-0.2953125	-0.2285156	-0.1898438	-0.3550781
0.651	-0.1757813	-0.2707031	-0.1125	-0.2039063	-0.0703125	-0.07734375	-0.0421875	-0.1722656
0.652	-0.028125	-0.08085938	0.03515625	0.02460938	0.1441406	0.0703125	0.0984375	0.00703125
0.653	0.1054688	0.07734375	0.1617188	0.2285156	0.3304688	0.2039063	0.2144531	0.1546875
0.654	0.2460938	0.2460938	0.2953125	0.4324219	0.5167969	0.3269531	0.3234375	0.2953125
0.655	0.3199219	0.3339844	0.365625	0.5378906	0.6082031	0.39375	0.3621094	0.3585938
0.656	0.3269531	0.3375	0.3585938	0.5414063	0.5976563	0.3832031	0.3269531	0.3410156
0.657	0.3410156	0.3199219	0.3515625	0.5203125	0.5625	0.3691406	0.2882813	0.3128906
0.658	0.3691406	0.3023438	0.3550781	0.4886719	0.5238281	0.3585938	0.2601563	0.2847656
0.659	0.3480469	0.2355469	0.3199219	0.3832031	0.4183594	0.3128906	0.2039063	0.2109375
0.66	0.2953125	0.140625	0.2601563	0.2390625	0.2882813	0.2496094	0.1371094	0.1160156
0.661	0.2390625	0.05273438	0.2074219	0.1054688	0.1792969	0.1933594	0.09140625	0.03515625
0.662	0.1371094	-0.0703125	0.1195313	-0.05976563	0.03515625	0.1089844	0.02460938	-0.06328125
0.663	-0.0421875	-0.2601563	-0.0421875	-0.28125	-0.1582031	-0.03867188	-0.09492188	-0.2214844
0.664	-0.2425781	-0.4464844	-0.2179688	-0.478125	-0.3375	-0.2003906	-0.2214844	-0.3796875
0.665	-0.3445313	-0.5238281	-0.2988281	-0.5519531	-0.3972656	-0.2742188	-0.2671875	-0.4359375
0.666	-0.365625	-0.5167969	-0.3023438	-0.5273438	-0.3621094	-0.2707031	-0.253125	-0.4148438
0.667	-0.309375	-0.4289063	-0.2355469	-0.4042969	-0.2425781	-0.196875	-0.1828125	-0.3164063
0.668	-0.1722656	-0.2496094	-0.09140625	-0.1757813	-0.03515625	-0.05625	-0.04570313	-0.140625
0.669	-0.02109375	-0.0703125	0.04570313	0.0421875	0.1652344	0.084375	0.08789063	0.028125
0.67	0.1230469	0.0984375	0.1863281	0.2601563	0.3621094	0.225	0.2109375	0.1828125
0.671	0.2601563	0.2566406	0.3128906	0.4535156	0.5308594	0.3480469	0.3058594	0.3128906
0.672	0.3269531	0.3375	0.3726563	0.5449219	0.6011719	0.4007813	0.3410156	0.365625
0.673	0.3410156	0.3375	0.3691406	0.5378906	0.5835938	0.3832031	0.309375	0.3445313
0.674	0.3304688	0.2988281	0.3410156	0.4921875	0.5238281	0.3480469	0.2496094	0.2882813
0.675	0.309375	0.2460938	0.3058594	0.4183594	0.4429688	0.3128906	0.196875	0.225
0.676	0.2742188	0.16875	0.2601563	0.2988281	0.3269531	0.2671875	0.1371094	0.1441406
0.677	0.2355469	0.084375	0.2144531	0.1757813	0.2109375	0.2179688	0.08789063	0.06328125
0.678	0.1792969	0	0.1582031	0.04921875	0.1019531	0.1652344	0.04570313	-0.00703125
0.679	0.084375	-0.1195313	0.0703125	-0.1054688	-0.028125	0.07734375	-0.00703125	-0.1089844
0.68	-0.08789063	-0.3023438	-0.084375	-0.309375	-0.2144531	-0.0703125	-0.1230469	-0.2636719
0.681	-0.28125	-0.478125	-0.253125	-0.4886719	-0.3726563	-0.225	-0.2355469	-0.4042969
0.682	-0.3761719	-0.5449219	-0.3304688	-0.5449219	-0.4113281	-0.2847656	-0.2707031	-0.4464844
0.683	-0.365625	-0.50625	-0.3128906	-0.4921875	-0.3375	-0.2566406	-0.2320313	-0.3972656
0.684	-0.2566406	-0.365625	-0.196875	-0.3164063	-0.1511719	-0.1441406	-0.1125	-0.2566406
0.685	-0.08789063	-0.1617188	-0.028125	-0.07382813	0.084375	0.0140625	0.0421875	-0.06328125
0.686	0.084375	0.03867188	0.1371094	0.1617188	0.3128906	0.1757813	0.1933594	0.1195313
0.687	0.2566406	0.2285156	0.2988281	0.3972656	0.5308594	0.3269531	0.3199219	0.2917969
0.688	0.3480469	0.3375	0.3832031	0.5414063	0.6539063	0.4078125	0.3796875	0.3796875
0.689	0.3480469	0.3515625	0.3832031	0.5589844	0.6433594	0.4042969	0.3515625	0.3691406
0.69	0.3375	0.3304688	0.3585938	0.5308594	0.5871094	0.3726563	0.2953125	0.3199219
0.691	0.3304688	0.2953125	0.3375	0.4851563	0.5238281	0.3445313	0.2425781	0.2671875
0.692	0.309375	0.2355469	0.3058594	0.4007813	0.4324219	0.3058594	0.1863281	0.2003906
0.693	0.2917969	0.1722656	0.2742188	0.2917969	0.3234375	0.2707031	0.1335938	0.1371094
0.694	0.2707031	0.1089844	0.2460938	0.1863281	0.225	0.2355469	0.09492188	0.07382813
0.695	0.1828125	-0.003515625	0.1652344	0.03515625	0.09140625	0.1582031	0.03515625	-0.02109375
0.696	0.02460938	-0.1792969	0.02460938	-0.1722656	-0.08789063	0.028125	-0.06328125	-0.1652344
0.697	-0.1722656	-0.3867188	-0.1546875	-0.3867188	-0.2777344	-0.1371094	-0.196875	-0.3339844
0.698	-0.3269531	-0.5273438	-0.2917969	-0.5238281	-0.3867188	-0.2566406	-0.2777344	-0.4394531
0.699	-0.3761719	-0.5484375	-0.3269531	-0.5378906	-0.3726563	-0.2777344	-0.2742188	-0.4394531
0.7	-0.3164063	-0.4605469	-0.2601563	-0.4324219	-0.2496094	-0.2074219	-0.1933594	-0.3445313
0.701	-0.1546875	-0.2601563	-0.0984375	-0.2003906	-0.02109375	-0.05273438	-0.028125	-0.1511719
0.702	0	-0.06679688	0.05273438	0.028125	0.196875	0.0984375	0.1195313	0.028125
0.703	0.1371094	0.09140625	0.1828125	0.2320313	0.3867188	0.225	0.2320313	0.1722656
0.704	0.2742188	0.253125	0.3128906	0.4289063	0.5625	0.3480469	0.3269531	0.3023438
0.705	0.3375	0.3339844	0.3726563	0.534375	0.6433594	0.4042969	0.3585938	0.3621094
0.706	0.3339844	0.3304688	0.3585938	0.5414063	0.6257813	0.3867188	0.3199219	0.3410156
0.707	0.3445313	0.3199219	0.3515625	0.5203125	0.5800781	0.365625	0.2777344	0.309375
0.708	0.3585938	0.309375	0.3550781	0.4886719	0.5378906	0.3550781	0.2460938	0.2742188
0.709	0.3304688	0.2390625	0.3128906	0.3902344	0.4289063	0.3199219	0.1863281	0.2003906
0.71	0.2707031	0.1371094	0.2496094	0.2460938	0.2917969	0.2601563	0.1160156	0.1019531
0.711	0.2179688	0.04570313	0.196875	0.1160156	0.1828125	0.2003906	0.06679688	0.02109375
0.712	0.1195313	-0.07382813	0.1089844	-0.0421875	0.04570313	0.1160156	0.003515625	-0.07734375
0.713	-0.04570313	-0.2566406	-0.0421875	-0.2601563	-0.1371094	-0.028125	-0.1089844	-0.2355469
0.714	-0.2320313	-0.4359375	-0.2074219	-0.4535156	-0.3023438	-0.1828125	-0.225	-0.3796875
0.715	-0.3234375	-0.50625	-0.28125	-0.5203125	-0.3480469	-0.253125	-0.253125	-0.4289063
0.716	-0.3339844	-0.4886719	-0.2777344	-0.4921875	-0.3058594	-0.2460938	-0.2285156	-0.3972656
0.717	-0.2777344	-0.4007813	-0.2109375	-0.3691406	-0.1757813	-0.16875	-0.1546875	-0.2953125
0.718	-0.1335938	-0.2214844	-0.06679688	-0.140625	0.04570313	-0.02109375	-0.0140625	-0.1160156
0.719	0.01054688	-0.03515625	0.07382813	0.08085938	0.2566406	0.1195313	0.1125	0.05273438
0.72	0.1546875	0.1335938	0.2109375	0.2953125	0.45	0.2566406	0.2214844	0.2074219
0.721	0.2917969	0.2882813	0.3410156	0.4886719	0.6257813	0.3726563	0.3199219	0.3339844
0.722	0.365625	0.365625	0.4078125	0.5871094	0.7101563	0.421875	0.3585938	0.3832031
0.723	0.3691406	0.3621094	0.3972656	0.590625	0.6890625	0.4078125	0.3304688	0.365625
0.724	0.3515625	0.3234375	0.365625	0.5414063	0.61875	0.3726563	0.2742188	0.3164063
0.725	0.3304688	0.2707031	0.3339844	0.4675781	0.5308594	0.3375	0.2144531	0.253125
0.726	0.2953125	0.1933594	0.2882813	0.3480469	0.4113281	0.2882813	0.1476563	0.16875
0.727	0.2496094	0.1054688	0.2390625	0.2214844	0.2882813	0.2390625	0.08789063	0.08789063
0.728	0.1933594	0.01757813	0.1792969	0.09140625	0.1722656	0.1863281	0.03867188	0.01054688
0.729	0.0984375	-0.1019531	0.09140625	-0.06679688	0.03164063	0.0984375	-0.01757813	-0.08789063
0.73	-0.07734375	-0.2882813	-0.06679688	-0.2742188	-0.1476563	-0.05273438	-0.1335938	-0.2460938
0.731	-0.2742188	-0.4746094	-0.2390625	-0.4570313	-0.3058594	-0.2074219	-0.2460938	-0.39375
0.732	-0.3691406	-0.5414063	-0.3199219	-0.5132813	-0.3445313	-0.2671875	-0.2777344	-0.4359375
0.733	-0.3621094	-0.4992188	-0.3023438	-0.4605469	-0.2742188	-0.2425781	-0.2320313	-0.3832031
0.734	-0.2566406	-0.3585938	-0.196875	-0.2882813	-0.1019531	-0.1300781	-0.1195313	-0.2425781
0.735	-0.09140625	-0.1582031	-0.03164063	-0.04921875	0.1300781	0.028125	0.03164063	-0.05273438
0.736	0.08789063	0.0421875	0.1335938	0.1898438	0.3621094	0.1863281	0.1863281	0.1230469
0.737	0.2671875	0.2390625	0.3023438	0.4289063	0.5835938	0.3375	0.3164063	0.2917969
0.738	0.365625	0.3550781	0.3902344	0.5730469	0.7101563	0.421875	0.3832031	0.3796875
0.739	0.365625	0.3585938	0.3867188	0.6011719	0.7136719	0.4183594	0.365625	0.3726563
0.74	0.3515625	0.3304688	0.3550781	0.5730469	0.6644531	0.3867188	0.309375	0.3339844
0.741	0.3445313	0.2988281	0.3339844	0.5238281	0.6011719	0.3621094	0.2566406	0.2847656
0.742	0.3269531	0.2496094	0.309375	0.4359375	0.5132813	0.3269531	0.2039063	0.2214844
0.743	0.3128906	0.1863281	0.28125	0.3269531	0.4042969	0.2882813	0.1546875	0.1476563
0.744	0.2847656	0.1195313	0.253125	0.2214844	0.3058594	0.2460938	0.1195313	0.08085938
0.745	0.196875	0.00703125	0.1722656	0.07382813	0.1722656	0.1722656	0.05273438	-0.01054688
0.746	0.03515625	-0.16875	0.028125	-0.1300781	-0.01054688	0.03515625	-0.05273438	-0.1617188
0.747	-0.1652344	-0.3726563	-0.1546875	-0.3550781	-0.2074219	-0.1335938	-0.1863281	-0.3375
0.748	-0.3269531	-0.5097656	-0.2917969	-0.4921875	-0.3234375	-0.253125	-0.2742188	-0.4429688
0.749	-0.3832031	-0.534375	-0.3304688	-0.50625	-0.3164063	-0.2707031	-0.2742188	-0.4429688
0.75	-0.3269531	-0.45	-0.2671875	-0.4007813	-0.2003906	-0.2039063	-0.196875	-0.3480469
0.751	-0.16875	-0.2601563	-0.1089844	-0.1757813	0.028125	-0.05273438	-0.04570313	-0.1617188
0.752	-0.01054688	-0.06679688	0.0421875	0.05625	0.2496094	0.0984375	0.09492188	0.01757813
0.753	0.1195313	0.09140625	0.1722656	0.2601563	0.4359375	0.2285156	0.2074219	0.1617188
0.754	0.2636719	0.2566406	0.309375	0.4570313	0.6152344	0.3515625	0.3128906	0.2988281
0.755	0.3410156	0.3480469	0.3796875	0.5660156	0.7066406	0.4183594	0.3621094	0.365625
0.756	0.3480469	0.3550781	0.3726563	0.5765625	0.6960938	0.4078125	0.3339844	0.3480469
0.757	0.3515625	0.3410156	0.3621094	0.5554688	0.6539063	0.3867188	0.2882813	0.3164063
0.758	0.365625	0.3269531	0.3621094	0.5238281	0.6046875	0.3761719	0.253125	0.2847656
0.759	0.3375	0.2566406	0.3199219	0.421875	0.4921875	0.3339844	0.1863281	0.2144531
0.76	0.28125	0.1511719	0.2566406	0.2777344	0.3480469	0.2707031	0.1089844	0.1195313
0.761	0.2179688	0.05273438	0.1898438	0.1476563	0.225	0.2109375	0.05273438	0.03515625
0.762	0.1125	-0.0703125	0.09140625	-0.01054688	0.07382813	0.1230469	-0.00703125	-0.06328125
0.763	-0.05976563	-0.2566406	-0.06328125	-0.225	-0.1125	-0.02109375	-0.1230469	-0.2214844
0.764	-0.2425781	-0.4359375	-0.225	-0.4183594	-0.2777344	-0.1757813	-0.2320313	-0.3726563
0.765	-0.3339844	-0.50625	-0.2953125	-0.4886719	-0.3269531	-0.2460938	-0.253125	-0.4148438
0.766	-0.3410156	-0.4886719	-0.2917969	-0.4570313	-0.28125	-0.2390625	-0.2285156	-0.3796875
0.767	-0.2777344	-0.3972656	-0.225	-0.3339844	-0.1511719	-0.1617188	-0.1511719	-0.28125
0.768	-0.1335938	-0.2144531	-0.08085938	-0.1125	0.06679688	-0.0140625	-0.00703125	-0.1019531
0.769	0.01054688	-0.03164063	0.06328125	0.1089844	0.2742188	0.1265625	0.1230469	0.06328125
0.77	0.1546875	0.1371094	0.2039063	0.3234375	0.4675781	0.2636719	0.2320313	0.2144531
0.771	0.2917969	0.2917969	0.3339844	0.5132813	0.6398438	0.3796875	0.3339844	0.3410156
0.772	0.3585938	0.365625	0.39375	0.6046875	0.7136719	0.4289063	0.3726563	0.39375
0.773	0.3621094	0.3621094	0.3832031	0.6046875	0.6925781	0.4148438	0.3410156	0.3691406
0.774	0.3480469	0.3199219	0.3550781	0.5554688	0.6257813	0.3796875	0.28125	0.3164063
0.775	0.3269531	0.2671875	0.3199219	0.4816406	0.5449219	0.3445313	0.225	0.2566406
0.776	0.2917969	0.1863281	0.2707031	0.365625	0.4253906	0.2917969	0.1582031	0.1722656
0.777	0.2425781	0.09140625	0.2144531	0.2320313	0.2953125	0.2320313	0.09140625	0.084375
0.778	0.1828125	0.00703125	0.1582031	0.09492188	0.1828125	0.1722656	0.04570313	0
0.779	0.0984375	-0.1054688	0.07734375	-0.06679688	0.05273438	0.084375	-0.00703125	-0.0984375
0.78	-0.06679688	-0.2847656	-0.07382813	-0.2742188	-0.1230469	-0.05625	-0.1125	-0.2496094
0.781	-0.2636719	-0.4640625	-0.2460938	-0.4605469	-0.28125	-0.2109375	-0.2285156	-0.39375
0.782	-0.3550781	-0.5308594	-0.3234375	-0.5203125	-0.3234375	-0.2742188	-0.2671875	-0.4359375
0.783	-0.3445313	-0.4992188	-0.3023438	-0.4605469	-0.253125	-0.2496094	-0.2355469	-0.3902344
0.784	-0.2425781	-0.3621094	-0.1933594	-0.2847656	-0.08085938	-0.140625	-0.1300781	-0.2460938
0.785	-0.07734375	-0.1652344	-0.03164063	-0.03867188	0.1476563	0.01757813	0.02460938	-0.05273438
0.786	0.08789063	0.03515625	0.1335938	0.1933594	0.365625	0.1722656	0.1722656	0.1230469
0.787	0.2496094	0.225	0.2882813	0.421875	0.5695313	0.3199219	0.2953125	0.28125
0.788	0.3445313	0.3375	0.3761719	0.5730469	0.6960938	0.4113281	0.3621094	0.3726563
0.789	0.3515625	0.3480469	0.3796875	0.6011719	0.703125	0.4113281	0.3480469	0.3726563
0.79	0.3410156	0.3234375	0.3585938	0.5730469	0.6574219	0.3832031	0.2917969	0.3339844
0.791	0.3375	0.2953125	0.3375	0.5273438	0.5976563	0.3585938	0.2390625	0.2882813
0.792	0.3199219	0.2390625	0.309375	0.4429688	0.50625	0.3199219	0.1863281	0.2214844
0.793	0.3023438	0.1722656	0.2777344	0.3269531	0.39375	0.28125	0.1335938	0.1476563
0.794	0.2847656	0.1125	0.2496094	0.2179688	0.3023438	0.2496094	0.1019531	0.084375
0.795	0.2074219	0.003515625	0.1757813	0.07734375	0.1757813	0.1792969	0.04921875	0
0.796	0.05273438	-0.16875	0.028125	-0.1300781	-0.003515625	0.0421875	-0.04921875	-0.1441406
0.797	-0.1511719	-0.3761719	-0.1546875	-0.3585938	-0.2003906	-0.1230469	-0.1757813	-0.3199219
0.798	-0.309375	-0.5132813	-0.2882813	-0.4992188	-0.3128906	-0.2425781	-0.2566406	-0.421875
0.799	-0.3621094	-0.534375	-0.3269531	-0.5132813	-0.3058594	-0.2601563	-0.2636719	-0.4183594
0.8	-0.3023438	-0.4464844	-0.2601563	-0.4078125	-0.1933594	-0.1933594	-0.1898438	-0.3269531
0.801	-0.140625	-0.2566406	-0.1019531	-0.1792969	0.03515625	-0.04570313	-0.03164063	-0.1441406
0.802	0.0140625	-0.05976563	0.05273438	0.05273438	0.2601563	0.1054688	0.1125	0.028125
0.803	0.1546875	0.1054688	0.1898438	0.2601563	0.45	0.2425781	0.225	0.1757813
0.804	0.2953125	0.2707031	0.3234375	0.4675781	0.6292969	0.3691406	0.3269531	0.3128906
0.805	0.3621094	0.3480469	0.3796875	0.5800781	0.7171875	0.421875	0.3691406	0.3691406
0.806	0.365625	0.3375	0.3621094	0.5835938	0.703125	0.4007813	0.3304688	0.3515625
0.807	0.3691406	0.3234375	0.3515625	0.5660156	0.6609375	0.3832031	0.2847656	0.3199219
0.808	0.3832031	0.3128906	0.3550781	0.5308594	0.6082031	0.3726563	0.253125	0.2917969
0.809	0.3515625	0.2496094	0.3199219	0.4253906	0.5027344	0.3304688	0.1933594	0.2214844
0.81	0.2917969	0.1476563	0.2601563	0.2847656	0.365625	0.2707031	0.1195313	0.1265625
0.811	0.2320313	0.05625	0.2003906	0.1582031	0.2460938	0.2109375	0.06679688	0.0421875
0.812	0.1265625	-0.0703125	0.1054688	-0.003515625	0.09492188	0.1265625	0	-0.06328125
0.813	-0.04921875	-0.2601563	-0.04921875	-0.225	-0.09492188	-0.02109375	-0.1195313	-0.225
0.814	-0.2425781	-0.4464844	-0.2214844	-0.4253906	-0.2707031	-0.1828125	-0.2425781	-0.3832031
0.815	-0.3375	-0.5273438	-0.3023438	-0.5027344	-0.3234375	-0.253125	-0.28125	-0.4359375
0.816	-0.3445313	-0.5097656	-0.2988281	-0.4746094	-0.28125	-0.2460938	-0.2566406	-0.4078125
0.817	-0.2777344	-0.4148438	-0.2285156	-0.3515625	-0.1511719	-0.16875	-0.1792969	-0.3058594
0.818	-0.1335938	-0.2285156	-0.08085938	-0.1230469	0.0703125	-0.02460938	-0.03867188	-0.1195313
0.819	0.02109375	-0.0421875	0.06679688	0.09140625	0.2882813	0.1230469	0.1019531	0.05273438
0.82	0.1792969	0.1335938	0.2144531	0.309375	0.4957031	0.2636719	0.2320313	0.2109375
0.821	0.3199219	0.2953125	0.3445313	0.5027344	0.6714844	0.3832031	0.3375	0.3410156
0.822	0.3902344	0.3726563	0.4042969	0.5941406	0.7417969	0.4289063	0.3726563	0.3902344
0.823	0.39375	0.3691406	0.39375	0.5871094	0.7207031	0.4148438	0.3375	0.365625
0.824	0.3796875	0.3339844	0.3691406	0.5414063	0.6503906	0.3796875	0.28125	0.3128906
0.825	0.3550781	0.28125	0.3339844	0.4675781	0.5660156	0.3445313	0.225	0.253125
0.826	0.3128906	0.2003906	0.2882813	0.3480469	0.4429688	0.2953125	0.1582031	0.1722656
0.827	0.2671875	0.1089844	0.2355469	0.2144531	0.3234375	0.2355469	0.0984375	0.08789063
0.828	0.2144531	0.01757813	0.1828125	0.08789063	0.2109375	0.1792969	0.05625	0.00703125
0.829	0.1195313	-0.0984375	0.09492188	-0.0703125	0.0703125	0.09140625	-0.003515625	-0.09140625
0.83	-0.05625	-0.28125	-0.06328125	-0.28125	-0.1125	-0.05625	-0.1195313	-0.2460938
0.831	-0.2566406	-0.4640625	-0.2390625	-0.4675781	-0.2777344	-0.2109375	-0.2460938	-0.39375
0.832	-0.3585938	-0.5378906	-0.3199219	-0.5273438	-0.3199219	-0.2742188	-0.2847656	-0.4359375
0.833	-0.3515625	-0.50625	-0.309375	-0.478125	-0.253125	-0.2496094	-0.2496094	-0.3867188
0.834	-0.2566406	-0.3761719	-0.2074219	-0.3128906	-0.084375	-0.1371094	-0.1441406	-0.2496094
0.835	-0.1019531	-0.1792969	-0.04921875	-0.0703125	0.1441406	0.02109375	0.003515625	-0.05976563
0.836	0.0703125	0.01757813	0.1160156	0.1652344	0.3691406	0.1757813	0.1476563	0.1230469
0.837	0.2425781	0.2144531	0.2742188	0.3972656	0.5871094	0.3269531	0.2847656	0.2917969
0.838	0.3445313	0.3269531	0.365625	0.5449219	0.7171875	0.4113281	0.3515625	0.3796875
0.839	0.3550781	0.3410156	0.365625	0.5730469	0.7242188	0.4148438	0.3375	0.3761719
0.84	0.3445313	0.3164063	0.3410156	0.5484375	0.6785156	0.3867188	0.2847656	0.3375
0.841	0.3445313	0.2917969	0.3269531	0.4957031	0.61875	0.365625	0.2390625	0.2882813
0.842	0.3304688	0.2425781	0.3023438	0.4113281	0.5273438	0.3304688	0.1898438	0.2285156
0.843	0.3164063	0.1792969	0.2742188	0.2988281	0.4183594	0.2882813	0.1441406	0.1546875
0.844	0.2988281	0.1160156	0.253125	0.1933594	0.3269531	0.253125	0.1160156	0.09492188
0.845	0.2144531	0.003515625	0.1757813	0.0421875	0.1933594	0.1792969	0.05976563	0.003515625
0.846	0.05273438	-0.1757813	0.028125	-0.1652344	0.00703125	0.0421875	-0.04570313	-0.140625
0.847	-0.1441406	-0.3796875	-0.1476563	-0.39375	-0.1863281	-0.1230469	-0.1828125	-0.3199219
0.848	-0.2953125	-0.50625	-0.2777344	-0.5414063	-0.2953125	-0.2425781	-0.2636719	-0.4253906
0.849	-0.3445313	-0.5238281	-0.3128906	-0.5554688	-0.2847656	-0.2601563	-0.2566406	-0.4183594
0.85	-0.2847656	-0.4429688	-0.2496094	-0.4464844	-0.1652344	-0.196875	-0.1757813	-0.3234375
0.851	-0.1265625	-0.253125	-0.09492188	-0.2144531	0.05976563	-0.05273438	-0.02460938	-0.1441406
0.852	0.01757813	-0.06679688	0.04921875	0.0140625	0.2777344	0.09140625	0.1160156	0.02460938
0.853	0.1371094	0.08085938	0.16875	0.2144531	0.4535156	0.2144531	0.2179688	0.1617188
0.854	0.2671875	0.2390625	0.2882813	0.4113281	0.6222656	0.3375	0.3058594	0.2953125
0.855	0.3445313	0.3304688	0.3550781	0.5273438	0.7101563	0.4042969	0.3445313	0.365625
0.856	0.3445313	0.3234375	0.3515625	0.534375	0.6960938	0.4007813	0.3164063	0.3585938
0.857	0.3445313	0.3058594	0.3375	0.5132813	0.6574219	0.3832031	0.2742188	0.3269531
0.858	0.3621094	0.2953125	0.3410156	0.4816406	0.6152344	0.3726563	0.2425781	0.2988281
0.859	0.3339844	0.2320313	0.3023438	0.3761719	0.5132813	0.3304688	0.1863281	0.225
0.86	0.2847656	0.1300781	0.2425781	0.2320313	0.3796875	0.2636719	0.1160156	0.1230469
0.861	0.2320313	0.0421875	0.1898438	0.1019531	0.2636719	0.2003906	0.06679688	0.028125
0.862	0.140625	-0.07734375	0.1054688	-0.05625	0.1230469	0.1160156	0.003515625	-0.07382813
0.863	-0.02460938	-0.2601563	-0.04570313	-0.2671875	-0.05976563	-0.02460938	-0.1019531	-0.225
0.864	-0.2144531	-0.4429688	-0.2109375	-0.4605469	-0.2320313	-0.1863281	-0.2214844	-0.3832031
0.865	-0.309375	-0.5167969	-0.2882813	-0.5378906	-0.2847656	-0.253125	-0.253125	-0.4359375
0.866	-0.3234375	-0.50625	-0.2953125	-0.5097656	-0.2425781	-0.2460938	-0.225	-0.4007813
0.867	-0.2671875	-0.4183594	-0.2320313	-0.3902344	-0.1195313	-0.1757813	-0.1441406	-0.3023438
0.868	-0.1230469	-0.2390625	-0.08789063	-0.16875	0.09140625	-0.03164063	-0.003515625	-0.1230469
0.869	0.02109375	-0.05625	0.05625	0.05273438	0.3023438	0.1125	0.1300781	0.04570313
0.87	0.1652344	0.1089844	0.1933594	0.2671875	0.4992188	0.2496094	0.2460938	0.196875
0.871	0.3023438	0.2671875	0.3234375	0.4570313	0.6714844	0.3726563	0.3445313	0.3269531
0.872	0.3761719	0.3480469	0.3902344	0.5519531	0.7488281	0.421875	0.3832031	0.3796875
0.873	0.3796875	0.3480469	0.3867188	0.5519531	0.7277344	0.4078125	0.3515625	0.3550781
0.874	0.3621094	0.309375	0.3515625	0.50625	0.6609375	0.3726563	0.2917969	0.2988281
0.875	0.3375	0.2566406	0.3164063	0.4324219	0.5765625	0.3375	0.2390625	0.2390625
0.876	0.2988281	0.1792969	0.2671875	0.3164063	0.4570313	0.2882813	0.1722656	0.1511719
0.877	0.2601563	0.09140625	0.2144531	0.1898438	0.3410156	0.2390625	0.1195313	0.0703125
0.878	0.2109375	0.003515625	0.1617188	0.0703125	0.2320313	0.1863281	0.07734375	0.003515625
0.879	0.1195313	-0.1089844	0.07734375	-0.084375	0.0984375	0.1019531	0.01757813	-0.08789063
0.88	-0.05273438	-0.2917969	-0.07734375	-0.2953125	-0.084375	-0.04921875	-0.09492188	-0.2460938
0.881	-0.2566406	-0.4746094	-0.253125	-0.4851563	-0.2566406	-0.2074219	-0.2214844	-0.4007813
0.882	-0.365625	-0.5484375	-0.3375	-0.5484375	-0.309375	-0.2742188	-0.2601563	-0.4429688
0.883	-0.3761719	-0.5167969	-0.3269531	-0.4957031	-0.253125	-0.2460938	-0.2285156	-0.3902344
0.884	-0.2882813	-0.3796875	-0.225	-0.3269531	-0.09492188	-0.1371094	-0.1265625	-0.2460938
0.885	-0.1335938	-0.1792969	-0.06328125	-0.084375	0.1300781	0.02109375	0.02109375	-0.05273438
0.886	0.02460938	0.0140625	0.09140625	0.140625	0.3445313	0.1757813	0.1617188	0.1195313
0.887	0.1863281	0.2039063	0.2496094	0.3691406	0.5484375	0.3199219	0.2847656	0.28125
0.888	0.2882813	0.3304688	0.3445313	0.5238281	0.675	0.4148438	0.3515625	0.3796875
0.889	0.2988281	0.3480469	0.3480469	0.5589844	0.6855469	0.421875	0.3445313	0.3832031
0.89	0.2882813	0.3234375	0.3234375	0.534375	0.6363281	0.3902344	0.2917969	0.3445313
0.891	0.28125	0.2953125	0.3058594	0.4851563	0.5730469	0.3621094	0.2425781	0.2953125
0.892	0.2636719	0.2425781	0.2777344	0.4042969	0.4816406	0.3269531	0.1898438	0.2320313
0.893	0.2496094	0.1828125	0.253125	0.2988281	0.365625	0.2953125	0.1371094	0.1617188
0.894	0.225	0.1195313	0.2285156	0.1863281	0.2636719	0.2601563	0.09140625	0.0984375
0.895	0.140625	0.01054688	0.1511719	0.028125	0.1265625	0.1863281	0.02109375	0
0.896	-0.0140625	-0.1652344	0.00703125	-0.1757813	-0.06328125	0.04921875	-0.084375	-0.140625
0.897	-0.2214844	-0.3726563	-0.1757813	-0.3972656	-0.2601563	-0.1195313	-0.2214844	-0.3164063
0.898	-0.3832031	-0.5132813	-0.3128906	-0.5414063	-0.3761719	-0.2390625	-0.309375	-0.4253906
0.899	-0.4324219	-0.5378906	-0.3515625	-0.5554688	-0.3726563	-0.2566406	-0.3023438	-0.4253906
0.9	-0.3761719	-0.4535156	-0.2917969	-0.45	-0.253125	-0.1933594	-0.225	-0.3375
0.901	-0.2144531	-0.2601563	-0.1335938	-0.225	-0.02109375	-0.0421875	-0.06679688	-0.1546875
0.902	-0.05273438	-0.06679688	0.02109375	0	0.2039063	0.1054688	0.07382813	0.0140625
0.903	0.07382813	0.084375	0.1476563	0.1933594	0.39375	0.225	0.1828125	0.1511719
0.904	0.2109375	0.2390625	0.2671875	0.39375	0.5765625	0.3445313	0.2847656	0.2847656
0.905	0.2953125	0.3269531	0.3375	0.5167969	0.675	0.4113281	0.3339844	0.3585938
0.906	0.2988281	0.3234375	0.3269531	0.5308594	0.6644531	0.4042969	0.3128906	0.3480469
0.907	0.3058594	0.309375	0.3164063	0.50625	0.6257813	0.3867188	0.2707031	0.3128906
0.908	0.3339844	0.2988281	0.3269531	0.4710938	0.5835938	0.3761719	0.2460938	0.2777344
0.909	0.3164063	0.2355469	0.2953125	0.3691406	0.4851563	0.3269531	0.1898438	0.2003906
0.91	0.2636719	0.1335938	0.2320313	0.225	0.3480469	0.2601563	0.1195313	0.09492188
0.911	0.2109375	0.03867188	0.1792969	0.09492188	0.2285156	0.196875	0.06679688	0.00703125
0.912	0.1195313	-0.07382813	0.09492188	-0.06679688	0.08789063	0.1160156	0	-0.09140625
0.913	-0.04570313	-0.2601563	-0.05625	-0.28125	-0.09140625	-0.02109375	-0.1125	-0.2425781
0.914	-0.2285156	-0.4429688	-0.2214844	-0.478125	-0.2566406	-0.1792969	-0.225	-0.4007813
0.915	-0.3199219	-0.5167969	-0.2988281	-0.5589844	-0.3058594	-0.2496094	-0.253125	-0.4535156
0.916	-0.3304688	-0.5027344	-0.2988281	-0.534375	-0.2636719	-0.2425781	-0.2285156	-0.4183594
0.917	-0.2742188	-0.4183594	-0.2355469	-0.4148438	-0.1441406	-0.16875	-0.1546875	-0.3199219
0.918	-0.1300781	-0.2390625	-0.09140625	-0.1898438	0.0703125	-0.02460938	-0.0140625	-0.1441406
0.919	0.0140625	-0.05625	0.04921875	0.03164063	0.28125	0.1195313	0.1195313	0.02460938
0.92	0.1617188	0.1125	0.1933594	0.2460938	0.4816406	0.2566406	0.2355469	0.1757813
0.921	0.3023438	0.2742188	0.3199219	0.4429688	0.6574219	0.3761719	0.3375	0.3058594
0.922	0.3726563	0.3480469	0.3796875	0.5414063	0.7277344	0.421875	0.3796875	0.3585938
0.923	0.3761719	0.3445313	0.3726563	0.5414063	0.7066406	0.4042969	0.3445313	0.3375
0.924	0.3585938	0.3023438	0.3375	0.4957031	0.6363281	0.3691406	0.28125	0.2882813
0.925	0.3304688	0.2460938	0.2988281	0.421875	0.5414063	0.3339844	0.225	0.2285156
0.926	0.2917969	0.16875	0.2496094	0.3023438	0.4183594	0.2847656	0.1582031	0.1441406
0.927	0.2496094	0.08085938	0.2039063	0.16875	0.2953125	0.2320313	0.09492188	0.05273438
0.928	0.196875	0	0.1511719	0.0421875	0.1828125	0.1757813	0.04570313	-0.02460938
0.929	0.1054688	-0.1160156	0.06679688	-0.1160156	0.04570313	0.08789063	-0.01054688	-0.1265625
0.93	-0.05976563	-0.3023438	-0.084375	-0.3269531	-0.1300781	-0.05976563	-0.1265625	-0.28125
0.931	-0.2566406	-0.4816406	-0.253125	-0.5132813	-0.2882813	-0.2179688	-0.2460938	-0.4289063
0.932	-0.3550781	-0.5519531	-0.3304688	-0.5730469	-0.3304688	-0.2777344	-0.2777344	-0.4710938
0.933	-0.3515625	-0.5203125	-0.3164063	-0.5167969	-0.2671875	-0.2496094	-0.2390625	-0.4148438
0.934	-0.2566406	-0.3867188	-0.2144531	-0.3445313	-0.0984375	-0.140625	-0.1265625	-0.2742188
0.935	-0.0984375	-0.1898438	-0.05976563	-0.1089844	0.1300781	0.01054688	0.02109375	-0.084375
0.936	0.07382813	0.00703125	0.1054688	0.1230469	0.3515625	0.16875	0.16875	0.09492188
0.937	0.2460938	0.2039063	0.2742188	0.3621094	0.5695313	0.3234375	0.3023438	0.2636719
0.938	0.3410156	0.3199219	0.3621094	0.5097656	0.6890625	0.4078125	0.365625	0.3515625
0.939	0.3445313	0.3234375	0.3585938	0.5378906	0.6855469	0.4007813	0.3515625	0.3410156
0.94	0.3339844	0.2988281	0.3339844	0.5097656	0.6398438	0.3691406	0.2988281	0.2988281
0.941	0.3304688	0.2707031	0.3164063	0.4640625	0.5800781	0.3480469	0.2460938	0.2601563
0.942	0.3164063	0.2179688	0.2882813	0.3867188	0.4992188	0.3199219	0.1933594	0.2039063
0.943	0.2988281	0.1511719	0.2566406	0.2742188	0.3902344	0.28125	0.1441406	0.1371094
0.944	0.2777344	0.08085938	0.2320313	0.1652344	0.2953125	0.2425781	0.1054688	0.0703125
0.945	0.196875	-0.02109375	0.1546875	0.01757813	0.1652344	0.1722656	0.05273438	-0.01757813
0.946	0.0421875	-0.1933594	0.01757813	-0.1898438	-0.01054688	0.0421875	-0.0421875	-0.1617188
0.947	-0.1546875	-0.39375	-0.1617188	-0.4148438	-0.2003906	-0.1230469	-0.1722656	-0.3339844
0.948	-0.3128906	-0.534375	-0.2988281	-0.5554688	-0.3164063	-0.2425781	-0.2636719	-0.4464844
0.949	-0.365625	-0.5589844	-0.3375	-0.5765625	-0.3128906	-0.2707031	-0.2707031	-0.4535156
0.95	-0.3164063	-0.4851563	-0.2847656	-0.4746094	-0.2039063	-0.2074219	-0.196875	-0.3585938
0.951	-0.1652344	-0.2917969	-0.1300781	-0.2496094	0.01757813	-0.05625	-0.04570313	-0.1722656
0.952	-0.003515625	-0.09140625	0.02460938	-0.0140625	0.2425781	0.1019531	0.0984375	0.00703125
0.953	0.1335938	0.08085938	0.1617188	0.1898438	0.4394531	0.2425781	0.2179688	0.1617188
0.954	0.28125	0.253125	0.3023438	0.4007813	0.6328125	0.3726563	0.3375	0.3058594
0.955	0.3550781	0.3375	0.3691406	0.5273438	0.73125	0.4324219	0.3867188	0.3691406
0.956	0.3585938	0.3339844	0.3585938	0.534375	0.7207031	0.4148438	0.3621094	0.3550781
0.957	0.3761719	0.3199219	0.3515625	0.5132813	0.6855469	0.39375	0.3234375	0.3234375
0.958	0.39375	0.3058594	0.3550781	0.478125	0.6363281	0.3832031	0.2882813	0.2882813
0.959	0.3585938	0.2390625	0.3128906	0.3726563	0.5238281	0.3410156	0.2179688	0.2109375
0.96	0.2988281	0.1371094	0.2460938	0.2285156	0.3761719	0.2777344	0.1371094	0.1125
0.961	0.2320313	0.03867188	0.1828125	0.09492188	0.2496094	0.2179688	0.08085938	0.028125
0.962	0.1265625	-0.08085938	0.09140625	-0.05976563	0.1019531	0.1335938	0.0140625	-0.0703125
0.963	-0.03867188	-0.2671875	-0.05976563	-0.2707031	-0.08789063	-0.00703125	-0.0984375	-0.2285156
0.964	-0.2285156	-0.4535156	-0.225	-0.4675781	-0.2636719	-0.16875	-0.225	-0.3867188
0.965	-0.3269531	-0.534375	-0.3023438	-0.5484375	-0.3199219	-0.2460938	-0.2636719	-0.4464844
0.966	-0.3375	-0.5203125	-0.3058594	-0.5308594	-0.2777344	-0.2390625	-0.2390625	-0.4183594
0.967	-0.28125	-0.4289063	-0.2425781	-0.4148438	-0.1476563	-0.1652344	-0.1617188	-0.3234375
0.968	-0.1371094	-0.2460938	-0.0984375	-0.1933594	0.07382813	-0.02109375	-0.01054688	-0.1441406
0.969	0.0140625	-0.05976563	0.04570313	0.03164063	0.2953125	0.1265625	0.1300781	0.028125
0.97	0.1582031	0.1089844	0.1863281	0.2460938	0.4957031	0.2636719	0.2460938	0.1792969
0.971	0.2988281	0.2707031	0.3164063	0.4429688	0.675	0.3832031	0.3410156	0.3128906
0.972	0.3796875	0.3550781	0.3902344	0.5449219	0.7628906	0.4394531	0.3832031	0.3691406
0.973	0.3902344	0.3480469	0.3832031	0.5484375	0.7488281	0.421875	0.3515625	0.3480469
0.974	0.365625	0.3023438	0.3445313	0.4992188	0.6820313	0.3832031	0.2847656	0.2917969
0.975	0.3375	0.2460938	0.3058594	0.4253906	0.5871094	0.3480469	0.2214844	0.225
0.976	0.2953125	0.1617188	0.253125	0.3058594	0.4535156	0.2953125	0.1476563	0.1371094
0.977	0.2496094	0.07382813	0.2039063	0.1722656	0.3234375	0.2390625	0.084375	0.05273438
0.978	0.1933594	-0.01054688	0.1511719	0.04921875	0.2109375	0.1828125	0.0421875	-0.01757813
0.979	0.1019531	-0.1265625	0.06679688	-0.1019531	0.07382813	0.0984375	-0.01054688	-0.1160156
0.98	-0.06328125	-0.309375	-0.08789063	-0.3058594	-0.1054688	-0.0421875	-0.1230469	-0.2707031
0.981	-0.2601563	-0.4886719	-0.2636719	-0.4921875	-0.2636719	-0.196875	-0.2425781	-0.421875
0.982	-0.3585938	-0.5589844	-0.3410156	-0.5589844	-0.309375	-0.2601563	-0.28125	-0.4675781
0.983	-0.3550781	-0.5273438	-0.3269531	-0.5097656	-0.2496094	-0.2390625	-0.2460938	-0.421875
0.984	-0.2636719	-0.4007813	-0.2285156	-0.3445313	-0.084375	-0.1371094	-0.1371094	-0.2882813
0.985	-0.1054688	-0.2039063	-0.0703125	-0.1019531	0.140625	0.02109375	0.01054688	-0.09492188
0.986	0.05976563	0	0.09492188	0.1265625	0.3585938	0.1757813	0.1546875	0.08085938
0.987	0.2320313	0.1863281	0.2566406	0.3585938	0.5730469	0.3199219	0.28125	0.2425781
0.988	0.3304688	0.3023438	0.3480469	0.50625	0.703125	0.4078125	0.3480469	0.3339844
0.989	0.3375	0.3199219	0.3515625	0.534375	0.7101563	0.4042969	0.3339844	0.3269531
0.99	0.3269531	0.2953125	0.3234375	0.50625	0.6609375	0.3726563	0.28125	0.2882813
0.991	0.3269531	0.2671875	0.309375	0.4640625	0.6046875	0.3515625	0.2320313	0.2425781
0.992	0.309375	0.2144531	0.2777344	0.3796875	0.5203125	0.3199219	0.1792969	0.1828125
0.993	0.2917969	0.1511719	0.2460938	0.2707031	0.4078125	0.28125	0.1265625	0.1089844
0.994	0.2707031	0.09140625	0.2214844	0.1617188	0.3128906	0.2496094	0.08789063	0.04921875
0.995	0.1933594	-0.01054688	0.1476563	0.01757813	0.1863281	0.1828125	0.03515625	-0.03515625
0.996	0.04570313	-0.1863281	0.01054688	-0.1792969	0.01054688	0.04921875	-0.05273438	-0.1792969
0.997	-0.1476563	-0.39375	-0.1722656	-0.4007813	-0.1757813	-0.1195313	-0.1828125	-0.3480469
0.998	-0.309375	-0.534375	-0.3058594	-0.5414063	-0.2953125	-0.2390625	-0.2671875	-0.45
0.999	-0.365625	-0.5660156	-0.3410156	-0.5625	-0.2988281	-0.2671875	-0.2742188	-0.45
1	-0.3128906	-0.4886719	-0.28125	-0.4640625	-0.1863281	-0.2074219	-0.2039063	-0.3585938
1.001	-0.1582031	-0.2953125	-0.1230469	-0.2425781	0.03164063	-0.05976563	-0.05625	-0.1757813
1.002	0	-0.09492188	0.03515625	-0.00703125	0.2496094	0.09140625	0.08085938	0.00703125
1.003	0.1300781	0.06328125	0.1652344	0.1933594	0.4324219	0.2214844	0.1863281	0.1546875
1.004	0.2636719	0.225	0.2953125	0.39375	0.6117188	0.3480469	0.2882813	0.2953125
1.005	0.3410156	0.3164063	0.365625	0.5132813	0.703125	0.4148438	0.3339844	0.3585938
1.006	0.3480469	0.3234375	0.3585938	0.5238281	0.6960938	0.4042969	0.3058594	0.3375
1.007	0.3585938	0.3128906	0.3585938	0.5027344	0.6609375	0.3867188	0.2636719	0.3023438
1.008	0.3796875	0.2988281	0.365625	0.4746094	0.61875	0.3796875	0.2320313	0.2742188
1.009	0.3515625	0.2355469	0.3234375	0.3796875	0.5132813	0.3410156	0.1792969	0.2074219
1.01	0.2953125	0.1335938	0.2566406	0.2425781	0.3796875	0.2777344	0.1125	0.1160156
1.011	0.2425781	0.03867188	0.196875	0.1125	0.2707031	0.2214844	0.0703125	0.03515625
1.012	0.1511719	-0.07382813	0.1125	-0.0421875	0.1335938	0.140625	0.01054688	-0.05976563
1.013	-0.0140625	-0.2601563	-0.03515625	-0.2566406	-0.04921875	0	-0.0984375	-0.2109375
1.014	-0.2003906	-0.4429688	-0.2003906	-0.4605469	-0.2179688	-0.1582031	-0.2179688	-0.3691406
1.015	-0.2917969	-0.5167969	-0.2777344	-0.5414063	-0.2671875	-0.2285156	-0.2425781	-0.421875
1.016	-0.2988281	-0.4957031	-0.2742188	-0.5132813	-0.2144531	-0.2214844	-0.2039063	-0.3867188
1.017	-0.2460938	-0.4113281	-0.2144531	-0.39375	-0.09140625	-0.1546875	-0.1265625	-0.2882813
1.018	-0.1125	-0.2390625	-0.07734375	-0.1722656	0.1125	-0.0140625	0.003515625	-0.1195313
1.019	0.03164063	-0.05273438	0.06328125	0.04570313	0.3164063	0.1300781	0.1300781	0.04570313
1.02	0.1757813	0.1230469	0.2074219	0.2636719	0.5167969	0.2707031	0.2460938	0.2074219
1.021	0.3128906	0.2777344	0.3304688	0.4605469	0.6890625	0.3867188	0.3375	0.3410156
1.022	0.3796875	0.3515625	0.3902344	0.5519531	0.7558594	0.4324219	0.3691406	0.3867188
1.023	0.3832031	0.3480469	0.3796875	0.5519531	0.7277344	0.4183594	0.3375	0.3621094
1.024	0.365625	0.3058594	0.3445313	0.5132813	0.6574219	0.3902344	0.28125	0.3164063
1.025	0.3410156	0.2496094	0.309375	0.4429688	0.5730469	0.3515625	0.2320313	0.2601563
1.026	0.3023438	0.16875	0.2601563	0.3234375	0.45	0.3023438	0.1722656	0.1757813
1.027	0.253125	0.08085938	0.2074219	0.1898438	0.3234375	0.2496094	0.1160156	0.08789063
1.028	0.1933594	0	0.1546875	0.05273438	0.2039063	0.1933594	0.06328125	0.00703125
1.029	0.1019531	-0.1195313	0.0703125	-0.1054688	0.06328125	0.1054688	0	-0.09140625
1.03	-0.0703125	-0.3023438	-0.084375	-0.3199219	-0.1195313	-0.0421875	-0.1160156	-0.253125
1.031	-0.2671875	-0.4851563	-0.2566406	-0.5097656	-0.2882813	-0.2039063	-0.2390625	-0.4042969
1.032	-0.3691406	-0.5625	-0.3410156	-0.5800781	-0.3339844	-0.2671875	-0.2671875	-0.45
1.033	-0.365625	-0.534375	-0.3304688	-0.5308594	-0.2777344	-0.2460938	-0.225	-0.4042969
1.034	-0.2671875	-0.4007813	-0.2320313	-0.365625	-0.1089844	-0.1371094	-0.1125	-0.2707031
1.035	-0.1089844	-0.2039063	-0.0703125	-0.1265625	0.1195313	0.0140625	0.03515625	-0.084375
1.036	0.05976563	-0.00703125	0.09140625	0.1019531	0.3375	0.16875	0.1757813	0.08789063
1.037	0.2355469	0.1863281	0.253125	0.3339844	0.5484375	0.3199219	0.3058594	0.2496094
1.038	0.3269531	0.2953125	0.3445313	0.4816406	0.6679688	0.4042969	0.3691406	0.3410156
1.039	0.3304688	0.3058594	0.3410156	0.5097656	0.6679688	0.4007813	0.3480469	0.3375
1.04	0.3269531	0.2917969	0.3234375	0.4851563	0.6257813	0.3761719	0.2988281	0.2988281
1.041	0.3234375	0.2671875	0.309375	0.4394531	0.5695313	0.3550781	0.2566406	0.253125
1.042	0.309375	0.2109375	0.28125	0.3621094	0.4816406	0.3234375	0.2074219	0.1933594
1.043	0.2917969	0.1441406	0.2496094	0.253125	0.3691406	0.2847656	0.1546875	0.1195313
1.044	0.2636719	0.08085938	0.225	0.1476563	0.2707031	0.2496094	0.1125	0.05976563
1.045	0.1792969	-0.028125	0.1476563	0	0.1371094	0.1792969	0.04570313	-0.02109375
1.046	0.02460938	-0.2003906	0.00703125	-0.2074219	-0.0421875	0.04921875	-0.05625	-0.1652344
1.047	-0.1722656	-0.4042969	-0.1757813	-0.4324219	-0.2390625	-0.1160156	-0.1898438	-0.3445313
1.048	-0.3304688	-0.5449219	-0.309375	-0.5800781	-0.3515625	-0.2425781	-0.2742188	-0.4605469
1.049	-0.3832031	-0.5730469	-0.3480469	-0.5941406	-0.3445313	-0.2707031	-0.2671875	-0.4605469
1.05	-0.3269531	-0.4957031	-0.2882813	-0.4851563	-0.2320313	-0.2109375	-0.196875	-0.3691406
1.051	-0.1722656	-0.3058594	-0.1335938	-0.2601563	-0.003515625	-0.05976563	-0.04921875	-0.1863281
1.052	-0.01757813	-0.1089844	0.01757813	-0.03164063	0.2144531	0.08789063	0.09140625	-0.01054688
1.053	0.1054688	0.04570313	0.140625	0.16875	0.3902344	0.2214844	0.196875	0.1335938
1.054	0.2460938	0.2074219	0.2742188	0.3796875	0.5695313	0.3480469	0.2988281	0.2777344
1.055	0.3234375	0.3023438	0.3480469	0.4992188	0.6714844	0.4113281	0.3515625	0.3445313
1.056	0.3304688	0.3023438	0.3410156	0.5097656	0.6679688	0.3972656	0.3339844	0.3304688
1.057	0.3445313	0.2988281	0.3375	0.4957031	0.6328125	0.3796875	0.2988281	0.2988281
1.058	0.3691406	0.2953125	0.3445313	0.4675781	0.5941406	0.3761719	0.2742188	0.2742188
1.059	0.3445313	0.2320313	0.309375	0.3726563	0.4921875	0.3375	0.225	0.2003906
1.06	0.2847656	0.1230469	0.2390625	0.2285156	0.3515625	0.2742188	0.1511719	0.1019531
1.061	0.225	0.028125	0.1757813	0.1019531	0.2355469	0.2144531	0.09492188	0.02109375
1.062	0.1335938	-0.09140625	0.09140625	-0.05273438	0.0984375	0.1300781	0.028125	-0.0703125
1.063	-0.028125	-0.2671875	-0.04921875	-0.2671875	-0.08789063	-0.00703125	-0.084375	-0.2214844
1.064	-0.2179688	-0.4464844	-0.2179688	-0.4640625	-0.2601563	-0.1652344	-0.2074219	-0.3761719
1.065	-0.3164063	-0.5238281	-0.2988281	-0.5449219	-0.3164063	-0.2390625	-0.2460938	-0.4289063
1.066	-0.3339844	-0.5167969	-0.3058594	-0.5238281	-0.2777344	-0.2355469	-0.2214844	-0.4007813
1.067	-0.2882813	-0.4359375	-0.253125	-0.4113281	-0.1652344	-0.1722656	-0.1511719	-0.309375
1.068	-0.1582031	-0.2636719	-0.1160156	-0.1933594	0.0421875	-0.028125	-0.01054688	-0.1335938
1.069	-0.003515625	-0.07382813	0.03164063	0.02460938	0.2566406	0.1125	0.1265625	0.03164063
1.07	0.140625	0.09140625	0.1722656	0.2320313	0.4535156	0.2460938	0.2425781	0.1792969
1.071	0.2847656	0.253125	0.3058594	0.4289063	0.6292969	0.3621094	0.3480469	0.3058594
1.072	0.365625	0.3410156	0.3796875	0.5308594	0.7136719	0.4183594	0.3972656	0.3621094
1.073	0.3726563	0.3339844	0.3761719	0.5378906	0.6996094	0.4078125	0.365625	0.3480469
1.074	0.3515625	0.2917969	0.3410156	0.4886719	0.6292969	0.3726563	0.3023438	0.2953125
1.075	0.3304688	0.2390625	0.3058594	0.4148438	0.5414063	0.3339844	0.2425781	0.2320313
1.076	0.2882813	0.1582031	0.2566406	0.2988281	0.4183594	0.2847656	0.16875	0.1476563
1.077	0.2425781	0.0703125	0.2003906	0.1652344	0.2953125	0.2285156	0.1054688	0.06328125
1.078	0.1863281	-0.0140625	0.1441406	0.03515625	0.1792969	0.1722656	0.05625	-0.0140625
1.079	0.09492188	-0.1300781	0.05976563	-0.1265625	0.04570313	0.09140625	0	-0.1160156
1.08	-0.07382813	-0.3128906	-0.08789063	-0.3339844	-0.1371094	-0.05273438	-0.1089844	-0.2671875
1.081	-0.2707031	-0.5027344	-0.2636719	-0.5238281	-0.3023438	-0.2109375	-0.2285156	-0.4183594
1.082	-0.3726563	-0.5800781	-0.3515625	-0.5871094	-0.3480469	-0.28125	-0.2601563	-0.4675781
1.083	-0.3691406	-0.5484375	-0.3445313	-0.534375	-0.2917969	-0.2566406	-0.225	-0.421875
1.084	-0.2777344	-0.4183594	-0.2460938	-0.3761719	-0.1371094	-0.1546875	-0.1300781	-0.2882813
1.085	-0.1195313	-0.2214844	-0.084375	-0.1371094	0.08789063	0	0.0140625	-0.0984375
1.086	0.04921875	-0.01757813	0.084375	0.09140625	0.3128906	0.1546875	0.1582031	0.07734375
1.087	0.2179688	0.16875	0.2425781	0.3164063	0.5273438	0.2988281	0.2882813	0.2355469
1.088	0.3199219	0.2882813	0.3410156	0.4746094	0.6644531	0.3902344	0.365625	0.3375
1.089	0.3445313	0.3164063	0.3550781	0.5132813	0.6820313	0.4007813	0.365625	0.3480469
1.09	0.3339844	0.3023438	0.3339844	0.4886719	0.6398438	0.3761719	0.3128906	0.3058594
1.091	0.3234375	0.2742188	0.309375	0.4394531	0.5730469	0.3480469	0.253125	0.2566406
1.092	0.2988281	0.2179688	0.2742188	0.3585938	0.478125	0.3128906	0.1898438	0.1933594
1.093	0.2777344	0.1511719	0.2425781	0.2496094	0.3621094	0.2671875	0.1335938	0.1195313
1.094	0.2566406	0.084375	0.2144531	0.1441406	0.2671875	0.2320313	0.0984375	0.05976563
1.095	0.1792969	-0.02109375	0.140625	0	0.1371094	0.16875	0.0421875	-0.02109375
1.096	0.03164063	-0.1933594	0	-0.2003906	-0.03867188	0.03867188	-0.05625	-0.1617188
1.097	-0.16875	-0.4007813	-0.1828125	-0.4183594	-0.2320313	-0.1300781	-0.1863281	-0.3304688
1.098	-0.3304688	-0.5519531	-0.3234375	-0.5625	-0.3515625	-0.2566406	-0.2671875	-0.4429688
1.099	-0.3902344	-0.5835938	-0.3621094	-0.5835938	-0.3550781	-0.2882813	-0.2707031	-0.4535156
1.1	-0.3375	-0.5097656	-0.309375	-0.4851563	-0.253125	-0.2390625	-0.2074219	-0.3761719
1.101	-0.1898438	-0.3304688	-0.1582031	-0.2671875	-0.0421875	-0.0984375	-0.06328125	-0.2003906
1.102	-0.0421875	-0.1371094	-0.003515625	-0.03164063	0.1652344	0.04570313	0.07734375	-0.01757813
1.103	0.08789063	0.02109375	0.1230469	0.16875	0.3480469	0.1757813	0.1898438	0.1265625
1.104	0.2285156	0.1863281	0.2566406	0.3726563	0.5308594	0.3023438	0.2953125	0.2671875
1.105	0.3023438	0.28125	0.3304688	0.4921875	0.6257813	0.3691406	0.3410156	0.3339844
1.106	0.2988281	0.28125	0.3164063	0.5027344	0.6152344	0.3621094	0.3128906	0.3199219
1.107	0.3058594	0.2707031	0.3058594	0.4851563	0.5765625	0.3445313	0.2671875	0.2847656
1.108	0.3269531	0.2601563	0.3128906	0.4535156	0.5378906	0.3339844	0.2425781	0.2496094
1.109	0.309375	0.2003906	0.28125	0.3585938	0.4394531	0.2917969	0.1933594	0.1792969
1.11	0.2601563	0.1054688	0.2214844	0.2144531	0.3023438	0.2320313	0.1230469	0.084375
1.111	0.2074219	0.02109375	0.1652344	0.084375	0.1863281	0.1757813	0.06679688	0.003515625
1.112	0.1195313	-0.08789063	0.084375	-0.07382813	0.05273438	0.0984375	0.003515625	-0.09492188
1.113	-0.03164063	-0.2671875	-0.05625	-0.2847656	-0.1230469	-0.03515625	-0.1019531	-0.2425781
1.114	-0.2179688	-0.4535156	-0.225	-0.4851563	-0.2882813	-0.1898438	-0.2179688	-0.39375
1.115	-0.3128906	-0.5308594	-0.3058594	-0.5695313	-0.3410156	-0.2671875	-0.253125	-0.4535156
1.116	-0.3269531	-0.5238281	-0.3058594	-0.5414063	-0.3023438	-0.2601563	-0.2214844	-0.421875
1.117	-0.28125	-0.4429688	-0.253125	-0.4253906	-0.1933594	-0.196875	-0.1511719	-0.3269531
1.118	-0.1546875	-0.2671875	-0.1160156	-0.2039063	0.00703125	-0.05625	-0.02109375	-0.1546875
1.119	-0.0140625	-0.084375	0.02460938	0.01054688	0.2074219	0.084375	0.1019531	0.003515625
1.12	0.1230469	0.08085938	0.1617188	0.2214844	0.39375	0.2179688	0.2109375	0.1546875
1.121	0.2601563	0.2390625	0.2917969	0.4183594	0.5625	0.3375	0.3058594	0.2847656
1.122	0.3375	0.3269531	0.3585938	0.5167969	0.6433594	0.39375	0.3445313	0.3410156
1.123	0.3375	0.3199219	0.3480469	0.5167969	0.61875	0.3796875	0.309375	0.3164063
1.124	0.3128906	0.2777344	0.309375	0.4640625	0.5484375	0.3410156	0.2425781	0.2636719
1.125	0.2917969	0.2285156	0.2777344	0.3902344	0.4675781	0.3058594	0.1898438	0.2039063
1.126	0.2601563	0.1511719	0.2320313	0.2777344	0.3585938	0.2601563	0.1371094	0.1230469
1.127	0.2179688	0.06328125	0.1828125	0.1476563	0.2425781	0.2074219	0.084375	0.0421875
1.128	0.1652344	-0.01757813	0.1300781	0.02460938	0.1371094	0.1546875	0.03867188	-0.028125
1.129	0.07734375	-0.1371094	0.04921875	-0.1300781	0.003515625	0.0703125	-0.01054688	-0.1300781
1.13	-0.08789063	-0.3199219	-0.1054688	-0.3339844	-0.16875	-0.07382813	-0.1265625	-0.28125
1.131	-0.28125	-0.5027344	-0.2777344	-0.5238281	-0.3339844	-0.2320313	-0.2460938	-0.4359375
1.132	-0.3832031	-0.5800781	-0.3550781	-0.5941406	-0.3867188	-0.2988281	-0.2777344	-0.4851563
1.133	-0.3832031	-0.5519531	-0.3445313	-0.5449219	-0.3304688	-0.2742188	-0.2390625	-0.4324219
1.134	-0.2882813	-0.4253906	-0.2496094	-0.3761719	-0.1617188	-0.1652344	-0.1265625	-0.2988281
1.135	-0.1195313	-0.225	-0.084375	-0.1335938	0.07382813	-0.00703125	0.03164063	-0.1054688
1.136	0.05625	-0.02109375	0.08085938	0.09140625	0.2988281	0.1441406	0.1792969	0.06679688
1.137	0.225	0.1757813	0.2425781	0.3234375	0.50625	0.2953125	0.309375	0.225
1.138	0.3234375	0.2953125	0.3410156	0.4816406	0.6363281	0.3832031	0.3726563	0.3234375
1.139	0.3234375	0.3023438	0.3375	0.5097656	0.6398438	0.3796875	0.3515625	0.3199219
1.14	0.3023438	0.2777344	0.309375	0.478125	0.5800781	0.3480469	0.2882813	0.2777344
1.141	0.2917969	0.2496094	0.2882813	0.4324219	0.50625	0.3269531	0.2320313	0.2320313
1.142	0.2707031	0.2003906	0.2566406	0.3515625	0.4078125	0.2917969	0.1792969	0.1757813
1.143	0.253125	0.1335938	0.225	0.2425781	0.2953125	0.2496094	0.1335938	0.1054688
1.144	0.2355469	0.06328125	0.196875	0.140625	0.2003906	0.2074219	0.1054688	0.03867188
1.145	0.1582031	-0.0421875	0.1230469	-0.003515625	0.0703125	0.1335938	0.04921875	-0.05625
1.146	0.003515625	-0.2179688	-0.0140625	-0.2074219	-0.1089844	0.00703125	-0.05976563	-0.2003906
1.147	-0.196875	-0.421875	-0.2003906	-0.4253906	-0.3058594	-0.1582031	-0.196875	-0.3691406
1.148	-0.3585938	-0.5625	-0.3375	-0.5730469	-0.4289063	-0.28125	-0.28125	-0.4816406
1.149	-0.4148438	-0.5871094	-0.3726563	-0.5976563	-0.4253906	-0.309375	-0.2882813	-0.4886719
1.15	-0.365625	-0.5132813	-0.3164063	-0.4992188	-0.3164063	-0.2496094	-0.2214844	-0.4007813
1.151	-0.2144531	-0.3234375	-0.16875	-0.2742188	-0.09140625	-0.0984375	-0.06679688	-0.2144531
1.152	-0.04921875	-0.1230469	-0.01054688	-0.03867188	0.1300781	0.05625	0.084375	-0.028125
1.153	0.08085938	0.03515625	0.1195313	0.1617188	0.3128906	0.1898438	0.196875	0.1160156
1.154	0.2214844	0.2003906	0.253125	0.3585938	0.4921875	0.3199219	0.2953125	0.253125
1.155	0.3023438	0.2988281	0.3234375	0.478125	0.5871094	0.3832031	0.3410156	0.3199219
1.156	0.3023438	0.3023438	0.3199219	0.4886719	0.5695313	0.3726563	0.3128906	0.2988281
1.157	0.309375	0.2847656	0.3058594	0.4710938	0.5273438	0.3550781	0.2707031	0.2671875
1.158	0.3304688	0.2707031	0.309375	0.4429688	0.4851563	0.3445313	0.2460938	0.2390625
1.159	0.3058594	0.2074219	0.2742188	0.3480469	0.3867188	0.3058594	0.1898438	0.1722656
1.16	0.2460938	0.1089844	0.2144531	0.2074219	0.253125	0.2390625	0.1089844	0.0703125
1.161	0.1898438	0.01757813	0.1582031	0.0703125	0.1371094	0.1757813	0.05273438	-0.0140625
1.162	0.0984375	-0.0984375	0.07734375	-0.084375	0	0.09492188	-0.00703125	-0.1195313
1.163	-0.06679688	-0.28125	-0.07382813	-0.2917969	-0.1828125	-0.03867188	-0.1160156	-0.2707031
1.164	-0.253125	-0.4675781	-0.2460938	-0.4886719	-0.3585938	-0.196875	-0.2320313	-0.421875
1.165	-0.3550781	-0.5484375	-0.3304688	-0.5730469	-0.421875	-0.2777344	-0.2707031	-0.4816406
1.166	-0.3726563	-0.5378906	-0.3339844	-0.5554688	-0.3867188	-0.2707031	-0.2460938	-0.45
1.167	-0.3234375	-0.45	-0.2707031	-0.4394531	-0.2777344	-0.2003906	-0.1792969	-0.3515625
1.168	-0.1863281	-0.2707031	-0.1300781	-0.2179688	-0.0703125	-0.05625	-0.0421875	-0.1757813
1.169	-0.03515625	-0.084375	0.01757813	0	0.1335938	0.084375	0.08789063	-0.00703125
1.17	0.1125	0.09140625	0.1582031	0.2144531	0.3269531	0.2214844	0.2109375	0.1441406
1.171	0.2496094	0.2496094	0.2882813	0.4113281	0.4992188	0.3375	0.3128906	0.2777344
1.172	0.3199219	0.3234375	0.3480469	0.5097656	0.5695313	0.3832031	0.3550781	0.3339844
1.173	0.3269531	0.3199219	0.3410156	0.5132813	0.5484375	0.3691406	0.3234375	0.3128906
1.174	0.3128906	0.2847656	0.3058594	0.4675781	0.4851563	0.3339844	0.2566406	0.2601563
1.175	0.2882813	0.2355469	0.2707031	0.3972656	0.4007813	0.2988281	0.196875	0.2003906
1.176	0.253125	0.1546875	0.2214844	0.2742188	0.2847656	0.2566406	0.1300781	0.1230469
1.177	0.2109375	0.06679688	0.1722656	0.140625	0.1652344	0.2074219	0.06328125	0.0421875
1.178	0.1582031	-0.01054688	0.1230469	0.01757813	0.05625	0.1546875	0.01757813	-0.03515625
1.179	0.06679688	-0.1300781	0.0421875	-0.1371094	-0.0703125	0.06679688	-0.03164063	-0.1335938
1.18	-0.1019531	-0.3128906	-0.1089844	-0.3445313	-0.2460938	-0.07382813	-0.140625	-0.2847656
1.181	-0.2988281	-0.4992188	-0.2847656	-0.5308594	-0.4078125	-0.2320313	-0.2566406	-0.4324219
1.182	-0.3902344	-0.5730469	-0.3621094	-0.6011719	-0.4464844	-0.2988281	-0.28125	-0.478125
1.183	-0.3832031	-0.5414063	-0.3410156	-0.5519531	-0.3796875	-0.2707031	-0.2355469	-0.4324219
1.184	-0.2847656	-0.4078125	-0.2390625	-0.3867188	-0.2144531	-0.1652344	-0.1300781	-0.2988281
1.185	-0.1265625	-0.2109375	-0.084375	-0.1476563	0.0140625	-0.01054688	0.0140625	-0.1089844
1.186	0.0421875	-0.003515625	0.08085938	0.084375	0.2390625	0.140625	0.1582031	0.07382813
1.187	0.2179688	0.196875	0.2496094	0.3199219	0.4570313	0.2953125	0.2953125	0.2425781
1.188	0.3199219	0.3164063	0.3480469	0.478125	0.5871094	0.3832031	0.365625	0.3339844
1.189	0.3269531	0.3304688	0.3480469	0.50625	0.5941406	0.3796875	0.3515625	0.3269531
1.19	0.3164063	0.3058594	0.3269531	0.4886719	0.5484375	0.3480469	0.2988281	0.2882813
1.191	0.309375	0.2742188	0.3058594	0.45	0.4921875	0.3234375	0.2425781	0.2460938
1.192	0.2917969	0.2179688	0.2671875	0.3691406	0.4007813	0.2847656	0.1863281	0.1757813
1.193	0.2671875	0.1511719	0.2320313	0.2566406	0.2882813	0.2425781	0.1300781	0.0984375
1.194	0.2425781	0.08085938	0.2074219	0.1511719	0.1898438	0.2074219	0.08789063	0.03164063
1.195	0.1652344	-0.02460938	0.1335938	0.00703125	0.06328125	0.1371094	0.03164063	-0.05273438
1.196	0.01054688	-0.2003906	0	-0.1898438	-0.1125	0.01054688	-0.06328125	-0.196875
1.197	-0.1898438	-0.4042969	-0.1792969	-0.4148438	-0.3128906	-0.1582031	-0.1933594	-0.365625
1.198	-0.3585938	-0.5519531	-0.3269531	-0.5625	-0.4359375	-0.28125	-0.2847656	-0.4746094
1.199	-0.4183594	-0.5835938	-0.3691406	-0.5835938	-0.4359375	-0.309375	-0.2917969	-0.4816406
1.2	-0.365625	-0.50625	-0.309375	-0.4921875	-0.3269531	-0.253125	-0.2214844	-0.3972656
1.201	-0.2074219	-0.3164063	-0.1546875	-0.2707031	-0.1019531	-0.1089844	-0.07382813	-0.2214844
1.202	-0.04921875	-0.1195313	0	-0.0421875	0.1160156	0.0421875	0.06679688	-0.0421875
1.203	0.07734375	0.03867188	0.1230469	0.1546875	0.3023438	0.1722656	0.1792969	0.0984375
1.204	0.2179688	0.2003906	0.253125	0.365625	0.4886719	0.2988281	0.2847656	0.2390625
1.205	0.2988281	0.2917969	0.3269531	0.4921875	0.5871094	0.3621094	0.3410156	0.309375
1.206	0.3023438	0.2917969	0.3199219	0.50625	0.5765625	0.3480469	0.3128906	0.2917969
1.207	0.309375	0.28125	0.309375	0.4886719	0.534375	0.3304688	0.2707031	0.2601563
1.208	0.3339844	0.2742188	0.3164063	0.4605469	0.4921875	0.3199219	0.2460938	0.2355469
1.209	0.3164063	0.2144531	0.2847656	0.365625	0.39375	0.28125	0.1898438	0.1722656
1.21	0.2636719	0.1125	0.225	0.2285156	0.253125	0.2214844	0.1160156	0.07382813
1.211	0.2039063	0.02460938	0.16875	0.0984375	0.1335938	0.1617188	0.05976563	-0.00703125
1.212	0.1160156	-0.08789063	0.08789063	-0.05625	-0.003515625	0.08085938	-0.003515625	-0.1054688
1.213	-0.04570313	-0.2707031	-0.06328125	-0.2671875	-0.1933594	-0.05625	-0.1125	-0.2566406
1.214	-0.2390625	-0.4640625	-0.2355469	-0.4675781	-0.3691406	-0.2144531	-0.2285156	-0.4078125
1.215	-0.3410156	-0.5449219	-0.3199219	-0.5554688	-0.4324219	-0.2953125	-0.2707031	-0.4675781
1.216	-0.3585938	-0.534375	-0.3269531	-0.5378906	-0.39375	-0.2882813	-0.2460938	-0.4394531
1.217	-0.3058594	-0.4535156	-0.2707031	-0.4253906	-0.2777344	-0.225	-0.1757813	-0.3445313
1.218	-0.16875	-0.2742188	-0.1265625	-0.2003906	-0.05625	-0.08085938	-0.03164063	-0.16875
1.219	-0.01757813	-0.08789063	0.01757813	0.02109375	0.1511719	0.05976563	0.1089844	0
1.22	0.1195313	0.07734375	0.1511719	0.225	0.3375	0.196875	0.225	0.1441406
1.221	0.2601563	0.2355469	0.2847656	0.421875	0.5167969	0.3199219	0.3199219	0.2742188
1.222	0.3445313	0.3304688	0.3585938	0.5273438	0.6046875	0.3796875	0.3691406	0.3375
1.223	0.3550781	0.3304688	0.3550781	0.5273438	0.5765625	0.3691406	0.3375	0.3164063
1.224	0.3339844	0.2847656	0.3164063	0.4816406	0.50625	0.3304688	0.2707031	0.2566406
1.225	0.3128906	0.2320313	0.28125	0.4113281	0.421875	0.2917969	0.2109375	0.1933594
1.226	0.2742188	0.1546875	0.2355469	0.2953125	0.2988281	0.2460938	0.1441406	0.1160156
1.227	0.2285156	0.05976563	0.1792969	0.16875	0.1757813	0.1933594	0.084375	0.03515625
1.228	0.1722656	-0.028125	0.1230469	0.0421875	0.06679688	0.140625	0.03867188	-0.03164063
1.229	0.084375	-0.1441406	0.0421875	-0.1160156	-0.05976563	0.05625	-0.01054688	-0.1335938
1.23	-0.07734375	-0.3199219	-0.1019531	-0.3269531	-0.2390625	-0.084375	-0.1230469	-0.2847656
1.231	-0.2742188	-0.4957031	-0.2742188	-0.5167969	-0.4113281	-0.2425781	-0.2496094	-0.4394531
1.232	-0.3796875	-0.5730469	-0.3585938	-0.5871094	-0.4640625	-0.3128906	-0.2917969	-0.4886719
1.233	-0.3796875	-0.5519531	-0.3480469	-0.5449219	-0.4007813	-0.2953125	-0.2601563	-0.45
1.234	-0.2847656	-0.4253906	-0.253125	-0.3902344	-0.2320313	-0.196875	-0.1582031	-0.3269531
1.235	-0.1230469	-0.225	-0.09140625	-0.1511719	0	-0.0421875	0	-0.1371094
1.236	0.05273438	-0.01757813	0.07734375	0.084375	0.2285156	0.1125	0.1546875	0.04570313
1.237	0.225	0.1757813	0.2460938	0.3164063	0.4464844	0.2707031	0.2882813	0.2144531
1.238	0.3199219	0.2917969	0.3339844	0.4675781	0.5765625	0.3585938	0.3515625	0.309375
1.239	0.3269531	0.3023438	0.3304688	0.4957031	0.5800781	0.3550781	0.3375	0.309375
1.24	0.3128906	0.2777344	0.3023438	0.4746094	0.5378906	0.3269531	0.2777344	0.2707031
1.241	0.3058594	0.2496094	0.28125	0.4289063	0.4851563	0.2988281	0.2214844	0.2214844
1.242	0.2882813	0.196875	0.253125	0.3515625	0.4007813	0.2601563	0.1722656	0.1582031
1.243	0.2707031	0.1335938	0.2214844	0.2425781	0.2953125	0.225	0.1265625	0.09140625
1.244	0.2496094	0.0703125	0.196875	0.1335938	0.2003906	0.1863281	0.09492188	0.028125
1.245	0.1722656	-0.03164063	0.1265625	-0.01054688	0.07382813	0.1160156	0.03515625	-0.05976563
1.246	0.02109375	-0.2039063	-0.003515625	-0.2179688	-0.1019531	-0.003515625	-0.06328125	-0.2039063
1.247	-0.1757813	-0.4113281	-0.1863281	-0.4359375	-0.3023438	-0.1757813	-0.1933594	-0.3726563
1.248	-0.3410156	-0.5625	-0.3304688	-0.5835938	-0.4253906	-0.3023438	-0.2882813	-0.4886719
1.249	-0.4042969	-0.6011719	-0.3796875	-0.6082031	-0.4289063	-0.3339844	-0.3023438	-0.4992188
1.25	-0.3585938	-0.5308594	-0.3269531	-0.5132813	-0.3304688	-0.2742188	-0.2320313	-0.4148438
1.251	-0.2074219	-0.3410156	-0.1757813	-0.2953125	-0.1160156	-0.1300781	-0.08085938	-0.2355469
1.252	-0.04570313	-0.140625	-0.01757813	-0.06679688	0.1019531	0.02109375	0.06328125	-0.04921875
1.253	0.08789063	0.01757813	0.1125	0.1300781	0.2917969	0.1511719	0.1757813	0.09140625
1.254	0.2285156	0.1828125	0.2460938	0.3375	0.4746094	0.2777344	0.28125	0.2285156
1.255	0.3023438	0.2742188	0.3128906	0.4570313	0.5695313	0.3410156	0.3234375	0.2953125
1.256	0.3023438	0.2742188	0.2988281	0.4675781	0.5589844	0.3304688	0.2953125	0.28125
1.257	0.309375	0.2636719	0.2917969	0.45	0.5203125	0.3164063	0.253125	0.2496094
1.258	0.3304688	0.2636719	0.3023438	0.4253906	0.4851563	0.309375	0.2285156	0.225
1.259	0.3128906	0.2039063	0.2707031	0.3304688	0.3902344	0.2707031	0.1863281	0.1582031
1.26	0.2601563	0.1019531	0.2074219	0.1898438	0.253125	0.2074219	0.1125	0.06328125
1.261	0.2039063	0.0140625	0.1511719	0.06328125	0.1335938	0.1511719	0.05625	-0.0140625
1.262	0.1160156	-0.0984375	0.0703125	-0.08789063	0	0.0703125	-0.003515625	-0.1125
1.263	-0.0421875	-0.2777344	-0.07382813	-0.2953125	-0.1863281	-0.06679688	-0.1089844	-0.2636719
1.264	-0.2355469	-0.4640625	-0.2460938	-0.4957031	-0.3621094	-0.225	-0.2355469	-0.4148438
1.265	-0.3410156	-0.5484375	-0.3304688	-0.5800781	-0.4289063	-0.3023438	-0.28125	-0.4746094
1.266	-0.3621094	-0.5378906	-0.3375	-0.5625	-0.39375	-0.2917969	-0.2566406	-0.4464844
1.267	-0.3164063	-0.4570313	-0.2847656	-0.4535156	-0.2777344	-0.225	-0.1863281	-0.3550781
1.268	-0.1828125	-0.2882813	-0.1511719	-0.2355469	-0.06328125	-0.08789063	-0.04921875	-0.1828125
1.269	-0.03164063	-0.1054688	-0.003515625	-0.00703125	0.1476563	0.05625	0.08789063	-0.00703125
1.27	0.1195313	0.06328125	0.1371094	0.2074219	0.3480469	0.196875	0.2179688	0.1476563
1.271	0.2671875	0.2285156	0.2707031	0.4113281	0.5238281	0.3164063	0.3199219	0.2847656
1.272	0.3375	0.3058594	0.3375	0.5097656	0.6046875	0.3621094	0.3550781	0.3410156
1.273	0.3445313	0.309375	0.3304688	0.50625	0.5835938	0.3480469	0.3269531	0.3199219
1.274	0.3339844	0.2742188	0.3023438	0.4570313	0.5167969	0.309375	0.2636719	0.2601563
1.275	0.3128906	0.2179688	0.2707031	0.3832031	0.4324219	0.2707031	0.2039063	0.196875
1.276	0.2742188	0.140625	0.225	0.2671875	0.309375	0.225	0.1371094	0.1125
1.277	0.2285156	0.05625	0.1757813	0.140625	0.1792969	0.1757813	0.07382813	0.03164063
1.278	0.1722656	-0.02460938	0.1195313	0.0140625	0.06679688	0.1230469	0.02460938	-0.03867188
1.279	0.084375	-0.140625	0.03867188	-0.140625	-0.05976563	0.04570313	-0.03164063	-0.1371094
1.28	-0.08085938	-0.3164063	-0.1089844	-0.3480469	-0.2355469	-0.09492188	-0.1441406	-0.2882813
1.281	-0.2777344	-0.5027344	-0.2847656	-0.5414063	-0.4007813	-0.253125	-0.2636719	-0.4429688
1.282	-0.3832031	-0.5800781	-0.3726563	-0.6152344	-0.45	-0.3234375	-0.3023438	-0.4921875
1.283	-0.3832031	-0.5484375	-0.3621094	-0.5695313	-0.39375	-0.2988281	-0.2671875	-0.4464844
1.284	-0.2882813	-0.4183594	-0.2636719	-0.4078125	-0.2285156	-0.196875	-0.1582031	-0.3128906
1.285	-0.1195313	-0.2109375	-0.09492188	-0.1652344	0.00703125	-0.03867188	0	-0.1195313
1.286	0.05273438	-0.01054688	0.0703125	0.06679688	0.2320313	0.1089844	0.1546875	0.05976563
1.287	0.225	0.1792969	0.2285156	0.2953125	0.4464844	0.253125	0.2882813	0.2214844
1.288	0.3304688	0.3058594	0.3339844	0.4570313	0.5835938	0.3445313	0.365625	0.3269531
1.289	0.3480469	0.3269531	0.3445313	0.4992188	0.6011719	0.3480469	0.3585938	0.3339844
1.29	0.3375	0.3023438	0.3199219	0.4816406	0.5589844	0.3199219	0.3058594	0.2917969
1.291	0.3269531	0.2707031	0.2988281	0.4359375	0.4921875	0.2917969	0.2460938	0.2425781
1.292	0.3023438	0.2144531	0.2601563	0.3550781	0.4007813	0.2566406	0.1792969	0.1757813
1.293	0.2742188	0.140625	0.225	0.2425781	0.2847656	0.2144531	0.1195313	0.0984375
1.294	0.2496094	0.0703125	0.1933594	0.1300781	0.1792969	0.1757813	0.07734375	0.03164063
1.295	0.1757813	-0.03164063	0.1195313	-0.0140625	0.04921875	0.1054688	0.02109375	-0.05625
1.296	0.028125	-0.2039063	-0.01054688	-0.2144531	-0.1265625	-0.0140625	-0.07382813	-0.1933594
1.297	-0.1617188	-0.4078125	-0.1898438	-0.4359375	-0.3164063	-0.1792969	-0.2039063	-0.3585938
1.298	-0.3269531	-0.5554688	-0.3304688	-0.5871094	-0.4394531	-0.3058594	-0.2988281	-0.4746094
1.299	-0.3867188	-0.5871094	-0.3726563	-0.6117188	-0.45	-0.3375	-0.3058594	-0.4851563
1.3	-0.3339844	-0.5097656	-0.3199219	-0.5167969	-0.3445313	-0.2777344	-0.2390625	-0.4042969
1.301	-0.1863281	-0.3234375	-0.16875	-0.2988281	-0.1230469	-0.1335938	-0.09492188	-0.2214844
1.302	-0.03164063	-0.1230469	-0.01054688	-0.05976563	0.09492188	0.02460938	0.04570313	-0.03164063
1.303	0.09492188	0.03164063	0.1125	0.1335938	0.2707031	0.1511719	0.1546875	0.1125
1.304	0.2320313	0.1898438	0.2425781	0.3339844	0.4464844	0.2742188	0.253125	0.2460938
1.305	0.3164063	0.2882813	0.3269531	0.4640625	0.5484375	0.3480469	0.3128906	0.3269531
1.306	0.3269531	0.2953125	0.3234375	0.4851563	0.5449219	0.3445313	0.2953125	0.3199219
1.307	0.3339844	0.2882813	0.309375	0.4675781	0.5027344	0.3269531	0.2601563	0.2882813
1.308	0.3515625	0.28125	0.3128906	0.4359375	0.4640625	0.3128906	0.2320313	0.253125
1.309	0.3304688	0.2214844	0.28125	0.3410156	0.3691406	0.2742188	0.1757813	0.1828125
1.31	0.2777344	0.1265625	0.2179688	0.2039063	0.2355469	0.2109375	0.0984375	0.09140625
1.311	0.2179688	0.03164063	0.1582031	0.07382813	0.1160156	0.1511719	0.03867188	0.01054688
1.312	0.1230469	-0.08789063	0.07382813	-0.08085938	-0.02109375	0.07382813	-0.01757813	-0.08085938
1.313	-0.03164063	-0.2671875	-0.0703125	-0.2882813	-0.2039063	-0.05976563	-0.1160156	-0.2285156
1.314	-0.2214844	-0.4464844	-0.2390625	-0.4886719	-0.3796875	-0.2144531	-0.2320313	-0.3761719
1.315	-0.3269531	-0.5238281	-0.3269531	-0.5800781	-0.4464844	-0.2917969	-0.2742188	-0.4324219
1.316	-0.3480469	-0.5167969	-0.3339844	-0.5625	-0.4113281	-0.2917969	-0.2566406	-0.4113281
1.317	-0.3023438	-0.4359375	-0.28125	-0.4570313	-0.3023438	-0.2285156	-0.1933594	-0.3234375
1.318	-0.16875	-0.2636719	-0.1441406	-0.2425781	-0.09492188	-0.08789063	-0.05625	-0.1511719
1.319	-0.01757813	-0.08085938	0.003515625	-0.02109375	0.1089844	0.05273438	0.08085938	0.02109375
1.32	0.1265625	0.08789063	0.1441406	0.1898438	0.309375	0.1898438	0.196875	0.1757813
1.321	0.2707031	0.2425781	0.2742188	0.3867188	0.4851563	0.3058594	0.2988281	0.309375
1.322	0.3445313	0.3234375	0.3445313	0.4921875	0.5695313	0.3585938	0.3445313	0.365625
1.323	0.3550781	0.3234375	0.3445313	0.4992188	0.5519531	0.3480469	0.3164063	0.3515625
1.324	0.3375	0.2847656	0.3128906	0.4570313	0.4886719	0.309375	0.2566406	0.3023438
1.325	0.3128906	0.2285156	0.2777344	0.3832031	0.4042969	0.2707031	0.1933594	0.2355469
1.326	0.2742188	0.1476563	0.2285156	0.2671875	0.2847656	0.2179688	0.1195313	0.1511719
1.327	0.2285156	0.05976563	0.1722656	0.1335938	0.1617188	0.1652344	0.05976563	0.0703125
1.328	0.1757813	-0.02460938	0.1195313	0.00703125	0.04570313	0.1125	0.0140625	0
1.329	0.09492188	-0.1371094	0.0421875	-0.1476563	-0.084375	0.03515625	-0.03867188	-0.0984375
1.33	-0.06679688	-0.309375	-0.1019531	-0.3550781	-0.2671875	-0.1019531	-0.140625	-0.2460938
1.331	-0.2671875	-0.4921875	-0.2742188	-0.5449219	-0.4324219	-0.2566406	-0.2566406	-0.39375
1.332	-0.3761719	-0.5800781	-0.365625	-0.61875	-0.4886719	-0.3304688	-0.3023438	-0.4429688
1.333	-0.3796875	-0.5589844	-0.3585938	-0.5765625	-0.4359375	-0.3128906	-0.2777344	-0.4007813
1.334	-0.2777344	-0.4253906	-0.2566406	-0.4113281	-0.2707031	-0.2039063	-0.1722656	-0.2707031
1.335	-0.1160156	-0.225	-0.09140625	-0.16875	-0.03515625	-0.0421875	-0.01757813	-0.084375
1.336	0.05273438	-0.02460938	0.07382813	0.06328125	0.1863281	0.1054688	0.1300781	0.09140625
1.337	0.225	0.1652344	0.2355469	0.2953125	0.4042969	0.253125	0.2636719	0.2566406
1.338	0.3304688	0.2917969	0.3339844	0.4535156	0.534375	0.3480469	0.3339844	0.3550781
1.339	0.3410156	0.3128906	0.3410156	0.4886719	0.5484375	0.3550781	0.3199219	0.3621094
1.34	0.3304688	0.2953125	0.3164063	0.4675781	0.5027344	0.3304688	0.2707031	0.3234375
1.341	0.3234375	0.2636719	0.2953125	0.421875	0.4464844	0.309375	0.2214844	0.2777344
1.342	0.3023438	0.2109375	0.2636719	0.3445313	0.3585938	0.2742188	0.16875	0.2214844
1.343	0.2882813	0.1441406	0.2320313	0.2355469	0.253125	0.2320313	0.1160156	0.1476563
1.344	0.2742188	0.084375	0.2109375	0.1265625	0.1617188	0.196875	0.084375	0.08789063
1.345	0.2003906	-0.01054688	0.1476563	-0.0140625	0.03867188	0.1300781	0.03164063	0.003515625
1.346	0.05273438	-0.1863281	0.01054688	-0.2179688	-0.140625	0.00703125	-0.06328125	-0.1300781
1.347	-0.1476563	-0.39375	-0.1722656	-0.4394531	-0.3445313	-0.1617188	-0.1933594	-0.3058594
1.348	-0.3128906	-0.5378906	-0.3199219	-0.590625	-0.4710938	-0.2882813	-0.2917969	-0.4253906
1.349	-0.3726563	-0.5695313	-0.3621094	-0.6152344	-0.4746094	-0.3234375	-0.2953125	-0.4359375
1.35	-0.3199219	-0.4992188	-0.309375	-0.5238281	-0.3726563	-0.2636719	-0.2214844	-0.3515625
1.351	-0.1722656	-0.3164063	-0.1617188	-0.3023438	-0.1546875	-0.1195313	-0.06679688	-0.1722656
1.352	-0.02109375	-0.1195313	-0.003515625	-0.06679688	0.06679688	0.03164063	0.08085938	0.01054688
1.353	0.1054688	0.03867188	0.1230469	0.1300781	0.2496094	0.1582031	0.1933594	0.1582031
1.354	0.2390625	0.2003906	0.253125	0.3304688	0.4289063	0.2882813	0.2917969	0.2953125
1.355	0.3128906	0.2917969	0.3269531	0.4535156	0.5238281	0.3550781	0.3375	0.3691406
1.356	0.3164063	0.2917969	0.3199219	0.4710938	0.5132813	0.3445313	0.309375	0.3515625
1.357	0.3164063	0.2777344	0.3058594	0.4464844	0.4710938	0.3199219	0.2601563	0.3128906
1.358	0.3339844	0.2707031	0.309375	0.4113281	0.421875	0.309375	0.2320313	0.2742188
1.359	0.3128906	0.2109375	0.2742188	0.3164063	0.3199219	0.2707031	0.1757813	0.2039063
1.36	0.253125	0.1125	0.2144531	0.1757813	0.1792969	0.2109375	0.1054688	0.1089844
1.361	0.2003906	0.02460938	0.1582031	0.04921875	0.06328125	0.1546875	0.05625	0.028125
1.362	0.1125	-0.084375	0.07734375	-0.0984375	-0.06328125	0.08085938	0	-0.05976563
1.363	-0.03867188	-0.2601563	-0.05976563	-0.2988281	-0.2390625	-0.05273438	-0.0984375	-0.2003906
1.364	-0.2214844	-0.45	-0.2285156	-0.4992188	-0.4078125	-0.2109375	-0.2179688	-0.3515625
