17.7103,8.15057,4.64508,-28.8203,-1.4398,12.2497,3.05587,6.80824,15.7209,17.1215,20.8921,7.42782,11.7299,1.99063,-8.35355,7.79107,21.96,-727.608,-621.712,24500,-25060,-22820
15.8369,16.8419,9.09678,-17.9292,6.59777,19.5439,7.79992,13.0136,12.6058,13.7017,20.3377,14.7059,15.9492,7.34405,3.68518,13.4957,34.16,-723.216,-638.304,17080,-22540,-18060
14.1514,20.1213,12.5077,-9.67321,13.5048,23.0171,9.11141,14.7828,9.8754,13.237,18.1737,18.9867,17.9187,15.1285,8.57275,19.3972,25.376,-720.776,-642.696,16240,-18340,-12460
-1.00803,7.51577,2.87597,-8.42514,7.98511,19.4038,9.77991,15.3119,-1.5475,3.22583,11.8596,7.84111,11.9816,13.3017,14.0864,20.6752,20.984,-743.712,-626.104,14000,-15400,-5040
-18.1579,-12.8776,-12.4891,-10.6839,-2.39966,10.4933,6.25108,14.1549,-15.4942,-14.3505,-1.06631,-11.3424,1.22922,4.0791,15.6958,14.2155,7.808,-764.208,-620.248,15120,-14840,-140
-2.28629,-12.8803,-3.55022,-19.7264,-12.9019,5.65983,-18.9863,1.30075,0.36177,-2.53149,4.39127,-7.68124,4.85508,-0.289528,-29.4166,-5.69798,-2.928,-767.136,-622.688,17360,-13300,3640
4.40095,-6.64649,6.145,-8.33363,-2.47321,3.88425,-5.22233,-2.34017,3.28398,2.65193,3.56874,1.99353,5.71183,2.75281,-12.8968,-2.28288,-25.864,-755.424,-629.032,21000,-10360,6300
-12.9911,-20.402,-1.29771,-7.00862,-6.34619,0.35738,-5.54392,-3.83626,-21.4549,-8.69296,-5.23683,-6.72878,0.581571,-1.54732,-11.8658,-8.13,-55.144,-734.928,-643.184,21280,-6440,7840
-20.7201,-22.5208,-7.85751,-3.45357,-8.6542,-6.90019,-9.76034,-8.79819,-33.0332,-15.0677,-11.2196,-10.2227,-4.69918,-5.6333,-14.3702,-17.9604,-77.592,-728.096,-639.768,18900,-3220,7700
-22.1886,-24.0345,-9.26359,-3.0607,-11.0226,-12.0231,-7.75521,-8.23569,-34.5662,-15.3005,-14.8347,-12.8745,-5.9497,-9.34567,-11.6872,-18.383,-98.088,-736.88,-627.568,17220,-1260,5600
-9.58443,-10.8179,-6.29002,3.38598,-7.89477,-10.8088,-1.0373,1.70484,-6.47291,-10.5496,-16.7632,-9.75046,-7.4412,-7.56587,-1.74168,-7.15528,-103.944,-760.792,-611.952,14700,-3780,3220
-12.0005,-1.59982,-10.1171,16.7678,1.37736,-14.5876,17.8621,6.20335,-1.50307,-17.175,-25.5423,-9.82739,-16.6395,-6.91219,28.9764,4.34326,-112.24,-759.328,-596.336,12040,-8960,-840
-4.34687,2.0977,-2.21676,13.8486,-2.28726,-16.3422,1.65858,-1.7776,2.10539,-6.90813,-16.4785,-4.29791,-13.0578,-8.64817,2.10439,-7.15564,-110.776,-773.48,-572.912,8960,-9660,-6440
5.63402,12.4442,4.82652,21.7228,5.43873,-15.684,8.65744,-2.67984,11.375,2.58886,-10.6894,4.57074,-10.4596,-6.41169,11.7526,-2.67866,-102.48,-785.192,-563.152,6020,-8820,-12320
2.35832,4.34909,3.9839,13.9115,1.27793,-12.3144,0.174879,-3.15971,1.78817,7.1997,-2.96622,-0.600554,-6.01283,-6.72623,-1.33175,-3.93804,-83.936,-772.992,-576.328,4340,-7140,-17220
3.09933,0.995168,4.32254,6.87188,-3.17171,-6.29213,-10.3333,-5.02595,-1.28109,13.3163,4.80951,-2.42263,2.80138,-4.0097,-17.0664,-5.008,-69.784,-765.184,-588.04,2240,-5740,-21280
1.61511,6.37858,1.83066,13.6807,1.12237,-0.598573,-1.33624,1.90976,0.908249,13.8463,6.68227,-2.65777,5.56375,0.440544,-2.73041,6.10027,-45.384,-755.912,-591.456,-1540,-6160,-22820
11.6282,19.8739,2.75508,23.6582,7.5391,5.01455,4.95893,5.81231,17.4481,19.664,12.1737,3.59597,7.97713,4.48591,3.96952,14.5361,-30.256,-738.832,-605.12,-6020,-4200,-23380
14.8622,19.1599,0.196276,21.1892,5.09299,9.85015,5.00649,2.07898,20.4527,19.6759,10.7529,5.06405,8.72974,4.36161,5.03746,13.9196,-9.76,-730.048,-603.168,-8680,-1540,-22260
13.5835,19.3134,1.40909,19.6323,4.58432,13.3779,3.24373,-2.59124,15.7213,15.7741,8.76949,10.159,9.65197,1.97976,1.68567,9.0881,8.784,-731.024,-600.24,-14980,1960,-19320
4.04907,7.16635,-4.59335,10.0325,-2.27428,11.4727,-1.20182,-3.45644,0.379081,5.34393,6.1042,2.67991,7.19019,-5.96867,-6.12767,5.60466,20.984,-743.224,-605.12,-20860,5600,-14700
-0.571674,-1.29068,-11.1671,2.53602,-6.37897,6.54391,-4.5089,-7.21032,-4.63309,-2.49338,4.19797,-6.11156,4.30868,-10.5837,-8.25718,2.00665,20.496,-756.4,-619.272,-21140,7140,-9240
1.81538,-1.20536,-11.55,-0.904411,-7.48795,5.5339,-10.8307,-11.572,-0.565774,-3.5791,4.8538,-5.47981,4.34589,-8.9067,-16.562,-6.67868,19.032,-760.792,-631.96,-18340,5600,-1820
-2.95304,-4.40181,-13.0853,1.59309,-6.78618,5.57467,-8.21787,-10.6162,-7.21707,-11.2187,-0.613057,-6.8154,0.506772,-4.87588,-9.41666,-9.12526,14.152,-766.648,-637.816,-15820,2100,4480
1.11356,-3.30717,-8.9963,0.127635,-5.49364,8.17546,-5.50254,-6.5983,-3.38576,-12.6048,0.346479,-3.38272,1.42804,-0.504947,-4.41508,-7.01706,-1.464,-774.944,-636.84,-13860,560,9660
2.7186,-3.27232,-6.33016,-4.55595,-6.97555,8.99294,-7.24444,-2.39952,-1.00703,-14.2899,-1.45454,-1.56259,1.64748,0.436162,-4.69465,-7.66203,-13.664,-781.288,-626.104,-12460,-140,13300
1.05018,-1.65779,-4.61475,-4.53694,-4.70827,6.6725,-3.0755,1.61287,-2.96377,-17.196,-6.72281,-0.0636766,0.290249,3.12418,0.564276,-7.52756,-32.696,-790.56,-617.808,-12740,1260,14700
1.62792,-2.73215,2.06157,-5.69426,-3.18095,6.80254,-1.56952,5.68852,-4.15725,-14.6473,-0.611395,-0.385146,3.30871,6.92803,-0.0602876,-5.87863,-54.168,-804.224,-608.536,-12880,3360,13720
5.91512,10.1296,7.98602,2.00006,6.17555,2.87153,5.00203,3.0979,1.76145,-12.6613,1.69086,6.13335,2.95644,7.9504,10.4747,-1.9695,-73.688,-810.568,-605.12,-12740,5040,10360
5.6561,10.2339,7.83528,-0.283746,7.67917,0.6657,6.82213,4.66033,3.05456,-10.3266,1.60191,4.47759,2.09178,7.60987,12.7428,1.27894,-94.184,-808.616,-602.192,-12600,5880,5320
6.21816,-7.59718,7.15987,-18.1361,-4.92969,-0.0607808,-6.34173,8.46805,3.70033,-1.4705,11.169,-3.2586,6.28305,2.6027,-7.71351,-1.62106,-102.968,-808.128,-601.704,-12600,5880,-560
1.14596,-6.17804,9.02185,-14.9398,0.974473,-3.1845,-1.095,11.0217,-0.334108,1.34896,10.9883,-0.769044,7.39298,4.45987,2.3451,1.56042,-103.456,-796.904,-602.192,-13020,5460,-6440
2.62342,5.80092,12.3623,-3.57307,14.0739,-6.84021,11.9055,11.3495,3.15198,4.91099,5.54568,8.15379,4.17128,11.4321,20.5311,8.19931,-103.944,-791.536,-605.608,-13720,4760,-12180
-1.06632,-1.48294,7.38419,-9.83446,10.6156,-11.6564,7.14621,7.78807,2.13642,6.41417,0.00820327,4.52114,-3.01937,5.76622,12.1892,4.78735,-105.408,-789.584,-616.344,-14280,3780,-15820
-9.47529,-7.17784,4.47281,-11.122,8.56629,-12.9539,3.0674,1.66843,-3.45265,6.88298,-2.42338,2.40312,-6.22007,3.4492,12.1489,0.908363,-100.04,-790.56,-615.856,-15540,3220,-18480
-8.76135,-7.15986,6.11921,-12.727,5.66766,-12.1919,-3.11622,-4.52508,-0.983649,12.1609,-0.385603,5.50879,-6.49848,2.03885,9.34424,-6.15999,-96.136,-788.12,-621.224,-16940,1960,-20440
-10.1672,-9.43821,8.07585,-15.9924,4.50436,-12.905,-3.7748,-6.17339,-2.25658,13.5507,-0.844459,6.21067,-5.78952,0.774629,2.36505,-7.04371,-94.672,-789.584,-623.664,-18200,560,-22120
-4.28334,-11.9662,15.61,-20.2067,6.47613,-6.94416,0.682162,-2.93414,3.24537,19.2403,3.06443,9.36071,-1.50397,5.13084,-3.64323,-0.407749,-88.816,-787.144,-619.76,-19740,-1120,-23940
-9.65017,-9.27592,11.2085,-13.2403,11.9799,-4.1354,11.5174,3.27576,-2.48048,9.83274,-7.35511,8.99758,-8.4586,8.327,3.94684,10.0315,-81.984,-786.656,-624.152,-21280,-2520,-25480
-14.7291,-12.7896,-0.0423432,-16.9351,3.229,-10.2802,0.455771,-2.2669,-7.36884,0.35626,-18.7987,3.02337,-19.7092,0.49642,-8.7819,1.58413,-74.664,-778.848,-635.376,-20860,-3920,-26320
-16.1521,-14.0843,-20.2007,-21.5704,-18.9257,-20.9525,-14.7027,-8.49922,1.26929,-8.90797,-23.0975,-11.8449,-36.4028,-27.0339,-16.4003,-14.1905,-63.44,-770.064,-640.744,-18340,-6020,-26880
-3.78262,-1.67259,-7.27358,-5.83127,-4.23634,-8.86569,4.98745,-0.91905,13.2212,2.56881,-11.8909,-0.257645,-23.8094,-10.1152,6.72799,1.60359,-51.24,-767.136,-630.496,-16520,-7000,-27580
10.6966,2.99644,21.9036,4.68615,15.8655,5.99556,14.1614,-1.69855,9.799,23.5218,3.48183,22.0466,0.443695,14.2569,7.20755,6.92829,-45.872,-768.6,-623.176,-16660,-7980,-28280
5.2962,-8.78042,9.59946,-5.07223,-2.75989,4.06912,0.520394,-1.68515,4.31547,6.99221,-1.5363,8.07992,-5.24687,4.79682,-13.6267,-0.489812,-34.16,-772.992,-628.544,-18060,-8260,-28140
-12.744,-32.2918,2.25545,-14.6919,-15.4756,12.33,-4.98253,3.3618,-18.3241,-7.8905,-7.11081,-13.5249,-2.59744,8.20119,-21.7722,1.97852,-20.984,-777.872,-634.4,-18200,-8820,-25900
-6.73386,-23.5704,16.4755,-3.08041,-3.87808,18.2172,-1.56786,0.114015,-23.2649,4.6762,4.91201,-1.81069,13.2938,17.8284,-16.0848,3.03585,-15.616,-784.216,-641.72,-16380,-8680,-22400
-1.52216,-5.82356,10.0319,12.7016,0.414638,6.3138,1.04341,-8.93291,-15.2593,1.54649,6.68769,3.04983,7.03645,11.2278,-0.662513,-3.01334,-10.248,-785.68,-643.672,-11760,-7980,-18340
-13.347,1.64276,-26.8068,16.7763,-15.4902,-17.5466,-10.0338,-19.1804,-8.15515,-31.0537,-16.6748,-15.7345,-21.3511,-19.7193,-2.90185,-17.6306,-0.976,-774.456,-641.72,-5460,-8260,-13160
-13.9548,4.38821,-34.4638,20.1004,-15.7878,-11.5768,-5.11308,-16.6624,-3.72345,-38.6979,-21.0574,-24.1712,-17.27,-17.35,0.329755,-10.0647,10.248,-750.544,-636.352,-700,-7840,-9100
-3.13805,7.79981,-17.5989,25.2879,-13.1074,1.75768,-1.08826,-9.9478,-4.85298,-13.7183,-0.866862,-19.4583,8.05049,-10.9699,5.31059,-4.12668,20.984,-725.168,-633.424,980,-7280,-5040
10.5131,17.9574,-5.98704,29.8004,-12.3327,13.4816,-5.94084,-6.49799,-1.03916,5.51631,12.2207,-10.9918,24.1318,-5.05993,-2.90619,-2.32586,29.28,-704.672,-628.544,560,-4480,-1260
14.9478,25.741,-13.7755,32.6253,-10.0726,12.5659,-6.89493,-6.73574,4.04838,2.16126,10.7478,-10.5884,23.739,-7.10371,-10.5539,0.35419,21.96,-691.008,-629.032,-2380,420,840
28.662,42.4992,-17.7959,42.05,-2.36781,4.71565,-4.5431,-3.41606,18.0072,6.53581,17.2088,-2.07798,22.4994,-20.021,-10.808,1.76038,17.08,-672.952,-639.28,-5180,6300,1820
29.1139,48.4362,-15.5694,50.5435,7.30203,15.4735,5.85657,4.94658,19.3142,2.66713,14.5474,-1.01182,29.8438,-8.44125,4.40278,13.6206,3.904,-650.016,-650.016,-7700,12180,1260
2.10011,21.5089,-23.9247,34.3444,0.262262,20.7499,-0.521498,13.8847,-10.2392,-15.9219,0.539092,-16.1852,26.5376,-9.34708,-7.11686,16.412,-10.736,-628.056,-668.56,-9660,17500,-140
9.52413,29.1808,-11.2006,31.2716,8.01081,24.24,-2.0866,9.98156,-3.61279,-5.66047,2.76504,-2.66115,27.4355,-3.98054,-8.42915,19.7504,-30.256,-608.536,-679.784,-12040,22820,-2240
29.7885,37.7575,-6.3033,28.6833,8.32932,8.97514,1.95894,3.32113,29.8848,8.948,14.5261,6.01571,17.4314,-9.30649,13.4124,17.1528,-40.992,-602.68,-684.176,-14140,26880,-3780
22.6374,30.8465,-12.1828,16.9523,1.26907,-17.6772,-1.81174,-3.3256,22.8714,11.5709,18.3964,7.07557,-5.31086,-30.4652,18.6146,2.77715,-56.12,-605.12,-691.496,-14560,30380,-4900
6.82539,6.50796,-19.9196,-10.6855,-14.9191,-17.6449,-4.14713,5.44351,12.9187,1.75831,9.63409,-8.43204,-16.3339,-31.616,22.3706,-0.901294,-70.272,-611.952,-692.96,-10360,31780,-4760
-8.99719,-11.2635,0.376482,-20.4797,8.48531,13.0495,19.1652,31.3349,-5.19823,-2.76453,1.7142,-4.60647,-4.41431,9.62661,45.2104,22.4323,-110.776,-610.976,-674.904,-280,30380,-3780
4.16752,4.08792,40.5018,-17.6446,47.3965,31.0694,38.6804,36.075,5.93335,17.4194,8.82928,32.2809,16.7591,52.1159,53.6313,35.6998,-93.208,-669.048,-681.736,7980,37100,-6300
-0.671011,-25.5546,36.5195,-52.4705,28.6946,18.3707,17.5777,30.6277,-1.0996,15.0344,7.41322,25.13,6.17458,43.1846,12.3182,17.2634,-95.648,-729.56,-678.808,18200,34860,-5880
-4.14983,-27.8694,27.3945,-59.6848,16.4298,-1.49784,-1.95873,12.33,3.06861,3.80992,-4.62788,22.6282,-12.5963,27.2405,-10.627,-9.08412,-108.824,-785.192,-664.656,33600,34860,-5600
-19.5623,-41.7701,23.7133,-62.1051,4.34758,-12.3728,-13.4045,2.34583,-18.9623,-5.96005,-10.8207,13.9267,-18.4794,18.5765,-21.9027,-28.3836,-107.36,-839.36,-648.064,58380,26460,-1960
-19.3036,-44.6422,16.9562,-58.6627,-10.7418,-24.5141,-16.847,5.15665,-20.0829,-4.49954,-9.98022,6.10384,-23.4623,2.33377,-25.8387,-32.2448,-92.72,-890.112,-640.256,77420,17780,-700
-17.7953,-55.7268,10.2202,-61.2603,-28.0699,-22.4894,-20.6506,7.59361,-12.586,-5.09898,-9.31015,-9.74443,-19.9198,-4.90609,-29.0715,-32.3243,-67.832,-936.472,-619.76,91700,9660,1120
-29.6727,-56.0667,6.79588,-48.9697,-22.0947,-12.5191,-14.7511,6.7935,-26.921,-13.5388,-17.5409,-13.0905,-15.3157,1.94454,-27.7928,-23.1167,-45.384,-976.488,-600.24,105840,7280,1680
-10.5529,-19.6659,16.7289,-17.3839,-3.9095,-13.4309,-6.73623,-9.72003,-2.13363,2.95337,-9.03822,6.16113,-7.20459,4.94502,-19.3019,-18.683,-17.08,-995.52,-577.792,112560,5040,2660
-10.2999,-13.3597,6.24335,-7.3308,-14.2467,-21.0242,-16.9427,-28.1396,-2.98974,0.0676312,-9.63506,-2.83012,-12.6543,-9.15586,-26.328,-27.0044,2.928,-1001.38,-558.272,107660,2100,2660
-16.1548,-10.9985,-2.33309,5.13541,-16.9837,-19.9524,-9.37728,-32.1146,-13.173,-5.78884,-9.94372,-11.6285,-16.8349,-12.2305,-11.7998,-15.5176,10.736,-993.08,-536.312,99400,700,5040
7.11843,9.32617,5.35395,22.0737,-3.84585,-9.41981,4.81114,-35.2832,16.4203,13.9159,8.7031,-0.243443,-6.28724,-1.84701,8.10786,-3.34283,44.408,-981.368,-522.16,90440,700,6580
23.2293,33.2192,7.6101,41.412,12.8304,-1.38715,19.4016,-29.4806,38.9833,21.7599,10.8572,14.2289,-0.833974,3.81686,27.7512,8.29194,61,-952.576,-524.6,75460,-2520,7700
11.4491,28.976,6.61559,43.3502,19.2796,7.30818,23.0328,-15.9983,14.4016,13.4687,3.14842,15.0386,4.20311,7.42276,23.5864,16.1237,55.632,-909.144,-532.896,58800,-7700,8960
2.94962,20.2966,2.29246,40.4951,19.2988,12.9934,22.4593,-5.11258,-0.363724,6.44863,-0.344913,11.0055,7.37778,11.1044,15.2103,19.7,37.576,-862.296,-546.072,41300,-13580,12740
-5.28545,8.65381,-5.40742,32.875,12.1501,14.1192,16.5594,3.2708,-10.4354,0.104025,-0.748743,0.378485,9.24329,9.48614,6.02022,19.8047,24.4,-822.28,-568.032,27720,-14420,14700
8.82212,22.2546,-9.34597,31.6934,7.30931,6.84026,5.38913,-0.741148,14.4855,1.21006,1.76857,1.5403,6.68265,3.10929,1.06011,8.0722,-0.488,-800.808,-592.92,15260,-12460,14560
14.6655,21.2652,-7.19447,19.7373,4.48944,7.21122,-4.99341,-0.650993,18.4473,4.88809,7.51768,3.19424,10.203,2.67883,-16.6487,2.72815,-13.176,-786.168,-608.536,6020,-10640,14140
10.7172,19.4757,-10.3148,17.9672,6.73591,5.42926,-2.07879,-1.25628,12.7421,2.73883,7.8039,-0.594802,10.6744,-2.66291,-5.04551,3.83669,-27.816,-775.92,-620.248,-2240,-7700,12040
-14.1212,2.90652,-22.7807,13.0937,4.35503,5.77529,3.69518,10.3048,-22.7126,-17.0015,-2.99368,-15.3841,2.82655,-11.099,8.4371,10.6325,-36.112,-766.648,-626.104,-6300,-5880,8400
-10.9927,-13.402,-24.334,-5.28168,-8.15383,8.09658,-6.01656,17.1966,-24.2442,-16.0705,1.63251,-24.7603,3.85554,-15.1259,-4.02696,7.48223,-52.216,-761.768,-630.984,-5600,-4760,4760
0.161617,-1.68382,-21.723,-2.11441,-4.93761,3.31097,-2.1717,13.1367,-8.25853,-11.2529,2.00717,-18.6863,0.955356,-14.0624,6.8567,4.04837,-66.856,-760.792,-617.808,-2800,-6300,1260
-20.9403,-2.55328,-23.2836,-0.393131,1.13847,0.765195,-0.116436,13.4584,-38.4057,-23.7638,-11.5102,-16.0294,-3.26912,-8.14231,4.22744,5.117,-77.592,-767.136,-608.536,840,-9380,-840
-3.56542,13.3138,-6.69303,2.04101,7.78813,-1.55825,-10.5829,0.720843,-17.8146,-11.1338,-11.7607,3.48171,-0.00436812,-0.930382,-12.0022,-1.66721,-83.936,-779.336,-606.584,6020,-12600,-1120
23.4759,11.0673,-3.30492,-12.5716,-9.81558,-8.64837,-27.1004,-5.0333,24.3137,7.40584,-1.60764,3.77666,-1.60499,-12.4295,-31.1332,-10.6763,-85.888,-789.584,-611.464,13860,-17500,1120
14.4853,7.62439,-14.9842,-8.01733,-18.0672,-14.4898,-12.8088,2.74972,24.575,0.826419,-5.42016,-9.19757,-9.55569,-21.7135,-0.0897251,-5.39032,-75.152,-794.464,-601.704,25200,-21560,4340
-5.30752,10.3507,-11.9584,1.81901,-8.56428,-10.2487,5.89074,11.4423,1.93538,-9.26262,-15.2825,-6.99274,-8.65802,-8.97586,23.2325,2.69835,-61,-807.152,-583.648,31360,-23800,8400
-4.7535,-0.773277,0.647331,-9.64555,-13.4868,-1.80314,1.29739,15.2465,-2.24756,-0.648169,-6.81915,-4.14291,2.50471,2.15764,8.5404,2.03435,-38.552,-822.768,-564.128,33040,-24080,12880
-3.27648,0.666516,10.9165,-10.8061,-6.10395,2.92519,5.41159,17.7581,-7.71622,1.1619,-5.74652,4.51447,6.42417,12.6478,6.37672,7.733,-9.76,-830.576,-543.144,29260,-22960,17360
-7.61164,-5.37661,11.1195,-13.6405,-8.3376,3.8306,6.09565,16.2979,-12.4981,-1.276,-3.77698,0.206216,5.36836,11.3796,11.1231,8.38767,20.496,-846.192,-529.968,22960,-22120,23240
11.4392,12.2184,20.1821,-5.67556,-2.74546,2.35414,4.2739,3.45432,17.1728,12.1477,4.12599,11.6588,7.56911,7.95263,16.0476,2.95977,41.968,-856.928,-527.04,14000,-21280,28420
9.99061,1.62794,18.6348,-14.737,-8.54489,2.85265,-0.174938,0.0672247,19.1252,11.7208,7.43073,5.84436,6.51928,3.67158,6.14774,2.67695,62.952,-862.296,-543.144,7420,-21000,34020
10.1767,-9.7755,21.0256,-23.335,-13.4409,8.89012,-10.7688,-2.48372,14.9702,14.6919,17.4516,4.59786,9.51233,-1.26263,-16.3711,-1.95935,77.104,-862.784,-551.928,3360,-21700,40320
9.48092,-16.4976,16.4455,-20.8305,-14.4177,4.88448,-15.4536,-10.5417,8.85586,11.6204,18.8548,2.62386,4.57485,-10.6463,-20.167,-9.86348,81.496,-860.344,-564.128,-1260,-22680,46480
-12.4853,-29.3515,1.83738,-14.9723,-13.9117,-0.964,-14.882,-18.5613,-18.1837,-9.25177,1.02124,-7.03533,-7.06372,-13.9193,-20.096,-15.0111,81.496,-863.76,-582.672,-6300,-22540,51800
-13.6526,-27.4364,1.27912,-2.36957,-4.87492,0.320639,-7.96098,-23.0263,-17.8597,-9.85117,-0.839965,-3.19695,-6.48975,-5.90791,-11.6425,-15.0597,69.784,-856.928,-601.704,-13720,-20020,54460
-9.82861,-28.1082,-0.23528,2.15435,-6.21804,-1.23268,-9.82021,-25.7735,-11.081,-5.22139,7.31083,-3.65186,-5.06396,-6.31765,-7.26954,-18.2774,28.792,-846.192,-605.608,-19880,-18480,55720
0.108002,-9.58758,0.570641,12.7798,3.82986,-3.21902,-5.40455,-29.7139,4.17983,-0.44367,7.14879,7.07223,-6.00214,-1.43815,-0.516095,-18.7732,-16.592,-836.92,-612.928,-21980,-21280,55160
-7.34077,-16.8933,-0.169474,10.5682,11.742,4.18759,10.2922,-15.4541,-7.68984,-1.96549,6.75247,1.39594,-3.11554,10.7003,8.25377,-2.41681,-64.416,-836.92,-624.64,-24220,-21840,50120
1.35653,-5.61272,3.52337,12.4068,21.4955,6.34844,6.80643,-12.7765,4.9623,5.03765,10.228,7.3078,0.0503214,18.8081,1.56431,-2.26879,-99.064,-822.768,-621.224,-28140,-19040,43120
4.81995,7.0149,1.64753,21.1815,27.307,-0.36648,11.8197,-16.8337,13.0205,4.93518,3.87211,11.1959,-2.35719,16.9439,15.5158,-3.18951,-136.152,-813.008,-608.048,-36120,-20300,35420
1.58923,5.28881,3.90137,21.1959,27.5154,-1.44071,16.0789,-7.22116,3.61562,2.93281,-2.67982,14.5082,0.131287,17.0723,13.3022,4.83684,-171.288,-820.328,-613.904,-41300,-21840,28000
1.60433,3.77597,-1.64612,16.1161,19.6936,-2.90513,15.7403,2.84303,6.79196,-0.0808074,-4.73843,8.73014,-2.79263,7.27755,9.92183,17.0923,-208.376,-803.248,-622.2,-40180,-20580,18060
-0.27624,6.48106,-7.58614,13.5384,16.6292,-5.02502,18.5364,10.8305,2.99938,-6.05818,-12.7394,2.30496,-9.9825,0.654133,13.4509,25.3631,-228.872,-772.016,-631.472,-35420,-19460,7700
-0.624225,14.0938,-8.69544,11.0752,12.9307,-6.75503,13.2884,14.0041,-2.51904,-6.77209,-13.9258,-1.73179,-11.8924,-1.14915,10.0226,14.9163,-242.048,-741.272,-637.328,-27020,-15960,-3780
-9.07589,8.16353,-10.4885,1.68423,2.61723,-1.74787,8.07328,25.7787,-15.1778,-7.19598,-7.8592,-13.6414,-7.95519,-2.15584,-2.04402,12.6079,-244.976,-711.504,-634.4,-13580,-14560,-15120
-11.6346,1.61703,-12.1825,-5.1887,-4.56969,2.12852,-0.341587,29.887,-22.1831,-5.05194,-1.81718,-19.3308,-2.35384,0.81915,-12.5276,4.61221,-247.416,-688.08,-618.784,2520,-18060,-21980
1.42169,3.31042,-11.6555,-11.2054,-12.3466,3.83984,-9.74558,24.7141,-5.38249,3.00788,3.45743,-17.0215,6.39998,-3.15944,-25.5575,-7.04527,-239.12,-678.32,-630.984,10920,-21140,-28700
1.96167,10.6814,-11.1946,0.763223,-2.58963,5.7419,8.62801,32.1763,-6.53559,1.13876,-2.2189,-9.7215,10.3034,-3.3866,2.13883,7.1047,-217.648,-677.344,-638.792,16940,-23380,-34020
10.1489,23.8144,-3.988,4.93505,2.98084,4.74271,11.4039,28.5511,1.8731,9.01709,2.18409,1.98045,14.3018,-3.24743,6.76229,10.6007,-182.512,-698.328,-651.48,22820,-21000,-39060
19.788,34.0086,1.53302,3.25074,-1.39277,3.60692,-5.60038,14.3115,19.8035,15.0014,7.70012,9.66268,16.051,-3.65346,-12.4872,-0.458388,-151.28,-738.832,-644.16,31080,-14840,-44520
9.36311,30.1006,-2.83514,10.2047,-1.96769,1.07792,1.01893,7.87675,13.577,6.34796,-0.100281,5.83862,9.84167,0.29228,7.20491,0.550377,-112.728,-762.256,-629.032,37660,-13580,-46200
8.71225,26.5524,3.26345,8.34481,-5.44142,0.248248,-3.23263,-2.7475,11.0188,8.35489,0.159044,9.4355,11.7246,3.4712,-0.0255024,-3.15386,-73.2,-753.96,-608.048,38500,-11760,-46480
10.3778,18.9789,6.06593,5.57989,-7.00527,-1.366,-2.64359,-8.20868,15.4938,7.45316,-1.88675,9.77329,8.90955,-1.59287,5.62227,-3.36741,-41.48,-757.864,-604.632,35140,-5040,-45500
7.73985,-3.7806,8.55861,-15.0321,-17.5052,-0.84928,-20.4884,-13.1784,9.36331,8.72192,5.24206,5.00006,9.06689,-9.06715,-23.4653,-11.0643,-14.152,-779.336,-610.976,28840,3500,-41160
-1.44867,-17.4486,10.2034,-21.3835,-17.0992,-0.302051,-20.4173,-17.9022,-7.15922,3.84891,4.7696,3.64582,6.70702,-10.0683,-18.4077,-9.72992,0,-808.616,-621.712,25620,9940,-31920
-2.60539,-20.592,11.2325,-21.691,-12.3508,0.0518893,-7.61145,-17.0467,-4.28286,-2.30949,3.84471,3.18221,1.1077,-8.11552,4.10467,-3.032,3.416,-829.6,-624.64,30380,6720,-19880
-6.41651,-12.4432,5.84726,-20.7365,-8.83576,-2.70701,-8.97451,-20.3971,5.76556,-17.226,-4.00811,2.7551,-8.49185,-5.79042,4.01544,-8.88361,13.664,-842.776,-612.44,39480,-3780,-8260
-5.55393,-11.1633,10.4384,-15.9735,3.557,-4.94013,5.23874,-16.1827,2.04401,-14.6054,-12.0579,6.92377,-16.2884,6.55443,24.7668,-5.43821,18.056,-856.928,-606.584,38500,-3220,-1820
-11.7096,-31.3336,10.4476,-31.5641,-2.49915,-4.32143,-2.30366,-10.1425,-14.8017,-13.3747,-5.33439,-2.77338,-14.5395,6.33858,7.60825,-8.38058,30.256,-886.696,-582.672,30380,4060,5040
-12.227,-25.735,-3.57513,-28.2073,-0.939191,-7.09931,-3.29053,-9.35005,1.08959,-24.2627,-11.9987,-8.93345,-21.5265,-0.469809,9.48197,-11.0982,-2.928,-856.928,-564.616,12460,13300,12180
-8.46728,-13.4591,-0.685769,-13.3925,9.66114,-7.9366,5.42819,-7.38566,3.93497,-12.4492,-16.0938,0.706135,-24.7931,4.51085,22.4053,-5.54685,-27.816,-842.776,-535.824,-3920,18200,17220
9.98829,-13.1733,18.6644,-16.8025,5.13932,-0.507933,-6.80062,-0.11165,7.88174,25.3442,10.3958,10.1848,-4.15785,11.4638,-6.84057,-5.16958,-51.728,-827.16,-517.28,-14420,24220,18200
5.01584,-11.8144,14.5078,-9.21345,4.44083,-0.406435,-8.05172,2.00827,2.34659,21.2549,15.929,5.14404,1.96081,10.2322,-10.5927,-1.75824,-65.88,-808.616,-519.72,-20860,28420,16100
-4.32112,-8.96696,2.71237,3.05285,5.70046,-1.13835,-1.72174,3.33531,-9.88123,6.96771,1.6408,-2.29048,-3.83243,5.92581,-2.69794,3.54833,-73.688,-783.24,-554.856,-25060,28700,12880
-5.31873,-3.59024,-8.65691,9.45964,-0.842354,-2.01001,-8.40094,-0.108651,-7.8384,-1.93023,-2.37243,-11.4687,-5.08201,0.148067,-15.5093,-2.72192,-66.856,-755.424,-581.696,-26740,23660,9240
-35.9203,-11.7482,-34.328,16.3364,-8.51014,-5.49587,-0.438086,-2.73294,-28.9256,-34.6289,-19.8636,-34.054,-13.8507,-12.7199,-6.12125,-0.314698,-56.12,-731.512,-601.704,-22680,18900,5880
-18.9799,1.97507,-16.239,29.9156,3.52985,1.52499,12.8384,-0.55331,-18.5668,-8.92064,-7.64525,-16.3248,2.83793,-4.97337,9.16464,10.3717,-36.112,-729.56,-608.048,-16940,16660,2380
10.7313,18.471,8.04088,33.4303,11.441,8.49764,11.2937,4.39339,2.62459,24.5391,15.8858,10.2868,20.5421,6.35809,4.9974,14.2281,-22.448,-725.656,-618.296,-15120,17080,-280
8.96389,18.7479,2.43154,30.486,8.61256,6.85618,9.08964,8.78282,3.70336,17.3869,8.75163,9.72264,14.4515,2.35297,1.79188,11.6192,-12.2,-742.736,-621.712,-17220,21420,-1820
5.55561,20.5533,-5.3003,31.8987,8.62843,2.21175,10.8072,4.86486,8.25217,5.8426,1.55787,5.35091,10.9964,-4.84512,8.60117,7.98249,-13.176,-749.08,-622.688,-18340,26600,840
4.07265,11.9064,-4.24808,25.265,6.13447,4.58617,13.1326,7.98438,2.70353,5.16244,6.62112,1.91221,12.0036,-3.85962,8.90907,11.1677,-9.272,-747.128,-609.024,-14840,24920,3780
6.13387,8.44513,-1.13977,17.0989,2.82558,5.74484,7.60321,9.31824,1.68422,5.26019,15.1626,2.79357,14.2393,0.540556,-3.07689,8.59564,-10.736,-741.272,-610,-11620,17500,7140
2.45426,0.214885,-9.07034,5.46787,-5.46373,5.42306,0.337528,7.1645,0.603296,-6.01011,9.14831,-4.37829,7.59463,-1.76013,-11.8524,5.50303,-2.44,-737.856,-617.32,-9100,9660,8400
-7.53692,-3.64651,-15.806,5.18884,-5.76545,1.51163,3.69042,5.92836,-8.36918,-16.1461,-2.59337,-10.8076,-3.15619,-5.1204,-0.371945,6.77852,-1.464,-738.832,-635.864,-7980,6720,7280
2.18299,-3.00103,-9.81977,-3.19225,-9.34677,-1.58922,-5.58427,0.820837,-3.19565,-4.7702,2.90567,-6.2432,-2.66396,-4.41584,-14.8106,-1.57316,-6.344,-744.2,-637.816,-5460,5740,6580
17.9974,6.56783,0.558046,-4.62275,-8.82485,-2.65039,-14.1366,-9.26781,10.5439,7.91258,1.93917,5.88513,-2.55818,-0.748399,-27.1514,-10.9659,-7.808,-750.056,-633.912,-5180,7700,6160
9.61266,3.57936,-5.75467,-5.54774,-10.4389,-5.35347,-8.72861,-9.11764,8.57998,-2.98223,-5.86016,-0.445314,-7.58155,-7.04411,-17.0464,-8.99767,-14.64,-766.648,-618.784,-7560,11200,7420
0.900924,3.92785,-10.2469,-1.65374,-7.42696,-6.34084,0.236367,-7.66449,4.6957,-11.8661,-8.87188,-4.88942,-9.39069,-10.5599,4.86545,-3.32395,-24.888,-788.12,-596.824,-12320,14560,9660
3.77266,9.4252,-3.4384,-0.710638,-2.78824,-1.05231,0.773305,-3.09995,7.88137,-6.896,-9.44726,2.09265,-7.54374,-8.15764,8.1982,1.73176,-31.72,-804.224,-589.016,-16800,16380,12320
4.71485,0.700737,2.53576,-8.87971,-4.86375,2.54704,-1.10264,2.78337,2.49544,-1.71426,-3.83612,1.96431,-4.15261,-10.2915,5.66961,6.60645,-36.112,-808.128,-581.696,-19180,16380,14560
-4.4871,-10.9876,1.19055,-15.4006,-9.87487,0.293752,-5.35885,1.36092,-9.45329,-5.96633,-1.09788,-7.43668,-3.4031,-14.2236,2.58339,3.03781,-38.552,-810.08,-591.456,-20020,15540,16660
-15.7803,-19.8879,0.729708,-20.1321,-10.1224,2.57635,-5.4468,3.30339,-24.0468,-10.8485,-3.43837,-15.2337,-3.29645,-10.9195,2.00842,0.528003,-42.944,-809.592,-600.728,-16940,13440,18620
-6.28037,-7.00218,5.30041,-13.4139,-1.85201,4.04531,-4.736,0.205839,-10.2077,-5.88608,-3.73735,-5.72333,-0.329356,-0.892194,5.22444,-4.16706,-48.312,-806.664,-606.096,-13020,10780,19740
6.30763,9.42382,7.4961,-8.35229,4.12499,2.14518,-7.79224,-3.55581,9.31936,0.0250478,-1.98688,6.23555,1.77944,5.54943,-0.338485,-11.6044,-53.192,-805.688,-620.736,-9660,7000,20440
11.6418,10.943,9.13217,-5.80328,8.02156,2.2525,-2.20851,0.034158,15.523,6.80842,3.51848,9.68773,6.9255,10.4757,8.53447,-7.79218,-57.096,-805.2,-630.496,-5320,3500,19320
13.5958,9.59168,12.6526,-6.13731,10.9097,5.99901,0.322252,2.74581,15.9649,11.0805,6.53308,11.7199,11.6197,18.1723,4.05055,-5.34271,-60.024,-803.736,-646.112,280,1540,17360
10.4798,11.4645,10.4971,1.51098,15.3591,4.85043,11.6256,3.7505,14.4444,9.33433,5.35407,10.8497,10.0057,19.8783,19.6679,-1.40794,-68.808,-803.736,-649.04,5740,980,15540
11.481,18.9354,12.9355,6.66096,19.6764,3.5795,12.628,4.56038,16.2315,12.4197,3.89033,17.8172,9.43963,21.7,18.2024,0.116863,-79.056,-808.616,-639.768,9520,1960,12740
11.7543,19.851,17.0316,2.08112,17.9187,6.65443,2.71615,6.49596,13.452,15.9479,4.83245,23.536,11.5095,23.8889,-4.82772,-3.24299,-86.376,-811.056,-627.08,10780,3080,8820
2.08174,1.22202,9.94796,-5.25925,10.6305,5.6273,5.99913,11.0509,0.838611,12.5396,5.45028,12.265,7.27643,20.0342,2.70142,0.101968,-92.232,-809.104,-615.856,9240,3920,3360
6.36444,-2.24061,8.71961,-5.07908,10.5052,1.06808,9.796,9.84393,9.31202,14.9286,7.37129,10.466,2.67614,15.816,11.8099,2.85634,-100.528,-810.08,-606.584,5460,4060,-3360
-0.681671,-5.57117,3.95666,-6.61816,6.15076,-3.24146,8.61847,8.84698,4.28103,7.58245,1.93417,6.03702,-4.18805,7.10108,7.83934,1.04405,-101.992,-804.224,-601.216,1960,3500,-8540
-7.30195,-14.9314,4.08365,-13.6755,1.36425,-1.02908,5.41117,10.0181,-5.55124,5.30971,1.73623,2.96653,-3.78441,4.67995,-3.01673,-1.6592,-103.944,-794.464,-596.824,-1820,2520,-13860
-2.31407,-14.4299,8.10157,-13.5697,1.65601,0.659293,2.00054,5.73758,-3.07529,8.49863,7.31102,6.32354,-0.298119,6.78146,-11.321,-2.15661,-91.744,-788.12,-598.776,-5040,420,-17920
-10.6339,-16.5217,4.97266,-8.94125,2.38487,-2.64786,4.24715,0.358945,-13.5337,-2.07362,0.12687,3.15465,-4.60193,2.42642,-7.39421,0.0348578,-87.84,-776.408,-600.728,-8540,-2380,-21980
-7.14429,-18.2959,2.63272,-8.8885,-2.39921,-5.35999,1.69485,-3.42758,-4.76896,-1.13048,0.976111,-1.87634,-5.99959,-5.5661,-5.22935,1.20888,-87.84,-772.992,-595.36,-12460,-5040,-26040
-3.8073,-8.93686,3.8551,-2.70103,-0.574447,-9.18802,-0.952788,-10.0518,4.94317,-0.90995,-0.261435,-0.178446,-7.07138,-9.33364,-2.16672,-0.458953,-79.544,-771.528,-596.336,-16380,-6440,-30100
-8.49706,-10.1982,0.927096,-2.45407,-4.05255,-12.0156,-5.62794,-13.0856,1.03566,-5.63408,-1.71999,-3.36305,-7.43571,-11.9678,-6.5719,-1.54573,-73.688,-774.944,-598.776,-20860,-7560,-33320
-23.1802,-20.0945,-5.32566,-2.78925,-8.17403,-13.6024,-6.11449,-12.9357,-21.7848,-15.7655,-7.42645,-11.7617,-11.8603,-13.4979,-5.78441,3.28026,-58.072,-775.432,-598.776,-24780,-8540,-36260
-35.2445,-26.8987,-12.9395,-3.32222,-13.9274,-17.1479,-8.47643,-15.5489,-32.6194,-25.976,-18.6408,-20.5184,-20.2514,-18.3694,-4.68118,3.55174,-44.408,-775.92,-600.728,-28560,-9100,-38080
-32.3465,-24.8249,-15.2581,-2.74443,-20.1884,-20.5504,-18.4572,-25.5554,-32.0972,-24.3271,-20.3687,-21.8009,-21.0235,-22.0858,-17.5801,-7.57858,-31.72,-772.016,-605.608,-33040,-8400,-39200
-18.9253,-21.7519,-16.4182,-3.99362,-25.8483,-19.1057,-21.6756,-26.5472,-19.3833,-15.8749,-16.296,-23.8704,-16.8041,-21.9599,-28.3802,-10.2009,-20.496,-768.6,-611.464,-35980,-6720,-39340
-7.62803,-17.1359,-17.5051,-0.397748,-26.8728,-12.3904,-18.3764,-17.9526,-9.02709,-7.30044,-12.6478,-24.6087,-12.9018,-19.2894,-23.5026,-4.01064,-5.368,-766.648,-616.344,-37660,-4200,-37940
-7.85922,-5.98909,-20.3744,12.9375,-19.3757,-6.52521,-11.2621,-16.0904,-12.8349,-13.4656,-15.9933,-23.0859,-10.3637,-15.8646,-9.75691,0.442092,6.832,-756.4,-620.248,-38640,-1820,-34580
-3.32583,9.37487,-20.3142,25.6197,-11.096,-4.31683,-6.71493,-18.0112,-5.48891,-15.2163,-12.8997,-17.4095,-4.87141,-13.1529,-0.341286,-0.277194,7.808,-743.224,-619.76,-39060,560,-30520
-13.7149,13.6264,-39.3509,28.3956,-20.9899,-9.16109,-18.0476,-23.482,-11.2364,-33.4753,-20.7981,-28.4455,-11.4896,-32.4419,-1.13981,-17.2556,10.736,-721.752,-629.52,-37940,5180,-27720
-5.49853,16.257,-34.4855,26.5866,-23.4612,0.665468,-13.3343,-11.1693,-6.10939,-20.4331,-13.4057,-28.9408,-1.39815,-28.5916,-0.014733,-9.6613,-0.488,-694.424,-645.624,-35000,10360,-27160
21.9245,37.1863,1.6511,40.9256,10.521,27.0707,14.0218,12.2415,8.14782,13.012,8.32107,2.94793,28.7096,12.2614,16.504,17.2843,-16.104,-659.288,-667.096,-30380,15120,-26880
38.724,50.3834,13.5505,47.3976,25.0758,30.5298,22.5819,15.9495,24.6115,30.055,23.4938,16.9621,36.6487,22.2958,27.2329,21.3174,-28.792,-635.376,-683.2,-26460,18060,-25900
38.0206,50.869,3.17114,44.2653,16.6331,14.6829,16.7319,12.8173,30.014,27.4835,21.0279,14.181,20.689,3.78412,31.8874,8.49608,-42.944,-619.76,-697.352,-23100,20860,-24640
19.732,29.3766,-18.2114,18.2107,-7.55717,9.03046,-3.10221,15.657,21.0137,6.28288,12.074,-2.46517,5.58252,-16.425,12.2956,-6.39437,-55.144,-611.952,-685.64,-20160,22540,-22400
11.6464,25.4267,-19.85,8.4378,-0.141451,11.5845,2.8087,22.6219,23.2411,-7.66687,6.02238,1.28722,0.795392,-8.50307,16.6153,1.06831,-43.92,-596.824,-654.408,-17220,20160,-17220
5.33026,18.3366,-3.5243,0.639525,18.3579,25.632,16.986,36.5806,15.4524,-7.03946,1.7464,14.1619,3.24629,13.2368,19.8823,16.5275,-71.736,-633.424,-640.744,-9380,25900,-16800
21.8934,14.1769,44.8137,-6.68595,45.7166,52.4439,33.3822,49.2202,11.1177,37.5574,29.8163,45.1858,32.3877,56.4123,20.5102,35.6129,-70.272,-663.192,-631.472,140,19320,-11060
52.2254,35.4621,69.2898,-3.2943,65.5324,40.2353,37.6182,35.5195,42.3667,63.1171,45.8021,75.4536,38.334,67.9289,24.5655,30.0279,-52.216,-719.312,-649.04,11060,17780,-7840
39.3223,12.2646,44.9883,-26.5499,35.665,12.1095,18.7465,26.6481,34.0519,46.1076,39.726,53.0427,19.158,33.6723,6.49044,9.58859,-69.784,-740.296,-660.264,18480,23660,-6580
-2.16884,-29.8753,7.66217,-55.2214,-0.523591,-3.51563,0.631112,26.9248,-3.65664,0.948931,15.1707,8.78876,-2.45657,7.7394,-13.4068,-1.74417,-55.144,-776.896,-645.136,23660,22960,-1820
-8.49888,-37.0166,17.9575,-58.9073,3.71951,1.05753,-1.09101,27.744,-11.4255,-1.10373,7.52562,7.08515,2.3912,22.1946,-23.1231,3.60838,-38.064,-826.672,-637.328,34580,21280,280
-7.68458,-35.4506,18.6373,-52.3356,1.50377,-13.1016,-5.19136,16.7366,-12.8605,2.48455,9.3293,4.29972,-0.391556,11.7419,-22.9403,-5.37875,-34.16,-855.464,-628.056,41860,20160,980
1.32852,-22.8354,8.1837,-43.1323,-13.2842,-34.2476,-15.2304,-2.0106,9.87425,-0.317808,4.63333,-2.64081,-9.2174,-10.8225,-21.9644,-21.2846,-15.128,-886.208,-610.976,47460,15680,2380
-14.8523,-26.6283,2.71537,-36.0363,-14.7266,-22.5237,-17.0741,-9.33876,-4.28829,-17.6226,-9.08016,-11.5142,-4.92072,-7.28369,-23.1583,-23.8442,-10.736,-900.36,-595.36,52500,15540,2660
-31.1094,-31.115,-5.57892,-24.4364,-14.5094,-14.9203,-6.3677,-13.9176,-22.8408,-27.8813,-24.6721,-19.31,-10.2295,-10.2994,-5.57005,-14.7484,11.712,-905.728,-581.696,55300,11900,3220
-10.0699,-17.3872,15.7165,-3.58971,2.58737,-4.65619,15.3537,-8.77279,-16.7522,1.86679,-18.378,2.76947,-4.19847,10.4466,17.0256,7.83315,-14.64,-908.168,-587.064,51240,13160,2520
-8.33132,-16.3103,-4.09815,-3.62843,-18.1706,-21.5428,-11.6703,-38.4188,-9.27308,-5.41842,-18.8527,-9.27289,-17.5818,-13.7612,-6.43185,-19.4879,-10.248,-923.296,-591.944,42560,12040,4760
-13.6538,-4.98677,-13.1267,9.54572,-20.5086,-26.8823,-14.4877,-48.7694,-7.07285,-14.6369,-21.9415,-15.4655,-20.8687,-24.1661,-6.06183,-24.0901,0.976,-928.664,-592.92,35420,13580,6440
-18.0543,-7.29457,-16.0531,13.6539,-15.7824,-17.254,-7.6252,-38.078,-10.126,-17.3553,-23.8308,-19.9754,-18.7735,-18.451,-4.49134,-15.1626,0.976,-924.272,-595.848,29960,13160,7560
-28.7328,-7.40182,-26.8383,20.0622,-19.2045,-14.114,-8.46818,-37.4437,-21.821,-24.8196,-29.8192,-28.2731,-19.2271,-27.4725,0.993367,-14.2638,-4.88,-922.808,-590.48,24360,11060,12320
-25.037,-7.19439,-17.593,21.4678,-12.7025,-3.82665,-5.72758,-29.5183,-22.5346,-16.1715,-20.1827,-20.7193,-7.02427,-17.1929,-2.76576,-5.36325,-2.928,-911.096,-583.648,21700,9940,17220
-8.23212,2.81368,-6.04068,24.5478,-3.08698,1.26498,-5.28031,-20.072,-4.01269,-4.06996,-13.6133,-5.77456,-3.35768,-5.99504,-10.4541,-1.84896,-3.416,-891.088,-588.04,20160,9100,22400
0.697348,11.6592,-4.54107,28.883,-0.682391,-0.135204,-4.15447,-13.1205,6.00093,-1.27062,-11.9897,-2.4742,-7.85253,-0.541677,-5.90976,-0.55164,-4.88,-864.248,-600.728,19880,8260,26880
4.36184,4.38307,-13.1589,16.3853,-15.4023,-2.67719,-11.1278,-9.34921,15.156,0.238612,-1.80389,-15.2309,-11.3254,-11.1469,-8.85698,-4.23098,-9.76,-833.016,-606.096,21420,4900,30940
-5.29609,3.12012,-4.18731,11.9097,-3.32516,6.32618,-10.4161,-0.0749546,-9.27771,-3.21124,-0.0583874,-5.39445,-3.24268,0.690198,-17.7394,3.83803,-8.296,-811.056,-606.096,24640,-980,35420
-2.83512,2.92236,-1.92607,7.54305,-0.286332,6.95966,-14.6207,5.96209,-10.492,-1.43289,4.62811,0.0463993,0.620145,3.93182,-20.4691,3.88916,-6.344,-792.024,-604.144,26460,-5180,38080
-17.2314,-12.0114,-25.7633,1.04716,-16.3907,-4.42702,-10.3199,10.5635,-23.5798,-15.4348,2.98052,-23.0118,-12.4487,-19.8795,6.16508,1.68421,3.904,-780.8,-607.072,26320,-9100,39340
2.01526,-4.50055,-15.5522,1.87292,-4.49286,-0.161491,3.06107,11.3751,-0.979501,-1.06258,14.548,-12.8921,-5.44293,-10.0259,24.5437,12.9403,8.296,-775.92,-609.512,24780,-10920,39200
17.096,29.9014,11.4689,22.753,34.2125,12.4469,24.0229,14.1626,10.939,11.612,15.3655,22.5825,6.30825,19.9846,39.933,28.4242,3.904,-770.552,-619.272,23240,-11480,37380
7.83506,29.3739,15.6254,22.3384,40.7976,14.9447,27.0153,17.96,-8.00948,11.5451,10.6445,28.3463,11.3378,24.2338,35.4176,27.5277,1.952,-769.576,-623.664,21700,-11620,33740
13.4634,4.49047,3.04492,-3.80983,9.51588,12.858,10.685,20.4197,4.93131,17.2389,21.4105,6.61783,17.9938,5.88692,16.8913,12.3305,-7.32,-769.576,-629.52,21000,-10920,31080
18.1092,6.60738,3.47958,-6.46524,6.87063,10.0688,2.94598,14.1702,16.1213,16.0733,21.0784,8.487,20.4822,8.09353,-3.16588,3.52359,-19.032,-770.552,-624.64,21000,-11620,29120
27.9228,21.6712,9.08471,1.57394,11.1924,7.03438,-5.42032,7.36642,35.9885,15.4775,14.8511,19.6321,17.2528,11.2316,-25.7237,-4.88608,-29.768,-777.384,-625.128,21560,-12460,27860
6.86656,9.67738,0.531311,2.34843,7.80004,2.18058,1.38465,5.89749,8.14233,-0.374148,2.86375,7.93421,6.18447,5.31342,-8.66208,-5.93478,-42.456,-780.312,-616.344,21700,-12600,27020
2.37915,1.48021,-0.490714,-0.547306,7.85798,0.598748,7.68766,6.78356,-1.03219,-3.46007,-1.3005,3.8458,2.6222,1.15732,-0.211609,-1.24777,-54.656,-793,-611.952,21700,-13440,27860
-6.53382,-9.20324,-6.36088,-10.0254,-5.07698,-4.93458,-0.731707,4.18806,-10.8389,-8.68846,-1.83205,-6.61837,-0.166164,-12.2815,-9.01516,-7.86647,-62.464,-802.76,-602.192,23100,-13300,28840
-12.982,-13.4602,-9.84461,-10.9506,-11.1465,-6.24261,0.0636514,2.89251,-16.5447,-12.3931,-5.31156,-12.7338,-2.72355,-13.998,-0.210924,-7.22043,-66.856,-815.936,-594.872,25480,-13440,29820
-11.4081,-9.14876,-10.9907,-6.93535,-14.3425,-4.42414,0.424759,2.74568,-5.19078,-11.8694,-10.7318,-12.9399,-4.42368,-9.57204,6.7356,-6.8186,-71.248,-820.816,-588.528,27300,-14560,30800
-0.407148,4.89233,-3.4,-0.0797169,-11.0098,-6.35458,0.223159,0.195663,12.748,-2.61058,-11.6052,-4.07244,-2.44359,-3.09261,5.85354,-7.22959,-74.176,-829.6,-584.136,27160,-15260,31220
-1.55899,-5.61353,4.65858,-12.7252,-14.9784,-3.87694,-12.9295,0.746344,2.9398,2.50559,-9.32798,-4.30461,2.36252,-1.24532,-19.8078,-9.27592,-73.2,-844.728,-578.28,24500,-15260,30100
0.945266,0.663166,8.04033,-9.1797,-9.64675,-4.63102,-11.6838,-2.64694,5.01778,4.07686,-13.2851,0.229581,2.02941,-2.0768,-11.3443,-6.95866,-71.736,-857.416,-583.16,23240,-16240,28560
12.4475,10.8861,13.6212,-9.00771,-5.45939,-1.11926,-10.7909,-2.74562,20.85,10.2186,-9.32709,8.86938,4.17723,-0.700341,-11.5407,-4.25033,-68.32,-859.856,-580.72,21980,-18620,26180
4.94989,3.45331,13.8351,-12.3802,-2.29358,2.27023,-1.46623,3.37699,7.26202,8.80334,-4.29815,6.8225,3.46037,2.7969,-2.95482,4.25086,-52.216,-865.224,-579.256,18900,-21420,23380
1.82549,6.88628,8.54984,-5.74738,3.14812,-0.0519824,10.1885,4.66872,4.22756,5.08907,-3.5479,4.91542,-2.7013,2.98086,20.7022,10.5575,-47.824,-864.736,-570.96,10780,-20860,18480
0.595759,-2.04323,9.94517,-15.7852,1.46088,6.21064,5.25085,9.36339,1.05468,7.37677,5.48727,4.14971,2.69702,6.39592,10.5892,9.83619,-46.848,-862.296,-560.224,2940,-24080,14560
17.5263,-6.06354,14.1811,-24.5783,-2.29794,10.9343,1.42263,7.80153,19.553,19.8866,21.6712,8.31849,9.55329,7.23109,1.71858,7.44317,-50.264,-850.096,-561.688,-7140,-26740,11340
3.92281,-11.8724,9.46032,-16.6437,3.69903,11.2561,11.3639,10.3727,-3.81439,9.37535,16.7248,6.66083,4.91765,9.67437,17.0183,12.7652,-46.848,-850.096,-566.08,-19040,-27020,7980
3.71871,-0.00593304,9.90314,-0.571682,14.9183,11.7114,16.7729,8.46075,-5.09184,5.49337,15.2655,15.0317,3.89397,16.3164,21.0604,12.8833,-44.408,-834.48,-581.208,-26180,-25760,6160
2.82952,-0.35466,4.57348,8.23732,14.1635,10.039,17.1863,2.08819,-2.78552,-0.299253,16.8009,11.3156,3.60735,16.383,22.8997,9.78304,-46.36,-818.376,-588.528,-30100,-25480,5880
2.68644,2.37454,6.39696,16.6301,15.7881,11.5088,15.1658,-0.471797,-3.27926,0.354097,17.5645,11.6577,7.01001,15.948,17.913,8.42866,-58.072,-812.52,-596.824,-32340,-26320,7280
10.9719,3.02469,9.16695,16.6771,9.90131,10.6248,4.72585,-6.78174,9.04317,8.35076,19.8054,11.6239,7.88231,10.7693,0.600282,-1.82138,-61,-806.664,-600.728,-33740,-25900,8540
6.7663,0.292819,6.17086,21.294,9.59463,9.69808,8.1521,-5.30228,6.84133,3.65184,13.0482,8.10746,4.93659,9.56461,0.82775,-0.394715,-72.712,-809.592,-610,-34580,-26880,9940
5.75196,1.17906,5.39911,22.7311,6.53669,6.49772,-0.691908,-7.71874,6.89391,2.09336,7.06313,7.98988,2.64203,8.53081,-15.2671,-3.71128,-87.352,-811.056,-615.856,-33320,-25620,10220
-8.79869,-10.1365,-6.08225,16.8293,-5.955,-4.24547,-16.6747,-13.7157,-9.04321,-9.5557,-6.57377,-6.94513,-8.14339,-1.90798,-31.7731,-13.5612,-103.456,-805.2,-627.08,-27020,-25620,9800
-22.6767,-25.6531,-23.4411,5.6523,-20.7882,-20.5073,-28.2256,-29.1814,-24.3812,-24.1298,-18.852,-27.2957,-23.0201,-22.085,-39.886,-25.4609,-122,-808.128,-636.84,-16380,-25760,7140
-37.8991,-26.4452,-39.4831,12.1766,-20.0142,-34.9729,-15.8695,-30.8133,-35.892,-44.2554,-41.3253,-39.3596,-41.6317,-38.6835,-14.1534,-14.5938,-141.52,-802.272,-647.088,-2800,-28420,1260
-29.5521,-17.3448,-33.6905,10.8285,-17.4273,-28.9687,-20.8191,-24.3125,-26.1723,-36.8125,-39.4049,-33.6585,-34.1875,-37.5358,-26.3313,-8.39406,-166.896,-787.632,-657.824,9660,-29960,-7700
-21.2418,-6.93561,-26.8229,13.2255,-9.13766,-22.8817,-13.3624,-17.3361,-19.5967,-26.0674,-32.029,-27.3738,-23.3677,-26.4424,-13.2094,-6.74141,-189.344,-768.112,-658.8,20300,-30800,-18760
-13.7331,5.77252,-18.9986,17.98,2.52949,-15.0787,1.67673,-7.2045,-14.3905,-15.6988,-23.0075,-19.2473,-12.928,-12.1604,10.4876,1.29265,-204.96,-733.952,-649.528,28980,-32200,-31640
1.78645,18.3935,-7.69748,11.7377,5.49002,-5.92563,0.284437,-3.21215,2.75772,1.95849,-7.01157,-6.02544,1.6769,-3.97449,7.7065,0.130802,-206.912,-725.168,-637.816,36820,-33740,-44100
13.3605,28.396,0.00849404,6.45871,5.90449,0.0164853,1.48483,6.14069,18.3778,14.7055,-0.705529,4.465,10.4003,0.769045,8.19698,0.0253391,-206.424,-711.016,-643.184,37800,-31640,-58240
10.8897,24.0571,2.63848,0.610104,6.9812,4.59228,7.46727,17.2033,14.6014,14.838,-2.48173,7.13059,13.5296,5.61992,9.82953,7.06851,-200.568,-707.6,-638.792,38500,-28560,-67060
3.5087,13.1649,-0.0417861,-7.93553,3.13662,4.54462,8.07573,20.6329,2.31783,9.55729,-1.53863,4.79356,12.6407,3.49101,6.3371,6.6636,-171.288,-700.28,-622.2,36260,-23100,-71540
11.2997,7.86774,6.62412,-20.1194,-3.74349,5.35946,-2.16233,17.4782,6.4834,17.7368,7.17226,7.9725,16.552,4.28064,-11.5417,-0.388827,-132.736,-711.992,-602.68,30380,-14420,-72660
13.4488,15.0785,7.46644,-11.4482,2.56544,-0.243367,7.05761,10.1181,13.3971,14.2797,1.11885,14.051,9.53941,5.247,9.70277,-1.89164,-91.744,-728.096,-588.04,22120,-5180,-70840
-10.8857,-3.11366,-2.24171,-16.5543,-4.3669,-1.98565,7.33725,9.39494,-13.5824,-4.70452,-7.22793,1.45957,0.706306,2.0403,15.1097,-3.47523,-54.656,-768.112,-564.128,13720,3500,-63980
-10.4677,-16.5214,-0.0558663,-31.3664,-15.4645,0.695537,-3.17562,8.63478,-12.4351,-1.29852,3.70735,-3.15172,1.93739,3.22421,-0.249172,-7.63047,-18.056,-801.784,-545.096,9240,6300,-53200
13.5035,-8.04375,16.5363,-37.4513,-14.9013,10.0012,-14.8417,5.74607,17.2654,19.6177,22.3946,11.8675,13.9725,10.7639,-20.9405,-11.2458,33.672,-836.432,-542.168,4620,6720,-39340
9.25672,-11.8696,24.5784,-35.2572,-4.72501,19.0959,-7.24083,10.047,5.43854,18.57,27.4394,16.9467,19.3241,18.5831,-11.1435,-1.28945,39.04,-836.92,-546.56,-6860,7000,-23520
7.19466,-19.5948,27.0111,-33.85,1.20912,22.7591,-0.917458,8.70482,-3.19763,15.6117,33.8746,14.5144,19.6874,19.8733,-0.185716,3.31219,74.176,-848.632,-550.952,-8400,6160,-2800
22.7902,-2.16528,31.5431,-23.6374,10.0659,18.712,-2.24355,1.42698,23.2545,18.9348,31.3458,21.2087,15.2095,19.9222,1.90291,3.51627,80.032,-833.016,-567.056,-1400,9940,15400
27.4731,11.6946,27.031,-8.7237,16.2726,12.3897,0.49803,-6.26085,36.9643,15.9063,23.9291,22.9735,5.60426,16.2546,14.0589,2.60074,63.44,-809.592,-589.504,420,7980,27860
12.1172,7.78469,17.0525,0.711002,20.5227,8.26589,11.7706,-2.85538,21.4481,1.88209,12.3457,15.0652,-3.52875,10.6666,27.9507,12.1909,30.256,-802.272,-586.576,-4340,5320,35280
3.80238,3.01012,14.3951,6.08946,23.2094,5.43042,17.9469,1.34174,3.55778,-1.75283,4.89613,13.0824,-7.24481,8.62272,29.7666,18.2892,6.344,-816.912,-565.592,-14280,7280,38220
-2.05583,-12.0674,5.52913,2.0546,10.8798,1.9483,13.1597,0.216124,-6.69241,-0.832735,3.78488,1.62131,-9.70609,-0.523424,18.6116,14.5646,-20.008,-824.232,-543.144,-25620,10220,36120
-4.6171,-6.1752,-2.97315,10.4404,8.69761,-3.8985,10.4823,-5.01752,-2.74691,-7.0118,-6.67407,-1.15481,-12.8906,-5.04151,11.9873,8.75933,-41.968,-825.696,-546.072,-36120,13720,27860
-13.1006,-0.640708,-12.6116,16.6274,3.35886,-8.98336,-1.13319,-10.6403,-4.73497,-18.4944,-20.9413,-6.61217,-15.4477,-8.80166,-5.76232,0.22434,-62.952,-805.688,-556.808,-41160,14420,17500
-25.1933,-2.13813,-27.8,26.0756,-1.3884,-15.7109,3.49979,-10.1861,-12.9292,-31.8796,-32.5804,-19.6651,-20.7863,-13.4388,3.84165,0.904853,-92.232,-749.568,-594.384,-43120,13860,5040
-23.4379,2.56315,-32.0886,32.7828,-6.3023,-20.3863,0.768204,-10.4341,-18.6258,-28.4515,-32.2537,-22.5879,-20.6206,-19.4116,1.41185,-1.7165,-108.336,-718.824,-629.032,-42560,11200,-9380
-14.9002,0.764616,-27.0275,29.3827,-15.089,-17.72,-4.75391,-4.51774,-18.2738,-13.0732,-17.9238,-22.7263,-9.69208,-24.9448,-9.87138,-1.27178,-96.136,-704.672,-654.896,-39480,8120,-21560
-7.94956,2.31362,-20.1398,26.3723,-18.5164,-11.4817,-7.21807,3.16727,-18.6729,-2.36375,-7.79152,-17.3479,3.22696,-19.7801,-19.6147,-6.28038,-66.856,-692.472,-672.952,-30660,3080,-29820
-0.584,-0.623074,-13.9167,16.1602,-22.794,-5.2747,-12.0607,7.61794,-12.7039,6.28286,1.13208,-14.648,10.4797,-12.3802,-31.6685,-13.5025,-25.376,-701.744,-669.536,-19320,-700,-28840
4.54908,7.00188,-8.49769,16.2143,-16.0252,-1.60817,-5.47858,8.19275,1.00248,8.38248,6.77501,-8.09635,11.7949,-6.98017,-20.6897,-6.40211,4.392,-705.16,-652.944,-11900,-1680,-23240
-2.94008,-0.112823,-7.42469,7.48315,-15.4557,1.5405,-8.66267,5.96327,-5.74873,2.53421,4.98549,-8.71799,10.9,-4.96432,-25.423,-0.994021,17.568,-724.68,-639.28,-7140,1540,-14420
4.87672,8.94047,-0.175652,12.0385,-1.44825,3.3716,6.52972,6.82311,5.74525,5.66949,3.38355,1.49381,7.75401,5.04679,0.61623,4.94855,30.256,-744.2,-629.52,-3360,6440,-4200
14.7541,14.6636,9.68342,8.53938,7.89081,6.63546,7.46733,7.94576,16.9286,13.0775,6.73881,12.5285,7.96309,12.2262,3.57476,8.45761,26.84,-760.792,-610.488,-2520,10920,7840
2.24476,-1.62308,8.88497,-0.705367,8.60794,9.49213,6.45638,9.78671,-0.200936,5.14939,3.95346,6.45731,6.42938,13.0767,3.57311,10.1556,23.912,-775.432,-592.92,-8120,11760,17220
-2.91456,-8.55952,5.28509,-7.13059,5.85036,6.32259,1.64453,3.3294,-4.32635,-1.6949,0.295311,1.16311,1.97861,8.62368,2.23669,2.50346,13.664,-786.168,-580.72,-16800,12600,24920
-2.53405,-7.54474,4.84603,-9.40849,6.23227,3.79112,-4.32991,-6.87074,-5.25248,-4.06561,-3.14312,1.47474,-2.36238,5.00706,-1.99308,-2.6012,-2.44,-794.952,-587.064,-25900,14000,29960
-1.39253,0.329566,6.10608,-3.82308,11.9613,0.00421783,-0.0968707,-12.5992,-0.300043,-5.20986,-7.6802,3.80555,-7.53083,4.30491,9.71739,-3.423,-21.96,-798.368,-595.36,-32340,14980,32340
-0.142781,-8.52649,5.71444,-15.8435,2.11236,2.28686,-9.59728,-10.9949,3.08528,-2.39552,0.640819,-0.556264,-4.60153,1.62731,-4.55534,-9.58077,-44.408,-804.224,-613.416,-33600,14140,32480
7.19174,0.244563,6.11977,-15.9929,4.18436,3.88008,-6.64817,-9.21519,12.9927,-1.17261,2.6643,4.8347,-4.46302,2.52174,-1.47784,-7.92355,-64.904,-806.664,-626.592,-25480,11480,29960
9.43799,-3.63938,1.55914,-19.4144,-1.68935,3.64557,-7.28829,-4.5306,12.7907,0.490274,4.58462,-0.447846,-4.74263,-0.736685,-1.49355,-4.91789,-82.96,-806.664,-638.304,-15960,7420,26460
1.51272,-0.426706,-1.80781,-9.61618,0.426793,-0.445653,-0.227716,-5.63523,2.55696,-2.77497,0.0220873,-1.48845,-4.75788,-0.583681,9.99449,-5.66032,-96.136,-807.152,-645.136,-6720,3920,22260
9.86794,14.9038,3.62773,-0.164732,6.47606,-3.50372,1.82661,-10.6773,11.9873,2.7586,-0.244387,9.03821,-0.0562559,3.70807,11.0754,-7.20918,-102.968,-809.592,-645.624,1120,1820,18060
-1.13488,10.9277,0.390415,3.33253,9.71591,-3.65032,7.96738,-3.38664,-5.73014,-2.58272,-6.26856,6.72592,0.302972,3.24789,19.5977,-0.643623,-108.824,-813.984,-634.4,6720,1400,12740
-3.35088,0.977285,-3.18349,-4.40646,0.259939,-5.05955,0.997838,-0.834059,-9.76014,-1.43402,-2.75994,0.657828,0.675915,-6.52893,8.07629,-5.48685,-105.408,-816.424,-632.936,12180,1120,7840
-0.993348,-9.70347,-4.87373,-10.9006,-10.1733,-1.33244,1.29534,7.26402,-9.34859,4.73411,6.44728,-6.66613,3.72151,-9.33053,5.65566,-1.04315,-98.088,-813.984,-628.544,16520,280,2800
3.22556,2.72565,-2.8078,-0.989598,-5.10409,-0.5961,8.60552,9.01793,-2.14713,8.8221,5.66929,-1.60907,3.78766,-5.32394,17.842,6.05407,-92.232,-805.2,-614.88,19460,-840,-1540
14.632,18.8784,2.46775,5.83715,1.44267,-0.402651,4.69422,5.31086,15.5153,14.3603,5.30504,8.48147,5.36463,-1.30142,10.5365,1.42241,-80.52,-801.784,-612.928,20440,-2240,-4760
14.7947,15.4488,5.21911,4.17994,3.3952,3.69084,2.54319,7.38117,15.5334,15.8044,5.2173,10.3677,8.69236,4.32298,2.86467,-3.55691,-68.808,-793,-606.584,20580,-4200,-7000
14.9123,9.56303,8.05709,1.47031,3.66843,8.17395,3.61884,11.655,14.3545,15.6909,8.29779,10.7122,10.4025,5.49095,0.482059,4.39797,-65.88,-786.656,-602.68,19460,-6300,-7840
4.89117,7.08422,7.09601,4.11662,6.91112,10.4955,7.6398,10.0469,2.34512,6.51227,2.83208,10.332,7.9929,5.61533,3.4798,13.4431,-60.512,-778.36,-601.704,17080,-8260,-7980
8.82276,3.01712,8.8555,-2.39456,1.71255,12.1208,-1.82124,5.29713,10.2143,9.39498,8.2142,11.6057,9.99727,7.88392,-15.0072,7.05054,-53.192,-769.576,-605.608,13160,-8820,-7420
-0.794975,-8.05474,2.31958,-7.07124,-2.80914,8.38962,-2.04435,4.78341,1.79064,1.26183,7.58808,3.43893,4.04857,8.93121,-16.1929,5.73135,-48.8,-765.184,-606.096,7700,-8260,-6720
-12.2702,-8.8245,-1.25719,-2.76537,-0.139017,2.98946,-0.515993,1.49395,-11.2846,-8.97096,0.827666,-0.0649412,-2.5033,10.8867,-10.7324,6.18673,-47.824,-760.304,-608.536,1400,-7700,-5880
-15.3299,-16.7311,0.356227,-10.6818,-6.309,1.79204,-6.38708,3.20984,-14.1274,-7.69827,3.49921,-4.3088,-1.63475,7.55577,-19.554,6.20324,-43.432,-762.744,-611.464,-5180,-7280,-5320
-22.6341,-19.4831,-2.95046,-10.1269,-5.74012,-1.82578,-1.68648,3.54881,-19.9793,-14.7543,-2.36508,-7.59192,-7.27975,0.16459,-9.08917,6.94558,-41.48,-761.768,-613.416,-10640,-8120,-4480
-26.574,-17.8414,-4.29472,-6.51717,-0.0725158,-4.65191,2.90624,1.15931,-19.7313,-21.2621,-10.7314,-7.38129,-12.6204,-3.01327,0.522927,5.34799,-42.944,-770.064,-616.344,-14980,-9100,-3500
-14.503,-17.5318,0.00379601,-10.419,-3.31667,-5.52348,-5.04895,-3.17903,-5.08237,-12.8571,-5.51268,-8.53404,-10.6911,-6.26591,-9.04298,-3.56925,-42.456,-776.896,-616.344,-18060,-10500,-2380
-5.25848,-10.2388,4.59775,-5.58958,-0.270547,-7.96531,-4.24467,-6.35671,3.99065,-6.65612,-2.33587,-5.14573,-10.3179,-4.33148,-4.87482,-7.59678,-44.896,-786.168,-622.688,-20020,-11060,-2380
-10.1963,-17.3586,4.42232,-11.3891,-1.83287,-8.62288,-4.97932,-7.27346,-7.88953,-7.62474,-2.23219,-6.59655,-9.59661,-3.21159,-9.21546,-7.71923,-52.216,-792.512,-620.736,-20720,-10500,-2940
-11.354,-10.9066,4.62209,-5.30072,4.55036,-11.348,-0.686558,-11.7091,-8.91456,-9.96872,-12.4225,-1.91992,-10.8499,-1.4813,-4.6772,-7.10371,-59.536,-794.952,-619.272,-21000,-8540,-4340
-9.65484,-9.06258,-4.04309,-6.97367,-5.68514,-18.9338,-14.592,-21.519,-0.174699,-9.58477,-14.4305,-8.04776,-14.7917,-11.6018,-10.708,-19.0503,-76.616,-797.88,-623.176,-20160,-6720,-6160
-10.139,-14.8549,-16.1468,-13.3311,-17.0166,-22.4856,-22.8739,-23.8885,-0.020195,-11.1581,-11.2018,-19.7874,-16.257,-22.5518,-14.8729,-22.9333,-86.864,-793.488,-618.784,-18900,-4760,-8680
-6.46105,-9.25177,-9.28899,-0.167679,-4.27989,-16.0042,-0.711382,-10.8846,-4.88244,-6.42347,-13.3876,-12.7468,-11.7151,-10.6112,10.2374,-5.26415,-92.72,-788.12,-620.736,-18200,-3500,-11480
7.86352,5.11674,6.77737,15.6039,11.285,-7.46537,17.0436,0.891399,3.05284,7.14888,-9.40006,2.86415,-3.33444,5.47635,26.8033,10.0769,-95.648,-782.264,-624.64,-17640,-980,-13860
6.30075,12.2258,6.66403,23.9969,9.92155,-8.43168,12.9015,-5.24462,-2.27778,6.23739,-10.6789,7.96882,-0.882572,5.59009,22.7193,5.24954,-92.232,-776.408,-619.76,-16100,700,-15680
-6.62652,-2.80655,-9.8969,13.5674,-11.382,-6.78449,-4.37988,-5.97745,-16.4086,-8.12585,-9.84577,-8.95246,-0.747859,-3.79327,-3.12561,-3.68706,-81.984,-768.6,-619.272,-14700,2240,-17360
-2.54152,-5.60376,-21.2616,6.83197,-23.2396,-4.49955,-15.2891,-1.74263,-2.14468,-11.6651,-9.42005,-20.3758,-0.887549,-11.9955,-22.7476,-6.81501,-68.808,-757.864,-621.224,-12320,3500,-18760
2.33184,5.21535,-17.2967,18.771,-14.7277,0.372403,-7.97701,0.571158,-1.57355,-3.9454,-7.00666,-15.1959,3.7764,-12.3817,-4.99986,-4.39952,-52.216,-730.536,-626.592,-9800,5740,-19180
9.68535,18.0833,-7.87702,29.9416,-2.3114,10.0384,8.35941,0.928379,-1.59415,7.66174,6.48477,-4.08878,15.8981,-4.08517,15.2236,4.60133,-38.552,-707.112,-634.888,-7140,8820,-18480
27.0796,39.8532,6.13758,43.1742,11.2724,13.9208,17.6614,-1.61711,15.0887,24.003,19.6361,15.197,24.3002,5.58759,27.2167,9.02055,-29.28,-684.664,-650.992,-4760,11060,-16520
32.6394,44.1871,7.65325,41.4015,11.6339,15.1757,8.76833,-4.17029,21.7067,24.8365,22.4814,18.8328,25.5071,2.71594,16.6122,0.244322,-23.912,-658.312,-668.56,-2240,13300,-13440
27.7415,40.0157,-4.98503,30.2039,2.22709,14.2771,-5.60798,-1.11783,23.7012,14.1162,16.0174,11.0086,15.9615,-5.51784,-1.65288,-6.08545,-20.496,-642.696,-678.808,420,16660,-9240
13.7778,22.6763,-12.2913,14.9262,-4.56227,18.0013,-6.35811,8.49178,10.5809,5.40356,14.0341,0.46439,12.345,-7.91394,-0.510772,1.77765,-17.08,-630.984,-667.096,2800,19600,-4760
19.0176,24.5511,-0.594612,10.5896,6.84725,18.2887,0.696824,10.9966,18.1157,15.3087,17.8799,11.4873,13.4176,1.38839,5.23484,11.2313,-21.96,-632.936,-659.776,2240,25200,-840
6.81375,16.2729,-3.6862,0.804037,9.13792,14.8966,3.9174,12.4457,10.216,5.1595,11.604,10.2548,4.00147,1.87271,5.93644,10.8742,-18.056,-654.408,-650.504,700,30380,1260
-9.84351,-1.5603,-15.9481,-17.9094,-2.0815,5.31417,-1.74572,6.45583,0.161725,-14.255,3.28066,-3.68864,-10.6472,-6.70803,-0.921044,0.771934,-17.568,-679.784,-646.6,980,33880,3640
-3.63679,-8.13993,6.62183,-27.7814,12.4354,20.9245,14.4983,28.5105,2.06703,0.342806,7.97816,4.60112,1.60172,22.165,3.21111,26.1576,-25.864,-700.28,-662.704,5460,34860,5180
21.5856,-4.18103,50.7927,-30.6499,38.9336,39.2187,30.6516,42.5617,13.7831,40.3998,31.7865,34.9548,29.4244,58.6556,7.35458,44.1804,-17.08,-715.408,-669.536,12600,33740,8400
18.6085,-2.31568,43.7054,-26.579,39.0125,16.949,25.9852,24.4616,9.1956,34.2374,21.7304,37.9226,12.5416,46.4471,15.8072,25.9698,-48.312,-760.304,-672.952,21560,33880,9940
-8.00235,-25.0385,13.2515,-39.7621,8.50346,-1.14327,-0.561477,10.9403,-10.8555,3.60792,3.91724,8.81531,-3.64154,14.6494,-7.23211,-1.77568,-58.56,-790.56,-669.048,37800,30380,10920
-19.2568,-35.6975,4.97385,-43.1235,-3.08516,-4.07949,-5.23324,16.1247,-13.7787,-10.4812,-1.11242,-6.33263,-4.01084,8.3036,-16.4548,-5.64258,-76.616,-815.936,-642.696,51240,26880,11200
-29.0259,-29.4423,-3.71273,-29.7994,1.2281,-12.2545,2.39894,16.1888,-19.1956,-27.6031,-20.8866,-9.76612,-17.2037,1.61498,-3.37084,-6.15343,-80.52,-836.92,-607.56,60620,21700,12180
-18.3429,-22.0794,-5.91259,-25.568,-7.16748,-24.0578,-6.80612,7.20876,-7.93949,-18.9164,-21.2876,-10.2333,-22.6547,-16.7064,-3.71293,-19.284,-74.664,-866.2,-587.064,68600,14560,13440
-6.45201,-18.043,-2.96792,-24.7679,-15.3508,-25.6503,-11.7972,-0.946115,-1.84344,-5.89454,-11.5731,-10.8955,-17.4181,-22.5637,-9.4352,-21.2386,-67.344,-879.864,-589.504,69860,13720,12180
1.79917,-7.59927,12.2392,-13.3005,-3.75771,-13.8353,-4.28834,-7.72005,-1.27588,5.02551,-4.19923,-2.58477,-4.01374,-6.91407,-6.81845,-10.5,-57.096,-896.456,-590.968,68040,15540,10640
-9.15838,-7.66902,-4.80062,-6.74092,-10.0208,-17.0129,-8.61018,-19.8384,-9.46344,-14.1076,-16.2575,-11.6899,-10.1489,-17.7001,-6.26059,-16.1625,-48.312,-902.312,-587.064,65800,18060,8820
-19.4168,4.22509,-18.6541,5.91274,-12.9517,-21.2687,-10.5253,-31.4116,-10.2419,-31.0518,-24.8053,-13.8132,-14.4125,-25.6346,-2.46679,-21.2926,-46.36,-899.384,-577.792,60900,17640,7140
-8.88069,7.40563,-3.78788,8.20717,-6.5426,-1.76709,-0.594096,-19.4519,2.33951,-15.3865,-16.1544,-4.93284,2.78187,-3.57718,-2.7912,-2.89738,-25.376,-899.384,-571.936,54320,15820,5600
15.4827,17.5124,14.9922,19.5747,1.92175,1.26422,-1.14239,-19.639,16.413,14.9682,-9.49497,15.9162,7.30742,2.74855,-10.3378,-1.26032,-31.232,-888.16,-566.568,49980,24080,2240
-0.407325,-8.56767,-4.53986,8.84476,-24.2364,-4.01921,-14.5182,-20.1851,-1.97241,2.59037,-4.01307,-8.31466,0.683637,-15.4999,-23.529,-10.4812,-31.232,-885.72,-572.912,34160,19460,4200
-26.7785,-28.3371,-32.5158,2.02603,-40.1303,-11.6052,-23.0436,-29.0885,-21.149,-29.3695,-17.1836,-34.4091,-13.242,-29.7034,-25.0642,-20.8686,-19.032,-887.184,-584.136,28280,11480,6860
-25.2124,-11.8023,-21.2224,22.5766,-22.1946,-9.70027,-7.76285,-26.4988,-25.5791,-20.1149,-16.7875,-23.4937,-10.1614,-17.6633,5.82986,-13.0462,-19.032,-873.032,-601.216,32480,2100,10640
-3.32897,2.66649,-9.14618,25.1477,-14.0932,-3.19877,-4.9347,-17.1182,-2.55276,-5.19087,0.0613874,-7.67716,-1.55817,-0.0834664,2.57841,-5.18195,-27.816,-848.632,-608.536,35560,-4200,14560
9.31132,12.1855,4.8866,29.5365,1.26001,1.41549,3.54176,-8.13135,5.83842,7.84875,6.18212,6.93782,3.22472,16.3385,7.34887,8.16382,-32.696,-822.768,-600.24,37240,-9380,17920
8.611,13.3475,6.45887,28.1646,5.41005,2.77506,2.3814,-4.0062,-1.11578,8.55235,2.49869,11.9662,0.927746,13.374,10.6878,11.0042,-24.888,-807.152,-593.408,38080,-10780,19880
17.3637,15.3522,-3.6572,17.9488,0.287617,-3.3932,-3.90318,-0.265889,18.6415,4.86443,2.63919,9.93982,-6.79205,-1.68072,5.17957,7.79674,-28.304,-792.512,-591.944,37520,-8960,19880
1.47657,-2.74403,-2.25446,9.09328,3.79422,6.42478,4.7347,11.7538,-3.81276,2.67982,13.8602,-0.417712,3.63248,7.22702,16.6923,15.8041,-28.792,-787.632,-597.8,36820,-7560,20020
4.95758,-3.95421,6.83884,4.63359,12.6912,12.1233,5.0864,12.1183,-4.48501,15.9499,25.0165,3.3429,11.6124,16.4647,16.8521,15.255,-24.888,-779.336,-599.264,37940,-7560,19600
11.52,-1.35724,11.4869,-7.45118,13.4145,14.1149,-7.11882,10.4959,1.06824,19.8108,24.0805,8.57573,12.8391,17.172,-9.39582,5.92873,-28.304,-778.848,-597.312,38920,-9380,19600
6.20433,-0.715553,4.53819,-7.75333,17.6201,9.44946,-2.81594,9.97463,-0.431441,6.0541,10.8747,6.41225,3.00864,13.3073,-7.06239,2.24736,-27.816,-769.088,-599.264,39760,-12180,19180
3.72893,5.47462,-0.739641,-1.16971,19.847,1.54419,7.36526,8.82472,1.98863,-0.249829,5.41449,4.9954,-2.34518,1.46197,12.724,2.03728,-31.72,-776.408,-589.992,38920,-13580,18900
3.3184,2.8081,-0.69323,-11.0227,8.97797,-4.24523,-2.48511,1.33409,5.06719,0.436897,8.10549,4.75842,-3.53569,-8.59574,0.152803,-9.32329,-35.624,-783.728,-587.064,37100,-14000,18760
8.87532,-4.01096,-6.62203,-21.3164,-5.76716,-6.21085,-6.30735,3.0977,17.9344,-0.353165,9.71661,-5.52157,-7.12122,-14.3859,-7.27053,-9.94066,-33.672,-788.12,-584.136,35420,-14840,18900
-1.71194,-0.232875,-6.49178,-5.12692,5.34506,-2.38822,7.7873,7.51567,0.680293,-7.79286,-0.674037,-5.63967,-9.51392,-8.44271,5.47967,2.86637,-29.28,-796.416,-575.84,32200,-15960,19600
8.16187,5.80358,7.72555,3.11258,15.6578,3.71903,24.2052,14.0237,2.91726,11.1834,8.09738,4.97914,0.412378,1.91959,11.6768,17.9672,-32.208,-807.152,-563.64,27300,-15260,20020
13.1713,18.5012,13.5644,11.038,24.3412,4.11788,27.5513,8.5787,7.33004,11.8746,3.48278,17.1718,4.54928,8.41583,14.3422,15.8152,-42.456,-826.184,-557.784,21560,-13580,19880
-8.84167,5.27047,-3.5505,4.8697,8.68981,-2.07891,11.5522,-0.224863,-12.2361,-7.51258,-12.2433,-0.341076,-5.07246,-6.9422,6.1399,0.367945,-51.24,-844.24,-549,14140,-11060,19180
-1.38938,3.99778,-4.59295,-1.59618,-3.77346,-2.35659,-0.955716,-7.72343,3.11897,-1.39466,-9.30632,-4.23853,-2.39545,-13.0403,-6.99683,-11.0668,-60.024,-855.952,-542.656,7700,-9100,18760
-2.91295,4.89709,-1.94889,-0.229713,-2.12197,2.04633,0.955885,-2.21182,3.07919,-1.21591,-12.7289,-2.74101,0.885756,-4.64534,-9.75974,-3.96894,-61.488,-862.296,-538.264,1680,-7140,18620
-19.336,-0.791204,-4.96829,3.70896,0.500701,2.95235,7.71273,6.33595,-22.3022,-10.507,-18.4291,-7.0497,1.78334,-0.307597,-0.744749,7.68985,-64.904,-862.784,-539.24,-6300,-4900,18900
-13.5019,3.45568,-5.40972,-0.0243455,-6.20857,0.482092,-6.23449,-2.67646,-12.2442,-8.95986,-13.6763,-6.42936,5.01835,-5.02136,-10.8201,-4.23488,-68.32,-861.808,-548.024,-11760,-3360,20300
12.6044,9.53315,4.26297,-11.5682,-13.3137,3.24657,-16.1637,-2.07909,25.715,9.63883,1.99958,-0.116484,15.6428,-1.40836,-26.1614,-7.01656,-69.784,-862.296,-559.248,-15260,-3780,22680
3.65702,5.27455,1.01952,-8.23166,-9.09666,2.79599,-1.50583,5.14788,14.7821,3.57732,-2.35547,-1.65646,13.2626,3.5801,-2.26799,2.97045,-62.464,-861.808,-563.152,-14840,-7000,25620
-14.6986,-2.3221,-8.46126,-4.05568,-9.53817,-0.789328,6.27887,6.45435,-8.89828,-11.6344,-13.1507,-9.18724,4.24368,3.08053,17.1251,5.61099,-56.608,-863.76,-565.592,-12460,-11340,28000
-7.34773,1.09376,-4.13536,-2.66487,-7.85643,-2.50113,5.20506,4.28517,-2.8904,-6.76977,-10.4559,-4.64282,3.22126,3.62935,15.8131,3.67228,-43.432,-858.392,-572.424,-10500,-16100,28980
2.32755,-2.26249,-1.29407,-8.66619,-12.091,-2.19676,-4.56006,3.16868,4.60024,2.5465,-0.868171,-2.8394,5.49421,0.258925,1.28172,0.489036,-34.648,-847.168,-589.504,-11480,-16940,28000
5.22186,-2.10025,1.20882,-8.83708,-11.608,-1.80317,-7.67425,1.82148,7.11739,5.69528,0.306711,-0.347665,5.19409,-0.774666,-1.83359,1.52062,-35.136,-851.072,-593.896,-12180,-16800,26180
-0.0866979,-7.44607,1.39578,-10.5595,-14.3503,-0.82589,-15.6289,0.381952,-1.5494,5.38373,1.59231,-4.09465,3.06101,-3.75805,-11.4224,-4.10407,-42.944,-854,-601.704,-11620,-17780,24780
5.29201,3.98405,7.53248,0.0597368,-3.42803,1.64564,-11.286,-0.368228,4.78001,8.44753,4.02878,6.99365,1.43924,5.24617,-2.64957,-4.98537,-50.264,-859.856,-615.368,-10640,-21000,23660
-4.14254,-6.03185,7.56618,-3.45061,-1.01419,6.59629,-4.08015,7.65746,-7.94374,2.16442,4.98575,4.7391,-0.592724,13.4792,1.85747,-3.1079,-52.216,-853.512,-631.96,-9940,-22120,19600
7.95914,-5.57102,11.9541,-5.36508,2.2067,10.3034,-1.45789,10.4591,8.92817,8.95486,15.4679,7.16088,1.03973,18.1457,4.86744,-2.57032,-64.416,-838.872,-615.368,-6860,-25620,17920
15.3839,5.11811,13.8243,3.24266,10.504,12.9738,6.12714,11.4248,17.8574,10.1197,19.0068,13.608,2.24144,18.3635,15.2444,2.32447,-70.272,-826.184,-584.136,-8120,-30100,17220
9.8388,0.64015,14.7949,7.48392,16.7666,15.3585,14.8134,12.2107,2.77789,9.26681,19.7487,14.9848,5.76453,17.5415,18.2831,8.54647,-83.936,-833.504,-558.272,-11200,-35560,17080
9.27387,-6.52148,16.8527,7.94088,16.8187,15.5358,16.5972,12.5601,-4.11308,12.3679,21.6111,15.1329,7.34344,16.3321,16.6192,11.9663,-86.864,-827.16,-558.272,-14420,-40040,15120
11.3638,-0.983034,14.8579,13.4449,17.0388,9.83406,14.3809,9.77282,5.40777,9.27952,15.1073,17.2309,4.32352,14.835,16.3944,10.4028,-101.016,-822.28,-571.936,-24220,-42000,11340
4.879,-10.3893,4.2666,5.13172,1.7982,1.47792,0.472152,-0.597747,-0.17349,3.46084,11.4701,6.8862,-0.932417,3.16603,2.74915,-2.54724,-111.752,-808.128,-586.576,-28700,-38640,6860
-1.35419,-13.1426,-6.80535,4.56914,-6.13902,-9.25208,-9.39723,-10.9241,-5.84881,-6.24917,3.395,-0.499341,-9.70057,-8.24492,-5.00106,-15.5549,-128.832,-793.976,-594.872,-28700,-32340,1540
2.46434,-2.62973,-8.34724,10.1496,0.414463,-15.3861,-12.1251,-17.6784,3.05112,-11.5841,-5.62496,2.00953,-14.2682,-10.2038,-12.9975,-18.8149,-131.272,-786.168,-607.072,-29260,-30240,-3220
-12.2886,-6.88408,-10.3148,9.88215,2.67371,-16.6465,-13.3022,-22.0072,-20.5568,-21.5421,-15.6496,-2.89005,-14.4525,-13.0314,-21.9438,-18.3739,-147.864,-772.504,-614.392,-28000,-30240,-8960
-20.0768,-19.931,-27.1948,-3.66718,-20.9674,-32.0351,-29.4647,-40.6975,-24.8997,-29.5425,-20.9442,-23.0672,-23.7011,-40.4415,-36.2176,-31.8645,-152.256,-755.912,-623.664,-22680,-33460,-14980
-28.6162,-28.8041,-41.937,-13.5081,-31.8254,-34.2545,-26.8472,-33.6022,-25.1662,-40.8268,-30.0039,-40.0149,-31.5183,-53.4425,-40.0679,-17.9071,-157.624,-752.496,-629.52,-18480,-32760,-23800
-20.841,-5.99148,-25.2076,6.43413,-3.15381,-15.871,10.8024,-14.2973,-13.5714,-28.8026,-28.6701,-23.2206,-19.8428,-27.5303,-2.73928,20.8718,-166.408,-751.032,-633.912,-16660,-29820,-31360
-10.3077,5.5565,-9.24834,8.24513,3.01267,-6.13075,9.35237,-12.5798,-7.98261,-8.86762,-12.995,-11.2482,-7.42382,-13.0547,-5.23782,22.0247,-166.408,-739.32,-628.056,-12320,-29960,-37380
-0.620961,12.9671,-4.75003,7.3851,2.04535,-2.19809,1.088,-13.3251,2.24758,2.88932,-5.4533,-5.6168,-0.949167,-6.94391,-6.70324,9.13026,-162.504,-733.464,-614.88,-7560,-29260,-43820
3.73093,17.4258,0.843367,5.9275,7.49925,6.80014,5.00048,-3.52237,5.06651,9.69922,-2.08997,0.0936254,6.08525,5.20433,-4.91099,10.9034,-156.648,-741.76,-618.784,-3360,-29260,-48160
-0.378186,17.6917,4.37938,6.13497,13.3937,12.5473,14.6013,11.1812,-0.669565,10.1952,-0.639461,1.21514,10.1999,12.988,7.80366,19.1753,-146.4,-735.904,-625.128,3360,-29540,-51240
4.69215,13.0635,3.36591,-1.43492,3.94547,9.67809,8.30956,13.1515,7.36736,15.3601,2.18223,-1.4837,10.591,6.86056,7.45367,11.9169,-137.128,-732.488,-633.912,8960,-27440,-53620
5.98344,12.684,6.13398,-5.8751,0.352282,8.31583,-0.145843,12.8515,6.67296,15.9465,0.661565,2.47131,10.9676,5.6291,-0.775871,1.76588,-129.808,-733.464,-630.984,13860,-24080,-54880
6.44301,12.6926,6.86397,-7.99238,-2.78087,3.49373,-6.83925,1.32768,6.82288,13.8935,2.82574,2.98804,9.28233,3.63027,-5.45968,-11.0956,-112.728,-740.784,-617.808,14140,-19180,-55860
7.66671,14.0477,4.06221,-4.63664,-3.04864,-3.67834,-5.83634,-2.00475,13.1778,8.91503,0.44088,4.38291,3.49614,4.30664,6.9959,-14.8671,-102.48,-765.184,-606.096,10500,-13580,-56700
15.5688,9.98667,9.64304,-11.4027,-7.25846,0.567022,-9.04791,2.322,20.7838,15.3581,10.1692,9.05572,8.19311,9.45175,1.84573,-16.8424,-85.4,-783.728,-590.48,3640,-8820,-56140
8.97429,-3.18072,13.4037,-18.7134,-4.99539,9.39104,-0.625524,12.4047,6.90856,14.6367,15.2656,8.00457,12.5544,16.5009,0.476089,-6.78378,-68.808,-809.592,-578.28,-2940,-5320,-54600
6.25267,-5.13197,18.3606,-11.1551,9.06972,15.1547,21.2421,23.624,4.21079,13.456,14.2201,12.7085,12.5933,25.2206,29.1575,12.7038,-47.336,-833.504,-578.768,-7280,-4340,-51240
17.2052,6.2668,21.9289,-3.57628,16.4435,13.7633,23.0638,19.3696,22.0371,16.195,14.4491,23.5322,9.43014,23.8281,34.6623,14.8944,-24.888,-854.488,-580.232,-9520,-5460,-44940
9.21353,-2.3408,18.0374,-9.27053,11.4605,14.4885,15.4887,17.7148,10.3261,10.1268,11.7973,18.9395,7.6334,21.188,24.0754,10.3816,-2.44,-854.488,-576.328,-9520,-7560,-36540
-2.24223,-11.4041,8.13367,-14.4348,3.49245,10.5282,2.97097,12.8149,-0.0824757,-4.19144,5.64037,6.78555,1.72515,13.2774,8.55794,-3.16098,17.08,-840.336,-569.984,-7700,-10920,-25480
-13.1771,-11.4314,-1.58172,-3.36684,6.9532,2.63658,7.83891,10.4246,-9.6135,-19.778,-8.19776,-1.71941,-8.17574,5.27231,24.5265,-2.86633,20.008,-814.472,-559.248,-9380,-12180,-16520
-10.9135,-9.90858,0.100654,1.74526,9.83,0.663996,9.45408,9.3309,-10.8587,-16.0657,-6.74977,-1.48243,-7.1798,4.85925,23.1952,2.44576,16.104,-785.68,-555.344,-16800,-8680,-9940
-7.2513,-16.5112,-1.22788,-2.33048,2.04149,-2.85421,-1.67482,1.93097,-12.429,-9.3493,0.786843,-4.48683,-3.42626,-3.45991,1.28901,-1.44614,6.832,-770.064,-545.584,-28560,-840,-4620
-3.97039,-13.7232,-0.164643,-0.487811,0.408358,-6.26194,-11.2234,-4.22185,-13.6261,-5.13445,3.04531,-0.85694,-2.80944,-9.34913,-16.9059,-2.35666,-5.856,-752.984,-560.224,-43120,7840,-700
-3.22127,-3.52379,-5.54123,7.14884,-1.70918,-10.3721,-12.972,-11.0879,-1.90674,-7.5594,0.200552,-1.15613,-6.28148,-11.5976,-14.9153,-3.89096,-28.304,-744.688,-573.888,-57120,17780,420
-13.1272,-2.86738,-19.5179,15.0221,-5.51022,-15.9952,-6.60228,-14.5515,-2.0604,-16.872,-12.041,-13.3969,-11.9925,-14.9507,0.27172,-4.86699,-56.608,-740.296,-587.064,-63420,23100,-560
-18.3175,-8.80992,-23.4361,11.9218,-10.588,-13.7228,-6.68855,-11.8883,-10.8585,-14.1998,-14.7661,-20.19,-10.4972,-15.7679,-8.43458,-4.35083,-73.2,-729.072,-620.248,-64680,25900,-2380
-11.6782,-13.0088,-15.876,5.33766,-16.3825,-8.28525,-17.0053,-8.6545,-16.4257,-1.54383,-4.66626,-17.1304,-1.83604,-13.18,-30.5705,-7.25663,-79.056,-727.12,-640.744,-59500,26460,-4200
-1.16547,5.4915,-10.5275,15.5074,-9.92554,-10.5951,-12.4299,-11.2398,-1.8429,2.43146,-3.91342,-7.0406,-1.40412,-12.3094,-24.2554,-8.23355,-79.056,-728.096,-658.312,-49840,25480,-5180
-1.97168,8.8718,-7.21528,15.2553,-8.34,-8.81718,-8.15711,-10.1756,-1.44542,3.04982,-5.31844,-6.25635,-1.11945,-12.6898,-20.3872,-5.61492,-70.272,-735.904,-662.704,-37380,25200,-6160
1.91263,12.693,-0.385861,13.8651,-4.60023,-4.464,-4.91168,-6.40273,-0.497603,7.14634,-2.84022,-2.12044,1.41871,-7.15414,-19.7989,-1.10683,-63.928,-750.544,-664.168,-25900,25900,-5740
5.03663,9.09326,-2.29877,6.54982,-9.73358,-1.31953,-1.81204,-4.17059,5.17158,7.52659,2.69074,-4.08837,2.52659,-7.6917,-11.2977,3.65223,-53.68,-767.624,-654.896,-16100,25760,-4060
11.4119,7.54341,1.4818,-0.340038,-8.38153,3.97665,-1.42815,-0.00610024,8.55919,10.1051,8.34848,1.83803,7.56079,-7.58987,-10.6793,8.53944,-49.776,-776.408,-638.792,-7840,22400,-980
17.3413,8.52329,6.67926,-6.85867,-6.42091,7.98101,-4.36431,0.907101,11.765,13.2302,13.1983,7.8237,12.4952,-3.17723,-18.6363,8.8862,-40.504,-792.512,-622.2,0,15260,2100
8.33811,0.950897,2.55778,-8.48173,-5.31144,8.30778,-0.886602,6.30629,-0.323786,3.14123,8.51171,2.18759,9.95643,2.3666,-11.2818,12.2021,-27.328,-807.152,-615.856,4900,8680,3920
1.94268,12.1746,-0.445247,9.59154,11.1833,5.61907,18.7038,7.56645,-2.50051,-8.70111,-4.15114,3.86363,0.865765,5.69661,24.6048,18.8522,-21.472,-811.056,-604.632,7140,4340,3360
6.58921,13.8202,3.56766,4.58496,13.9641,9.56116,12.411,5.40112,-0.299844,-3.07681,-1.46824,5.87702,2.88136,3.69065,14.8185,13.1194,-18.056,-816.424,-610.488,7000,140,2520
16.1718,1.53271,4.87758,-10.5403,2.45495,12.6494,-0.329401,4.97163,7.15894,7.15078,9.95034,0.635063,7.14191,0.779028,-3.19384,5.45923,-19.032,-814.96,-614.392,7140,-3360,1540
27.3366,16.2458,8.90547,-3.35709,5.47814,9.33988,-1.95969,0.587891,26.5857,12.1967,9.90432,9.73246,4.27586,3.71126,2.63789,-2.67713,-22.448,-809.592,-628.544,8260,-6580,1260
6.32361,7.97843,3.64291,2.18062,7.78171,7.55676,7.82768,3.74446,1.98213,-2.70244,-0.30581,4.7356,-0.481848,8.63522,20.2072,-3.79878,-24.4,-802.272,-626.592,11060,-9660,1960
-4.36968,6.54413,-1.51624,9.31419,11.1417,4.1969,17.9671,5.78158,-5.14105,-12.0861,-6.84291,1.2407,-4.3861,10.2978,38.2138,-3.10481,-26.84,-795.928,-630.008,14980,-11480,4060
4.09199,7.39985,3.97034,1.29511,7.17123,7.34786,5.70118,4.76032,6.20693,-1.39534,2.00538,7.37865,1.30034,8.25155,20.2004,-10.6007,-35.624,-790.072,-632.448,18760,-12180,5880
5.75324,5.49589,6.11466,-3.19188,3.2437,7.60389,-1.62031,1.13987,11.219,4.2156,4.9968,9.51275,4.54338,4.75886,10.3446,-12.7557,-44.408,-787.144,-639.28,22540,-12040,7700
0.2376,1.50323,6.97715,-4.06325,5.16994,6.11325,-0.0868906,1.06992,5.18179,2.81278,1.24722,8.68819,6.06131,6.80828,6.35924,-7.44713,-48.312,-782.752,-641.232,25900,-11060,8960
-8.50296,-12.5006,-0.0722374,-8.85162,0.815894,3.30179,2.96772,3.89516,-4.58976,-1.94717,-1.86068,-1.97776,1.4472,4.88716,7.323,-2.45165,-56.12,-782.752,-638.792,27580,-9660,9240
-7.95469,-9.18941,-1.69579,-8.59936,-1.61859,-0.878826,-1.07683,2.32624,-1.2224,-2.79401,-2.95421,-3.01973,-2.32293,3.28616,1.51662,-4.91333,-65.392,-785.68,-631.96,27580,-7280,8260
-3.18208,-7.58719,3.9132,-11.997,-2.93324,-2.06927,-7.62706,-1.59902,3.98121,2.6789,1.93338,2.74053,-0.143293,4.39034,-13.5359,-7.0826,-73.688,-788.608,-616.344,25760,-5460,6160
-5.34306,-4.39752,5.87608,-5.632,4.33108,-5.6735,-2.06199,-1.5766,-0.517207,1.6044,-1.18533,6.17494,-4.12119,5.19969,-4.6773,0.0655108,-89.792,-794.464,-607.072,20720,-3640,2660
-12.0185,-7.81113,2.83856,-3.04011,5.56586,-8.62215,0.866999,-0.540541,-9.48238,-3.07696,-7.67345,3.37598,-10.7716,3.66736,1.02575,5.30841,-99.064,-792.024,-594.872,14280,-2380,-1960
-11.4511,-15.3097,1.68917,-9.42185,1.20463,-12.489,-0.249789,-3.56304,-7.42356,-0.372363,-5.96115,-0.367,-12.2387,1.08692,-2.97242,4.05924,-110.288,-793.976,-583.16,7000,-1400,-7560
-15.95,-21.5563,0.0984442,-11.493,0.150833,-15.1581,2.24646,-1.89452,-13.694,-0.794087,-4.60232,-3.35805,-12.4725,2.57202,-1.63024,2.48339,-117.608,-793,-575.84,-1400,-1540,-13720
-17.5716,-24.3558,0.355937,-11.8126,-0.289709,-13.4081,5.41979,-0.585886,-13.8425,-1.5694,-5.70216,-3.61444,-13.5179,5.71632,-2.66584,-0.21758,-122,-783.728,-574.864,-7700,-2380,-18900
-12.6928,-18.6254,3.17217,-10.1948,0.267001,-12.1807,5.31532,-1.61096,-7.02158,-0.114569,-6.5659,0.135425,-11.9072,8.1965,-6.5223,-1.93568,-118.584,-780.8,-576.328,-12460,-3500,-23800
-7.61314,-11.8429,2.74747,-8.27447,-1.58213,-12.4508,0.320981,-4.46225,1.49248,1.36182,-6.36713,1.46778,-11.2391,6.68142,-9.42609,-5.83595,-110.288,-773.968,-580.72,-17360,-4060,-27300
-10.4067,-15.7274,2.85345,-7.06852,-2.07475,-8.95034,1.22194,-4.49427,-6.46724,-1.06783,-4.99683,-2.87505,-8.71935,6.50199,-3.65939,-2.03995,-93.696,-778.36,-585.112,-21840,-3780,-29400
-6.02137,-8.46916,2.20286,-2.33987,-0.709605,-7.87958,-3.0051,-7.66112,-5.09762,-2.16153,-6.0548,-1.39832,-7.62726,1.55683,-2.913,-3.24812,-80.032,-786.168,-592.92,-24220,-2800,-29960
-5.96658,-16.6633,-2.35686,-11.7775,-9.83798,-7.35216,-14.9806,-11.0015,-6.20064,-3.95145,-4.29952,-9.40806,-5.12994,-10.2186,-13.6985,-9.10583,-67.344,-790.072,-604.144,-22680,-2520,-28980
-5.41249,-7.24922,-5.09764,-2.90001,-8.32655,-6.79221,-10.362,-10.42,-4.09635,-8.16719,-9.46152,-9.7437,-3.40708,-14.5495,-4.67249,-3.61468,-62.464,-789.584,-615.368,-19600,-2940,-27720
-13.6716,-7.37489,-11.1965,4.81334,-8.49408,-4.86584,-8.37507,-9.81379,-20.0947,-16.6053,-13.3446,-14.7817,-2.24348,-18.5395,-4.80316,-1.30894,-53.68,-792.512,-617.32,-16800,-2800,-26460
-10.2264,-8.71566,-14.999,5.51098,-13.5933,-2.26008,-14.9982,-10.5089,-20.078,-15.5055,-8.31641,-19.6453,1.60833,-25.3946,-17.1077,-4.18787,-35.624,-776.896,-616.344,-13860,-1540,-24360
0.975291,-2.73476,-17.8764,5.65165,-21.8629,-0.67104,-26.156,-13.6839,-5.14215,-9.15225,-2.1389,-21.5937,5.28568,-31.1851,-29.4821,-10.839,-19.52,-752.984,-611.464,-11480,1260,-21280
6.45867,6.71291,-20.1019,11.7695,-24.3164,1.28148,-27.4835,-14.7961,-0.395765,-4.00425,3.76738,-20.1419,8.87636,-33.034,-26.2874,-11.7398,0.976,-721.264,-611.464,-11200,5600,-17360
3.45784,15.6907,-20.6913,23.4096,-16.4373,7.05831,-14.047,-5.42653,-9.76786,-2.63656,6.60019,-17.7771,13.8976,-26.6999,-10.0164,-2.23273,14.152,-684.176,-621.224,-12040,11900,-12880
8.01779,27.814,-17.6788,34.8625,-6.1831,11.3411,-0.56424,0.109356,-5.90372,0.920545,10.1158,-12.2366,17.0277,-20.306,5.51189,7.00368,15.128,-652.944,-640.744,-12040,18760,-8400
23.5658,49.4851,-7.29403,43.886,5.8458,15.457,8.95669,1.25137,14.8184,10.3243,17.3627,2.32804,22.4653,-9.12234,14.3063,14.792,9.272,-630.496,-667.584,-9380,25620,-3360
30.0556,59.6257,-4.39419,47.9475,14.9474,17.6074,18.9591,8.41317,28.47,9.26235,13.5696,9.57136,17.7873,-0.606948,29.4678,22.6569,6.344,-607.072,-686.128,-3500,32200,2940
40.0307,65.229,4.80911,48.6669,24.9657,20.7916,31.7365,16.2618,45.777,14.3734,14.467,19.4292,15.3932,16.4924,46.5917,30.4164,6.832,-601.216,-699.304,2800,35840,9240
42.6951,56.562,14.6625,36.3432,26.8372,20.407,34.7486,22.6303,47.496,23.6571,22.1828,29.0241,16.5311,29.8298,45.8965,28.1707,-6.344,-606.584,-685.152,11200,36260,17780
26.0853,36.6939,17.1111,20.2674,26.1734,20.9331,31.1905,23.6336,26.1589,17.6306,18.0413,31.3162,14.0321,35.2557,37.8155,19.364,-11.224,-631.96,-683.2,20580,32480,25200
10.8468,-2.40525,14.5041,-16.2472,8.94886,20.0454,10.9553,23.7054,11.5659,10.8947,16.8671,17.7169,12.0761,32.2153,4.09698,8.10256,-10.736,-665.144,-681.248,22260,33880,31640
14.1895,-10.397,21.2437,-29.0256,9.72376,16.7222,7.46631,24.2245,17.9981,15.0256,15.8698,21.4435,10.6895,31.6946,-4.84972,7.83777,-13.176,-718.336,-668.56,25060,37940,37100
-3.32007,-20.8329,14.3787,-32.6079,5.7905,0.828014,2.97185,11.3659,-5.25033,1.78639,6.209,15.3278,-1.51192,18.8022,-3.23289,-2.61376,-20.008,-778.36,-645.136,30660,41300,39340
-12.5289,-30.2478,4.30975,-38.2766,-5.76154,-14.1715,-1.32637,6.88606,-9.94172,-5.75154,-6.51293,4.4983,-14.624,6.17791,-5.67936,-10.303,-35.624,-842.776,-621.224,44800,36960,39620
-14.9366,-37.7217,11.1833,-36.5584,-3.44736,-10.2216,1.42282,15.2906,-16.7873,-0.179984,-6.54474,0.720481,-9.2773,13.8228,-7.76319,-8.63177,-51.24,-890.6,-619.76,51520,31640,34020
-12.4951,-33.0964,10.2983,-33.5769,-5.48029,-12.9971,-11.3915,10.6978,-10.6846,-2.53412,-13.5485,0.165879,-12.6819,8.66773,-27.0861,-22.7048,-65.88,-915.488,-610,55160,22120,31220
-31.4755,-30.1053,-0.716569,-25.3086,-3.30817,-13.3847,-10.9733,8.42186,-22.1386,-25.9573,-39.1647,-7.21352,-24.0722,1.59057,-30.6834,-25.5367,-84.424,-932.08,-597.8,56280,19320,22260
-31.0474,-27.083,-6.67815,-18.7382,-9.69949,-18.367,-7.79331,-1.72811,-19.6387,-19.2117,-31.1744,-16.7694,-26.8915,-13.555,-13.5326,-22.5199,-94.672,-920.856,-576.328,53620,17360,14700
1.16017,-9.34862,23.4727,-5.96849,9.86872,-2.86347,10.6746,-5.05401,4.33727,22.0393,2.32568,6.69954,2.50442,8.9405,6.04115,3.39698,-99.552,-910.12,-558.76,50400,18900,6300
6.30353,-5.81769,25.8445,-5.12259,14.9425,1.71326,9.14444,-12.1476,5.45577,23.2649,3.58622,15.8873,5.16009,10.8861,3.65365,6.13285,-104.432,-894.016,-555.832,46060,22400,-1400
-7.8663,-11.3187,-1.71215,-15.5216,-5.0785,-5.99021,-11.2189,-24.5696,0.772353,-1.03412,-8.37438,-0.149455,-8.82705,-10.0256,-7.22502,-12.1624,-104.92,-872.056,-561.2,40040,24780,-7140
-21.383,-24.6688,-9.2857,-23.7132,-11.4403,-0.182005,-11.7349,-15.9531,-15.0411,-11.7801,-2.67204,-13.4128,-2.2686,-11.5101,-7.92661,-6.75745,-101.016,-848.144,-563.152,35420,24780,-10500
-17.839,-20.1402,1.06319,-17.0607,1.94902,7.73088,-2.75646,-7.69797,-25.936,-7.27402,4.68804,-4.65325,4.69016,1.46189,-3.33327,4.76552,-85.4,-821.304,-564.128,29960,22960,-12320
-9.47517,-9.87372,-3.42471,-10.6786,0.251608,-1.8065,-7.97657,-15.1742,-17.127,-8.28315,3.84017,-1.26282,-1.28628,-1.52818,-2.46506,-2.11974,-90.768,-798.368,-567.056,23100,21000,-11620
0.815149,-5.12931,-13.1423,-8.59835,-13.8082,-11.2315,-15.144,-17.2077,0.990131,-7.98879,6.47017,-8.86606,-8.01126,-23.1188,-1.16513,-6.55773,-73.2,-794.952,-573.4,16940,18900,-10500
4.23744,-1.56001,-6.61636,-5.40679,-9.94281,-5.21482,-15.7248,-12.7571,2.02236,-5.05594,11.1728,-5.03068,-1.42539,-22.993,-7.76726,-0.24545,-64.416,-793.976,-588.528,10920,17920,-9380
-4.91925,-13.6291,-16.8302,-13.004,-20.1721,-9.14333,-22.001,-13.6396,-7.95497,-11.8958,8.34235,-15.7783,-7.84491,-29.8668,-18.6666,-7.7999,-42.456,-811.056,-594.384,5180,15820,-5600
-11.7984,-8.1924,-20.5308,6.94459,-11.9623,-11.9086,-10.4807,-15.5732,-13.9416,-17.5423,-1.66438,-16.14,-14.2513,-26.3384,2.69079,-6.53801,-26.352,-820.816,-603.168,5600,11620,-980
4.82316,19.1869,-7.67864,30.7677,8.6453,-8.71599,-1.50221,-13.6171,9.71856,-7.78609,-4.6001,2.68446,-10.3057,-7.70748,10.0281,-1.14567,-4.88,-834.968,-606.096,9380,4900,4060
1.08205,11.5853,-4.84139,25.5114,11.6868,3.85344,2.7044,-0.29049,-2.19477,-7.95743,-8.23509,-1.70447,-4.46534,7.06105,-1.59117,6.25535,15.616,-845.704,-605.608,13720,-3220,8820
-1.12191,18.7008,-10.4246,33.2491,11.9305,-4.02153,11.9283,-3.02896,-5.85043,-8.72487,-11.7332,-6.15989,-8.72187,3.5696,16.5684,6.31499,32.696,-847.656,-599.752,17500,-11060,12320
9.18886,23.7015,-3.95954,35.2088,10.665,-7.29122,11.541,-4.70734,4.52184,6.26044,-0.763979,-1.6081,-1.21284,4.05108,16.9351,3.33843,42.456,-852.536,-592.92,18620,-16940,14560
19.7463,24.3035,0.672658,26.3987,1.19051,-2.49278,-2.43851,-1.40372,19.4783,18.749,9.11321,0.209258,4.10919,3.49077,-4.67088,-1.83618,43.432,-847.656,-583.648,18480,-21700,17080
16.6598,18.4411,0.0760755,11.5461,-4.43783,4.1506,-7.07359,6.42162,17.2376,16.5126,9.57379,-2.62072,6.45615,8.38844,-19.1973,0.532187,43.432,-853.512,-585.112,18200,-25200,18900
4.98381,9.62935,-1.60157,8.92628,-1.0125,7.22108,2.92657,10.3425,0.804986,8.48404,1.67041,-5.90185,10.2076,11.9729,-7.26573,7.07354,39.04,-853.512,-578.28,18480,-27860,20020
4.21643,22.9034,-1.84543,19.2881,8.2164,3.12758,15.1543,11.5151,3.70373,5.71496,-6.18496,0.788646,9.07805,10.3335,17.0535,10.216,33.184,-854.488,-563.64,17080,-29400,21420
-4.59037,10.04,-4.52869,8.23928,0.886564,5.07215,13.9676,19.2195,-7.46399,0.781968,-6.58652,-5.47317,11.231,3.28877,14.6726,7.97421,19.52,-861.32,-555.832,13720,-27580,22120
9.56855,15.7058,1.49254,6.55198,0.990893,6.7442,12.1586,18.4759,11.7817,7.35158,-1.40901,1.45549,16.3834,2.4324,12.0394,4.96734,-4.392,-869.128,-549,8260,-23380,23660
20.1311,30.0178,10.7135,13.6056,12.933,8.19336,20.478,17.2649,27.1262,12.6196,-1.80577,16.2128,18.7595,9.37931,23.2975,9.13803,-22.936,-870.592,-547.536,4620,-22540,26320
17.1974,19.2524,11.3802,3.09242,5.47523,12.7791,12.1342,15.6343,22.3124,15.4263,2.92117,14.6196,19.8203,6.42555,10.3623,6.5849,-40.504,-870.104,-547.048,1400,-22960,29260
-0.285871,1.61935,6.51163,-2.34799,1.17329,14.7819,14.0004,19.3692,-3.13792,9.19226,2.59879,5.55265,16.0433,5.30451,12.6118,9.48023,-49.776,-861.32,-552.904,-3080,-25060,31500
-13.2884,-4.33277,1.63207,1.92045,0.517436,7.88523,12.5697,11.4923,-17.3083,-0.172285,-3.32474,1.42003,8.65766,4.33672,18.6593,7.06196,-57.096,-860.344,-556.808,-9240,-25760,32620
2.27754,-3.62084,5.57282,-7.1931,-6.45221,4.30911,-3.57264,1.74891,8.63604,5.52445,1.82678,7.07823,5.41827,1.77284,-1.65072,0.94232,-63.928,-857.416,-558.272,-16380,-23380,32480
-2.75117,-12.9748,3.29965,-15.6298,-12.7196,-0.592442,-12.8183,-1.02623,3.87715,-0.979936,0.474634,5.30644,-2.90186,-2.29435,-12.0874,-2.33647,-68.808,-858.88,-561.688,-18200,-25340,33460
-19.3454,-31.708,-7.70991,-26.8235,-23.8546,-10.5228,-22.5575,-10.416,-17.4576,-18.7836,-8.90123,-6.66575,-14.8542,-9.93176,-24.2101,-9.74184,-64.904,-851.56,-562.664,-21000,-29820,34160
-22.5728,-41.4834,-9.27429,-31.7575,-24.9547,-13.355,-17.8565,-14.1976,-19.7562,-23.5625,-10.1037,-11.8362,-19.4476,-12.9549,-19.4652,-3.5051,-66.856,-832.528,-575.84,-25480,-34020,34160
-15.6068,-34.0106,3.78198,-21.4856,-10.7252,-2.30403,-4.66747,-5.00711,-9.73298,-15.2676,-2.72138,-0.908108,-10.2198,-1.62413,-6.43549,11.9687,-68.808,-828.136,-582.672,-32340,-34440,33740
-9.2755,-30.9376,5.4332,-17.9756,-11.5522,0.0696604,-10.3619,-8.10909,-1.17242,-10.5569,0.850597,0.820165,-9.36318,-5.95699,-9.27435,2.087,-78.568,-816.424,-598.288,-37800,-32060,32060
-6.46711,-25.9043,6.68105,-12.2466,-7.19561,1.27807,-10.5247,-13.0367,-3.45025,-10.0095,2.82202,0.84607,-9.49879,-4.47998,-8.14613,-7.2498,-87.84,-811.544,-607.56,-37800,-29400,30100
3.00673,-16.1025,11.4079,-4.96799,2.9159,4.32971,-8.05253,-14.3548,0.861508,-5.28191,7.21092,7.07186,-5.01518,4.65932,-9.785,-10.3721,-98.576,-801.296,-622.2,-37520,-28700,28420
6.05304,-6.14648,9.78744,2.39726,10.1234,3.01005,-6.18728,-16.9956,2.54181,-5.31386,7.34789,9.3847,-3.85726,9.19262,-8.79303,-15.2524,-105.408,-786.168,-636.84,-35140,-30800,24920
-1.05993,-0.585987,2.39992,10.1734,14.0552,0.408493,-0.0237692,-11.0582,-5.88149,-11.2652,1.17323,4.91706,-6.24814,4.8767,1.44141,-14.1607,-121.512,-766.16,-641.72,-34160,-28280,20720
2.57781,1.77598,-2.17751,2.57256,7.43444,-3.63815,-7.38957,-9.74934,-5.62595,-3.48237,9.71075,-0.953618,-3.54154,-3.76584,-12.222,-18.3285,-134.688,-753.472,-648.064,-30100,-28420,14560
7.84785,7.61565,-7.55229,-2.73328,2.90776,-0.856247,-4.11897,-0.485632,2.00808,2.55285,15.4602,-7.1773,-0.0987964,-6.20261,-15.5278,-11.0325,-144.936,-739.808,-657.824,-20440,-30380,6580
2.16325,13.6459,-23.0517,2.4695,-2.67584,-10.7281,-1.56518,-0.628699,1.43588,0.921309,4.20973,-16.9963,-12.053,-24.5526,3.46425,-16.236,-167.384,-723.216,-658.312,-10500,-32340,-3220
11.7959,23.0369,-15.4023,7.04432,5.85295,-10.9047,8.34332,1.68372,8.87721,15.3493,8.74922,-10.688,-6.28268,-14.9244,13.3215,-5.60738,-180.56,-706.624,-663.192,-2520,-35140,-13160
24.9313,33.4136,14.816,13.7985,33.7152,12.012,29.0853,18.3652,13.1007,34.4802,18.1285,13.7781,19.2648,26.7194,14.4892,27.1902,-189.344,-699.304,-657.824,1120,-35420,-24080
14.2093,27.5659,10.8443,13.2618,32.2662,10.5523,31.3063,19.0897,4.40647,22.8837,6.03547,9.65445,16.2812,23.9137,22.2814,28.1082,-191.784,-703.696,-646.112,1680,-32200,-35980
7.66596,23.5319,-0.828065,7.94954,12.8818,-2.14963,13.4575,7.8513,2.0991,13.9758,-7.1873,0.729898,4.73513,-0.752753,13.473,7.73011,-191.784,-708.088,-629.032,1260,-28420,-44800
0.718782,16.0011,-4.45656,-0.120682,-1.43962,-3.95547,1.29662,6.35954,-2.25629,6.37932,-10.759,-5.0954,2.36584,-3.76076,-0.658637,-0.636956,-177.144,-731.512,-612.44,140,-24500,-51520
-16.0608,6.42297,-10.7592,0.308205,0.940475,0.517274,7.61261,10.8788,-12.7579,-16.2388,-23.9113,-10.0773,-2.80688,4.27584,7.23091,7.39206,-153.232,-749.568,-595.848,140,-19740,-54880
-17.6107,-0.712691,-4.12893,-0.725474,-0.612471,-2.66986,1.39585,5.48036,-17.2982,-10.6897,-22.7634,-5.08308,-3.11213,2.48869,4.06451,3.71236,-115.656,-778.36,-574.376,-980,-14840,-54460
-8.45657,-10.1814,2.73252,-5.90336,-12.071,-5.40458,-10.4059,-1.8326,-11.1674,2.48329,-5.62203,-4.48046,1.94299,0.12725,-1.77412,-0.710975,-83.936,-797.392,-564.616,-2940,-11200,-49560
-0.810652,-8.14291,9.8641,-5.81693,-12.7615,-3.5082,-21.689,-7.84834,-2.36745,7.13359,0.127091,5.39433,5.27942,5.06185,-21.6006,-5.72012,-54.656,-806.664,-567.544,-3640,-10360,-41440
-0.493415,-3.74315,3.90784,-1.81895,-12.671,-3.77607,-23.4958,-6.38325,11.0769,-2.7112,-6.41486,7.69772,-0.942859,1.89406,-27.5578,-7.88959,-31.72,-815.448,-577.304,-1960,-8400,-31780
-10.5858,-9.44797,-6.51161,3.56707,-8.22222,-4.65585,-4.95852,-4.1727,5.51803,-16.5294,-12.9523,0.584486,-9.80069,-1.60772,1.32136,0.156401,-9.272,-813.496,-595.848,-980,-7280,-20720
-2.00953,-15.3534,5.5609,1.01191,-6.14839,1.19144,2.817,-0.310513,6.51816,0.212497,4.27246,2.3732,0.0993075,5.41113,12.0417,8.60551,0.976,-809.104,-602.68,-1540,-5740,-10220
3.22651,-8.25074,0.701382,1.19736,-11.0766,-4.87213,-7.85351,-4.44925,11.3131,-0.0743689,3.39952,4.73694,-6.3598,-9.91243,4.31485,-3.86697,11.712,-820.328,-583.16,-7000,-4760,280
-0.521206,-9.45527,-16.0992,-4.72695,-24.3857,-16.8432,-15.6779,-11.2931,13.8769,-12.0006,-0.532771,-8.2741,-17.7885,-30.371,-1.3469,-15.8682,15.616,-831.064,-559.736,-18620,-5040,11060
5.08537,-6.89646,11.2342,4.24798,7.07899,11.4735,15.238,5.06918,11.3911,4.77653,13.9725,5.18332,10.9997,16.2006,21.6115,17.943,17.568,-827.16,-554.856,-31640,-5040,17360
10.3218,-0.439922,28.8602,9.9606,25.7941,21.6543,19.7868,9.43614,5.82552,19.4335,17.334,19.4577,20.3147,33.9142,17.9518,21.5335,10.248,-819.84,-559.736,-42840,-3360,18760
7.0322,-10.0833,11.6913,-6.78672,3.89467,12.7818,-8.93587,4.89097,-4.16772,11.5412,14.6866,6.30269,7.51673,4.98851,-20.9771,-0.000248418,-10.248,-797.88,-584.136,-50260,140,15540
-9.77332,-11.5419,-8.54072,-3.41491,-1.39636,8.18871,-6.09471,1.58967,-17.8405,-13.1242,0.990572,-9.27831,-2.83559,-9.65897,-14.7396,-1.50874,-34.648,-775.92,-626.592,-51660,2380,9660
-6.43084,1.17469,-11.672,1.31575,-5.049,-3.05822,-9.47974,-15.6854,-6.37687,-11.7359,0.19364,-9.22571,-6.09827,-19.2471,-8.89159,-14.7354,-66.856,-759.816,-657.336,-44100,-140,2100
3.25943,7.42316,-6.18118,-2.4237,-5.96562,-5.75968,-14.8925,-20.9296,0.327856,-4.43305,-1.23314,0.851718,-4.51,-18.5089,-16.0965,-22.7188,-90.28,-741.272,-676.368,-37940,-6300,-4060
-3.96346,4.41396,-16.6489,-5.78905,-10.2296,-5.51325,-7.6902,-6.16102,-0.371236,-17.9063,-15.7097,-8.07615,-9.94169,-18.2907,-8.82724,-13.2291,-107.36,-729.072,-666.608,-33880,-10780,-8400
-10.1433,3.77019,-13.1149,-3.44792,-2.88586,-3.44819,3.4852,-0.0192768,-11.8212,-16.1686,-13.9285,-9.47954,-4.98121,-7.95392,2.31721,-4.11998,-110.776,-738.344,-654.408,-31360,-9660,-13160
-2.56208,11.4055,-3.30399,4.33231,6.11335,-3.86433,16.2875,1.80299,-5.40421,-4.06204,-4.82841,-2.73772,0.605679,1.0476,21.2418,2.15558,-113.216,-752.984,-648.064,-25620,-6020,-16800
-7.88005,-0.461967,-5.85829,-1.45211,1.10981,-3.2275,18.2288,12.4811,-13.7875,-4.196,-1.56079,-8.59422,2.60232,3.49556,18.4453,6.7842,-103.944,-759.328,-653.432,-10360,-2940,-19180
6.66171,1.98633,5.72037,-3.78195,3.39255,3.00693,13.0152,15.5105,1.67947,11.3635,6.62453,0.888116,13.2653,14.0865,3.82733,6.42714,-95.16,-759.328,-668.56,6860,-3920,-18900
10.7754,5.4005,5.38325,-2.69095,1.33931,4.50721,13.8549,17.5669,8.05715,15.6999,5.9269,2.53471,12.4947,12.1114,10.8702,8.29199,-85.888,-755.912,-664.656,22680,-8120,-16940
10.5132,5.05961,2.58841,-8.20723,-6.71827,1.09518,-2.45208,9.55727,9.83796,11.8757,6.92269,0.17046,6.46407,1.92939,-6.35353,-2.67833,-71.736,-752.984,-654.896,33460,-12180,-14420
9.82156,10.7153,7.5249,-2.4876,1.23352,3.67257,3.14201,6.85827,12.8339,8.80987,5.85497,5.94165,3.13531,6.61619,-3.08814,3.33897,-58.072,-750.544,-632.448,37800,-11900,-12460
0.828685,10.5284,10.9413,7.06462,11.7825,2.54702,11.7744,2.27765,-2.05226,5.06662,2.33501,9.68987,0.996939,12.0907,5.9362,9.58748,-50.752,-754.448,-613.416,32900,-10360,-9800
10.2604,0.683915,15.7824,-0.887675,4.75206,1.91834,-2.2483,-2.73091,5.5192,13.8526,11.9072,10.3661,4.8605,8.37849,-10.2314,2.29061,-42.456,-766.648,-603.168,23940,-8400,-7140
5.7593,-2.18793,11.8261,2.0209,6.53021,4.89933,0.42137,-0.0623678,5.55442,5.03366,4.12779,7.04442,1.76034,6.00571,0.214267,6.95705,-49.288,-784.216,-599.752,15680,-6720,-5040
-0.111486,1.81655,0.792663,10.029,10.1483,1.7533,5.34056,-2.3187,10.6681,-7.49628,-7.65261,3.06989,-6.969,2.53418,16.6396,9.66714,-50.264,-787.632,-606.096,11060,-5180,-4200
-2.41725,-2.01446,-3.48851,8.36282,8.92487,0.0785227,3.14869,-3.35089,8.26656,-7.85103,-8.14017,1.61987,-7.39161,2.83938,14.7972,10.5,-51.728,-789.096,-598.776,7420,-4340,-3640
-4.5205,-1.16739,-3.14981,6.70346,7.41507,-3.55744,-3.00179,-11.402,1.83242,-4.7091,-7.45973,1.61565,-7.32815,-1.06479,7.3827,-0.320489,-54.656,-783.728,-603.168,3780,-3920,-2100
-12.0364,-1.93675,-2.51294,8.07843,8.47942,-5.19851,-2.34137,-10.4829,-15.4832,-7.37012,-8.16135,1.84562,-9.79782,-4.67705,5.46716,-4.00309,-54.168,-780.312,-606.584,0,-2800,-840
-7.05459,-7.07147,1.96889,-5.57441,-0.102555,-0.781761,-20.6988,-9.1263,-16.3269,-0.065932,-0.486779,3.99035,-2.48873,-6.53417,-31.9183,-9.08285,-57.584,-782.752,-616.344,-1120,-560,-140
-13.3577,-31.2135,-8.25721,-18.6257,-15.8714,-0.621324,-18.8481,-2.36802,-20.9939,-3.89356,4.10225,-14.9894,-4.01154,-15.023,-26.1252,-6.33206,-61.488,-785.68,-632.448,1120,980,700
-16.1216,-16.6594,-14.2379,0.978377,-5.90628,-3.75259,5.49913,1.69234,-11.9199,-13.7226,-6.82485,-16.8591,-13.2734,-12.4407,19.695,3.29698,-66.856,-788.12,-637.816,5320,0,1400
-15.7097,-9.01849,-13.8057,9.18025,-1.31415,-5.38297,10.09,-1.94366,-12.2959,-12.4974,-10.1418,-13.899,-12.5743,-8.0205,26.1167,2.75455,-69.784,-793.488,-641.72,12040,-2660,2240
7.74563,4.62091,-1.1241,1.84845,-5.95778,-5.20833,-13.7876,-8.01411,11.7472,5.96835,3.5605,0.261743,-0.608928,-3.30879,-16.1022,-12.2428,-69.296,-796.416,-636.352,18340,-5320,2240
11.3687,7.03812,-0.437453,-7.74276,-13.3424,-4.67069,-26.0764,-7.71931,15.7492,7.80317,5.57868,1.01369,4.75399,-3.23191,-40.6204,-19.0957,-70.76,-802.272,-625.616,24080,-7140,1680
0.568075,-3.37644,-1.82883,-6.83144,-11.6199,-3.60959,-15.5158,-6.55001,-4.81754,3.64061,3.05893,-3.54645,5.67777,-0.269493,-27.1442,-13.1694,-68.808,-803.248,-621.224,28280,-9240,280
-10.1799,-10.7219,-10.8808,2.95652,-9.09672,-6.85571,6.40095,1.77833,-18.671,-5.93965,-3.98338,-14.6237,-1.33282,-1.97418,14.5747,-2.5561,-70.76,-795.44,-614.88,29260,-10080,-1400
1.99647,4.99958,-11.6151,12.6528,-8.13006,-9.23156,11.0451,2.2377,4.20557,-1.76,-5.59913,-11.4644,-2.20943,-1.85307,24.1748,-1.44163,-70.272,-788.608,-611.952,27300,-9660,-3500
10.3339,22.4259,-2.38141,20.2078,0.884343,-2.63681,10.3331,1.07344,13.1313,4.11267,-1.62236,4.55737,3.2008,7.7341,13.3138,0.916162,-68.808,-794.952,-601.216,20860,-8260,-5460
-2.60813,8.49554,-6.32364,14.433,1.77876,5.12785,16.3473,11.3431,-8.9875,-5.56885,-3.15682,-1.87089,4.43523,8.0778,13.6109,10.8972,-67.344,-797.392,-587.552,14840,-6720,-7280
15.9186,17.6187,1.49106,4.7241,-1.55211,8.52347,0.837555,9.27614,12.2226,5.46953,2.00334,6.89259,11.3144,3.14047,-14.6997,3.13516,-62.464,-801.784,-586.576,10080,-5740,-8960
12.7754,20.9331,-0.700747,7.30339,0.395304,4.34945,2.30509,3.29122,5.99066,4.52174,0.777255,6.90024,8.51007,-3.57728,-9.04789,0.019196,-62.464,-800.32,-594.872,7280,-6440,-9660
20.2706,21.6284,7.39073,2.01439,0.81217,9.73376,-1.77148,1.7309,11.6461,16.0859,12.1826,13.2253,15.4057,-1.35564,-18.0729,1.37425,-61,-802.76,-603.656,7000,-7980,-9380
2.5236,9.35815,4.59469,7.23215,4.82389,12.381,12.4045,8.24583,-12.421,6.23769,5.4848,6.52167,11.1464,-0.016636,11.9103,12.7551,-51.728,-800.32,-612.44,9100,-11060,-8260
29.4703,19.0939,10.1343,-4.63529,-4.38319,9.85508,-12.664,-0.901908,34.5188,19.3021,14.7422,14.8051,13.1206,-3.42347,-22.1653,-3.31171,-45.872,-802.272,-616.832,11340,-14700,-6020
20.9336,4.38515,10.0609,-14.653,-6.20165,11.564,-12.9046,5.32502,27.1042,15.2988,15.0582,8.31161,13.5754,-3.08139,-20.8207,2.55964,-34.16,-807.152,-620.248,14000,-17780,-2940
0.813504,5.1681,5.02603,0.891618,9.16202,7.02204,10.1566,8.35709,6.97677,-0.96292,0.185122,4.60902,4.43238,-1.43156,23.6255,12.636,-26.352,-808.128,-622.2,17640,-19600,840
2.15247,8.03715,12.6973,0.527513,14.8572,6.12528,3.73342,2.11558,5.84172,2.06841,1.24434,13.5427,5.88811,5.1915,14.6359,5.81872,-23.424,-805.688,-623.176,20860,-21000,4900
-10.2865,-15.4957,10.1531,-14.2075,4.95065,6.92321,-4.16434,3.05388,-14.112,-1.81339,4.86738,4.65271,4.6747,7.68208,1.61425,1.97906,-25.864,-805.2,-619.272,23380,-22680,9380
0.394759,-17.1267,9.74144,-24.6178,-5.80964,5.75704,-13.6528,3.31011,11.8058,3.47274,11.6002,3.65826,1.60219,6.85629,-16.5204,-4.7823,-30.256,-805.2,-616.832,22540,-23240,12740
-21.0591,-8.19468,4.09207,-4.52146,11.1554,-4.32636,9.30656,-1.5632,-8.92346,-15.5863,-9.49991,6.43818,-13.6404,9.8052,22.6592,1.31036,-40.504,-811.544,-610.976,19740,-23240,15680
-21.0358,-7.14543,7.0945,-7.72639,14.8708,-9.00415,4.65229,-6.13715,-9.67147,-16.4524,-12.3884,11.1726,-16.0435,12.581,13.7885,-3.92383,-56.608,-814.472,-613.904,15540,-22120,17360
-13.5233,-15.6749,9.9923,-20.8539,10.3064,-10.3346,-4.44238,-7.91657,-0.467973,-7.96789,-5.99784,6.33378,-16.1808,11.8482,-3.22449,-8.20269,-81.496,-822.28,-615.856,11900,-19600,17080
-19.6402,-36.8383,10.7262,-35.2319,5.28717,-8.14892,-2.20455,-6.10665,-15.214,-4.37306,-1.18131,-4.69866,-15.0154,11.2585,-5.20294,-3.81182,-101.016,-833.504,-614.88,9940,-17500,14140
-40.3935,-48.2997,6.49945,-31.3138,8.50865,-9.31477,10.1598,-0.151342,-44.2407,-19.4032,-12.6419,-13.7934,-21.1794,10.5666,13.2969,3.92213,-122.976,-842.288,-624.152,9940,-16800,10080
-11.9306,-40.2944,13.4832,-38.0542,1.39369,-9.11013,-2.22282,-1.9833,-3.23607,-4.39944,-0.890408,-8.43868,-14.4932,7.4587,-11.9172,-4.46963,-147.376,-832.528,-623.664,9380,-16240,4620
-15.7473,-32.6354,10.3645,-23.292,8.02316,-9.62897,8.38392,-0.375649,-9.88474,-6.9441,-4.25326,-7.98329,-15.3154,7.89087,4.10854,0.975412,-162.992,-815.936,-616.344,9100,-18060,0
-17.9823,-15.4151,4.3643,-3.54658,13.994,-13.1443,16.7285,-4.43323,-13.9618,-9.87535,-13.3239,-4.01639,-19.1468,3.31881,21.5989,3.00128,-175.68,-795.44,-610,8960,-19320,-4760
-6.1431,-31.4394,-2.76052,-13.6149,-5.51893,-8.96385,6.99145,-0.745667,-7.94104,-0.741381,-0.412549,-13.4585,-8.76548,-4.97407,6.84409,-1.19006,-175.192,-777.384,-594.872,13580,-23380,-9240
-14.1041,-22.3375,-15.7641,4.4551,-6.59362,-9.9,13.1809,-0.724984,-19.0701,-14.937,-12.6946,-17.1445,-12.1861,-8.6527,20.0467,-1.04774,-174.216,-766.16,-591.944,17080,-22960,-14840
2.13303,-11.6732,-19.0033,6.37879,-20.0933,-10.8803,-4.63,-8.13751,-3.0238,-3.94866,-6.90342,-17.1575,-5.95092,-16.5177,-5.81523,-10.9648,-157.136,-743.712,-584.624,19040,-16520,-20300
23.3519,14.8053,-19.2339,23.732,-20.2604,-8.83109,-9.8208,-11.2966,23.9471,7.10405,-2.93584,-9.47819,1.68706,-20.0254,-10.7223,-12.361,-131.272,-708.088,-583.16,18760,-6300,-23520
35.6333,44.4272,-20.7325,46.9284,-13.2452,-5.28082,-6.09687,-12.1554,39.2627,11.9408,-3.27937,0.00586322,8.32543,-20.4013,-2.7058,-8.91499,-104.432,-660.264,-593.408,19880,3640,-24080
8.79488,41.1151,-33.5401,56.9797,-12.9857,0.130992,-0.813851,-7.62448,-7.98024,-1.8538,-8.86091,-10.886,12.0225,-23.9762,5.87005,0.77398,-67.832,-617.32,-613.416,22680,14420,-22400
8.81896,40.6867,-36.611,51.6582,-21.9489,9.48422,-11.0885,-4.42758,-10.0836,3.0069,-1.34174,-18.6157,22.2398,-28.1381,-9.17497,2.78289,-43.432,-580.232,-637.816,26040,23660,-20160
13.9726,54.5246,-35.6797,57.1537,-17.4718,12.095,-8.14891,-1.88092,3.006,4.40479,0.258441,-16.3568,23.6516,-29.021,-2.28415,3.46248,-36.6,-550.952,-675.392,30100,33180,-16800
4.70554,54.232,-26.717,54.6955,-8.0621,16.0165,-3.88547,4.95238,-17.2821,0.620265,3.70443,-11.7852,22.8576,-18.8853,0.13303,8.11055,-32.696,-558.272,-684.176,34580,40460,-11620
28.3567,56.8519,-9.80489,37.5951,-7.36796,19.1289,-14.5925,3.83317,17.0707,17.7691,21.1315,0.402846,24.6613,-10.0349,-17.0567,5.03449,-31.72,-566.08,-685.152,37240,46900,-5880
34.1079,62.5735,4.28893,33.1167,4.89442,15.5336,-12.4615,-0.0036623,33.8735,19.5275,14.9632,16.8862,16.631,-0.123887,-15.9479,7.31154,-19.032,-584.624,-673.44,40460,46900,2520
-7.14942,23.6466,-1.51762,15.9161,0.13987,7.30515,-11.1339,2.15312,-18.6784,-3.91233,0.158922,4.22776,2.96716,-0.0463745,-11.4709,4.75762,-6.344,-619.76,-656.848,44240,46060,9520
5.48869,13.2556,8.37991,-3.44011,-0.0723331,3.21801,-17.374,4.08846,6.26991,6.00354,10.7565,14.2048,2.97775,6.6157,-26.4518,0.315696,-5.368,-699.792,-638.792,46200,41860,15680
6.5284,-5.01099,10.775,-18.208,3.88068,3.11062,-10.6015,13.3413,18.209,3.74566,12.1218,13.4861,1.5228,13.6381,-21.1538,6.03503,-9.272,-761.768,-634.4,45220,40740,21000
12.3767,-8.6176,18.88,-17.0316,15.6863,-2.53528,6.95514,14.0074,28.5286,8.51452,14.2864,19.7081,-3.4682,15.0199,1.8963,13.1466,-16.592,-838.872,-610,41720,40460,23520
-4.02691,-25.2022,17.4957,-21.8937,15.6488,-10.4423,13.5737,9.97233,5.24071,-2.02387,9.68989,12.6486,-12.673,10.757,11.239,11.3885,-24.888,-903.288,-585.112,38220,40600,22680
-29.6676,-49.2012,9.77911,-34.1773,7.34787,-7.35424,8.04658,9.62711,-25.3689,-23.9628,-13.9373,-4.91448,-22.6126,11.7058,2.41404,6.08322,-30.744,-944.768,-559.736,34300,40460,18340
-3.63629,-39.7795,32.7286,-36.4652,11.0975,-2.81393,-0.587216,0.878932,-7.65,4.69273,-12.5175,12.4108,-13.0124,21.0306,-10.5942,-3.75185,-40.016,-985.76,-532.408,29960,37240,11900
21.5812,-22.6381,47.422,-30.0173,26.0522,4.83164,11.2862,3.44258,21.9377,23.4102,-0.273483,30.578,4.36216,37.5214,1.39232,-0.445851,-53.68,-988.2,-520.208,25060,35420,4900
11.0672,-13.1298,36.9882,-18.9096,33.9184,6.26605,27.6132,6.07337,20.4951,12.6918,-2.99168,29.3422,4.55315,44.7525,26.5603,1.72198,-71.248,-966.728,-504.592,16940,37240,-2660
-28.6503,-37.8292,17.2522,-30.4598,21.2455,7.50704,28.2774,8.5641,-29.8211,-10.2007,-11.2877,5.06077,-0.754642,35.8636,34.4994,-6.45953,-82.472,-933.544,-495.808,10640,35980,-9100
-17.6566,-46.9693,8.97914,-56.5149,-8.80742,10.5694,-2.83166,9.25674,-20.205,0.351655,6.03438,-7.15369,5.57921,12.2252,-9.19455,-25.9026,-94.184,-896.456,-505.568,-1400,38780,-14280
-15.9371,-37.8661,-5.7999,-57.1771,-22.4616,4.49525,-6.28799,7.22889,-12.6245,-0.384768,7.93625,-16.3947,1.86644,-10.8854,-3.16581,-30.0535,-92.232,-866.688,-540.704,-7980,37520,-17080
-0.8685,-14.0377,12.1255,-33.6746,6.8168,13.9013,26.0352,13.6077,2.46709,16.1337,17.1273,4.44419,15.1229,11.8921,34.2107,-2.83152,-114.192,-832.04,-559.248,-12180,37520,-18340
15.457,22.6905,27.5361,-5.06017,35.0001,19.9534,39.1614,17.4684,17.6962,24.3271,18.9457,33.4104,22.3287,26.4052,42.2741,17.6025,-123.464,-810.568,-569.984,-14980,36540,-17640
18.5358,33.7278,1.97362,-0.696701,12.0508,-2.70171,6.2622,0.264257,31.4628,5.3537,4.12212,21.4592,-0.261776,-9.81899,14.0558,-1.01049,-115.656,-798.856,-572.912,-18900,34720,-15120
-7.1007,-1.29858,-31.3215,-11.6556,-33.6715,-18.372,-25.5772,-13.6754,5.98614,-17.3428,-2.84243,-23.5798,-17.4479,-46.3897,-12.8461,-26.0869,-103.944,-804.224,-575.352,-18480,33880,-13580
-8.74233,-8.42517,-9.41904,-2.82092,-18.8526,3.64566,-9.30973,2.01521,-4.38616,-10.3995,3.43711,-17.4148,2.18347,-15.2995,-7.32621,3.76592,-110.288,-798.856,-583.16,-20160,34440,-12740
-12.2446,6.06737,-11.0768,19.8196,-7.89496,1.00241,-0.624843,-0.957513,-7.71192,-22.2436,-12.461,-10.0151,-3.41386,-13.4348,9.24046,22.1011,-91.256,-808.616,-579.256,-21280,32200,-9940
-10.048,18.2679,-7.79696,36.5657,2.78689,-8.42412,4.38863,-14.8099,-12.5959,-20.0502,-19.7879,-1.33025,-8.53765,-9.45981,13.9378,31.2952,-61.976,-818.376,-585.112,-19600,30520,-8260
-1.19684,15.1816,-0.424329,34.6014,1.60209,-9.56284,-6.02822,-21.6031,-7.61566,-8.51819,-11.3821,2.73299,-4.54176,-0.173172,-8.57744,22.3055,-47.824,-821.304,-593.896,-14980,26320,-6160
-10.297,5.28994,-22.6193,25.4558,-23.9137,-21.8717,-28.4674,-36.4626,-11.3408,-18.8204,-11.9755,-17.4569,-16.0886,-24.4445,-28.7464,-5.65622,-20.496,-819.84,-591.456,-7280,18060,-1820
1.83771,1.70915,-20.2285,19.9404,-29.5012,-24.1944,-30.1831,-41.0992,-0.0844314,-2.92265,1.01805,-19.2115,-11.1548,-25.5881,-29.5522,-13.1239,-13.664,-821.304,-588.04,-1540,13160,1540
-9.07547,-12.5339,-20.843,15.7442,-26.532,-12.9758,-14.9357,-21.1252,-11.7457,-5.95014,-5.30671,-25.6012,-9.74791,-15.803,-12.8311,-5.50495,-1.952,-826.672,-583.648,140,10780,5320
-16.5018,-15.2216,-17.9202,15.5351,-15.3649,-6.87344,-4.82024,-11.8729,-25.5714,-8.64821,-12.1013,-21.8948,-11.988,-4.55038,-7.79744,0.581879,11.224,-832.04,-581.208,-2380,11620,7280
-25.2251,-19.1301,-26.332,8.28364,-17.965,-14.4322,-12.1083,-15.9846,-35.9705,-18.547,-18.02,-27.7204,-19.7798,-15.7343,-13.7857,-10.2969,6.344,-833.992,-575.84,-6020,13860,9660
-6.31549,-7.1059,-11.9973,3.64435,-10.5304,-9.42329,-16.0482,-12.5445,-13.0367,-5.42383,-6.91834,-12.6744,-11.2814,-6.26078,-25.6825,-14.052,4.392,-835.944,-575.352,-11060,16380,10920
-5.54222,-3.90051,-2.51401,2.99909,-1.08333,1.89637,-11.5366,-2.02589,-13.1418,-1.0556,-2.37934,-4.84218,-1.71736,5.53626,-26.7183,-9.91079,-12.2,-835.456,-579.256,-14280,17500,10780
-4.39672,-4.5485,-7.01468,2.20049,-4.61749,-1.07221,-12.8019,-0.31515,-9.98378,-0.613536,1.88492,-8.55082,-2.52729,-8.0391,-14.5209,-15.2374,-20.008,-825.208,-577.792,-16940,16800,10640
16.3919,21.2521,-0.559604,14.1627,10.3558,-5.99627,-4.46899,-1.79369,22.6306,5.07695,1.50694,8.99211,-3.05133,-9.01806,6.27107,-13.5782,-33.672,-815.936,-581.696,-19320,15680,9940
22.3698,21.3819,5.48064,9.11072,19.5448,2.06518,2.56158,10.0724,30.6187,7.80525,-0.946313,14.7141,0.752708,1.2014,3.39015,1.1229,-40.504,-801.784,-580.72,-21560,13720,9380
13.3031,6.96713,0.647634,2.19236,16.4514,5.285,9.19912,17.9019,16.8113,6.24032,3.13369,3.80751,1.06821,0.323409,7.38021,7.98122,-46.36,-792.024,-588.528,-24220,11480,7840
3.4919,1.4498,2.60471,-5.04096,14.7858,9.48348,6.7747,20.6659,-0.179249,6.45381,6.45324,2.11607,7.39239,0.0430639,0.853771,7.14909,-53.68,-795.44,-597.8,-24220,8820,6440
11.4799,5.18255,6.17522,-7.55352,11.3508,9.80291,1.87797,20.1229,7.84875,12.2583,13.5536,5.33229,11.2704,-0.900005,-1.1201,3.54866,-57.096,-794.952,-602.192,-22820,6300,4900
23.8553,20.5698,10.2575,-3.50766,15.5186,8.16749,4.79691,20.0247,26.3512,16.5143,18.311,14.2546,13.2643,-0.108499,2.28095,1.8012,-59.048,-798.856,-605.608,-20860,2800,2660
12.1904,10.1043,13.3062,-9.2191,17.2056,13.554,13.2748,27.283,7.22581,13.0908,16.3527,14.8214,18.9343,8.29825,2.55751,7.53482,-59.048,-805.2,-607.072,-18900,-1120,0
7.53622,8.56987,10.5084,-1.93698,21.9098,13.1208,30.1126,29.4432,6.38027,10.5182,9.39474,11.4159,16.197,18.0343,31.0303,13.8165,-62.952,-817.888,-604.144,-16100,-6160,-1960
8.28502,12.2931,12.8342,1.58174,23.0916,14.9205,31.3309,28.617,6.68179,15.0973,8.55173,13.0602,18.4892,25.0869,32.5148,15.0643,-44.896,-823.256,-599.752,-15400,-7980,-2800
10.5324,19.4177,11.0044,3.37697,19.2014,11.2251,20.4844,20.7189,12.7098,15.3927,4.2277,15.9269,17.3347,24.2374,22.9912,7.43907,-41.48,-841.8,-591.944,-15260,-11760,-4200
11.5745,23.3382,8.80757,0.354109,11.5609,6.15425,12.373,14.1668,20.0971,14.2184,-0.707823,15.498,13.1125,22.1546,13.8214,0.536443,-34.648,-854.488,-582.672,-15820,-15540,-3500
-2.40491,9.18477,4.86997,-4.58322,2.03711,5.60319,15.1807,15.9745,0.550197,6.45244,-3.86304,3.73933,10.4063,19.1467,13.985,3.06942,-27.816,-868.64,-565.592,-18060,-18340,-1120
-3.36665,13.0644,3.8243,6.03956,2.55958,2.43667,24.8849,15.0629,0.917407,2.36743,-8.23391,3.15978,5.5346,17.6846,31.2755,7.22511,-13.664,-879.864,-557.296,-22400,-20720,1960
-2.35958,13.5309,6.70914,8.93815,0.605776,0.983861,24.3856,11.0105,3.88012,2.91029,-8.68629,6.17688,2.68706,14.4133,31.7894,5.96643,-3.416,-889.624,-547.536,-25900,-22120,6720
1.60365,8.60556,8.94985,8.06149,-6.29179,-1.03944,10.5374,2.12456,6.15839,8.51679,-4.0061,7.79513,2.14355,6.30316,14.5424,-0.829218,8.296,-894.016,-554.856,-28000,-23240,12320
3.94204,-2.02998,10.2629,-1.58153,-16.0472,0.97869,-3.42834,-5.06045,5.72118,10.9055,2.69059,5.91637,2.60646,1.05881,-4.14148,-5.87818,18.544,-889.624,-558.272,-28700,-24360,19880
5.35056,-10.0381,10.0434,-10.6435,-19.2217,3.47422,-11.1135,-10.9718,5.37733,7.37445,4.78004,4.89966,1.51881,1.11638,-15.6903,-2.84873,23.424,-878.888,-567.056,-27300,-25200,26600
0.952259,-5.39395,10.2411,0.0589655,-5.36688,1.73749,1.1557,-15.8616,1.08362,-4.44134,-7.13332,8.3519,-8.16107,4.0336,5.54509,9.32723,30.256,-865.224,-577.304,-26180,-26040,33740
-3.02408,-28.153,7.59902,-15.7213,-19.1974,0.834599,-22.3022,-27.5577,-11.8291,-7.60612,-1.38479,-1.25328,-12.4775,-6.72708,-24.5445,5.30835,34.648,-857.904,-584.624,-26460,-24500,40460
-19.7693,-51.1861,-3.77529,-19.3143,-30.207,-2.68986,-33.7868,-38.8344,-31.3371,-20.9803,-3.22272,-16.7379,-18.4613,-20.3398,-32.7087,6.54707,26.352,-834.968,-585.112,-29680,-19880,46760
-32.5626,-47.3888,-15.4107,-3.64492,-23.1251,-10.6148,-23.3415,-45.3254,-33.1108,-38.8554,-12.9691,-23.2273,-27.832,-26.8975,-4.16633,2.80956,11.224,-815.448,-594.384,-30100,-20300,55160
-38.6301,-52.2711,-20.9279,-11.1165,-29.5712,-12.8123,-33.653,-46.2629,-40.5278,-43.2766,-11.9156,-28.482,-25.6795,-32.7038,-22.4137,-10.2037,-5.856,-791.048,-622.688,-28840,-21000,60200
-30.6251,-53.9768,-19.4155,-23.3616,-36.064,-9.39209,-46.7365,-45.1097,-32.9544,-34.4343,-1.91616,-27.6176,-18.091,-33.0859,-48.6007,-22.7236,-26.352,-771.528,-648.552,-28140,-20580,62860
-23.059,-47.8377,-18.4589,-27.0795,-34.5187,-8.01681,-53.2724,-41.9416,-24.0012,-26.8849,4.02848,-23.177,-11.3374,-29.994,-62.855,-30.2926,-56.608,-753.96,-676.856,-23240,-19460,63700
-19.6024,-25.2695,-17.3482,-12.0899,-15.8023,-12.0093,-36.5554,-37.7139,-16.675,-23.3417,-0.00171153,-13.1342,-11.0222,-21.0882,-40.757,-25.9156,-86.864,-733.952,-699.304,-15680,-18620,62440
-7.13456,-8.14797,-12.1706,-5.94953,-2.26819,-12.2073,-23.5524,-28.1414,-3.71018,-14.0515,2.517,-4.25998,-6.69653,-8.71652,-28.6212,-21.1446,-108.336,-718.336,-688.08,-9800,-15680,58660
-0.250495,2.28016,-6.45629,1.66041,10.709,-11.9191,-7.02632,-16.3688,-1.15367,-7.35379,0.638207,0.352255,-1.87957,-0.219547,-6.23142,-15.8929,-143.472,-708.576,-677.832,-1400,-14420,53480
21.4714,32.0344,4.02021,17.7689,30.3164,-9.47497,14.1415,-1.12598,24.3634,8.52579,3.8837,16.3987,3.56721,11.425,24.1413,-7.32283,-179.584,-703.208,-657.824,700,-11760,46200
36.0768,46.8898,11.1716,16.9947,37.2029,-0.319945,28.1173,23.3654,42.9807,22.9415,9.46344,23.0843,9.93282,20.4492,30.2756,4.37008,-203.984,-713.944,-649.528,4340,-10360,36400
25.9926,47.3554,7.09279,17.5505,38.7456,2.48758,36.2299,38.4953,30.5051,21.8832,4.58777,17.5764,8.4345,20.1239,35.8594,11.3928,-233.752,-713.456,-640.256,5880,-5460,23240
15.5007,41.0185,1.15562,15.0886,31.7687,0.636254,36.1367,44.1054,16.6778,18.7479,-1.78919,8.98623,5.78521,15.2738,32.7698,14.7795,-255.224,-696.864,-634.4,9100,-2660,6860
14.556,34.3878,-6.24483,8.60778,17.6377,-2.68613,25.6573,43.8037,16.1221,18.4846,-1.91887,-1.44699,4.85504,5.02974,18.0483,10.2049,-262.544,-683.688,-625.128,13580,-840,-8680
11.3,32.0303,-10.4485,6.73451,9.70898,-3.90991,16.8805,40.6197,12.2908,16.2578,-2.66119,-6.14012,4.12774,-2.1524,7.19466,7.53258,-258.152,-677.344,-614.88,15540,-1680,-24080
0.348901,19.6796,-14.5986,5.30936,1.83,-0.841538,13.6598,40.049,-1.8489,11.853,-6.72301,-15.0079,1.631,-7.65469,3.81533,7.72436,-242.048,-671.488,-605.12,14700,-1680,-38220
-0.340842,13.4609,-8.42647,7.88044,-1.06862,8.04449,14.4373,45.0853,-7.83338,16.467,-0.172799,-15.3724,8.12715,-2.41779,-1.79762,11.258,-224.48,-671.488,-596.336,12040,-2100,-49840
9.29662,25.1353,4.82281,21.617,6.62474,13.6798,21.5896,43.6202,4.78275,24.5199,8.32605,0.252261,15.1077,8.03719,7.64069,17.5582,-201.056,-680.76,-595.848,7700,-1120,-59360
13.955,30.6673,11.8492,28.1284,13.2719,13.9342,24.8387,30.9963,12.6687,23.2509,8.09003,12.7544,16.2726,10.9615,18.6301,18.9872,-165.432,-696.376,-603.168,560,-280,-62860
6.20463,14.3959,13.7054,15.5938,8.55217,18.4336,17.2445,24.0585,0.397992,15.6943,7.34199,12.0864,17.3505,13.0493,8.91252,18.0082,-127.856,-719.8,-612.928,-3920,1260,-62440
4.31574,4.44571,13.9687,7.38441,3.03417,18.4801,8.74507,15.7942,-0.218648,10.6947,6.08133,11.4582,16.248,12.7088,4.19726,13.6738,-92.232,-753.472,-617.32,-4200,1680,-58380
12.2803,4.43374,16.3445,3.78027,2.18588,13.0349,3.25359,0.819096,12.3421,10.183,5.20467,15.5347,10.8363,9.84056,10.9426,6.64144,-55.632,-794.952,-622.2,-2660,-1120,-49840
14.7711,2.65914,18.1028,1.72625,4.34558,8.02529,5.21683,-12.2542,18.1346,5.89007,-0.277369,17.4927,3.03637,9.83755,22.005,6.34161,-8.296,-844.24,-614.392,140,-6440,-40040
2.63508,-21.4236,14.9946,-16.467,-8.6861,4.52172,-8.20974,-17.8156,2.43326,-2.52151,-0.969244,5.90866,0.304118,5.81369,1.51276,-0.337429,24.4,-884.744,-602.68,6440,-11900,-29400
-14.0771,-37.1139,9.40781,-24.7733,-15.1047,2.38464,-15.6122,-22.3769,-17.6542,-12.9283,-2.83133,-1.73213,-2.96829,4.14744,-6.14178,-5.79295,54.656,-917.928,-591.456,9380,-15120,-21840
-17.9741,-37.3874,6.73943,-24.9166,-13.149,-2.79825,-13.6153,-31.0215,-19.9473,-17.916,-7.20869,-0.0239818,-6.01558,1.57527,-3.45974,-9.55294,72.712,-926.712,-587.552,8260,-18340,-16100
-14.9362,-30.4729,6.67748,-21.3072,-8.19495,-7.2745,-11.3732,-33.4223,-11.3679,-18.0085,-8.22817,3.70576,-6.78713,-1.39921,-0.986878,-10.1375,74.664,-921.344,-577.792,3920,-20860,-11060
-11.7664,-24.1977,2.92383,-19.3619,-7.13193,-9.41519,-11.8343,-30.4792,-0.71697,-19.5421,-7.95415,3.83544,-10.4719,-3.57222,-1.99152,-7.9305,61,-889.624,-566.568,-560,-23800,-6160
-21.0294,-34.8956,-4.82984,-25.1161,-11.9664,-7.00222,-19.3739,-26.4654,-15.9126,-23.9722,-5.17987,-6.68894,-12.9111,-7.71508,-12.6353,-8.37427,46.36,-854.976,-564.616,-9660,-25760,-980
-12.4281,-25.0801,-5.87585,-21.7732,-10.8106,-5.50161,-24.8881,-29.0224,-6.62903,-17.4355,1.89478,-6.90519,-10.302,-8.72421,-22.0457,-14.9888,34.648,-822.28,-577.304,-18060,-25060,2520
-11.1671,-19.0883,-12.8041,-13.9884,-9.70468,-5.3032,-17.4037,-19.8511,-7.18353,-16.8692,-0.0241046,-10.8649,-11.5911,-9.78015,-13.2719,-11.8506,-2.44,-781.288,-604.632,-24640,-19040,3220
-9.06311,-7.54813,-15.4552,1.63979,-2.14089,-6.66419,-2.23757,-16.3582,-9.68196,-15.4299,-2.31184,-10.7171,-12.6664,-11.7803,6.15723,-3.96671,-38.064,-735.416,-636.84,-30660,-12180,2660
-1.01069,1.89822,-9.20952,4.42607,-1.33784,-5.68631,-9.47816,-18.5738,-7.95854,-4.85399,5.25452,-5.32118,-5.71314,-11.6876,-10.7973,-5.55872,-80.52,-714.432,-657.824,-35420,-2940,420
-1.7428,9.7608,-9.97506,10.3912,-0.952918,-5.81941,-9.58477,-16.4985,-6.68104,-4.65773,-0.0391777,-3.51083,-6.61979,-11.5351,-8.78223,-10.0359,-111.752,-728.584,-662.216,-37660,3500,-2660
-3.22243,6.12535,-16.5168,3.74824,-11.7396,-9.10268,-18.6299,-11.9886,-1.52378,-3.89209,-4.3426,-11.198,-7.70798,-17.025,-22.5263,-21.3035,-137.128,-750.544,-654.408,-37240,4340,-5040
-11.038,-9.86593,-17.1135,-1.67545,-16.5062,-4.85045,-13.268,3.89276,-15.8238,-0.187708,-0.471228,-20.8889,-3.31999,-13.7344,-22.3913,-8.83025,-142.008,-758.84,-643.672,-33320,1680,-7420
-0.518484,6.88579,-8.23046,14.7045,-0.539058,-3.44864,11.9405,12.3455,-1.42088,4.25769,-3.73649,-8.41502,-1.99856,-0.870507,5.92453,6.24412,-138.592,-753.472,-652.456,-24920,-1680,-10220
9.33127,22.1195,-2.6845,23.8732,9.96413,-6.21206,23.5673,14.7962,11.6793,7.70671,-7.24746,3.01279,-1.45777,5.07179,21.8814,9.15449,-124.928,-767.624,-655.384,-15820,-3640,-13160
8.03019,17.7196,-0.945368,17.8348,7.74683,-6.92657,17.8624,17.6089,9.80831,7.89063,-3.80601,1.54598,1.05365,3.53222,14.1924,7.34927,-108.336,-768.112,-650.016,-3500,0,-16380
11.5232,19.2785,4.46149,15.779,8.52516,-4.8408,16.5539,19.5287,14.6816,12.5571,2.20545,5.91342,5.59069,6.50074,12.8413,4.77426,-98.088,-755.912,-642.208,7700,1960,-18060
14.8112,24.0911,8.34032,14.3277,7.09735,-3.27738,7.82018,16.8208,18.022,13.5242,3.02101,11.4303,7.74983,10.8621,-0.746517,0.150728,-88.328,-746.64,-625.616,15260,1960,-18200
11.9113,11.7312,9.06741,0.852354,-2.3838,1.61242,-6.74424,16.4949,9.25741,12.8543,3.19625,6.75819,11.8055,12.3574,-23.9816,-0.652806,-75.152,-736.392,-605.608,15540,1260,-16940
3.75599,-2.53259,3.88919,-6.67233,-9.3488,3.77714,-8.04336,19.6936,-2.25276,9.61868,4.4756,-1.90059,9.70775,7.42308,-19.0114,1.46086,-57.096,-734.928,-595.36,8680,1680,-13720
-2.24575,3.84817,1.81113,-0.527701,-2.03419,3.26548,-2.92836,15.3182,-2.49804,3.65978,1.17539,-0.211925,5.62424,6.05583,-4.3636,2.4526,-49.776,-739.32,-594.872,-2380,5460,-9380
4.79774,10.886,6.79306,2.59624,5.92008,4.45854,4.52784,3.9433,8.15427,6.47401,5.13715,7.0665,6.53408,5.35818,4.68777,5.20757,-40.992,-741.76,-601.704,-9380,7980,-4760
-3.41506,-0.421755,5.8536,-1.3141,7.07279,9.804,4.60447,5.13035,-5.88935,0.432502,4.41337,2.96375,5.19872,6.72953,-1.23737,10.3561,-40.016,-749.568,-610,-15400,10920,-560
-7.59685,-5.07728,1.88313,2.20198,10.7304,11.7757,12.9521,5.48752,-11.9059,-3.05766,1.75023,-2.22459,0.0414529,5.88019,15.9594,14.2052,-40.016,-761.28,-614.88,-18620,11900,4060
7.72908,7.18912,5.50414,2.03494,10.515,11.1501,5.07623,-3.83831,10.1701,4.06524,5.11954,4.74823,0.357364,0.935195,4.46947,5.17441,-36.112,-772.504,-627.08,-20580,10640,7560
11.2524,3.39904,5.77591,-3.67335,4.49059,12.8309,1.16464,-3.18422,15.3897,6.44192,6.16598,4.89924,2.79719,-1.34147,-1.30446,5.98723,-37.576,-788.608,-631.96,-21420,7140,10500
-0.0411104,0.71234,-1.1648,3.45023,6.76911,7.34346,11.9431,-0.394942,2.23985,-3.05045,-4.34798,2.00692,-4.43464,-4.42563,21.3968,9.18806,-39.04,-795.44,-643.672,-19180,3500,11340
-5.92653,-6.3402,-2.93577,-2.21483,1.51819,4.47025,1.10738,-4.56721,-7.28617,-5.93086,-5.11911,-1.6054,-4.77652,-7.88736,6.42881,2.91437,-47.824,-806.176,-645.624,-15400,-840,10220
-1.1282,-9.77734,-2.45828,-8.1237,-3.65463,0.680955,-5.59751,-7.64541,-4.24457,-2.43434,0.618864,-1.86288,-0.704806,-6.29051,-3.07667,-1.80152,-48.8,-802.76,-652.456,-10360,-5180,7560
3.32003,-0.248595,-0.171753,-1.29313,2.52454,-2.14853,-3.01994,-8.74848,0.322311,-2.81549,-1.86653,4.50627,0.856436,1.02978,1.38389,-4.35671,-57.584,-803.248,-652.456,-4480,-8540,3500
0.451925,-7.13295,-3.22328,-5.6974,-2.80373,-0.636468,-7.61135,-3.54231,-5.29408,-4.01342,0.163843,-0.985861,0.778439,-1.19209,-1.69683,-6.65913,-61.488,-794.464,-652.944,700,-10360,-1120
-4.84597,-9.10538,-8.22586,-1.48102,-2.44846,-2.40006,2.30445,-0.137399,-9.39976,-7.73885,-0.96892,-7.58562,-2.87993,-5.01225,17.5106,-4.24955,-65.392,-790.072,-647.088,5460,-9800,-5600
-2.05838,-3.93315,-5.0801,2.51322,1.14302,-2.59291,6.60357,1.48031,-3.45415,-3.21917,2.04293,-4.52212,-0.878392,-3.85019,22.0509,1.44119,-66.856,-786.656,-643.184,9520,-8680,-9380
8.79272,8.56726,2.88383,2.94195,4.01526,-1.31482,1.75459,1.74333,10.3258,5.59401,6.05229,6.42419,2.87431,-1.87875,7.98472,3.11821,-71.736,-777.384,-643.672,12740,-7280,-11900
13.3959,13.4247,4.77566,0.202547,1.56657,-2.49559,-2.87452,-1.31029,18.4571,9.32346,7.12993,9.71736,3.98,-2.69728,-2.45131,1.08666,-69.784,-773.48,-637.328,14700,-4620,-13440
1.75979,11.3002,-0.0222738,4.97218,2.9792,-3.56944,4.97399,-0.850502,3.58613,2.22874,-0.347345,5.25096,0.486446,-2.00436,10.6746,3.62984,-66.368,-772.016,-631.96,16100,-3360,-13160
-4.33398,0.238165,-2.29484,0.411601,-1.91025,-2.6348,4.05726,0.147006,-8.64334,-2.04989,-2.29047,-2.20809,-1.1645,-4.49874,4.96975,2.18633,-61.488,-771.04,-630.496,17360,-2660,-11340
-5.14094,-5.80508,-0.578198,-6.36103,-4.58834,0.561723,-3.44652,4.01547,-8.60726,-0.305519,1.01361,-3.41874,2.18688,-5.73175,-9.76944,-1.6076,-61.488,-773.968,-624.152,16940,-2660,-8540
-2.76103,-8.87764,2.81307,-9.62047,-4.49718,1.84138,-6.72914,4.48067,-5.1208,3.64364,4.71289,-2.65988,5.68736,-2.99834,-15.6328,-4.5169,-60.512,-772.016,-616.832,14980,-1960,-5040
8.21172,-0.752383,6.50838,-10.2364,-4.84841,1.29756,-9.08013,5.13426,10.0787,7.7774,5.1397,2.2881,6.07263,0.858527,-22.4828,-7.9257,-60.024,-778.848,-614.392,12180,-840,-2100
-3.60496,-0.759748,3.04389,-5.29379,-1.15216,1.55297,-1.8541,9.36569,-5.93412,-3.39253,-3.20261,-0.361692,1.23092,7.10959,-14.151,-2.29718,-56.12,-785.68,-610.488,8400,420,0
-4.58043,-9.08836,2.90453,-10.7113,-4.17398,2.96016,-7.42947,8.30791,-6.10394,-4.12544,-0.303416,-3.61541,1.73393,11.5637,-19.4312,-2.87828,-61.976,-786.656,-608.048,5040,1820,1680
-0.414388,-3.79271,3.51987,-7.67574,-2.09251,-0.548874,-6.33515,-2.44462,4.17504,-5.07294,-3.01266,-0.3202,-0.8099,10.8995,-10.0031,-7.19048,-69.296,-793,-615.856,3080,1820,2800
-8.76251,-5.44328,2.62742,-5.60138,-0.596644,-2.17205,3.08993,-5.8471,-2.8022,-11.8498,-9.07167,-0.686065,-3.98367,12.8379,0.0313944,-1.59708,-71.248,-794.952,-617.808,2240,1260,3080
-2.79302,2.10959,5.80554,-2.49417,0.287142,-3.92989,3.38773,-7.4646,9.21903,-6.62791,-7.84319,6.38242,-4.17336,15.6699,-0.120421,-0.00621648,-74.664,-793.488,-615.368,2100,140,2800
-12.5032,-10.4348,3.87981,-5.93622,-5.1392,-6.34828,-2.51447,-10.2102,-7.52123,-7.44999,-6.00859,1.36631,-5.97595,10.8602,-3.29023,-4.41582,-74.664,-791.536,-616.832,2240,-980,2380
-16.7339,-17.3296,4.27929,-7.17315,-4.03129,-4.91605,-0.724593,-8.304,-12.7059,-6.92339,-6.20406,-0.252201,-5.77448,8.25456,-1.09527,-4.47288,-78.08,-791.048,-615.368,2520,-1680,1400
-11.2381,-12.656,2.47591,-5.05569,-3.39421,-8.67336,-6.3719,-16.067,-1.37754,-5.72711,-7.92952,2.10048,-8.99769,0.711414,-1.44614,-12.9023,-79.544,-790.56,-617.808,2100,-1820,700
-0.40766,-11.4582,0.464596,-9.70546,-10.4876,-12.0195,-16.1195,-24.507,14.3825,-0.772512,-4.40069,1.16467,-10.1641,-8.5464,-13.7187,-21.9293,-81.008,-795.44,-624.64,2380,-1820,-420
-6.33274,-7.1789,-1.36337,3.30325,-0.540346,-13.3935,-1.09511,-18.7535,2.48792,-2.80434,-10.6726,0.413597,-11.9205,-6.75772,6.15261,-12.2725,-88.816,-795.44,-623.176,2100,-1260,-1820
-7.44415,-9.00208,-0.655381,8.92091,6.53243,-11.1292,9.0644,-8.60434,-5.46534,2.38679,-8.88685,-0.669351,-10.1379,-5.75796,18.8931,-1.29211,-99.064,-802.272,-625.128,2100,-700,-4060
-8.18611,-7.23309,-1.37905,11.8083,8.70914,-7.98182,11.8898,-1.77477,-9.41141,1.40503,-7.37567,-1.85256,-7.27277,-5.8137,17.3112,4.92509,-105.408,-798.856,-621.224,1680,280,-7840
-12.8141,-4.38135,-8.58739,21.64,7.12696,-11.0988,15.3691,-3.98812,-17.2391,-5.26722,-9.38335,-6.98289,-10.0134,-12.2535,26.9914,5.33411,-107.36,-792.024,-611.464,1960,980,-12320
4.06373,1.71846,-12.181,19.318,-4.58053,-12.4332,0.447198,-8.04886,0.31946,1.90906,-1.69881,-9.49358,-8.93745,-19.04,9.93204,-3.81204,-104.92,-770.552,-602.192,1260,2240,-17920
12.6054,7.9517,-11.9613,16.9191,-7.31609,-3.96913,-8.92249,-1.92721,3.88252,5.03681,4.90795,-11.057,-1.1197,-15.3272,-5.62458,-3.04584,-96.624,-734.928,-605.12,420,5040,-23940
7.8201,12.3349,-13.6611,22.8501,-1.46421,7.10866,-0.925692,7.31282,-8.53544,2.29706,7.42279,-13.1408,4.98836,-8.17595,5.39839,10.0302,-86.376,-679.296,-627.08,1260,9380,-30240
-4.19742,11.4652,-19.3268,22.1525,-5.33249,13.5079,-1.4142,12.1576,-29.5268,-3.88879,5.36724,-18.4009,8.33744,-10.6315,3.05287,14.1516,-82.96,-630.984,-646.112,3780,15820,-35000
22.0964,26.8541,-12.2181,17.4973,-10.4876,19.315,-13.9224,10.3232,7.21072,12.5508,18.1924,-7.78145,19.0604,-13.1011,-21.1422,8.12012,-82.472,-587.552,-669.048,8260,21840,-36260
17.7077,34.097,-8.63667,23.2183,2.81808,24.4556,3.64371,16.7928,2.39589,11.4982,16.0943,-1.06133,20.2247,-4.16181,-4.92963,20.5811,-83.936,-555.344,-684.176,10640,27300,-34580
14.766,32.9574,-6.93415,15.8423,7.62354,23.1254,8.9953,18.3754,3.69164,11.312,17.7308,1.65167,17.216,-1.21282,1.35724,27.5874,-84.424,-551.928,-692.96,13300,30240,-29680
44.6813,42.9803,1.60139,4.7037,3.27773,17.3178,-5.73302,11.0649,54.4324,26.9626,29.5644,11.6128,15.4555,-2.78322,-8.27855,13.0083,-71.736,-557.296,-681.736,16940,31780,-23660
18.8722,14.7688,0.39207,-14.1321,1.22036,13.1193,-5.23667,11.3471,17.1217,12.8182,24.3595,2.07385,9.18936,-1.1764,-13.6819,12.0088,-40.992,-591.944,-676.856,22540,31640,-14980
-2.48848,-4.82262,4.43443,-25.752,9.09184,14.363,2.07328,13.4535,-9.42848,0.0271592,13.6731,3.3739,4.36376,8.17084,-8.98399,16.8972,-16.592,-645.624,-671.976,26040,39200,-9800
-9.4463,-7.64194,8.75359,-28.8162,14.0176,10.9734,6.34452,10.8454,-8.08618,-8.51918,-2.93534,10.1533,-3.57452,11.7685,0.745997,16.1103,-1.952,-702.232,-669.048,33880,44940,-3920
-8.39283,-15.6754,9.95252,-36.6361,6.57982,3.89141,1.17922,8.7676,-0.351477,-9.26766,-8.34385,11.2723,-7.76227,7.61653,-6.00835,12.8774,7.808,-773.48,-656.36,41860,46340,2240
-0.583388,-13.2202,16.7669,-28.7201,13.7625,0.0728227,16.1436,12.8134,15.4827,-4.98604,-9.15356,14.8468,-5.77266,17.985,11.7151,19.2429,17.568,-851.072,-647.088,54740,38080,10780
