TimeFormat=,StartOfBlock
DateFormat=
ChannelTitle=,Channel 2,Channel 3,Channel 4,Channel 5,Channel 6,Channel 7,Channel 8,Channel 9
Range=,112.50 mV,112.50 mV,112.50 mV,112.50 mV,112.50 mV,112.50 mV,112.50 mV,112.50 mV
0,0.4851563,0.4570313,0.478125,0.28125,0.3621094,0.2847656,0.3023438,0.2988281
0.001,0.4886719,0.4570313,0.478125,0.28125,0.3621094,0.2847656,0.3023438,0.2988281
0.002,0.3128906,0.2496094,0.3199219,0.04570313,0.1617188,0.140625,0.1828125,0.140625
0.003,0.0703125,-0.0140625,0.09492188,-0.2355469,-0.07734375,-0.06679688,0.0140625,-0.0703125
0.004,-0.09140625,-0.1757813,-0.04921875,-0.4042969,-0.2074219,-0.2144531,-0.084375,-0.2003906
0.005,-0.1617188,-0.2179688,-0.1019531,-0.4464844,-0.225,-0.2636719,-0.1054688,-0.225
0.006,-0.1582031,-0.1722656,-0.08789063,-0.3796875,-0.1617188,-0.2355469,-0.08085938,-0.1757813
0.007,-0.0140625,0.01757813,0.04570313,-0.1511719,0.05273438,-0.09140625,0.05273438,0
0.008,0.1933594,0.2847656,0.253125,0.1582031,0.3375,0.1125,0.253125,0.2355469
0.009,0.3832031,0.5273438,0.4359375,0.4359375,0.5765625,0.2917969,0.4113281,0.4289063
0.01,0.5800781,0.7734375,0.61875,0.7136719,0.8121094,0.4675781,0.5554688,0.6152344
0.011,0.7664063,0.984375,0.7839844,0.9457031,1.008984,0.6257813,0.6925781,0.7769531
0.012,0.8367188,1.051172,0.8367188,1.023047,1.058203,0.675,0.73125,0.8191406
0.013,0.7910156,0.9949219,0.7875,0.9703125,0.9773438,0.6292969,0.6539063,0.7488281
0.014,0.7347656,0.9140625,0.7277344,0.8824219,0.8789063,0.5730469,0.5660156,0.6644531
0.015,0.6574219,0.8015625,0.6503906,0.7347656,0.7347656,0.4957031,0.4746094,0.5625
0.016,0.5625,0.646875,0.5519531,0.534375,0.5519531,0.4042969,0.3726563,0.4324219
0.017,0.4746094,0.4992188,0.4640625,0.3550781,0.3972656,0.3199219,0.2917969,0.3234375
0.018,0.3726563,0.3410156,0.365625,0.1652344,0.2460938,0.2179688,0.2214844,0.2144531
0.019,0.196875,0.1230469,0.2074219,-0.084375,0.0421875,0.05976563,0.0984375,0.04921875
0.02,-0.05625,-0.1371094,-0.02109375,-0.3585938,-0.1933594,-0.1546875,-0.08085938,-0.1617188
0.021,-0.2425781,-0.3058594,-0.1828125,-0.5203125,-0.3234375,-0.3058594,-0.196875,-0.2917969
0.022,-0.2953125,-0.3269531,-0.225,-0.5238281,-0.3128906,-0.3339844,-0.196875,-0.2917969
0.023,-0.2320313,-0.2214844,-0.1617188,-0.39375,-0.1898438,-0.2601563,-0.1160156,-0.1933594
0.024,-0.05625,0.00703125,0.00703125,-0.1230469,0.05625,-0.084375,0.04921875,0.00703125
0.025,0.1511719,0.2777344,0.2144531,0.1757813,0.3304688,0.1125,0.2425781,0.2320313
0.026,0.3691406,0.5449219,0.4183594,0.4675781,0.590625,0.3023438,0.4113281,0.4394531
0.027,0.5414063,0.7664063,0.5800781,0.7277344,0.8015625,0.4605469,0.5378906,0.6082031
0.028,0.6222656,0.8753906,0.6609375,0.8648438,0.8964844,0.5414063,0.5871094,0.6855469
0.029,0.6328125,0.8824219,0.6574219,0.8789063,0.8859375,0.5378906,0.5660156,0.675
0.03,0.6292969,0.8542969,0.6398438,0.8472656,0.8367188,0.5097656,0.5167969,0.6328125
0.031,0.6082031,0.8015625,0.6046875,0.7699219,0.759375,0.4746094,0.4640625,0.5730469
0.032,0.5589844,0.6996094,0.5484375,0.6257813,0.6222656,0.4148438,0.39375,0.4851563
0.033,0.5097656,0.5871094,0.4992188,0.4640625,0.4886719,0.3550781,0.3304688,0.3972656
0.034,0.4078125,0.4359375,0.4042969,0.2707031,0.3304688,0.2636719,0.2425781,0.28125
0.035,0.2214844,0.196875,0.2355469,0.00703125,0.1089844,0.1054688,0.1054688,0.1019531
0.036,-0.01757813,-0.07382813,0.0140625,-0.2847656,-0.140625,-0.1019531,-0.05976563,-0.1125
0.037,-0.253125,-0.3023438,-0.1898438,-0.5203125,-0.3445313,-0.2953125,-0.2179688,-0.2917969
0.038,-0.3796875,-0.4078125,-0.2988281,-0.61875,-0.421875,-0.3867188,-0.28125,-0.365625
0.039,-0.3726563,-0.3761719,-0.2882813,-0.5660156,-0.3621094,-0.3726563,-0.2496094,-0.3234375
0.04,-0.2179688,-0.1757813,-0.1371094,-0.3445313,-0.1476563,-0.2285156,-0.1054688,-0.1511719
0.041,-0.003515625,0.09140625,0.06328125,-0.03867188,0.1335938,-0.028125,0.08085938,0.07382813
0.042,0.1617188,0.309375,0.2285156,0.2144531,0.3621094,0.1335938,0.2285156,0.253125
0.043,0.3480469,0.5484375,0.4042969,0.4851563,0.5976563,0.2988281,0.3691406,0.4359375
0.044,0.5308594,0.7664063,0.5695313,0.7382813,0.8050781,0.4570313,0.5027344,0.6011719
0.045,0.6046875,0.8507813,0.6363281,0.8472656,0.871875,0.5203125,0.5519531,0.6609375
0.046,0.6152344,0.8542969,0.6328125,0.8507813,0.8542969,0.5167969,0.5238281,0.6539063
0.047,0.6503906,0.8648438,0.6503906,0.8402344,0.8332031,0.5203125,0.50625,0.6398438
0.048,0.6328125,0.8050781,0.6257813,0.7453125,0.7417969,0.4851563,0.4535156,0.5765625
0.049,0.5308594,0.6433594,0.5203125,0.5449219,0.5554688,0.3832031,0.3410156,0.4429688
0.05,0.4324219,0.4816406,0.421875,0.3445313,0.3832031,0.2882813,0.2425781,0.3164063
0.051,0.3164063,0.3128906,0.3164063,0.1441406,0.2144531,0.1863281,0.1546875,0.1933594
0.052,0.1300781,0.07734375,0.1476563,-0.1160156,0,0.02460938,0.02460938,0.02109375
0.053,-0.1019531,-0.1722656,-0.05976563,-0.3867188,-0.2320313,-0.1792969,-0.1371094,-0.1792969
0.054,-0.2742188,-0.3269531,-0.2074219,-0.5554688,-0.365625,-0.3234375,-0.2390625,-0.3058594
0.055,-0.3410156,-0.3691406,-0.2601563,-0.5871094,-0.3796875,-0.3691406,-0.2566406,-0.3234375
0.056,-0.3339844,-0.3234375,-0.2496094,-0.5167969,-0.309375,-0.3375,-0.2214844,-0.2671875
0.057,-0.1933594,-0.1265625,-0.1125,-0.28125,-0.09140625,-0.1898438,-0.08789063,-0.09140625
0.058,0.00703125,0.1300781,0.084375,0.0140625,0.1828125,0.003515625,0.09492188,0.1265625
0.059,0.1933594,0.3621094,0.2566406,0.28125,0.4183594,0.1722656,0.253125,0.3164063
0.06,0.39375,0.6152344,0.4464844,0.5625,0.6609375,0.3515625,0.4042969,0.5097656
0.061,0.5765625,0.8296875,0.61875,0.7945313,0.8578125,0.5027344,0.534375,0.675
0.062,0.6398438,0.9,0.675,0.8753906,0.9070313,0.5519531,0.5625,0.7207031
0.063,0.61875,0.8683594,0.6398438,0.8402344,0.8472656,0.5203125,0.50625,0.6679688
0.064,0.5871094,0.8121094,0.6011719,0.7699219,0.7664063,0.478125,0.4429688,0.6011719
0.065,0.5308594,0.703125,0.5378906,0.6363281,0.6292969,0.4148438,0.365625,0.5027344
0.066,0.4464844,0.5449219,0.4464844,0.4429688,0.4570313,0.3269531,0.2707031,0.3796875
0.067,0.3585938,0.3972656,0.3585938,0.2636719,0.309375,0.2390625,0.1933594,0.2671875
0.068,0.253125,0.2390625,0.2601563,0.0703125,0.1511719,0.140625,0.1195313,0.1511719
0.069,0.07382813,0.028125,0.1019531,-0.1792969,-0.04921875,-0.01757813,-0.003515625,-0.01054688
0.07,-0.1792969,-0.2320313,-0.1265625,-0.4535156,-0.2847656,-0.2355469,-0.1828125,-0.225
0.071,-0.3585938,-0.4007813,-0.2882813,-0.6117188,-0.4148438,-0.3796875,-0.2917969,-0.3480469
0.072,-0.4078125,-0.4183594,-0.3269531,-0.6152344,-0.4042969,-0.4042969,-0.2988281,-0.3515625
0.073,-0.3410156,-0.309375,-0.253125,-0.4851563,-0.2777344,-0.3269531,-0.2214844,-0.253125
0.074,-0.1582031,-0.0703125,-0.07734375,-0.2109375,-0.02109375,-0.1476563,-0.05273438,-0.04570313
0.075,0.05976563,0.2039063,0.1300781,0.1019531,0.2601563,0.05625,0.1476563,0.1898438
0.076,0.2847656,0.478125,0.3445313,0.4078125,0.534375,0.2566406,0.3304688,0.4078125
0.077,0.4746094,0.7136719,0.5238281,0.6714844,0.7558594,0.421875,0.4675781,0.5800781
0.078,0.5695313,0.8296875,0.6117188,0.8085938,0.8578125,0.50625,0.5273438,0.6574219
0.079,0.5871094,0.8402344,0.6152344,0.8296875,0.8542969,0.5027344,0.5132813,0.646875
0.08,0.5800781,0.815625,0.5941406,0.7945313,0.8015625,0.4746094,0.4640625,0.5976563
0.081,0.5554688,0.7558594,0.5554688,0.7101563,0.7101563,0.4394531,0.4042969,0.5378906
0.082,0.5027344,0.646875,0.4992188,0.5589844,0.5695313,0.3761719,0.3304688,0.45
0.083,0.4605469,0.5308594,0.4535156,0.4007813,0.4324219,0.3164063,0.2707031,0.365625
0.084,0.3585938,0.3761719,0.3585938,0.2109375,0.2742188,0.225,0.1898438,0.2496094
0.085,0.16875,0.1371094,0.1828125,-0.05273438,0.04570313,0.0703125,0.05273438,0.0703125
0.086,-0.06679688,-0.1230469,-0.028125,-0.3410156,-0.2003906,-0.1300781,-0.1125,-0.1371094
0.087,-0.2917969,-0.3445313,-0.2285156,-0.5765625,-0.3972656,-0.3269531,-0.2601563,-0.3199219
0.088,-0.4183594,-0.4464844,-0.3375,-0.6714844,-0.4640625,-0.421875,-0.3269531,-0.39375
0.089,-0.4113281,-0.4042969,-0.3199219,-0.61875,-0.4007813,-0.3972656,-0.2917969,-0.3445313
0.09,-0.253125,-0.1933594,-0.1652344,-0.3902344,-0.1828125,-0.2425781,-0.1476563,-0.1546875
0.091,-0.0421875,0.0703125,0.03515625,-0.08085938,0.1019531,-0.03867188,0.03867188,0.07734375
0.092,0.1230469,0.2882813,0.196875,0.1757813,0.3304688,0.1230469,0.1898438,0.2671875
0.093,0.3164063,0.5273438,0.3761719,0.4535156,0.5660156,0.2953125,0.3410156,0.4570313
0.094,0.4851563,0.7382813,0.5378906,0.6960938,0.7699219,0.4464844,0.4605469,0.6082031
0.095,0.5449219,0.8085938,0.5871094,0.7875,0.8296875,0.4886719,0.4886719,0.6433594
0.096,0.5554688,0.8050781,0.5835938,0.7875,0.8050781,0.478125,0.4570313,0.6222656
0.097,0.5871094,0.8121094,0.6011719,0.7769531,0.7804688,0.4746094,0.4429688,0.6046875
0.098,0.5660156,0.7453125,0.5695313,0.6855469,0.6855469,0.4359375,0.39375,0.5414063
0.099,0.4640625,0.5871094,0.4675781,0.4851563,0.5027344,0.3410156,0.2847656,0.4113281
0.1,0.3726563,0.4324219,0.3761719,0.2917969,0.3375,0.2496094,0.196875,0.2917969
0.101,0.2636719,0.2671875,0.2707031,0.09140625,0.1722656,0.1476563,0.1089844,0.16875
0.102,0.07382813,0.03515625,0.1019531,-0.16875,-0.03867188,-0.0140625,-0.01757813,-0.00703125
0.103,-0.1617188,-0.2144531,-0.1089844,-0.4429688,-0.2707031,-0.2214844,-0.1792969,-0.2144531
0.104,-0.3269531,-0.3726563,-0.2566406,-0.6082031,-0.4042969,-0.365625,-0.28125,-0.3410156
0.105,-0.3972656,-0.4078125,-0.3058594,-0.6363281,-0.421875,-0.4042969,-0.2953125,-0.3550781
0.106,-0.3867188,-0.3585938,-0.2847656,-0.5625,-0.3445313,-0.3691406,-0.2566406,-0.2917969
0.107,-0.2320313,-0.1652344,-0.1441406,-0.3269531,-0.1195313,-0.2214844,-0.1160156,-0.1125
0.108,-0.028125,0.09140625,0.04921875,-0.02460938,0.1511719,-0.02460938,0.06679688,0.1054688
0.109,0.1617188,0.3339844,0.2355469,0.2460938,0.39375,0.1511719,0.2285156,0.3023438
0.11,0.3761719,0.5976563,0.4394531,0.5414063,0.6433594,0.3410156,0.3867188,0.5027344
0.111,0.5378906,0.7945313,0.590625,0.759375,0.8261719,0.478125,0.5027344,0.646875
0.112,0.5835938,0.8402344,0.6222656,0.8191406,0.8542969,0.5027344,0.5167969,0.6714844
0.113,0.5625,0.8050781,0.5871094,0.7769531,0.7945313,0.4640625,0.4605469,0.61875
0.114,0.534375,0.7488281,0.5554688,0.703125,0.7101563,0.4253906,0.3972656,0.5589844
0.115,0.478125,0.6398438,0.4921875,0.5589844,0.5765625,0.3621094,0.3199219,0.4675781
0.116,0.39375,0.4886719,0.4007813,0.3691406,0.4042969,0.2742188,0.2285156,0.3515625
0.117,0.309375,0.3410156,0.3128906,0.1898438,0.253125,0.1898438,0.1441406,0.2460938
0.118,0.196875,0.1828125,0.2109375,-0.003515625,0.09492188,0.09492188,0.06679688,0.1300781
0.119,0.01757813,-0.028125,0.05273438,-0.2566406,-0.1054688,-0.06328125,-0.04921875,-0.03515625
0.12,-0.2320313,-0.2917969,-0.1757813,-0.5308594,-0.3410156,-0.2882813,-0.225,-0.2566406
0.121,-0.4253906,-0.4640625,-0.3410156,-0.6890625,-0.4816406,-0.4359375,-0.3410156,-0.3867188
0.122,-0.478125,-0.4851563,-0.3796875,-0.6925781,-0.4746094,-0.4605469,-0.3515625,-0.3832031
0.123,-0.4042969,-0.3691406,-0.309375,-0.5554688,-0.3375,-0.3796875,-0.2636719,-0.2742188
0.124,-0.2109375,-0.1195313,-0.1230469,-0.2671875,-0.0703125,-0.1933594,-0.084375,-0.06328125
0.125,0.0140625,0.1546875,0.09140625,0.03867188,0.2109375,0.00703125,0.1089844,0.1652344
0.126,0.2496094,0.4359375,0.309375,0.3410156,0.4851563,0.2074219,0.2953125,0.3832031
0.127,0.4359375,0.6714844,0.4851563,0.6117188,0.7066406,0.3726563,0.4289063,0.5589844
0.128,0.5132813,0.7769531,0.5589844,0.7417969,0.7910156,0.4464844,0.4746094,0.6292969
0.129,0.5167969,0.7804688,0.5554688,0.7523438,0.7664063,0.4359375,0.45,0.6117188
0.13,0.50625,0.7523438,0.5273438,0.7207031,0.7066406,0.4078125,0.4007813,0.5730469
0.131,0.478125,0.6855469,0.4921875,0.6363281,0.6222656,0.3691406,0.3445313,0.5132813
0.132,0.4289063,0.5765625,0.4359375,0.4886719,0.4851563,0.3128906,0.2742188,0.421875
0.133,0.3867188,0.4605469,0.3867188,0.3339844,0.3550781,0.253125,0.2214844,0.3339844
0.134,0.28125,0.2988281,0.2882813,0.1511719,0.2003906,0.1617188,0.1335938,0.2179688
0.135,0.09140625,0.06679688,0.1160156,-0.1089844,-0.01757813,0.01054688,0.003515625,0.04570313
0.136,-0.140625,-0.1898438,-0.09492188,-0.3902344,-0.2601563,-0.1933594,-0.1546875,-0.1582031
0.137,-0.3691406,-0.4148438,-0.3023438,-0.61875,-0.4605469,-0.3902344,-0.309375,-0.3480469
0.138,-0.4957031,-0.5167969,-0.4078125,-0.7136719,-0.5308594,-0.4851563,-0.3726563,-0.421875
0.139,-0.4851563,-0.4746094,-0.3902344,-0.6574219,-0.4640625,-0.4605469,-0.3339844,-0.3761719
0.14,-0.3234375,-0.2707031,-0.2320313,-0.4289063,-0.2425781,-0.3128906,-0.1792969,-0.2003906
0.141,-0.1054688,0,-0.02460938,-0.1195313,0.03867188,-0.1089844,0.01054688,0.028125
0.142,0.05976563,0.2144531,0.1335938,0.1335938,0.2636719,0.04921875,0.1511719,0.2074219
0.143,0.2390625,0.45,0.3058594,0.4042969,0.4921875,0.2214844,0.2917969,0.3867188
0.144,0.4078125,0.6679688,0.4675781,0.646875,0.6890625,0.3796875,0.4113281,0.5449219
0.145,0.4710938,0.7488281,0.5238281,0.7417969,0.7523438,0.4289063,0.4429688,0.590625
0.146,0.4851563,0.7523438,0.5238281,0.7382813,0.7277344,0.4183594,0.4148438,0.5695313
0.147,0.5203125,0.7558594,0.5449219,0.7207031,0.703125,0.4183594,0.4007813,0.5554688
0.148,0.4992188,0.6960938,0.5167969,0.6222656,0.6152344,0.3796875,0.3550781,0.4921875
0.149,0.4007813,0.5273438,0.4148438,0.4183594,0.4324219,0.2847656,0.2496094,0.3621094
0.15,0.3058594,0.365625,0.3164063,0.2285156,0.2671875,0.1933594,0.1582031,0.2425781
0.151,0.1828125,0.196875,0.2039063,0.028125,0.0984375,0.09140625,0.06679688,0.1230469
0.152,-0.00703125,-0.03515625,0.028125,-0.2355469,-0.1195313,-0.0703125,-0.06679688,-0.05273438
0.153,-0.2460938,-0.2953125,-0.1863281,-0.5097656,-0.3550781,-0.28125,-0.2320313,-0.2601563
0.154,-0.4113281,-0.45,-0.3339844,-0.6714844,-0.4851563,-0.4324219,-0.3269531,-0.3832031
0.155,-0.4746094,-0.4851563,-0.3796875,-0.6960938,-0.4921875,-0.4746094,-0.3339844,-0.3972656
0.156,-0.4570313,-0.4324219,-0.3585938,-0.6152344,-0.4148438,-0.4324219,-0.2953125,-0.3339844
0.157,-0.3023438,-0.2214844,-0.2074219,-0.3726563,-0.1863281,-0.2742188,-0.1476563,-0.1476563
0.158,-0.09492188,0.0421875,-0.00703125,-0.0703125,0.08789063,-0.07382813,0.03515625,0.0703125
0.159,0.09492188,0.28125,0.1722656,0.2003906,0.3269531,0.0984375,0.1898438,0.2636719
0.16,0.2988281,0.5378906,0.365625,0.4886719,0.5765625,0.28125,0.3445313,0.4605469
0.161,0.4675781,0.7417969,0.5238281,0.7101563,0.7558594,0.4253906,0.4640625,0.6082031
0.162,0.5238281,0.8015625,0.5695313,0.7804688,0.7945313,0.4535156,0.4816406,0.6363281
0.163,0.50625,0.7664063,0.5378906,0.7488281,0.7347656,0.4183594,0.4253906,0.5835938
0.164,0.478125,0.703125,0.4992188,0.675,0.646875,0.3796875,0.3691406,0.5167969
0.165,0.421875,0.590625,0.4324219,0.534375,0.5132813,0.3164063,0.2917969,0.4253906
0.166,0.3375,0.4394531,0.3445313,0.3410156,0.3410156,0.2355469,0.196875,0.309375
0.167,0.253125,0.2988281,0.2636719,0.1582031,0.1933594,0.1511719,0.1160156,0.2003906
0.168,0.1441406,0.1441406,0.1652344,-0.0421875,0.03515625,0.04921875,0.0421875,0.08085938
0.169,-0.028125,-0.0703125,0.00703125,-0.2953125,-0.1652344,-0.1089844,-0.07382813,-0.08085938
0.17,-0.28125,-0.3339844,-0.2179688,-0.5625,-0.4007813,-0.3234375,-0.2496094,-0.2917969
0.171,-0.4675781,-0.4957031,-0.3796875,-0.7171875,-0.5308594,-0.4640625,-0.3585938,-0.4183594
0.172,-0.50625,-0.50625,-0.4113281,-0.7171875,-0.5132813,-0.4851563,-0.3585938,-0.4148438
0.173,-0.421875,-0.3796875,-0.3269531,-0.5660156,-0.365625,-0.3972656,-0.2707031,-0.2988281
0.174,-0.225,-0.1265625,-0.1371094,-0.2777344,-0.09492188,-0.2074219,-0.09140625,-0.08085938
0.175,-0.003515625,0.1476563,0.07382813,0.03164063,0.1828125,0,0.1019531,0.1511719
0.176,0.2355469,0.4359375,0.3023438,0.3480469,0.4640625,0.2109375,0.2953125,0.3761719
0.177,0.421875,0.6679688,0.4746094,0.6152344,0.6890625,0.3761719,0.4394531,0.5484375
0.178,0.478125,0.7558594,0.5308594,0.7277344,0.759375,0.4289063,0.478125,0.6011719
0.179,0.478125,0.7523438,0.5238281,0.7382813,0.73125,0.4183594,0.4429688,0.5835938
0.18,0.478125,0.7347656,0.5132813,0.703125,0.6785156,0.3972656,0.4007813,0.5414063
0.181,0.4570313,0.6714844,0.478125,0.61875,0.590625,0.3621094,0.3445313,0.478125
0.182,0.4042969,0.5554688,0.421875,0.4675781,0.4570313,0.3023438,0.2707031,0.3902344
0.183,0.3621094,0.4359375,0.3691406,0.3058594,0.3269531,0.2355469,0.2074219,0.2988281
0.184,0.2671875,0.2847656,0.2847656,0.1195313,0.1757813,0.1476563,0.1300781,0.1863281
0.185,0.084375,0.05273438,0.1195313,-0.1335938,-0.03867188,0,0.003515625,0.01757813
0.186,-0.1546875,-0.2144531,-0.1019531,-0.4289063,-0.2847656,-0.2144531,-0.1652344,-0.196875
0.187,-0.3867188,-0.4394531,-0.3058594,-0.6644531,-0.4851563,-0.4148438,-0.3199219,-0.3832031
0.188,-0.5097656,-0.5378906,-0.4078125,-0.7558594,-0.5519531,-0.50625,-0.3796875,-0.4535156
0.189,-0.4992188,-0.4921875,-0.3902344,-0.6925781,-0.4816406,-0.4746094,-0.3375,-0.4007813
0.19,-0.3339844,-0.28125,-0.2355469,-0.4570313,-0.253125,-0.3199219,-0.1792969,-0.2144531
0.191,-0.1160156,-0.01054688,-0.028125,-0.1511719,0.028125,-0.1125,0.0140625,0.0140625
0.192,0.04921875,0.2109375,0.1335938,0.1054688,0.2566406,0.05273438,0.1617188,0.196875
0.193,0.2390625,0.45,0.309375,0.3867188,0.4921875,0.2285156,0.309375,0.3867188
0.194,0.4007813,0.6609375,0.4640625,0.61875,0.6855469,0.3726563,0.4253906,0.5414063
0.195,0.45,0.7277344,0.5097656,0.703125,0.7347656,0.4078125,0.4464844,0.5765625
0.196,0.4605469,0.7242188,0.5027344,0.6996094,0.6996094,0.3972656,0.4113281,0.5554688
0.197,0.4921875,0.73125,0.5167969,0.6855469,0.6679688,0.4007813,0.39375,0.5414063
0.198,0.4640625,0.6574219,0.4816406,0.5871094,0.5695313,0.3585938,0.3410156,0.4710938
0.199,0.365625,0.4851563,0.3761719,0.3832031,0.3832031,0.2601563,0.2355469,0.3375
0.2,0.2707031,0.3234375,0.2847656,0.1863281,0.2214844,0.16875,0.1476563,0.2144531
0.201,0.1546875,0.1582031,0.1757813,-0.01054688,0.05976563,0.06328125,0.05976563,0.09140625
0.202,-0.03164063,-0.0703125,0.003515625,-0.2742188,-0.1582031,-0.09492188,-0.06679688,-0.08085938
0.203,-0.2707031,-0.3199219,-0.2074219,-0.5449219,-0.3902344,-0.3023438,-0.2320313,-0.2847656
0.204,-0.4359375,-0.4710938,-0.3480469,-0.6996094,-0.5167969,-0.4394531,-0.3304688,-0.4042969
0.205,-0.4992188,-0.4992188,-0.39375,-0.7242188,-0.5238281,-0.4746094,-0.3480469,-0.4113281
0.206,-0.4816406,-0.4464844,-0.3691406,-0.6433594,-0.4464844,-0.4394531,-0.3128906,-0.3480469
0.207,-0.3269531,-0.2390625,-0.2214844,-0.4042969,-0.2214844,-0.2847656,-0.16875,-0.1722656
0.208,-0.1230469,0.02109375,-0.02460938,-0.1019531,0.04570313,-0.084375,0.0140625,0.04570313
0.209,0.06679688,0.2636719,0.1582031,0.16875,0.2847656,0.08789063,0.1757813,0.2425781
0.21,0.2847656,0.5238281,0.3621094,0.4675781,0.5378906,0.2707031,0.3375,0.4464844
0.211,0.4570313,0.7207031,0.5167969,0.6925781,0.7242188,0.4078125,0.4640625,0.590625
0.212,0.5097656,0.7769531,0.5589844,0.7558594,0.759375,0.4359375,0.4816406,0.6152344
0.213,0.4921875,0.7417969,0.5273438,0.7171875,0.6996094,0.4042969,0.4253906,0.5660156
0.214,0.4605469,0.6785156,0.4921875,0.646875,0.6222656,0.3691406,0.3691406,0.50625
0.215,0.4042969,0.5660156,0.4289063,0.50625,0.4886719,0.3058594,0.2917969,0.4183594
0.216,0.3234375,0.4148438,0.3410156,0.3164063,0.3199219,0.2179688,0.2039063,0.3023438
0.217,0.2390625,0.2742188,0.2566406,0.1371094,0.1722656,0.140625,0.1300781,0.1933594
0.218,0.1300781,0.1160156,0.1617188,-0.05976563,0.0140625,0.04570313,0.05273438,0.07734375
0.219,-0.04570313,-0.09492188,0.003515625,-0.309375,-0.1898438,-0.1160156,-0.0703125,-0.09492188
0.22,-0.3023438,-0.3480469,-0.225,-0.5800781,-0.4253906,-0.3304688,-0.2496094,-0.3058594
0.221,-0.4886719,-0.50625,-0.3832031,-0.7347656,-0.5519531,-0.4710938,-0.3585938,-0.4289063
0.222,-0.5273438,-0.5238281,-0.4113281,-0.7347656,-0.5308594,-0.4921875,-0.3550781,-0.4253906
0.223,-0.4394531,-0.4007813,-0.3269531,-0.5835938,-0.3796875,-0.4007813,-0.2566406,-0.309375
0.224,-0.2390625,-0.140625,-0.1300781,-0.2917969,-0.1089844,-0.2039063,-0.07382813,-0.084375
0.225,-0.01054688,0.1371094,0.084375,0.0140625,0.16875,0.003515625,0.1195313,0.1476563
0.226,0.2214844,0.4148438,0.2988281,0.3199219,0.4394531,0.2003906,0.2988281,0.3691406
0.227,0.4078125,0.646875,0.4746094,0.590625,0.6644531,0.3621094,0.4359375,0.5449219
0.228,0.4886719,0.7523438,0.5484375,0.7207031,0.7558594,0.4359375,0.4851563,0.6117188
0.229,0.4957031,0.7523438,0.5378906,0.7277344,0.7382813,0.4253906,0.4570313,0.590625
0.23,0.4886719,0.7207031,0.5203125,0.6925781,0.6785156,0.3972656,0.4078125,0.5484375
0.231,0.4605469,0.6609375,0.4851563,0.6082031,0.5835938,0.3621094,0.3515625,0.4957031
0.232,0.4078125,0.5484375,0.4289063,0.4535156,0.4429688,0.3023438,0.28125,0.4078125
0.233,0.3691406,0.4429688,0.3832031,0.2988281,0.3199219,0.2496094,0.225,0.3234375
0.234,0.2742188,0.2953125,0.2953125,0.1089844,0.16875,0.1617188,0.1476563,0.2074219
0.235,0.08085938,0.05976563,0.1195313,-0.1546875,-0.05625,0,0.00703125,0.02460938
0.236,-0.1617188,-0.2039063,-0.1019531,-0.4464844,-0.3058594,-0.2109375,-0.1617188,-0.1898438
0.237,-0.39375,-0.4324219,-0.3058594,-0.6714844,-0.50625,-0.4042969,-0.3164063,-0.3761719
0.238,-0.5132813,-0.5238281,-0.4078125,-0.7628906,-0.5730469,-0.4921875,-0.3761719,-0.45
0.239,-0.4957031,-0.4746094,-0.3796875,-0.6996094,-0.4992188,-0.4640625,-0.3339844,-0.3972656
0.24,-0.3234375,-0.2601563,-0.2144531,-0.4570313,-0.2671875,-0.3058594,-0.1722656,-0.2074219
0.241,-0.1054688,0.00703125,-0.00703125,-0.1371094,0.01757813,-0.0984375,0.02109375,0.03164063
0.242,0.05976563,0.225,0.1476563,0.1195313,0.2425781,0.06328125,0.16875,0.2179688
0.243,0.2460938,0.4605469,0.3234375,0.3902344,0.4710938,0.225,0.3128906,0.4007813
0.244,0.4183594,0.6679688,0.4816406,0.6292969,0.6714844,0.3691406,0.4359375,0.5554688
0.245,0.478125,0.7488281,0.534375,0.7242188,0.73125,0.4183594,0.4640625,0.6046875
0.246,0.4851563,0.7453125,0.5308594,0.7207031,0.6996094,0.4078125,0.4324219,0.5835938
0.247,0.5132813,0.7453125,0.5414063,0.6960938,0.6679688,0.4078125,0.4113281,0.5660156
0.248,0.4921875,0.675,0.50625,0.5941406,0.5730469,0.3691406,0.3585938,0.4957031
0.249,0.3867188,0.50625,0.4007813,0.3902344,0.3867188,0.2707031,0.2496094,0.3621094
0.25,0.2882813,0.3480469,0.3023438,0.1898438,0.2179688,0.1792969,0.1511719,0.2425781
0.251,0.1652344,0.1757813,0.1898438,-0.01054688,0.04921875,0.07382813,0.05976563,0.1125
0.252,-0.028125,-0.05625,0.0140625,-0.28125,-0.1722656,-0.09140625,-0.0703125,-0.06679688
0.253,-0.2707031,-0.3199219,-0.2003906,-0.5554688,-0.4078125,-0.3023438,-0.2390625,-0.2777344
0.254,-0.4324219,-0.4675781,-0.3445313,-0.7066406,-0.5308594,-0.4464844,-0.3304688,-0.4007813
0.255,-0.4816406,-0.4957031,-0.3832031,-0.7277344,-0.5308594,-0.478125,-0.3304688,-0.4113281
0.256,-0.4605469,-0.4324219,-0.3550781,-0.646875,-0.4429688,-0.4359375,-0.2917969,-0.3445313
0.257,-0.3058594,-0.2214844,-0.2039063,-0.3972656,-0.2144531,-0.2777344,-0.1441406,-0.1546875
0.258,-0.1019531,0.03867188,-0.00703125,-0.09140625,0.05273438,-0.07734375,0.0421875,0.06679688
0.259,0.08085938,0.2742188,0.1652344,0.1757813,0.2847656,0.09140625,0.196875,0.2566406
0.26,0.2847656,0.5238281,0.3550781,0.4535156,0.5308594,0.2671875,0.3410156,0.4464844
0.261,0.4570313,0.7242188,0.5132813,0.675,0.7171875,0.4078125,0.4640625,0.590625
0.262,0.5132813,0.7875,0.5625,0.7488281,0.7558594,0.4429688,0.4851563,0.6222656
0.263,0.4886719,0.7453125,0.5238281,0.7136719,0.6855469,0.4113281,0.421875,0.5765625
0.264,0.45,0.6785156,0.4746094,0.6328125,0.5871094,0.365625,0.3585938,0.5132813
0.265,0.3867188,0.5695313,0.4113281,0.4851563,0.45,0.2988281,0.2777344,0.4148438
0.266,0.3058594,0.421875,0.3304688,0.2953125,0.28125,0.2109375,0.1828125,0.2917969
0.267,0.2214844,0.2742188,0.2425781,0.1160156,0.1335938,0.1300781,0.1054688,0.1828125
0.268,0.1089844,0.1089844,0.140625,-0.084375,-0.028125,0.02460938,0.02460938,0.06328125
0.269,-0.0703125,-0.1054688,-0.02109375,-0.3339844,-0.2355469,-0.140625,-0.0984375,-0.1089844
0.27,-0.3234375,-0.365625,-0.2496094,-0.5976563,-0.4640625,-0.3585938,-0.2742188,-0.3234375
0.271,-0.4992188,-0.5203125,-0.4007813,-0.7453125,-0.5835938,-0.4957031,-0.3761719,-0.4429688
0.272,-0.534375,-0.5238281,-0.4289063,-0.7347656,-0.5625,-0.50625,-0.3726563,-0.4359375
0.273,-0.4464844,-0.39375,-0.3410156,-0.5800781,-0.4113281,-0.4113281,-0.2777344,-0.3128906
0.274,-0.2496094,-0.1371094,-0.1476563,-0.2917969,-0.140625,-0.2179688,-0.0984375,-0.08789063
0.275,-0.02109375,0.1371094,0.06679688,0.0140625,0.1371094,-0.01054688,0.09492188,0.140625
0.276,0.2144531,0.4183594,0.2882813,0.3269531,0.4148438,0.1863281,0.2882813,0.3585938
0.277,0.4007813,0.646875,0.4605469,0.590625,0.6363281,0.3515625,0.4253906,0.534375
0.278,0.4675781,0.7417969,0.5273438,0.7066406,0.7136719,0.4148438,0.4640625,0.5941406
0.279,0.4675781,0.7382813,0.5167969,0.7136719,0.6925781,0.4042969,0.4394531,0.5765625
0.28,0.4605469,0.703125,0.4886719,0.6785156,0.6363281,0.3796875,0.3902344,0.534375
0.281,0.4289063,0.6363281,0.4535156,0.5871094,0.5414063,0.3375,0.3304688,0.4675781
0.282,0.3832031,0.5273438,0.3972656,0.4324219,0.4042969,0.2742188,0.253125,0.3726563
0.283,0.3445313,0.421875,0.3515625,0.2777344,0.2777344,0.2179688,0.2003906,0.2882813
0.284,0.2425781,0.2636719,0.2601563,0.09140625,0.1230469,0.1265625,0.1230469,0.1722656
0.285,0.04570313,0.02109375,0.08085938,-0.1757813,-0.1054688,-0.03515625,-0.0140625,-0.003515625
0.286,-0.2003906,-0.2460938,-0.1441406,-0.4675781,-0.3585938,-0.253125,-0.1863281,-0.2214844
0.287,-0.4289063,-0.4675781,-0.3480469,-0.6960938,-0.5519531,-0.4464844,-0.3339844,-0.3972656
0.288,-0.5449219,-0.5554688,-0.4429688,-0.7769531,-0.6082031,-0.5273438,-0.3867188,-0.4570313
0.289,-0.5238281,-0.5027344,-0.421875,-0.7101563,-0.5308594,-0.4957031,-0.3445313,-0.3972656
0.29,-0.3515625,-0.2847656,-0.2566406,-0.4710938,-0.2953125,-0.3339844,-0.1898438,-0.2074219
0.291,-0.140625,-0.00703125,-0.04570313,-0.1617188,-0.01054688,-0.1265625,0.003515625,0.02460938
0.292,0.02460938,0.2074219,0.1125,0.09140625,0.2109375,0.03515625,0.1511719,0.2039063
0.293,0.2214844,0.4464844,0.2917969,0.3691406,0.45,0.2039063,0.2988281,0.3902344
0.294,0.3867188,0.6539063,0.4464844,0.6011719,0.6433594,0.3480469,0.4148438,0.5414063
0.295,0.4394531,0.73125,0.4921875,0.6855469,0.6960938,0.39375,0.4394531,0.5765625
0.296,0.45,0.7347656,0.4957031,0.6855469,0.6679688,0.3867188,0.4078125,0.5554688
0.297,0.4851563,0.73125,0.5097656,0.6644531,0.6398438,0.3902344,0.3902344,0.5414063
0.298,0.4605469,0.6539063,0.4746094,0.5625,0.5449219,0.3515625,0.3375,0.478125
0.299,0.3585938,0.4851563,0.3691406,0.3585938,0.3621094,0.2496094,0.2320313,0.3480469
0.3,0.2671875,0.3234375,0.2777344,0.1652344,0.2039063,0.1582031,0.140625,0.2285156
0.301,0.1476563,0.1511719,0.16875,-0.03867188,0.03867188,0.05273438,0.04921875,0.1054688
0.302,-0.04921875,-0.07382813,-0.00703125,-0.3058594,-0.1828125,-0.1054688,-0.084375,-0.06679688
0.303,-0.2882813,-0.3234375,-0.225,-0.5765625,-0.4113281,-0.3128906,-0.253125,-0.2742188
0.304,-0.4464844,-0.4746094,-0.3621094,-0.7242188,-0.5273438,-0.4535156,-0.3480469,-0.39375
0.305,-0.4957031,-0.5027344,-0.4007813,-0.7382813,-0.5238281,-0.4886719,-0.3515625,-0.4042969
0.306,-0.4746094,-0.4429688,-0.3761719,-0.6539063,-0.4394531,-0.45,-0.3058594,-0.3339844
0.307,-0.3234375,-0.2320313,-0.225,-0.4078125,-0.2144531,-0.2882813,-0.1617188,-0.1546875
0.308,-0.1230469,0.028125,-0.028125,-0.1089844,0.04921875,-0.09140625,0.01757813,0.06679688
0.309,0.06328125,0.2636719,0.1476563,0.1582031,0.28125,0.07734375,0.1757813,0.2636719
0.31,0.2671875,0.5203125,0.3375,0.4464844,0.5238281,0.2601563,0.3304688,0.4570313
0.311,0.4289063,0.7171875,0.4816406,0.6574219,0.6925781,0.39375,0.4464844,0.5941406
0.312,0.4746094,0.7734375,0.5203125,0.7136719,0.7242188,0.4253906,0.4570313,0.6152344
0.313,0.4570313,0.73125,0.4851563,0.6785156,0.6609375,0.39375,0.3972656,0.5625
0.314,0.4253906,0.6679688,0.45,0.5976563,0.5695313,0.3515625,0.3339844,0.4957031
0.315,0.3691406,0.5554688,0.39375,0.45,0.4359375,0.2847656,0.2566406,0.3972656
0.316,0.2917969,0.4042969,0.309375,0.2636719,0.2742188,0.2003906,0.16875,0.28125
0.317,0.2074219,0.2671875,0.225,0.09140625,0.1265625,0.1230469,0.0984375,0.1757813
0.318,0.0984375,0.1019531,0.1230469,-0.1089844,-0.028125,0.01757813,0.02109375,0.05625
0.319,-0.084375,-0.1160156,-0.03867188,-0.3585938,-0.2355469,-0.1476563,-0.1054688,-0.1125
0.32,-0.3339844,-0.3691406,-0.2636719,-0.6222656,-0.4640625,-0.3621094,-0.2847656,-0.3199219
0.321,-0.50625,-0.5203125,-0.4113281,-0.7664063,-0.5871094,-0.4957031,-0.3832031,-0.4359375
0.322,-0.5414063,-0.5203125,-0.4359375,-0.7558594,-0.5660156,-0.50625,-0.3832031,-0.4253906
0.323,-0.4535156,-0.39375,-0.3480469,-0.6011719,-0.4113281,-0.4113281,-0.2882813,-0.3058594
0.324,-0.253125,-0.1371094,-0.1546875,-0.3058594,-0.140625,-0.2214844,-0.1019531,-0.084375
0.325,-0.02460938,0.1371094,0.05976563,0.003515625,0.1371094,-0.01054688,0.09140625,0.1476563
0.326,0.2144531,0.4289063,0.2847656,0.3199219,0.4113281,0.1933594,0.28125,0.3761719
0.327,0.39375,0.6574219,0.4570313,0.590625,0.6257813,0.3550781,0.4183594,0.5484375
0.328,0.4535156,0.7382813,0.5097656,0.703125,0.6996094,0.4113281,0.4570313,0.6011719
0.329,0.4570313,0.7347656,0.4992188,0.703125,0.6785156,0.39375,0.4253906,0.5765625
0.33,0.4535156,0.6996094,0.478125,0.6679688,0.6222656,0.3726563,0.3796875,0.5308594
0.331,0.4253906,0.6363281,0.4464844,0.5835938,0.534375,0.3339844,0.3269531,0.4710938
0.332,0.3761719,0.5308594,0.39375,0.4324219,0.4007813,0.28125,0.2601563,0.3832031
0.333,0.3339844,0.4253906,0.3515625,0.2777344,0.2742188,0.2285156,0.2003906,0.3023438
0.334,0.2285156,0.2671875,0.253125,0.084375,0.1160156,0.1371094,0.1195313,0.1863281
0.335,0.03164063,0.02460938,0.0703125,-0.1863281,-0.1089844,-0.02109375,-0.01757813,0.00703125
0.336,-0.2144531,-0.2460938,-0.1511719,-0.478125,-0.3585938,-0.2390625,-0.2003906,-0.2074219
0.337,-0.4429688,-0.4675781,-0.3480469,-0.7066406,-0.5449219,-0.4359375,-0.3480469,-0.3902344
0.338,-0.5554688,-0.5519531,-0.45,-0.7875,-0.6011719,-0.5167969,-0.4007813,-0.4570313
0.339,-0.534375,-0.5027344,-0.421875,-0.7207031,-0.5238281,-0.4886719,-0.3550781,-0.4042969
0.34,-0.3621094,-0.2847656,-0.2566406,-0.4816406,-0.2882813,-0.3269531,-0.1933594,-0.2144531
0.341,-0.1511719,-0.01054688,-0.04921875,-0.1792969,-0.00703125,-0.1195313,0,0.01757813
0.342,0.01757813,0.2074219,0.1089844,0.07734375,0.2144531,0.04921875,0.140625,0.2039063
0.343,0.2179688,0.4605469,0.2988281,0.3621094,0.4535156,0.2285156,0.2953125,0.4042969
0.344,0.3726563,0.6609375,0.4429688,0.5941406,0.6363281,0.3691406,0.4078125,0.5449219
0.345,0.4113281,0.7171875,0.4816406,0.6609375,0.675,0.39375,0.4183594,0.5625
0.346,0.421875,0.7101563,0.4746094,0.6539063,0.646875,0.3832031,0.3832031,0.5378906
0.347,0.4605469,0.7136719,0.4921875,0.6363281,0.6152344,0.3832031,0.3726563,0.5203125
0.348,0.4359375,0.6398438,0.4570313,0.5378906,0.5167969,0.3445313,0.3234375,0.4570313
0.349,0.3339844,0.4710938,0.3515625,0.3410156,0.3339844,0.253125,0.2179688,0.3304688
0.35,0.2425781,0.3164063,0.253125,0.1511719,0.1722656,0.1617188,0.1335938,0.2109375
0.351,0.1265625,0.1511719,0.1476563,-0.04921875,0.01054688,0.05976563,0.04921875,0.084375
0.352,-0.06328125,-0.07734375,-0.02109375,-0.3164063,-0.2074219,-0.1054688,-0.08789063,-0.08789063
0.353,-0.3023438,-0.3269531,-0.2355469,-0.590625,-0.4359375,-0.3128906,-0.2566406,-0.2953125
0.354,-0.4570313,-0.4710938,-0.3691406,-0.7382813,-0.5519531,-0.4464844,-0.3445313,-0.4078125
0.355,-0.5027344,-0.4921875,-0.4007813,-0.7488281,-0.5414063,-0.4746094,-0.3480469,-0.4113281
0.356,-0.478125,-0.4289063,-0.3691406,-0.6539063,-0.45,-0.4253906,-0.2988281,-0.3410156
0.357,-0.3199219,-0.2144531,-0.2144531,-0.4007813,-0.2144531,-0.2671875,-0.1476563,-0.1511719
0.358,-0.1054688,0.0421875,-0.01054688,-0.0984375,0.05976563,-0.06679688,0.03515625,0.0703125
0.359,0.08085938,0.28125,0.1652344,0.1722656,0.3023438,0.1054688,0.1933594,0.2636719
0.36,0.2847656,0.534375,0.3515625,0.4570313,0.5449219,0.28125,0.3445313,0.4570313
0.361,0.45,0.73125,0.5027344,0.6679688,0.7207031,0.4183594,0.4605469,0.5941406
0.362,0.5027344,0.7875,0.5484375,0.7277344,0.7523438,0.4464844,0.4746094,0.61875
0.363,0.4816406,0.7488281,0.5132813,0.6890625,0.6855469,0.4148438,0.4113281,0.5660156
0.364,0.4464844,0.6820313,0.4710938,0.6082031,0.5941406,0.3691406,0.3480469,0.5027344
0.365,0.3867188,0.5660156,0.4078125,0.4605469,0.4535156,0.3023438,0.2707031,0.4113281
0.366,0.3058594,0.4253906,0.3234375,0.2742188,0.2847656,0.225,0.1792969,0.2988281
0.367,0.2179688,0.28125,0.2390625,0.1019531,0.1335938,0.1441406,0.1054688,0.196875
0.368,0.1019531,0.1125,0.1335938,-0.1019531,-0.02460938,0.03515625,0.02460938,0.07734375
0.369,-0.07382813,-0.1054688,-0.03164063,-0.3585938,-0.2285156,-0.1335938,-0.0984375,-0.0984375
0.37,-0.3269531,-0.3621094,-0.2601563,-0.6257813,-0.4605469,-0.3480469,-0.2671875,-0.3128906
0.371,-0.4992188,-0.5132813,-0.4078125,-0.7664063,-0.5835938,-0.478125,-0.3621094,-0.4253906
0.372,-0.534375,-0.5167969,-0.4359375,-0.7558594,-0.5589844,-0.4886719,-0.3550781,-0.4113281
0.373,-0.4394531,-0.3796875,-0.3410156,-0.590625,-0.3972656,-0.3867188,-0.2636719,-0.2847656
0.374,-0.2355469,-0.1230469,-0.1441406,-0.2953125,-0.1230469,-0.1933594,-0.07734375,-0.06328125
0.375,-0.01757813,0.1441406,0.06328125,0,0.140625,0.00703125,0.1089844,0.1546875
0.376,0.2074219,0.4183594,0.2777344,0.3023438,0.4113281,0.2003906,0.2847656,0.3726563
0.377,0.3902344,0.646875,0.4464844,0.5625,0.6257813,0.3585938,0.4183594,0.5378906
0.378,0.4570313,0.7382813,0.5097656,0.6820313,0.703125,0.421875,0.4570313,0.5976563
0.379,0.4570313,0.7347656,0.4957031,0.6855469,0.6714844,0.4078125,0.421875,0.5730469
0.38,0.4464844,0.6996094,0.4710938,0.646875,0.6152344,0.3796875,0.3761719,0.5238281
0.381,0.4253906,0.6363281,0.4394531,0.5660156,0.5273438,0.3445313,0.3234375,0.4640625
0.382,0.3726563,0.5238281,0.3832031,0.4113281,0.3867188,0.2847656,0.2496094,0.3761719
0.383,0.3304688,0.4078125,0.3339844,0.253125,0.2601563,0.225,0.1863281,0.2882813
0.384,0.2285156,0.2496094,0.2320313,0.06679688,0.1089844,0.1300781,0.1089844,0.16875
0.385,0.028125,0.00703125,0.05273438,-0.2039063,-0.1195313,-0.03164063,-0.02460938,-0.01054688
0.386,-0.2214844,-0.2601563,-0.16875,-0.4957031,-0.3691406,-0.2425781,-0.2039063,-0.2214844
0.387,-0.4394531,-0.4675781,-0.365625,-0.7101563,-0.5554688,-0.4289063,-0.3480469,-0.3902344
0.388,-0.5449219,-0.5484375,-0.45,-0.7839844,-0.6082031,-0.5097656,-0.3972656,-0.45
0.389,-0.5238281,-0.4957031,-0.421875,-0.7171875,-0.5308594,-0.4710938,-0.3550781,-0.3972656
0.39,-0.3480469,-0.2742188,-0.253125,-0.4640625,-0.2882813,-0.3058594,-0.1898438,-0.2039063
0.391,-0.1300781,0,-0.0421875,-0.1511719,-0.003515625,-0.0984375,0.00703125,0.028125
0.392,0.03164063,0.2179688,0.1125,0.09492188,0.2109375,0.06328125,0.1441406,0.2074219
0.393,0.2109375,0.45,0.28125,0.3621094,0.4429688,0.2285156,0.2847656,0.3832031
0.394,0.3761719,0.6539063,0.4324219,0.5941406,0.6257813,0.3726563,0.4007813,0.5308594
0.395,0.4253906,0.7207031,0.4816406,0.675,0.675,0.4148438,0.4253906,0.5730469
0.396,0.4324219,0.7136719,0.4746094,0.6714844,0.6433594,0.4007813,0.39375,0.5484375
0.397,0.4640625,0.7101563,0.4816406,0.6503906,0.6117188,0.3972656,0.3761719,0.5273438
0.398,0.4359375,0.6292969,0.4464844,0.5449219,0.5132813,0.3550781,0.3234375,0.4570313
0.399,0.3304688,0.4605469,0.3410156,0.3375,0.3234375,0.2566406,0.2109375,0.3234375
0.4,0.2320313,0.3023438,0.2460938,0.1476563,0.1617188,0.1652344,0.1195313,0.2003906
0.401,0.1089844,0.1335938,0.1300781,-0.05625,-0.00703125,0.05625,0.028125,0.07734375
0.402,-0.084375,-0.1054688,-0.04570313,-0.3234375,-0.2355469,-0.1125,-0.1019531,-0.1019531
0.403,-0.3234375,-0.3585938,-0.2601563,-0.590625,-0.4675781,-0.3234375,-0.2671875,-0.3128906
0.404,-0.4746094,-0.4992188,-0.39375,-0.73125,-0.5765625,-0.4570313,-0.3550781,-0.4253906
0.405,-0.5167969,-0.5167969,-0.421875,-0.7347656,-0.5625,-0.478125,-0.3480469,-0.4183594
0.406,-0.4816406,-0.4464844,-0.3832031,-0.6398438,-0.4640625,-0.4253906,-0.2988281,-0.3410156
0.407,-0.3128906,-0.225,-0.2214844,-0.3832031,-0.2214844,-0.2601563,-0.1441406,-0.1511719
0.408,-0.1054688,0.03515625,-0.02109375,-0.07734375,0.04570313,-0.05625,0.03867188,0.07734375
0.409,0.07734375,0.2707031,0.1546875,0.1863281,0.2777344,0.1125,0.1898438,0.2707031
0.41,0.2777344,0.5203125,0.3410156,0.4675781,0.5132813,0.2882813,0.3339844,0.4570313
0.411,0.4464844,0.7171875,0.4957031,0.6855469,0.6925781,0.4289063,0.4535156,0.6011719
0.412,0.50625,0.7804688,0.5449219,0.7523438,0.7277344,0.4640625,0.4710938,0.6328125
0.413,0.4886719,0.7417969,0.5167969,0.7101563,0.6644531,0.4289063,0.4148438,0.5765625
0.414,0.4570313,0.6714844,0.478125,0.6292969,0.5765625,0.3832031,0.3550781,0.50625
0.415,0.4007813,0.5554688,0.4078125,0.4816406,0.4394531,0.3164063,0.28125,0.4078125
0.416,0.3164063,0.4042969,0.3199219,0.2953125,0.2742188,0.2320313,0.1863281,0.2953125
0.417,0.2285156,0.2636719,0.2355469,0.1195313,0.1300781,0.1476563,0.1089844,0.1898438
0.418,0.1089844,0.0984375,0.1300781,-0.08789063,-0.03164063,0.0421875,0.028125,0.06328125
0.419,-0.07382813,-0.1195313,-0.03164063,-0.3445313,-0.2425781,-0.1230469,-0.1019531,-0.1054688
0.42,-0.3269531,-0.3691406,-0.2601563,-0.6046875,-0.4710938,-0.3375,-0.2742188,-0.309375
0.421,-0.4992188,-0.5203125,-0.4078125,-0.7417969,-0.5835938,-0.4675781,-0.365625,-0.4183594
0.422,-0.5273438,-0.5167969,-0.4253906,-0.73125,-0.5519531,-0.478125,-0.3585938,-0.4007813
0.423,-0.4324219,-0.3796875,-0.3269531,-0.5660156,-0.3902344,-0.3726563,-0.2671875,-0.2742188
0.424,-0.2285156,-0.1195313,-0.1300781,-0.2707031,-0.1160156,-0.1722656,-0.084375,-0.04921875
0.425,-0.00703125,0.1511719,0.07382813,0.028125,0.1546875,0.03164063,0.1054688,0.1722656
0.426,0.2214844,0.4289063,0.2917969,0.3375,0.4289063,0.2320313,0.2917969,0.3902344
0.427,0.3972656,0.6539063,0.4605469,0.590625,0.6398438,0.3867188,0.421875,0.5554688
0.428,0.4464844,0.7347656,0.5097656,0.6890625,0.6960938,0.4359375,0.4464844,0.6011719
0.429,0.4429688,0.7277344,0.4957031,0.6890625,0.6644531,0.421875,0.4007813,0.5695313
0.43,0.4429688,0.6996094,0.478125,0.6609375,0.6117188,0.4007813,0.3585938,0.5273438
0.431,0.4183594,0.6292969,0.4429688,0.5695313,0.5203125,0.3585938,0.309375,0.4640625
0.432,0.3691406,0.5097656,0.3832031,0.4148438,0.3867188,0.2917969,0.2390625,0.3691406
0.433,0.3304688,0.4042969,0.3339844,0.2601563,0.2601563,0.2390625,0.1828125,0.2847656
0.434,0.2214844,0.2460938,0.2390625,0.07382813,0.1054688,0.1441406,0.1019531,0.16875
0.435,0.01757813,0,0.05625,-0.196875,-0.1230469,-0.02109375,-0.03515625,-0.0140625
0.436,-0.2285156,-0.2707031,-0.16875,-0.4886719,-0.3726563,-0.2390625,-0.2109375,-0.2355469
0.437,-0.4464844,-0.478125,-0.365625,-0.703125,-0.5554688,-0.4253906,-0.3585938,-0.4113281
0.438,-0.5519531,-0.5589844,-0.4535156,-0.7769531,-0.6082031,-0.5027344,-0.4042969,-0.4675781
0.439,-0.5273438,-0.4992188,-0.4253906,-0.703125,-0.5238281,-0.4640625,-0.3585938,-0.4078125
0.44,-0.3550781,-0.2777344,-0.2566406,-0.45,-0.2777344,-0.2953125,-0.1933594,-0.2109375
0.441,-0.1371094,-0.003515625,-0.04921875,-0.1335938,0.003515625,-0.08789063,0.003515625,0.02460938
0.442,0.028125,0.2144531,0.1089844,0.1195313,0.225,0.07382813,0.1511719,0.2074219
0.443,0.225,0.4570313,0.2953125,0.4007813,0.4640625,0.2460938,0.2953125,0.3972656
0.444,0.3832031,0.6574219,0.4394531,0.6257813,0.646875,0.3832031,0.4113281,0.5378906
0.445,0.4253906,0.7136719,0.478125,0.703125,0.6890625,0.4113281,0.4253906,0.5660156
0.446,0.4359375,0.7066406,0.4710938,0.6960938,0.6574219,0.4042969,0.39375,0.5378906
0.447,0.4710938,0.7066406,0.4851563,0.675,0.6257813,0.4042969,0.3726563,0.5203125
0.448,0.4394531,0.6257813,0.45,0.5660156,0.5238281,0.3585938,0.3164063,0.45
0.449,0.3375,0.4570313,0.3445313,0.3621094,0.3339844,0.2601563,0.2074219,0.3199219
0.45,0.2425781,0.3023438,0.253125,0.1722656,0.1722656,0.16875,0.1230469,0.2039063
0.451,0.1195313,0.1300781,0.1371094,-0.03164063,0,0.05976563,0.028125,0.07734375
0.452,-0.07382813,-0.1019531,-0.03867188,-0.2988281,-0.2214844,-0.1089844,-0.1089844,-0.1019531
0.453,-0.309375,-0.3515625,-0.2496094,-0.5589844,-0.4464844,-0.3164063,-0.2742188,-0.3023438
0.454,-0.4605469,-0.4851563,-0.3796875,-0.6960938,-0.5554688,-0.4464844,-0.3621094,-0.4113281
0.455,-0.4992188,-0.4992188,-0.4078125,-0.6925781,-0.5414063,-0.4675781,-0.3515625,-0.4078125
0.456,-0.4640625,-0.4253906,-0.3691406,-0.590625,-0.4429688,-0.4183594,-0.2953125,-0.3339844
0.457,-0.2988281,-0.2074219,-0.2074219,-0.3304688,-0.2039063,-0.2496094,-0.1371094,-0.140625
0.458,-0.09492188,0.04921875,-0.01054688,-0.03164063,0.05625,-0.04921875,0.03867188,0.07734375
0.459,0.09140625,0.2953125,0.16875,0.2425781,0.2917969,0.1265625,0.196875,0.2777344
0.46,0.2988281,0.5519531,0.365625,0.5308594,0.5414063,0.3128906,0.3515625,0.4710938
0.461,0.45,0.7277344,0.5027344,0.7277344,0.703125,0.4324219,0.4570313,0.5941406
0.462,0.4957031,0.7769531,0.5378906,0.7804688,0.7277344,0.4535156,0.4675781,0.6117188
0.463,0.4746094,0.7453125,0.5027344,0.7453125,0.6609375,0.421875,0.4078125,0.5625
0.464,0.4289063,0.6785156,0.4535156,0.6609375,0.5625,0.3796875,0.3375,0.4957031
0.465,0.3621094,0.5589844,0.3832031,0.50625,0.421875,0.3128906,0.2566406,0.4042969
0.466,0.2777344,0.4078125,0.2953125,0.3234375,0.2601563,0.2285156,0.16875,0.2953125
0.467,0.1863281,0.2636719,0.2109375,0.1476563,0.1089844,0.1476563,0.08789063,0.1933594
0.468,0.05976563,0.09140625,0.1054688,-0.05976563,-0.05625,0.03867188,0.003515625,0.07382813
0.469,-0.1300781,-0.1265625,-0.05976563,-0.3128906,-0.2671875,-0.1300781,-0.1230469,-0.0984375
0.47,-0.3867188,-0.3761719,-0.2882813,-0.5730469,-0.4921875,-0.3445313,-0.2953125,-0.3058594
0.471,-0.5589844,-0.5167969,-0.4359375,-0.7136719,-0.6046875,-0.4746094,-0.39375,-0.421875
0.472,-0.5941406,-0.5132813,-0.4570313,-0.6925781,-0.5765625,-0.4816406,-0.3902344,-0.4042969
0.473,-0.4992188,-0.3726563,-0.3621094,-0.5203125,-0.4183594,-0.3761719,-0.2847656,-0.2671875
0.474,-0.2988281,-0.1125,-0.1652344,-0.225,-0.1441406,-0.1757813,-0.0984375,-0.0421875
0.475,-0.08085938,0.1511719,0.0421875,0.06679688,0.1195313,0.02109375,0.08085938,0.1757813
0.476,0.1441406,0.4359375,0.2566406,0.3726563,0.3867188,0.2214844,0.253125,0.3972656
0.477,0.3164063,0.6609375,0.421875,0.6222656,0.5941406,0.3832031,0.3726563,0.5660156
0.478,0.3726563,0.7417969,0.478125,0.7242188,0.6609375,0.4359375,0.3972656,0.6152344
0.479,0.3796875,0.7417969,0.4710938,0.7277344,0.6363281,0.4253906,0.3585938,0.590625
0.48,0.3691406,0.7101563,0.45,0.6890625,0.5765625,0.4007813,0.309375,0.5484375
0.481,0.3304688,0.6363281,0.4078125,0.5871094,0.478125,0.3585938,0.2425781,0.4816406
0.482,0.2742188,0.5167969,0.3445313,0.421875,0.3304688,0.2953125,0.1652344,0.3867188
0.483,0.2320313,0.4078125,0.2953125,0.2707031,0.2109375,0.2390625,0.1160156,0.3023438
0.484,0.1335938,0.2496094,0.2003906,0.084375,0.05976563,0.1476563,0.03867188,0.1898438
0.485,-0.05625,0.00703125,0.02109375,-0.1863281,-0.1652344,-0.01757813,-0.0984375,0
0.486,-0.2953125,-0.2601563,-0.2003906,-0.4746094,-0.4042969,-0.2390625,-0.2742188,-0.2179688
0.487,-0.5097656,-0.4746094,-0.3902344,-0.6890625,-0.5835938,-0.4289063,-0.4183594,-0.39375
0.488,-0.6117188,-0.5519531,-0.478125,-0.7628906,-0.6292969,-0.50625,-0.4605469,-0.45
0.489,-0.5800781,-0.4886719,-0.4429688,-0.6855469,-0.5449219,-0.4640625,-0.4113281,-0.3832031
0.49,-0.39375,-0.2636719,-0.2636719,-0.4324219,-0.2953125,-0.2953125,-0.2390625,-0.1792969
0.491,-0.1722656,0.00703125,-0.05273438,-0.1230469,-0.00703125,-0.09140625,-0.0421875,0.04921875
0.492,0,0.225,0.1019531,0.1265625,0.2109375,0.06328125,0.09492188,0.2285156
0.493,0.1898438,0.4605469,0.28125,0.3972656,0.4464844,0.2285156,0.2390625,0.4042969
0.494,0.3550781,0.6574219,0.4324219,0.6257813,0.6363281,0.3621094,0.3550781,0.5414063
0.495,0.4078125,0.7171875,0.4710938,0.703125,0.6855469,0.3972656,0.3761719,0.5660156
0.496,0.4183594,0.7066406,0.4640625,0.6925781,0.6539063,0.3832031,0.3410156,0.5378906
0.497,0.4535156,0.703125,0.478125,0.6679688,0.6257813,0.3796875,0.3199219,0.5132813
0.498,0.4324219,0.6257813,0.4429688,0.5554688,0.5273438,0.3375,0.2671875,0.4429688
0.499,0.3304688,0.4570313,0.3375,0.3480469,0.3480469,0.2390625,0.1652344,0.3058594
0.5,0.2355469,0.3023438,0.2460938,0.1582031,0.1898438,0.1476563,0.07734375,0.1828125
0.501,0.1089844,0.1265625,0.1300781,-0.04570313,0.01757813,0.03867188,-0.0140625,0.04921875
0.502,-0.09140625,-0.1195313,-0.05273438,-0.3199219,-0.2109375,-0.1335938,-0.1546875,-0.1335938
0.503,-0.3304688,-0.3726563,-0.2671875,-0.5871094,-0.4394531,-0.3445313,-0.3199219,-0.3410156
0.504,-0.4816406,-0.50625,-0.39375,-0.7242188,-0.5484375,-0.4710938,-0.4007813,-0.4429688
0.505,-0.5167969,-0.5097656,-0.4148438,-0.7207031,-0.5308594,-0.4921875,-0.3972656,-0.4359375
0.506,-0.4746094,-0.4289063,-0.3691406,-0.6152344,-0.4253906,-0.4324219,-0.3410156,-0.3585938
0.507,-0.309375,-0.2039063,-0.2074219,-0.3585938,-0.1828125,-0.2671875,-0.1863281,-0.1617188
0.508,-0.1054688,0.05273438,-0.01054688,-0.06679688,0.08085938,-0.07382813,-0.00703125,0.05273438
0.509,0.08085938,0.2953125,0.1617188,0.2039063,0.3199219,0.0984375,0.1441406,0.253125
0.51,0.28125,0.5484375,0.3515625,0.4957031,0.5660156,0.28125,0.2988281,0.4464844
0.511,0.4324219,0.7277344,0.4921875,0.6960938,0.73125,0.4042969,0.4078125,0.5765625
0.512,0.4851563,0.7734375,0.5308594,0.7488281,0.7558594,0.4324219,0.4183594,0.5976563
0.513,0.4640625,0.7347656,0.5027344,0.703125,0.6890625,0.3972656,0.3585938,0.5449219
0.514,0.4289063,0.6679688,0.4570313,0.61875,0.5976563,0.3515625,0.2953125,0.478125
0.515,0.365625,0.5484375,0.3902344,0.4675781,0.45,0.2882813,0.2179688,0.3832031
0.516,0.2847656,0.3972656,0.3023438,0.28125,0.2847656,0.2039063,0.1300781,0.2707031
0.517,0.196875,0.253125,0.2109375,0.1054688,0.1371094,0.1195313,0.04921875,0.1652344
0.518,0.07382813,0.08085938,0.1019531,-0.1019531,-0.028125,0.01054688,-0.03515625,0.03867188
0.519,-0.1125,-0.140625,-0.06328125,-0.3585938,-0.2355469,-0.1617188,-0.1722656,-0.1335938
0.52,-0.365625,-0.39375,-0.2882813,-0.6117188,-0.4605469,-0.3796875,-0.3445313,-0.3375
0.521,-0.5308594,-0.534375,-0.4289063,-0.7453125,-0.5695313,-0.5027344,-0.4359375,-0.4464844
0.522,-0.5519531,-0.5238281,-0.4429688,-0.7242188,-0.5308594,-0.5027344,-0.421875,-0.4324219
0.523,-0.4464844,-0.3726563,-0.3410156,-0.5484375,-0.3585938,-0.39375,-0.3128906,-0.2953125
0.524,-0.2425781,-0.1089844,-0.140625,-0.2460938,-0.08085938,-0.1933594,-0.1265625,-0.06679688
0.525,-0.02109375,0.1617188,0.0703125,0.05625,0.1898438,0.00703125,0.05625,0.1582031
0.526,0.2074219,0.4394531,0.2882813,0.365625,0.4605469,0.2074219,0.2425781,0.3761719
0.527,0.3867188,0.6679688,0.4535156,0.61875,0.6714844,0.3691406,0.3726563,0.5449219
0.528,0.4429688,0.7488281,0.50625,0.7171875,0.7347656,0.4183594,0.4007813,0.590625
0.529,0.4429688,0.7382813,0.4957031,0.7136719,0.7066406,0.3972656,0.365625,0.5625
0.53,0.4394531,0.703125,0.4746094,0.675,0.6503906,0.3761719,0.3234375,0.5238281
0.531,0.4113281,0.6292969,0.4359375,0.5800781,0.5554688,0.3375,0.2707031,0.4605469
0.532,0.3585938,0.5097656,0.3796875,0.421875,0.4113281,0.2707031,0.2003906,0.3691406
0.533,0.3199219,0.4007813,0.3339844,0.2671875,0.2917969,0.2144531,0.1476563,0.2847656
0.534,0.2109375,0.2425781,0.2320313,0.07382813,0.1335938,0.1160156,0.06679688,0.16875
0.535,0.003515625,0,0.04570313,-0.196875,-0.0984375,-0.04570313,-0.07382813,-0.0140625
0.536,-0.2425781,-0.2671875,-0.1757813,-0.4886719,-0.3480469,-0.2636719,-0.2496094,-0.2320313
0.537,-0.4570313,-0.4746094,-0.3691406,-0.703125,-0.5238281,-0.45,-0.3902344,-0.4007813
0.538,-0.5554688,-0.5519531,-0.45,-0.7664063,-0.5625,-0.5203125,-0.4324219,-0.4535156
0.539,-0.5167969,-0.4851563,-0.4078125,-0.6855469,-0.4675781,-0.478125,-0.3761719,-0.3902344
0.54,-0.3304688,-0.2496094,-0.2285156,-0.421875,-0.2109375,-0.3058594,-0.2003906,-0.1828125
0.541,-0.1160156,0.01757813,-0.02460938,-0.1089844,0.06679688,-0.1019531,-0.003515625,0.04570313
0.542,0.04921875,0.2355469,0.1335938,0.1441406,0.2917969,0.05976563,0.1300781,0.225
0.543,0.2425781,0.4851563,0.3199219,0.421875,0.5308594,0.2390625,0.2777344,0.4113281
0.544,0.3902344,0.6714844,0.4570313,0.6398438,0.6996094,0.3691406,0.3832031,0.5484375
0.545,0.4183594,0.7171875,0.478125,0.6996094,0.7242188,0.3902344,0.3867188,0.5660156
0.546,0.4289063,0.7101563,0.4710938,0.6925781,0.6925781,0.3832031,0.3515625,0.5449219
0.547,0.4640625,0.7101563,0.4957031,0.675,0.6609375,0.3832031,0.3375,0.5308594
0.548,0.4324219,0.6363281,0.4605469,0.5625,0.5554688,0.3445313,0.2847656,0.4605469
0.549,0.3269531,0.4675781,0.3515625,0.3515625,0.365625,0.2425781,0.1722656,0.3269531
0.55,0.2285156,0.309375,0.253125,0.1546875,0.2074219,0.1511719,0.08085938,0.2039063
0.551,0.1019531,0.1300781,0.1335938,-0.05273438,0.03164063,0.03867188,-0.00703125,0.07382813
0.552,-0.0984375,-0.1125,-0.05273438,-0.3269531,-0.196875,-0.1371094,-0.1511719,-0.1089844
0.553,-0.3410156,-0.365625,-0.2671875,-0.5941406,-0.4253906,-0.3445313,-0.3234375,-0.3164063
0.554,-0.4816406,-0.4992188,-0.3902344,-0.73125,-0.5273438,-0.4710938,-0.4007813,-0.421875
0.555,-0.5132813,-0.5027344,-0.4078125,-0.7277344,-0.50625,-0.4886719,-0.3902344,-0.4148438
0.556,-0.4710938,-0.4183594,-0.3621094,-0.6152344,-0.3972656,-0.4289063,-0.3269531,-0.3304688
0.557,-0.309375,-0.196875,-0.2039063,-0.3515625,-0.1546875,-0.2566406,-0.1652344,-0.1300781
0.558,-0.1054688,0.05625,-0.01054688,-0.05273438,0.1019531,-0.06328125,0.01054688,0.09140625
0.559,0.084375,0.2988281,0.16875,0.2214844,0.3375,0.1089844,0.1652344,0.2847656
0.56,0.28125,0.5484375,0.3550781,0.5027344,0.5730469,0.28125,0.3128906,0.4746094
0.561,0.4324219,0.7277344,0.4957031,0.6996094,0.7347656,0.4007813,0.4148438,0.5976563
0.562,0.4851563,0.7769531,0.5308594,0.7523438,0.759375,0.4253906,0.4253906,0.6152344
0.563,0.4605469,0.7347656,0.4921875,0.703125,0.6925781,0.3902344,0.365625,0.5625
0.564,0.4253906,0.6574219,0.4464844,0.61875,0.5976563,0.3410156,0.3023438,0.4921875
0.565,0.3621094,0.5378906,0.3832031,0.4675781,0.45,0.2742188,0.2214844,0.39375
0.566,0.2777344,0.3902344,0.2988281,0.2742188,0.2847656,0.1898438,0.1265625,0.2777344
0.567,0.1898438,0.2425781,0.2109375,0.08789063,0.1371094,0.1054688,0.04570313,0.1652344
0.568,0.06679688,0.0703125,0.09492188,-0.1230469,-0.02460938,-0.003515625,-0.03515625,0.03164063
0.569,-0.1160156,-0.1476563,-0.0703125,-0.3796875,-0.2355469,-0.1757813,-0.1722656,-0.140625
0.57,-0.3621094,-0.3902344,-0.2847656,-0.6292969,-0.4535156,-0.3867188,-0.3445313,-0.3410156
0.571,-0.5203125,-0.5203125,-0.4183594,-0.7558594,-0.5554688,-0.5097656,-0.4359375,-0.4464844
0.572,-0.5414063,-0.5132813,-0.4324219,-0.73125,-0.5167969,-0.50625,-0.421875,-0.421875
0.573,-0.4359375,-0.3621094,-0.3269531,-0.5519531,-0.3480469,-0.3972656,-0.3164063,-0.28125
0.574,-0.2320313,-0.1019531,-0.1265625,-0.2496094,-0.07734375,-0.2003906,-0.1300781,-0.05625
0.575,-0.01757813,0.1582031,0.07382813,0.04570313,0.1863281,-0.003515625,0.05273438,0.1652344
0.576,0.2109375,0.4394531,0.2917969,0.3585938,0.4605469,0.1933594,0.2355469,0.39375
0.577,0.3902344,0.6574219,0.4570313,0.6152344,0.6714844,0.3480469,0.3691406,0.5589844
0.578,0.4429688,0.7277344,0.4992188,0.7101563,0.7277344,0.39375,0.39375,0.6011719
0.579,0.4394531,0.7207031,0.4851563,0.7066406,0.6960938,0.3726563,0.3550781,0.5730469
0.58,0.4324219,0.6890625,0.4640625,0.6679688,0.6292969,0.3480469,0.3023438,0.5308594
0.581,0.3972656,0.6117188,0.421875,0.5660156,0.5273438,0.3058594,0.2390625,0.4640625
0.582,0.3410156,0.4921875,0.3621094,0.4007813,0.3796875,0.2390625,0.16875,0.3691406
0.583,0.2988281,0.3832031,0.3164063,0.2460938,0.2566406,0.1863281,0.1125,0.2882813
0.584,0.196875,0.225,0.2214844,0.05625,0.1019531,0.09492188,0.03164063,0.16875
0.585,0,-0.0140625,0.03515625,-0.2144531,-0.1265625,-0.06679688,-0.1054688,-0.01054688
0.586,-0.2496094,-0.2777344,-0.1828125,-0.5027344,-0.3726563,-0.28125,-0.28125,-0.2285156
0.587,-0.4640625,-0.4851563,-0.3691406,-0.703125,-0.5449219,-0.4640625,-0.421875,-0.39375
0.588,-0.5625,-0.5554688,-0.45,-0.7664063,-0.5835938,-0.5308594,-0.4640625,-0.4429688
0.589,-0.5238281,-0.4886719,-0.4113281,-0.6820313,-0.4886719,-0.4886719,-0.4042969,-0.3761719
0.59,-0.3410156,-0.2566406,-0.2320313,-0.4183594,-0.2320313,-0.3199219,-0.2355469,-0.1757813
0.591,-0.1265625,0.01054688,-0.028125,-0.1125,0.04921875,-0.1125,-0.0421875,0.05273438
0.592,0.0421875,0.2390625,0.1335938,0.1441406,0.2742188,0.05625,0.1019531,0.2425781
0.593,0.2390625,0.4921875,0.3199219,0.4324219,0.5167969,0.2320313,0.2601563,0.4429688
0.594,0.3867188,0.6714844,0.4535156,0.646875,0.6855469,0.3585938,0.365625,0.5800781
0.595,0.4148438,0.7136719,0.478125,0.7101563,0.7066406,0.3761719,0.3691406,0.5976563
0.596,0.4253906,0.7136719,0.4746094,0.7066406,0.675,0.365625,0.3375,0.5695313
0.597,0.4605469,0.7136719,0.4957031,0.6855469,0.6433594,0.3691406,0.3234375,0.5519531
0.598,0.4359375,0.6328125,0.4570313,0.5695313,0.534375,0.3269531,0.2707031,0.4816406
0.599,0.3339844,0.4640625,0.3515625,0.3585938,0.3445313,0.2285156,0.1617188,0.3480469
0.6,0.2320313,0.3058594,0.2566406,0.1652344,0.1828125,0.1371094,0.07734375,0.2285156
0.601,0.1089844,0.1300781,0.140625,-0.03867188,0.01054688,0.028125,-0.01054688,0.0984375
0.602,-0.09492188,-0.1089844,-0.0421875,-0.309375,-0.2144531,-0.1441406,-0.1546875,-0.08789063
0.603,-0.3375,-0.3585938,-0.2601563,-0.5730469,-0.4464844,-0.3515625,-0.3269531,-0.2882813
0.604,-0.4816406,-0.4851563,-0.3832031,-0.703125,-0.5484375,-0.4746094,-0.4007813,-0.3867188
0.605,-0.5097656,-0.4886719,-0.4007813,-0.6960938,-0.5203125,-0.4886719,-0.3902344,-0.3796875
0.606,-0.4640625,-0.4078125,-0.3515625,-0.5835938,-0.4078125,-0.4289063,-0.3234375,-0.2988281
0.607,-0.2953125,-0.1828125,-0.1863281,-0.3199219,-0.1582031,-0.2566406,-0.1582031,-0.09492188
0.608,-0.09140625,0.07382813,0.00703125,-0.02109375,0.1019531,-0.06328125,0.02109375,0.1265625
0.609,0.1054688,0.3199219,0.1933594,0.2566406,0.3445313,0.1160156,0.1828125,0.3269531
0.61,0.3128906,0.5730469,0.3867188,0.5449219,0.5871094,0.2953125,0.3375,0.5132813
0.611,0.4464844,0.7347656,0.5097656,0.7242188,0.7347656,0.4007813,0.4359375,0.6257813
0.612,0.4921875,0.7769531,0.5414063,0.7699219,0.7523438,0.4183594,0.4394531,0.6363281
0.613,0.4746094,0.7417969,0.5097656,0.7277344,0.6855469,0.3867188,0.3761719,0.5871094
0.614,0.4324219,0.6714844,0.4605469,0.6363281,0.5871094,0.3445313,0.3058594,0.5132813
0.615,0.365625,0.5449219,0.3867188,0.478125,0.4359375,0.2742188,0.225,0.4113281
0.616,0.28125,0.39375,0.3023438,0.2882813,0.2742188,0.1898438,0.1371094,0.3023438
0.617,0.1933594,0.2496094,0.2179688,0.1089844,0.1300781,0.1089844,0.05976563,0.196875
0.618,0.06679688,0.0703125,0.1019531,-0.1019531,-0.03867188,-0.003515625,-0.02460938,0.06328125
0.619,-0.1265625,-0.1511719,-0.0703125,-0.3621094,-0.2496094,-0.1828125,-0.1617188,-0.1160156
0.62,-0.3726563,-0.39375,-0.2917969,-0.6152344,-0.4710938,-0.3902344,-0.3304688,-0.3164063
0.621,-0.5308594,-0.5308594,-0.4289063,-0.7382813,-0.5730469,-0.50625,-0.4148438,-0.4148438
0.622,-0.5484375,-0.5167969,-0.4359375,-0.7101563,-0.534375,-0.50625,-0.3972656,-0.3902344
0.623,-0.4359375,-0.3585938,-0.3234375,-0.5308594,-0.3550781,-0.3902344,-0.2847656,-0.2566406
0.624,-0.2320313,-0.0984375,-0.1265625,-0.2285156,-0.07382813,-0.1933594,-0.09492188,-0.03515625
0.625,-0.00703125,0.1652344,0.08085938,0.0703125,0.2003906,0.003515625,0.09140625,0.1898438
0.626,0.2285156,0.4535156,0.3023438,0.3832031,0.4746094,0.2109375,0.2742188,0.4148438
0.627,0.4007813,0.675,0.4640625,0.6328125,0.6785156,0.365625,0.4007813,0.5730469
0.628,0.4464844,0.7417969,0.5027344,0.7242188,0.73125,0.4148438,0.421875,0.6082031
0.629,0.4429688,0.73125,0.4886719,0.7207031,0.6925781,0.3972656,0.3832031,0.5835938
0.63,0.4359375,0.6960938,0.4710938,0.675,0.6257813,0.3726563,0.3304688,0.5414063
0.631,0.4042969,0.6152344,0.4289063,0.5730469,0.5308594,0.3269531,0.2742188,0.4675781
0.632,0.3515625,0.4957031,0.3691406,0.4078125,0.3867188,0.2601563,0.2039063,0.3691406
0.633,0.3128906,0.3867188,0.3234375,0.253125,0.2636719,0.2039063,0.1511719,0.2847656
0.634,0.2039063,0.225,0.225,0.05976563,0.1054688,0.1054688,0.06679688,0.16875
0.635,-0.003515625,-0.02109375,0.03515625,-0.2144531,-0.1230469,-0.06328125,-0.07382813,-0.01757813
0.636,-0.2566406,-0.2882813,-0.1933594,-0.5027344,-0.3726563,-0.2777344,-0.2566406,-0.2355469
0.637,-0.4710938,-0.4921875,-0.3796875,-0.7066406,-0.5449219,-0.4570313,-0.3972656,-0.4007813
0.638,-0.5695313,-0.5589844,-0.4570313,-0.7664063,-0.5835938,-0.5203125,-0.4359375,-0.4429688
0.639,-0.5273438,-0.4851563,-0.4148438,-0.6714844,-0.4886719,-0.4710938,-0.3726563,-0.365625
0.64,-0.3339844,-0.2496094,-0.2355469,-0.4042969,-0.2320313,-0.2953125,-0.196875,-0.1582031
0.641,-0.1195313,0.01757813,-0.028125,-0.09492188,0.04570313,-0.09140625,0,0.0703125
0.642,0.0421875,0.2355469,0.1300781,0.1582031,0.2671875,0.0703125,0.1335938,0.2496094
0.643,0.2355469,0.478125,0.309375,0.4394531,0.5027344,0.2425781,0.2777344,0.4429688
0.644,0.3796875,0.6609375,0.4429688,0.6433594,0.6679688,0.3691406,0.3832031,0.5730469
0.645,0.4148438,0.703125,0.4675781,0.6960938,0.6925781,0.3902344,0.3867188,0.5800781
0.646,0.4253906,0.6960938,0.4640625,0.6820313,0.6574219,0.3761719,0.3480469,0.5484375
0.647,0.4535156,0.6925781,0.478125,0.6539063,0.6257813,0.3796875,0.3269531,0.5273438
0.648,0.421875,0.6082031,0.4429688,0.5414063,0.5167969,0.3339844,0.2671875,0.4570313
0.649,0.3199219,0.4429688,0.3410156,0.3375,0.3339844,0.2390625,0.1652344,0.3269531
0.65,0.225,0.2882813,0.2496094,0.1476563,0.1722656,0.1476563,0.07734375,0.2074219
0.651,0.09140625,0.1054688,0.1265625,-0.06328125,0,0.03164063,-0.0140625,0.07382813
0.652,-0.1125,-0.1441406,-0.06328125,-0.3375,-0.2320313,-0.1441406,-0.1582031,-0.1125
0.653,-0.3515625,-0.39375,-0.28125,-0.5976563,-0.4570313,-0.3515625,-0.3234375,-0.3164063
0.654,-0.4921875,-0.5167969,-0.4007813,-0.7242188,-0.5519531,-0.4675781,-0.4007813,-0.4148438
0.655,-0.5132813,-0.5097656,-0.4113281,-0.7171875,-0.5238281,-0.4710938,-0.3902344,-0.39375
0.656,-0.4640625,-0.4183594,-0.3550781,-0.6046875,-0.4148438,-0.4113281,-0.3269531,-0.309375
0.657,-0.2988281,-0.1933594,-0.1933594,-0.3375,-0.1652344,-0.2390625,-0.1617188,-0.1125
0.658,-0.0984375,0.05976563,0,-0.03867188,0.09492188,-0.04570313,0.0140625,0.1089844
0.659,0.09140625,0.3023438,0.1792969,0.2390625,0.3339844,0.1300781,0.1652344,0.3058594
0.66,0.2917969,0.5519531,0.365625,0.5238281,0.5695313,0.309375,0.3164063,0.4921875
0.661,0.4324219,0.7207031,0.4957031,0.7066406,0.7171875,0.421875,0.4148438,0.6117188
0.662,0.478125,0.7699219,0.534375,0.7523438,0.7347656,0.45,0.4253906,0.6222656
0.663,0.4605469,0.7347656,0.50625,0.7101563,0.6679688,0.4183594,0.3621094,0.5660156
0.664,0.4253906,0.6574219,0.4605469,0.6152344,0.5695313,0.3691406,0.2953125,0.4921875
0.665,0.3621094,0.534375,0.39375,0.4605469,0.4253906,0.2988281,0.2144531,0.3867188
0.666,0.28125,0.3867188,0.309375,0.2707031,0.2671875,0.2144531,0.1265625,0.2742188
0.667,0.1933594,0.2390625,0.225,0.09140625,0.1230469,0.1265625,0.04921875,0.1652344
0.668,0.0703125,0.05976563,0.1125,-0.1195313,-0.04570313,0.0140625,-0.03164063,0.03515625
0.669,-0.1230469,-0.1617188,-0.06328125,-0.3761719,-0.2601563,-0.1582031,-0.1652344,-0.1371094
0.67,-0.3726563,-0.4042969,-0.2847656,-0.6222656,-0.4816406,-0.365625,-0.3339844,-0.3375
0.671,-0.5273438,-0.5378906,-0.4183594,-0.7453125,-0.5800781,-0.478125,-0.4183594,-0.4324219
0.672,-0.5414063,-0.5167969,-0.421875,-0.7101563,-0.534375,-0.4675781,-0.3972656,-0.4007813
0.673,-0.4289063,-0.3585938,-0.3128906,-0.5203125,-0.3515625,-0.3550781,-0.28125,-0.2566406
0.674,-0.2179688,-0.09492188,-0.1125,-0.2214844,-0.07382813,-0.1546875,-0.09140625,-0.028125
0.675,0,0.1757813,0.0984375,0.07734375,0.1933594,0.04921875,0.09140625,0.1898438
0.676,0.2320313,0.4605469,0.3164063,0.3902344,0.4675781,0.2496094,0.2742188,0.4113281
0.677,0.4007813,0.675,0.4675781,0.6398438,0.6679688,0.4078125,0.4007813,0.5730469
0.678,0.4394531,0.7382813,0.4992188,0.7277344,0.7207031,0.4464844,0.4183594,0.6082031
0.679,0.4324219,0.7207031,0.4816406,0.7207031,0.6820313,0.421875,0.3796875,0.5765625
0.68,0.4253906,0.6890625,0.4640625,0.675,0.61875,0.4007813,0.3304688,0.5378906
0.681,0.3902344,0.6152344,0.421875,0.5730469,0.5132813,0.3550781,0.2707031,0.4640625
0.682,0.3339844,0.4886719,0.3585938,0.4042969,0.365625,0.2847656,0.1933594,0.365625
0.683,0.2953125,0.3796875,0.3128906,0.2496094,0.2425781,0.2320313,0.140625,0.2847656
0.684,0.1792969,0.2179688,0.2109375,0.04921875,0.07734375,0.1335938,0.05273438,0.1652344
0.685,-0.03164063,-0.03515625,0.01757813,-0.2320313,-0.1617188,-0.0421875,-0.0984375,-0.02460938
0.686,-0.28125,-0.309375,-0.2074219,-0.5203125,-0.4078125,-0.2671875,-0.2777344,-0.2496094
0.687,-0.4921875,-0.5097656,-0.39375,-0.7242188,-0.5765625,-0.4464844,-0.4148438,-0.4148438
0.688,-0.5800781,-0.5660156,-0.4675781,-0.7769531,-0.6046875,-0.50625,-0.45,-0.45
0.689,-0.5308594,-0.4851563,-0.4148438,-0.675,-0.4992188,-0.45,-0.3867188,-0.365625
0.69,-0.3304688,-0.2355469,-0.2214844,-0.3902344,-0.2355469,-0.2636719,-0.196875,-0.140625
0.691,-0.1054688,0.03867188,-0.00703125,-0.07382813,0.04921875,-0.04921875,0,0.0984375
0.692,0.05273438,0.253125,0.1476563,0.1722656,0.2601563,0.1054688,0.1335938,0.2707031
0.693,0.2355469,0.4886719,0.3199219,0.4359375,0.4886719,0.2742188,0.2742188,0.4464844
0.694,0.3761719,0.6679688,0.4535156,0.6398438,0.6574219,0.4007813,0.3796875,0.5765625
0.695,0.4113281,0.7171875,0.4816406,0.6960938,0.6820313,0.4253906,0.3902344,0.590625
0.696,0.421875,0.703125,0.4746094,0.6820313,0.6398438,0.4078125,0.3550781,0.5589844
0.697,0.4535156,0.6960938,0.4886719,0.6539063,0.6082031,0.4042969,0.3375,0.5414063
0.698,0.4253906,0.6152344,0.45,0.5414063,0.5027344,0.365625,0.2847656,0.4710938
0.699,0.3234375,0.45,0.3480469,0.3375,0.3164063,0.2671875,0.1792969,0.3339844
0.7,0.225,0.2953125,0.253125,0.1476563,0.1546875,0.1757813,0.09140625,0.2109375
0.701,0.09140625,0.1160156,0.1300781,-0.06679688,-0.01757813,0.06328125,-0.003515625,0.08085938
0.702,-0.1160156,-0.1335938,-0.05976563,-0.3410156,-0.2496094,-0.1125,-0.1511719,-0.1054688
0.703,-0.3585938,-0.3832031,-0.2777344,-0.6011719,-0.4746094,-0.3234375,-0.3164063,-0.3058594
0.704,-0.4957031,-0.4992188,-0.3902344,-0.7277344,-0.5695313,-0.4359375,-0.3902344,-0.4007813
0.705,-0.5167969,-0.4886719,-0.4007813,-0.7101563,-0.5414063,-0.4394531,-0.3796875,-0.3796875
0.706,-0.4675781,-0.4007813,-0.3445313,-0.5871094,-0.4289063,-0.3726563,-0.3164063,-0.28125
0.707,-0.2988281,-0.1757813,-0.1828125,-0.3164063,-0.1792969,-0.2003906,-0.1511719,-0.08085938
0.708,-0.09140625,0.07734375,0.01054688,-0.02460938,0.08085938,-0.00703125,0.03164063,0.1335938
0.709,0.1019531,0.3199219,0.1933594,0.253125,0.3199219,0.1652344,0.1898438,0.3234375
0.71,0.3023438,0.5660156,0.3796875,0.534375,0.5554688,0.3375,0.3339844,0.50625
0.711,0.4429688,0.73125,0.5132813,0.7066406,0.6996094,0.4464844,0.4253906,0.6222656
0.712,0.4851563,0.7734375,0.5414063,0.7523438,0.7101563,0.4675781,0.4289063,0.6363281
0.713,0.4570313,0.7382813,0.5027344,0.703125,0.6398438,0.4359375,0.365625,0.5835938
0.714,0.4113281,0.6609375,0.4535156,0.6082031,0.5378906,0.3902344,0.2953125,0.5097656
0.715,0.3480469,0.534375,0.3832031,0.4464844,0.3902344,0.3164063,0.2144531,0.4042969
0.716,0.2671875,0.3832031,0.2988281,0.2566406,0.2320313,0.2320313,0.1230469,0.2847656
0.717,0.1757813,0.2320313,0.2109375,0.07734375,0.08789063,0.1511719,0.04570313,0.1757813
0.718,0.04570313,0.05273438,0.09492188,-0.140625,-0.07734375,0.03164063,-0.03867188,0.0421875
0.719,-0.1476563,-0.1722656,-0.08085938,-0.3972656,-0.2953125,-0.1441406,-0.1722656,-0.1335938
0.72,-0.3972656,-0.4148438,-0.3023438,-0.6398438,-0.5097656,-0.3480469,-0.3410156,-0.3304688
0.721,-0.5484375,-0.5378906,-0.4289063,-0.7558594,-0.6011719,-0.4605469,-0.4289063,-0.421875
0.722,-0.5625,-0.5203125,-0.4359375,-0.7242188,-0.5554688,-0.4535156,-0.4113281,-0.3972656
0.723,-0.45,-0.365625,-0.3269531,-0.534375,-0.3726563,-0.3375,-0.2953125,-0.253125
0.724,-0.2390625,-0.0984375,-0.1265625,-0.225,-0.09140625,-0.1335938,-0.1019531,-0.02109375
0.725,-0.02109375,0.1652344,0.07382813,0.0703125,0.1722656,0.06328125,0.084375,0.196875
0.726,0.2109375,0.4535156,0.2953125,0.3796875,0.4464844,0.2671875,0.2707031,0.4253906
0.727,0.3761719,0.6644531,0.4535156,0.61875,0.6363281,0.4148438,0.3902344,0.5835938
0.728,0.4148438,0.7207031,0.4816406,0.6925781,0.6785156,0.4464844,0.4042969,0.6046875
0.729,0.4148438,0.7066406,0.4675781,0.6855469,0.6433594,0.4289063,0.365625,0.5730469
0.73,0.4078125,0.675,0.45,0.6433594,0.5871094,0.4042969,0.3164063,0.534375
0.731,0.3726563,0.5941406,0.4078125,0.5414063,0.4816406,0.3585938,0.2566406,0.4640625
0.732,0.3199219,0.4746094,0.3480469,0.3726563,0.3375,0.2917969,0.1828125,0.365625
0.733,0.28125,0.365625,0.2988281,0.2179688,0.2214844,0.2285156,0.1371094,0.28125
0.734,0.1757813,0.2039063,0.196875,0.02109375,0.06328125,0.1300781,0.05976563,0.1617188
0.735,-0.028125,-0.03515625,0.01054688,-0.2601563,-0.1722656,-0.03515625,-0.084375,-0.02460938
0.736,-0.2777344,-0.2988281,-0.2039063,-0.5484375,-0.4183594,-0.253125,-0.2671875,-0.2425781
0.737,-0.4886719,-0.4992188,-0.3902344,-0.7453125,-0.5871094,-0.4289063,-0.4042969,-0.4042969
0.738,-0.5800781,-0.5554688,-0.4640625,-0.7875,-0.61875,-0.4816406,-0.4324219,-0.4359375
0.739,-0.5378906,-0.4710938,-0.4183594,-0.6890625,-0.5203125,-0.4253906,-0.3691406,-0.3480469
0.74,-0.3410156,-0.2285156,-0.2285156,-0.421875,-0.2601563,-0.2460938,-0.1933594,-0.140625
0.741,-0.1195313,0.0421875,-0.01757813,-0.1089844,0.02460938,-0.03867188,0,0.08789063
0.742,0.04570313,0.2601563,0.1441406,0.1476563,0.2425781,0.1230469,0.140625,0.2671875
0.743,0.2390625,0.5027344,0.3269531,0.421875,0.4746094,0.2953125,0.2882813,0.4535156
0.744,0.3761719,0.6785156,0.4570313,0.6257813,0.6363281,0.4183594,0.3867188,0.5800781
0.745,0.4042969,0.7171875,0.478125,0.6820313,0.6609375,0.4359375,0.3867188,0.5941406
0.746,0.4148438,0.7171875,0.4746094,0.6679688,0.6257813,0.4253906,0.3480469,0.5660156
0.747,0.4464844,0.7171875,0.4921875,0.6398438,0.5871094,0.4289063,0.3339844,0.5449219
0.748,0.4183594,0.6328125,0.45,0.5167969,0.4816406,0.3832031,0.28125,0.4675781
0.749,0.3164063,0.4570313,0.3445313,0.309375,0.2988281,0.28125,0.1722656,0.3304688
0.75,0.2179688,0.2988281,0.2496094,0.1160156,0.1335938,0.1863281,0.08085938,0.2074219
0.751,0.08085938,0.1160156,0.1265625,-0.1019531,-0.04570313,0.0703125,-0.01054688,0.07382813
0.752,-0.1300781,-0.1300781,-0.06328125,-0.3761719,-0.2777344,-0.1089844,-0.1582031,-0.1125
0.753,-0.365625,-0.3761719,-0.2777344,-0.6292969,-0.4957031,-0.309375,-0.3269531,-0.3058594
0.754,-0.4992188,-0.4957031,-0.3902344,-0.7417969,-0.5835938,-0.421875,-0.3972656,-0.3972656
0.755,-0.5167969,-0.4851563,-0.4007813,-0.7242188,-0.5484375,-0.4289063,-0.3726563,-0.3761719
0.756,-0.4570313,-0.3832031,-0.3410156,-0.5976563,-0.4253906,-0.3550781,-0.3023438,-0.2777344
0.757,-0.28125,-0.1476563,-0.16875,-0.3234375,-0.16875,-0.1757813,-0.1371094,-0.0703125
0.758,-0.07734375,0.1054688,0.02109375,-0.03164063,0.09140625,0.0140625,0.03515625,0.1476563
0.759,0.1054688,0.3445313,0.196875,0.2425781,0.3304688,0.1898438,0.1863281,0.3375
0.76,0.3023438,0.5871094,0.3796875,0.5167969,0.5589844,0.365625,0.3339844,0.5167969
0.761,0.4429688,0.7523438,0.50625,0.6960938,0.7066406,0.4746094,0.4289063,0.6328125
0.762,0.4886719,0.7945313,0.5414063,0.7417969,0.7277344,0.4886719,0.4324219,0.646875
0.763,0.4640625,0.7523438,0.5097656,0.6960938,0.6539063,0.4570313,0.3691406,0.590625
0.764,0.4253906,0.675,0.4605469,0.6011719,0.5484375,0.4078125,0.2988281,0.5167969
0.765,0.3621094,0.5449219,0.3867188,0.4394531,0.4007813,0.3375,0.2144531,0.4113281
0.766,0.2777344,0.39375,0.3023438,0.2496094,0.2390625,0.253125,0.1265625,0.3023438
0.767,0.1863281,0.2460938,0.2144531,0.07382813,0.09140625,0.16875,0.05625,0.1933594
0.768,0.05273438,0.0703125,0.09492188,-0.1441406,-0.08085938,0.04921875,-0.03515625,0.05976563
0.769,-0.140625,-0.1546875,-0.08085938,-0.4007813,-0.2917969,-0.1265625,-0.1757813,-0.1230469
0.77,-0.3867188,-0.39375,-0.2988281,-0.6433594,-0.5027344,-0.3375,-0.3410156,-0.3234375
0.771,-0.5378906,-0.5167969,-0.4289063,-0.7628906,-0.5976563,-0.4535156,-0.421875,-0.4183594
0.772,-0.5449219,-0.4921875,-0.4289063,-0.7242188,-0.5519531,-0.4429688,-0.39375,-0.3832031
0.773,-0.4253906,-0.3269531,-0.3128906,-0.5273438,-0.3621094,-0.3164063,-0.2742188,-0.2320313
0.774,-0.2214844,-0.06679688,-0.1160156,-0.225,-0.08789063,-0.1195313,-0.084375,-0.00703125
0.775,-0.003515625,0.196875,0.084375,0.06679688,0.1722656,0.07382813,0.0984375,0.2109375
0.776,0.2355469,0.4851563,0.3128906,0.3796875,0.4535156,0.2847656,0.2847656,0.4394531
0.777,0.4042969,0.703125,0.4710938,0.6222656,0.6539063,0.4359375,0.4078125,0.6046875
0.778,0.4429688,0.7628906,0.5027344,0.703125,0.6960938,0.4710938,0.4183594,0.6363281
0.779,0.4359375,0.7453125,0.4851563,0.6890625,0.6574219,0.45,0.3761719,0.5976563
0.78,0.4253906,0.703125,0.4605469,0.6398438,0.590625,0.4148438,0.3269531,0.5449219
0.781,0.3867188,0.61875,0.4148438,0.5308594,0.4816406,0.3691406,0.2671875,0.4746094
0.782,0.3304688,0.4992188,0.3515625,0.3621094,0.3339844,0.3023438,0.1898438,0.3761719
0.783,0.2882813,0.3902344,0.3023438,0.2074219,0.2109375,0.2460938,0.1335938,0.2917969
0.784,0.1757813,0.2285156,0.2003906,0.01054688,0.04921875,0.1441406,0.04921875,0.16875
0.785,-0.03164063,-0.02460938,0.01054688,-0.2707031,-0.1828125,-0.03164063,-0.0984375,-0.028125
0.786,-0.28125,-0.2917969,-0.2144531,-0.5554688,-0.4253906,-0.2496094,-0.2777344,-0.253125
0.787,-0.4851563,-0.4921875,-0.3972656,-0.7488281,-0.5835938,-0.4253906,-0.4042969,-0.4113281
0.788,-0.5625,-0.5484375,-0.4675781,-0.7910156,-0.6046875,-0.4816406,-0.4359375,-0.4429688
0.789,-0.5167969,-0.4675781,-0.4113281,-0.6890625,-0.50625,-0.421875,-0.3761719,-0.3621094
0.79,-0.3164063,-0.2179688,-0.2179688,-0.4078125,-0.2425781,-0.2320313,-0.1898438,-0.140625
0.791,-0.09140625,0.05625,-0.003515625,-0.08789063,0.04570313,-0.02109375,0.01054688,0.09492188
0.792,0.0703125,0.2742188,0.1511719,0.1652344,0.2671875,0.1335938,0.1546875,0.2742188
0.793,0.253125,0.5132813,0.3234375,0.4359375,0.4921875,0.3023438,0.2953125,0.4535156
0.794,0.3867188,0.6925781,0.45,0.6328125,0.646875,0.4253906,0.3902344,0.5765625
0.795,0.421875,0.73125,0.478125,0.6820313,0.6679688,0.4429688,0.3867188,0.5871094
0.796,0.4324219,0.7171875,0.4746094,0.6679688,0.6363281,0.4253906,0.3515625,0.5554688
0.797,0.4605469,0.7066406,0.4851563,0.6363281,0.5976563,0.421875,0.3375,0.534375
0.798,0.4253906,0.61875,0.4394531,0.5132813,0.4851563,0.3726563,0.2777344,0.4640625
0.799,0.3199219,0.4464844,0.3339844,0.309375,0.3023438,0.2742188,0.1652344,0.3339844
0.8,0.2214844,0.2882813,0.2355469,0.1195313,0.140625,0.1792969,0.07734375,0.2179688
0.801,0.084375,0.1019531,0.1125,-0.0984375,-0.03515625,0.06328125,-0.01757813,0.07734375
0.802,-0.1265625,-0.140625,-0.07382813,-0.3796875,-0.2671875,-0.1125,-0.1652344,-0.1160156
0.803,-0.3585938,-0.3796875,-0.2847656,-0.6328125,-0.4851563,-0.3199219,-0.3269531,-0.3128906
0.804,-0.4886719,-0.4957031,-0.3972656,-0.7453125,-0.5695313,-0.4289063,-0.39375,-0.4007813
0.805,-0.5027344,-0.4851563,-0.4042969,-0.7207031,-0.5273438,-0.4359375,-0.3691406,-0.3796875
0.806,-0.4429688,-0.3902344,-0.3445313,-0.590625,-0.4007813,-0.3585938,-0.2988281,-0.2777344
0.807,-0.2707031,-0.1546875,-0.1722656,-0.3199219,-0.1511719,-0.1792969,-0.1371094,-0.0703125
0.808,-0.0703125,0.09492188,0.01757813,-0.02109375,0.1054688,0.00703125,0.03867188,0.1476563
0.809,0.1195313,0.3339844,0.2003906,0.2496094,0.3445313,0.1828125,0.1898438,0.3410156
0.81,0.3199219,0.5765625,0.3832031,0.5308594,0.5765625,0.3515625,0.3375,0.5238281
0.811,0.4605469,0.7382813,0.5097656,0.7101563,0.7207031,0.4640625,0.4324219,0.6328125
0.812,0.50625,0.7839844,0.5414063,0.7558594,0.7417969,0.4816406,0.4359375,0.6433594
0.813,0.4851563,0.7417969,0.5097656,0.703125,0.6714844,0.4464844,0.3796875,0.5835938
0.814,0.4359375,0.6574219,0.4570313,0.6011719,0.5660156,0.3972656,0.309375,0.50625
0.815,0.3691406,0.5273438,0.3796875,0.4359375,0.4078125,0.3234375,0.2214844,0.4042969
0.816,0.2917969,0.3796875,0.2953125,0.2460938,0.2496094,0.2390625,0.1335938,0.2882813
0.817,0.196875,0.2320313,0.2074219,0.05976563,0.0984375,0.1441406,0.05273438,0.1722656
0.818,0.05976563,0.04570313,0.084375,-0.1582031,-0.07734375,0.02109375,-0.0421875,0.03164063
0.819,-0.1335938,-0.1792969,-0.09140625,-0.4183594,-0.2953125,-0.1546875,-0.1757813,-0.1476563
0.82,-0.3832031,-0.4183594,-0.3128906,-0.6644531,-0.50625,-0.365625,-0.3375,-0.3480469
0.821,-0.5238281,-0.534375,-0.4324219,-0.7734375,-0.590625,-0.4710938,-0.421875,-0.4359375
0.822,-0.5203125,-0.5027344,-0.4183594,-0.7242188,-0.5273438,-0.4464844,-0.3902344,-0.39375
0.823,-0.39375,-0.3269531,-0.2953125,-0.5167969,-0.3339844,-0.3234375,-0.2671875,-0.2320313
0.824,-0.1898438,-0.06679688,-0.0984375,-0.2109375,-0.05625,-0.1195313,-0.08085938,0
0.825,0.02460938,0.1933594,0.1019531,0.08085938,0.2074219,0.07734375,0.1019531,0.2179688
0.826,0.2601563,0.478125,0.3199219,0.3902344,0.4816406,0.2777344,0.2847656,0.4394531
0.827,0.4253906,0.6890625,0.4710938,0.6257813,0.6714844,0.4253906,0.4007813,0.5941406
0.828,0.4605469,0.7453125,0.5027344,0.703125,0.7066406,0.4570313,0.4113281,0.6222656
0.829,0.4535156,0.73125,0.4886719,0.6890625,0.6679688,0.4324219,0.3691406,0.5871094
0.83,0.4429688,0.6960938,0.4675781,0.6398438,0.6046875,0.4042969,0.3234375,0.5378906
0.831,0.4042969,0.6152344,0.421875,0.5308594,0.4992188,0.3585938,0.2601563,0.4605469
0.832,0.3515625,0.4921875,0.3585938,0.3621094,0.3550781,0.2917969,0.1828125,0.3621094
0.833,0.3128906,0.3832031,0.3164063,0.2109375,0.2355469,0.2285156,0.1371094,0.2777344
0.834,0.2003906,0.2179688,0.2074219,0.0140625,0.07382813,0.1300781,0.05273438,0.1546875
0.835,-0.0140625,-0.03515625,0.00703125,-0.2671875,-0.16875,-0.04570313,-0.09140625,-0.03515625
0.836,-0.2742188,-0.3058594,-0.225,-0.5484375,-0.4183594,-0.2636719,-0.2707031,-0.2496094
0.837,-0.4816406,-0.4992188,-0.4078125,-0.7417969,-0.5835938,-0.4359375,-0.4042969,-0.4113281
0.838,-0.5625,-0.5519531,-0.4710938,-0.7875,-0.6082031,-0.4921875,-0.4359375,-0.4464844
0.839,-0.5027344,-0.4570313,-0.4078125,-0.6785156,-0.4957031,-0.4253906,-0.3691406,-0.3550781
0.84,-0.2953125,-0.2039063,-0.2109375,-0.3902344,-0.2214844,-0.2355469,-0.1792969,-0.1265625
0.841,-0.07734375,0.06328125,-0.003515625,-0.07382813,0.05976563,-0.028125,0.0140625,0.1089844
0.842,0.08789063,0.2847656,0.1546875,0.1828125,0.2777344,0.1335938,0.1582031,0.2847656
0.843,0.28125,0.5273438,0.3339844,0.4605469,0.5132813,0.3058594,0.3023438,0.4675781
0.844,0.4113281,0.6925781,0.4570313,0.646875,0.6609375,0.4148438,0.3902344,0.5835938
0.845,0.4324219,0.7207031,0.4675781,0.6855469,0.6679688,0.4253906,0.3796875,0.5871094
0.846,0.4394531,0.7101563,0.4605469,0.6679688,0.6292969,0.4148438,0.3445313,0.5554688
0.847,0.4710938,0.703125,0.4746094,0.6363281,0.5941406,0.4078125,0.3304688,0.5273438
0.848,0.4359375,0.6152344,0.4359375,0.5097656,0.4816406,0.3550781,0.2671875,0.4429688
0.849,0.3339844,0.4394531,0.3304688,0.2988281,0.2953125,0.253125,0.1617188,0.309375
0.85,0.2390625,0.2777344,0.2320313,0.1125,0.1335938,0.1617188,0.07734375,0.196875
0.851,0.1054688,0.09492188,0.1089844,-0.0984375,-0.0421875,0.04570313,-0.0140625,0.06679688
0.852,-0.1054688,-0.1511719,-0.07734375,-0.3761719,-0.2742188,-0.1371094,-0.1617188,-0.1230469
0.853,-0.3445313,-0.3902344,-0.2917969,-0.6328125,-0.4921875,-0.3445313,-0.3269531,-0.3269531
0.854,-0.4746094,-0.4957031,-0.4007813,-0.7453125,-0.5765625,-0.45,-0.3972656,-0.4078125
0.855,-0.4851563,-0.478125,-0.4007813,-0.7207031,-0.534375,-0.4464844,-0.3761719,-0.3796875
0.856,-0.4253906,-0.3691406,-0.3339844,-0.5871094,-0.4113281,-0.3691406,-0.3023438,-0.2742188
0.857,-0.253125,-0.1335938,-0.1652344,-0.309375,-0.1546875,-0.1898438,-0.1371094,-0.06679688
0.858,-0.04921875,0.1125,0.02460938,-0.01757813,0.1054688,0,0.03867188,0.140625
0.859,0.1441406,0.3585938,0.2109375,0.2636719,0.3515625,0.1722656,0.2039063,0.3375
0.86,0.3445313,0.6046875,0.39375,0.5414063,0.5871094,0.3445313,0.3515625,0.5273438
0.861,0.4675781,0.7558594,0.5097656,0.7101563,0.7171875,0.45,0.4394531,0.6328125
0.862,0.50625,0.7910156,0.5378906,0.7488281,0.7277344,0.4675781,0.4394531,0.6433594
0.863,0.4886719,0.7488281,0.50625,0.703125,0.6609375,0.4359375,0.3867188,0.590625
0.864,0.4464844,0.6714844,0.4535156,0.6082031,0.5554688,0.3867188,0.3199219,0.5167969
0.865,0.3796875,0.5414063,0.3796875,0.4394531,0.4007813,0.3164063,0.2320313,0.4113281
0.866,0.2953125,0.39375,0.2953125,0.2496094,0.2320313,0.2320313,0.1441406,0.3023438
0.867,0.2003906,0.2460938,0.2074219,0.06679688,0.08085938,0.1441406,0.06679688,0.1933594
0.868,0.06328125,0.05625,0.084375,-0.1546875,-0.09492188,0.02109375,-0.02109375,0.05625
0.869,-0.1371094,-0.1757813,-0.1054688,-0.4113281,-0.3128906,-0.1617188,-0.1652344,-0.1230469
0.87,-0.3796875,-0.4113281,-0.3199219,-0.646875,-0.5167969,-0.365625,-0.3339844,-0.3164063
0.871,-0.5167969,-0.5203125,-0.4359375,-0.7453125,-0.5976563,-0.4710938,-0.4078125,-0.4007813
0.872,-0.5167969,-0.4851563,-0.4253906,-0.6996094,-0.5414063,-0.45,-0.3796875,-0.3621094
0.873,-0.3902344,-0.3128906,-0.3023438,-0.4957031,-0.3515625,-0.3234375,-0.2566406,-0.2074219
0.874,-0.1863281,-0.04921875,-0.1054688,-0.1898438,-0.07382813,-0.1230469,-0.06679688,0.01757813
0.875,0.02460938,0.2144531,0.09492188,0.0984375,0.1863281,0.0703125,0.1089844,0.2390625
0.876,0.2601563,0.4957031,0.3128906,0.4042969,0.4605469,0.2707031,0.2882813,0.4535156
0.877,0.4253906,0.6960938,0.4640625,0.6363281,0.6503906,0.4113281,0.4078125,0.6011719
0.878,0.4640625,0.7523438,0.4957031,0.7101563,0.6925781,0.4394531,0.4148438,0.6222656
0.879,0.4605469,0.7417969,0.4851563,0.6996094,0.6539063,0.421875,0.3691406,0.5871094
0.88,0.4570313,0.7066406,0.4640625,0.6539063,0.590625,0.3972656,0.3234375,0.5449219
0.881,0.4148438,0.61875,0.4148438,0.5449219,0.4851563,0.3480469,0.2601563,0.4746094
0.882,0.3550781,0.4921875,0.3515625,0.3726563,0.3375,0.28125,0.1828125,0.3761719
0.883,0.3164063,0.3832031,0.3058594,0.2214844,0.2179688,0.2285156,0.1371094,0.2953125
0.884,0.2039063,0.2179688,0.2039063,0.02109375,0.05273438,0.1300781,0.05625,0.1757813
0.885,-0.01054688,-0.03515625,0.01054688,-0.2601563,-0.1828125,-0.04921875,-0.09140625,-0.02109375
0.886,-0.2636719,-0.3058594,-0.2179688,-0.5414063,-0.4289063,-0.2671875,-0.2742188,-0.2425781
0.887,-0.4675781,-0.4992188,-0.4007813,-0.7277344,-0.5835938,-0.4289063,-0.4007813,-0.39375
0.888,-0.5449219,-0.5449219,-0.4675781,-0.7664063,-0.6046875,-0.4816406,-0.4253906,-0.4183594
0.889,-0.4886719,-0.45,-0.4042969,-0.6574219,-0.4886719,-0.4148438,-0.3515625,-0.3234375
0.89,-0.2742188,-0.1863281,-0.196875,-0.365625,-0.2109375,-0.225,-0.1582031,-0.0984375
0.891,-0.04570313,0.0984375,0.02460938,-0.04921875,0.07734375,-0.01757813,0.04570313,0.1371094
0.892,0.1160156,0.3164063,0.1828125,0.2039063,0.2953125,0.1371094,0.1898438,0.3234375
0.893,0.2988281,0.5484375,0.3515625,0.4710938,0.5238281,0.3058594,0.3234375,0.5027344
0.894,0.4359375,0.7207031,0.4746094,0.6679688,0.6820313,0.4289063,0.421875,0.6292969
0.895,0.4675781,0.7628906,0.5027344,0.7207031,0.703125,0.4570313,0.4253906,0.6433594
0.896,0.4746094,0.7488281,0.4957031,0.6960938,0.6644531,0.4359375,0.3832031,0.6082031
0.897,0.4992188,0.7277344,0.5027344,0.6574219,0.6222656,0.421875,0.3621094,0.5800781
0.898,0.4535156,0.6328125,0.45,0.5273438,0.4992188,0.3761719,0.2953125,0.5027344
0.899,0.3410156,0.4605469,0.3375,0.3128906,0.3058594,0.2777344,0.1828125,0.365625
0.9,0.2355469,0.2988281,0.2355469,0.1230469,0.140625,0.1828125,0.09140625,0.2496094
0.901,0.0984375,0.1089844,0.1089844,-0.09492188,-0.0421875,0.05976563,-0.003515625,0.1054688
0.902,-0.1089844,-0.1371094,-0.07734375,-0.3761719,-0.2742188,-0.1265625,-0.1511719,-0.08789063
0.903,-0.3410156,-0.3761719,-0.2882813,-0.6292969,-0.4886719,-0.3339844,-0.3164063,-0.2917969
0.904,-0.4640625,-0.4851563,-0.39375,-0.7347656,-0.5660156,-0.4429688,-0.3761719,-0.3796875
0.905,-0.4710938,-0.4640625,-0.39375,-0.703125,-0.5203125,-0.4394531,-0.3480469,-0.3480469
0.906,-0.4042969,-0.3550781,-0.3234375,-0.5660156,-0.39375,-0.3585938,-0.2742188,-0.2460938
0.907,-0.2285156,-0.1230469,-0.1476563,-0.2882813,-0.140625,-0.1792969,-0.1054688,-0.03867188
0.908,-0.02460938,0.1230469,0.03867188,0.003515625,0.1160156,0.00703125,0.0703125,0.1722656
0.909,0.1582031,0.3585938,0.2144531,0.2742188,0.3515625,0.1828125,0.2179688,0.3621094
0.91,0.3480469,0.5976563,0.3902344,0.5414063,0.5800781,0.3515625,0.3515625,0.5378906
0.911,0.4816406,0.7558594,0.5167969,0.7136719,0.7171875,0.4605469,0.4429688,0.646875
0.912,0.5273438,0.7945313,0.5484375,0.7488281,0.7277344,0.478125,0.4535156,0.6574219
0.913,0.5027344,0.7453125,0.5097656,0.6996094,0.6503906,0.4394531,0.3902344,0.5976563
0.914,0.4464844,0.6574219,0.4535156,0.5976563,0.5449219,0.3902344,0.3128906,0.5203125
0.915,0.3796875,0.5273438,0.3796875,0.4289063,0.3867188,0.3164063,0.225,0.4148438
0.916,0.3023438,0.3832031,0.2988281,0.2425781,0.2285156,0.2320313,0.140625,0.3058594
0.917,0.2074219,0.2285156,0.2109375,0.05976563,0.08085938,0.140625,0.06328125,0.1933594
0.918,0.06328125,0.03164063,0.07734375,-0.16875,-0.1054688,0.0140625,-0.03515625,0.04570313
0.919,-0.140625,-0.196875,-0.1089844,-0.4289063,-0.3199219,-0.1652344,-0.1792969,-0.1335938
0.92,-0.3796875,-0.4253906,-0.3199219,-0.6609375,-0.5238281,-0.3621094,-0.3410156,-0.3234375
0.921,-0.5238281,-0.5414063,-0.4394531,-0.7699219,-0.6082031,-0.4640625,-0.4183594,-0.4078125
0.922,-0.5238281,-0.5097656,-0.4324219,-0.7207031,-0.5484375,-0.4464844,-0.3902344,-0.365625
0.923,-0.39375,-0.3339844,-0.309375,-0.5097656,-0.3480469,-0.3199219,-0.2566406,-0.2074219
0.924,-0.1863281,-0.06328125,-0.1089844,-0.2039063,-0.06328125,-0.1160156,-0.05976563,0.02109375
0.925,0.03164063,0.2003906,0.09492188,0.09140625,0.2074219,0.07734375,0.1265625,0.2425781
0.926,0.2742188,0.4816406,0.3128906,0.4042969,0.4851563,0.2777344,0.3128906,0.4605469
0.927,0.4324219,0.6855469,0.4640625,0.6328125,0.6679688,0.4253906,0.4183594,0.6046875
0.928,0.4640625,0.7347656,0.4957031,0.6996094,0.6996094,0.4535156,0.4253906,0.6257813
0.929,0.4640625,0.7277344,0.4851563,0.6855469,0.6609375,0.4324219,0.3832031,0.590625
0.93,0.4605469,0.6960938,0.4710938,0.6398438,0.5976563,0.4078125,0.3410156,0.5449219
0.931,0.421875,0.6152344,0.4253906,0.534375,0.4851563,0.3621094,0.28125,0.4816406
0.932,0.365625,0.4886719,0.3621094,0.3691406,0.3339844,0.2953125,0.2039063,0.3867188
0.933,0.3269531,0.3796875,0.3164063,0.2214844,0.2144531,0.2390625,0.1546875,0.3058594
0.934,0.2144531,0.2144531,0.2109375,0.02109375,0.05273438,0.140625,0.0703125,0.1828125
0.935,0,-0.03867188,0.0140625,-0.2601563,-0.1863281,-0.03867188,-0.07734375,-0.00703125
0.936,-0.2496094,-0.3128906,-0.2109375,-0.5414063,-0.4324219,-0.2601563,-0.253125,-0.2285156
0.937,-0.45,-0.4957031,-0.3832031,-0.7242188,-0.5835938,-0.421875,-0.3761719,-0.3761719
0.938,-0.5238281,-0.5378906,-0.4359375,-0.7628906,-0.6011719,-0.4675781,-0.4007813,-0.4007813
0.939,-0.4675781,-0.4429688,-0.3761719,-0.6503906,-0.4816406,-0.4007813,-0.3304688,-0.3058594
0.94,-0.2566406,-0.1828125,-0.1757813,-0.3621094,-0.2039063,-0.2109375,-0.1371094,-0.08085938
0.941,-0.03515625,0.09140625,0.028125,-0.04921875,0.07382813,-0.003515625,0.05273438,0.1476563
0.942,0.1230469,0.3058594,0.1863281,0.2003906,0.2917969,0.1582031,0.1898438,0.3234375
0.943,0.3128906,0.5449219,0.3585938,0.4746094,0.5238281,0.3269531,0.3269531,0.50625
0.944,0.4359375,0.6996094,0.4710938,0.6574219,0.6644531,0.4359375,0.4113281,0.6152344
0.945,0.45,0.7242188,0.4816406,0.6890625,0.6644531,0.4429688,0.3972656,0.6117188
0.946,0.4570313,0.7101563,0.4746094,0.6714844,0.6222656,0.4289063,0.3550781,0.5765625
0.947,0.4816406,0.6996094,0.4851563,0.6328125,0.5765625,0.4253906,0.3339844,0.5554688
0.948,0.4429688,0.6117188,0.4394531,0.5097656,0.4605469,0.3796875,0.2777344,0.4816406
0.949,0.3445313,0.4394531,0.3375,0.309375,0.28125,0.28125,0.1792969,0.3550781
0.95,0.2496094,0.28125,0.2425781,0.1265625,0.1265625,0.1863281,0.09492188,0.2390625
0.951,0.1089844,0.09140625,0.1195313,-0.09140625,-0.05273438,0.06328125,0,0.09492188
0.952,-0.1089844,-0.1582031,-0.07734375,-0.3726563,-0.2953125,-0.1195313,-0.1546875,-0.0984375
0.953,-0.3445313,-0.4007813,-0.2882813,-0.6222656,-0.5097656,-0.3269531,-0.3128906,-0.2917969
0.954,-0.4605469,-0.5027344,-0.3902344,-0.7242188,-0.5800781,-0.4289063,-0.3691406,-0.3691406
0.955,-0.4640625,-0.4816406,-0.3867188,-0.6890625,-0.5308594,-0.421875,-0.3375,-0.3339844
0.956,-0.3972656,-0.3691406,-0.3199219,-0.5519531,-0.3972656,-0.3410156,-0.2566406,-0.2320313
0.957,-0.225,-0.1335938,-0.1476563,-0.2777344,-0.1441406,-0.1652344,-0.0984375,-0.03164063
0.958,-0.02460938,0.1125,0.03867188,0.00703125,0.1160156,0.01757813,0.06328125,0.1792969
0.959,0.1652344,0.3585938,0.2214844,0.2847656,0.3585938,0.2003906,0.2179688,0.3761719
0.96,0.3550781,0.6011719,0.3972656,0.5519531,0.5765625,0.3726563,0.3585938,0.5554688
0.961,0.4640625,0.7417969,0.5027344,0.703125,0.6960938,0.4675781,0.4359375,0.6503906
0.962,0.5027344,0.7769531,0.5273438,0.7347656,0.7066406,0.4816406,0.4324219,0.6574219
0.963,0.4886719,0.7417969,0.4992188,0.6925781,0.646875,0.4464844,0.3761719,0.6117188
0.964,0.4464844,0.6574219,0.4535156,0.590625,0.5414063,0.3972656,0.3128906,0.5378906
0.965,0.3726563,0.5238281,0.3761719,0.4183594,0.3832031,0.3234375,0.2214844,0.4289063
0.966,0.2917969,0.3761719,0.2917969,0.2285156,0.225,0.2390625,0.1265625,0.309375
0.967,0.196875,0.2214844,0.2003906,0.03867188,0.07382813,0.140625,0.04921875,0.1898438
0.968,0.05625,0.03164063,0.07734375,-0.1863281,-0.0984375,0.0140625,-0.0421875,0.04570313
0.969,-0.1371094,-0.1898438,-0.0984375,-0.4394531,-0.309375,-0.1652344,-0.1792969,-0.1335938
0.97,-0.3726563,-0.4253906,-0.3128906,-0.6714844,-0.5132813,-0.365625,-0.3375,-0.3234375
0.971,-0.5132813,-0.5414063,-0.4324219,-0.7664063,-0.590625,-0.4675781,-0.4078125,-0.3972656
0.972,-0.5097656,-0.4992188,-0.421875,-0.7066406,-0.5273438,-0.4464844,-0.3761719,-0.3480469
0.973,-0.3796875,-0.3199219,-0.2917969,-0.4957031,-0.3339844,-0.309375,-0.2496094,-0.1898438
0.974,-0.16875,-0.04921875,-0.08789063,-0.1898438,-0.05273438,-0.1089844,-0.05625,0.03515625
0.975,0.05273438,0.2214844,0.1195313,0.1125,0.2109375,0.084375,0.1265625,0.2636719
0.976,0.2988281,0.5167969,0.3480469,0.4324219,0.4957031,0.2953125,0.3199219,0.4921875
0.977,0.4535156,0.7066406,0.4921875,0.6574219,0.6714844,0.4289063,0.4324219,0.6363281
0.978,0.4710938,0.7347656,0.50625,0.7136719,0.6890625,0.4394531,0.4253906,0.6433594
0.979,0.4605469,0.7171875,0.4851563,0.6960938,0.6433594,0.4183594,0.3832031,0.6046875
0.98,0.4535156,0.6820313,0.4605469,0.6433594,0.5730469,0.39375,0.3375,0.5625
0.981,0.4113281,0.5941406,0.4113281,0.5273438,0.4605469,0.3445313,0.2707031,0.4851563
0.982,0.3515625,0.4675781,0.3445313,0.3550781,0.3128906,0.2742188,0.1933594,0.3796875
0.983,0.309375,0.3585938,0.2953125,0.2039063,0.1898438,0.2214844,0.1441406,0.2988281
0.984,0.196875,0.196875,0.196875,0.003515625,0.02460938,0.1195313,0.05976563,0.1792969
0.985,-0.01757813,-0.05625,0.003515625,-0.2777344,-0.2109375,-0.05976563,-0.08789063,-0.01757813
0.986,-0.2671875,-0.3199219,-0.2144531,-0.5589844,-0.45,-0.28125,-0.2636719,-0.2355469
0.987,-0.4605469,-0.4992188,-0.3867188,-0.7347656,-0.5976563,-0.4429688,-0.3832031,-0.3761719
0.988,-0.5273438,-0.5414063,-0.4394531,-0.7628906,-0.6046875,-0.4816406,-0.4007813,-0.39375
0.989,-0.4640625,-0.4429688,-0.3761719,-0.646875,-0.4851563,-0.4113281,-0.3234375,-0.2988281
0.99,-0.253125,-0.1828125,-0.1757813,-0.3621094,-0.2109375,-0.2214844,-0.1371094,-0.07734375
0.991,-0.03867188,0.084375,0.028125,-0.05273438,0.06328125,-0.0140625,0.04921875,0.1511719
0.992,0.1160156,0.2988281,0.1792969,0.196875,0.28125,0.1441406,0.1898438,0.3304688
0.993,0.3023438,0.5378906,0.3515625,0.4710938,0.5097656,0.3128906,0.3339844,0.5132813
0.994,0.4324219,0.703125,0.4746094,0.6574219,0.6574219,0.4253906,0.4253906,0.6257813
0.995,0.4535156,0.7417969,0.4921875,0.6996094,0.6679688,0.4429688,0.4183594,0.6328125
0.996,0.4605469,0.7242188,0.4816406,0.6820313,0.6257813,0.4289063,0.3796875,0.6046875
0.997,0.4851563,0.7066406,0.4886719,0.6503906,0.5871094,0.421875,0.3585938,0.5835938
0.998,0.45,0.61875,0.4464844,0.5203125,0.4710938,0.3726563,0.2917969,0.4992188
0.999,0.3480469,0.4429688,0.3410156,0.309375,0.28125,0.2742188,0.1792969,0.3621094
1,0.2425781,0.2847656,0.2390625,0.1160156,0.1230469,0.1792969,0.09140625,0.2425781
1.001,0.1019531,0.1019531,0.1160156,-0.1054688,-0.05976563,0.05625,-0.00703125,0.0984375
1.002,-0.1125,-0.1441406,-0.07734375,-0.3902344,-0.3023438,-0.1300781,-0.1617188,-0.09492188
1.003,-0.3480469,-0.3832031,-0.2847656,-0.6433594,-0.5167969,-0.3339844,-0.3269531,-0.2917969
1.004,-0.4675781,-0.4886719,-0.3902344,-0.7347656,-0.5871094,-0.4289063,-0.3796875,-0.3621094
1.005,-0.4675781,-0.4640625,-0.3867188,-0.6890625,-0.534375,-0.4148438,-0.3410156,-0.3199219
1.006,-0.3902344,-0.3515625,-0.309375,-0.5449219,-0.39375,-0.3339844,-0.2566406,-0.2109375
1.007,-0.2074219,-0.1089844,-0.1300781,-0.2707031,-0.1371094,-0.1582031,-0.09492188,-0.01054688
1.008,-0.00703125,0.1371094,0.06328125,0.0140625,0.1160156,0.028125,0.07734375,0.196875
1.009,0.1828125,0.3796875,0.2425781,0.2917969,0.3550781,0.2039063,0.2355469,0.3972656
1.01,0.3691406,0.6117188,0.4148438,0.5660156,0.5800781,0.3726563,0.3796875,0.5800781
1.011,0.4921875,0.7523438,0.5273438,0.7242188,0.703125,0.4710938,0.4570313,0.6820313
1.012,0.5308594,0.7910156,0.5589844,0.759375,0.7101563,0.4851563,0.45,0.6890625
1.013,0.5132813,0.7453125,0.5203125,0.7066406,0.6363281,0.45,0.3902344,0.6328125
1.014,0.4675781,0.6539063,0.4640625,0.6046875,0.5273438,0.3902344,0.3234375,0.5449219
1.015,0.3902344,0.5167969,0.3832031,0.4289063,0.365625,0.3128906,0.2320313,0.4324219
1.016,0.2917969,0.365625,0.2882813,0.2320313,0.1933594,0.225,0.1300781,0.3164063
1.017,0.1898438,0.2144531,0.1933594,0.04570313,0.03515625,0.140625,0.05273438,0.2074219
1.018,0.05273438,0.02460938,0.06679688,-0.1757813,-0.140625,0.01757813,-0.03515625,0.06679688
1.019,-0.1476563,-0.196875,-0.1125,-0.4289063,-0.3515625,-0.1652344,-0.1757813,-0.1160156
1.02,-0.3832031,-0.421875,-0.3164063,-0.6574219,-0.5484375,-0.3585938,-0.3339844,-0.2988281
1.021,-0.5167969,-0.5238281,-0.4253906,-0.7488281,-0.61875,-0.4535156,-0.4042969,-0.3761719
1.022,-0.50625,-0.4816406,-0.4078125,-0.6855469,-0.5484375,-0.4324219,-0.3621094,-0.3269531
1.023,-0.3691406,-0.2988281,-0.2777344,-0.4710938,-0.3410156,-0.2953125,-0.2320313,-0.1652344
1.024,-0.1582031,-0.03515625,-0.08085938,-0.1652344,-0.05976563,-0.09492188,-0.0421875,0.06328125
1.025,0.04921875,0.2179688,0.1160156,0.1265625,0.196875,0.09492188,0.140625,0.2847656
1.026,0.28125,0.50625,0.3339844,0.4359375,0.4675781,0.2988281,0.3234375,0.5097656
1.027,0.4429688,0.7101563,0.4851563,0.6609375,0.6503906,0.4394531,0.4324219,0.6539063
1.028,0.4746094,0.7558594,0.5132813,0.7207031,0.6785156,0.4640625,0.4359375,0.6714844
1.029,0.4710938,0.7382813,0.4957031,0.703125,0.6328125,0.4394531,0.3902344,0.6257813
1.03,0.4675781,0.6960938,0.4710938,0.6503906,0.5695313,0.4113281,0.3410156,0.5695313
1.031,0.421875,0.6011719,0.4183594,0.534375,0.4570313,0.3550781,0.2777344,0.4886719
1.032,0.3585938,0.4746094,0.3515625,0.3621094,0.3058594,0.2882813,0.2003906,0.3902344
1.033,0.3164063,0.3691406,0.3058594,0.2144531,0.1898438,0.2355469,0.1476563,0.3128906
1.034,0.2003906,0.2003906,0.2003906,0.0140625,0.028125,0.1335938,0.06328125,0.1898438
1.035,-0.02109375,-0.06328125,-0.003515625,-0.2777344,-0.2144531,-0.04921875,-0.09492188,-0.01054688
1.036,-0.2777344,-0.3304688,-0.2390625,-0.5625,-0.4640625,-0.2707031,-0.28125,-0.2355469
1.037,-0.4675781,-0.4957031,-0.3972656,-0.7453125,-0.6082031,-0.4324219,-0.4007813,-0.3832031
1.038,-0.5308594,-0.5238281,-0.4429688,-0.7734375,-0.6152344,-0.4710938,-0.4113281,-0.39375
1.039,-0.4570313,-0.421875,-0.3761719,-0.6503906,-0.4886719,-0.4007813,-0.3304688,-0.2953125
1.04,-0.2496094,-0.1617188,-0.1757813,-0.3550781,-0.2109375,-0.2039063,-0.1335938,-0.06679688
1.041,-0.028125,0.1125,0.03164063,-0.0421875,0.06328125,0,0.05976563,0.1652344
1.042,0.1371094,0.3304688,0.1933594,0.2144531,0.28125,0.1617188,0.2003906,0.3480469
1.043,0.3234375,0.5660156,0.365625,0.4886719,0.5132813,0.3269531,0.3375,0.5273438
1.044,0.4429688,0.7171875,0.4851563,0.675,0.6539063,0.4359375,0.4183594,0.6363281
1.045,0.4640625,0.7417969,0.4921875,0.7136719,0.6574219,0.4464844,0.4078125,0.6398438
1.046,0.4640625,0.7242188,0.4746094,0.6925781,0.6152344,0.4289063,0.365625,0.6117188
1.047,0.4851563,0.7066406,0.4851563,0.6503906,0.5695313,0.421875,0.3410156,0.5835938
1.048,0.4535156,0.6152344,0.4429688,0.5167969,0.45,0.3691406,0.2777344,0.5027344
1.049,0.3515625,0.4429688,0.3410156,0.3058594,0.2671875,0.2707031,0.1722656,0.3691406
1.05,0.2460938,0.28125,0.2425781,0.1089844,0.1054688,0.1757813,0.08085938,0.2460938
1.051,0.1019531,0.08789063,0.1125,-0.1125,-0.07734375,0.05273438,-0.0140625,0.0984375
1.052,-0.1089844,-0.1617188,-0.08085938,-0.3902344,-0.309375,-0.1371094,-0.1652344,-0.0984375
1.053,-0.3445313,-0.4042969,-0.2917969,-0.6363281,-0.5167969,-0.3410156,-0.3199219,-0.2953125
1.054,-0.4640625,-0.5027344,-0.39375,-0.73125,-0.5835938,-0.4359375,-0.3796875,-0.3621094
1.055,-0.4640625,-0.4710938,-0.3867188,-0.6890625,-0.5273438,-0.421875,-0.3480469,-0.3199219
1.056,-0.39375,-0.3550781,-0.309375,-0.5378906,-0.3832031,-0.3304688,-0.2636719,-0.2039063
1.057,-0.2074219,-0.1089844,-0.1300781,-0.2566406,-0.1230469,-0.1476563,-0.09140625,0
1.058,-0.003515625,0.1476563,0.06328125,0.02109375,0.1265625,0.03867188,0.07734375,0.2074219
1.059,0.1863281,0.39375,0.2496094,0.2953125,0.3621094,0.2109375,0.2214844,0.4007813
1.06,0.3726563,0.6257813,0.421875,0.5589844,0.5835938,0.3761719,0.3585938,0.5695313
1.061,0.4886719,0.759375,0.5273438,0.7066406,0.7066406,0.4640625,0.4359375,0.6644531
1.062,0.5273438,0.7910156,0.5519531,0.7382813,0.7136719,0.478125,0.4359375,0.675
1.063,0.4992188,0.7417969,0.5097656,0.6855469,0.6363281,0.4464844,0.3761719,0.61875
1.064,0.4464844,0.6503906,0.45,0.5800781,0.5238281,0.3902344,0.3058594,0.5378906
1.065,0.3726563,0.5132813,0.3726563,0.4042969,0.365625,0.3128906,0.2144531,0.4289063
1.066,0.2917969,0.3691406,0.2917969,0.2214844,0.2074219,0.2285156,0.1230469,0.309375
1.067,0.1898438,0.2144531,0.1933594,0.03867188,0.05625,0.140625,0.04570313,0.1933594
1.068,0.04570313,0.01757813,0.05976563,-0.1898438,-0.1230469,0.01054688,-0.04921875,0.04921875
1.069,-0.1476563,-0.2039063,-0.1125,-0.4429688,-0.3269531,-0.1722656,-0.1863281,-0.1335938
1.07,-0.3761719,-0.4183594,-0.3128906,-0.6679688,-0.5167969,-0.365625,-0.3445313,-0.3128906
1.071,-0.50625,-0.5167969,-0.4183594,-0.759375,-0.5835938,-0.4535156,-0.4078125,-0.3796875
1.072,-0.4921875,-0.4710938,-0.3972656,-0.6960938,-0.5132813,-0.421875,-0.3691406,-0.3269531
1.073,-0.3585938,-0.2847656,-0.2636719,-0.4746094,-0.3058594,-0.28125,-0.2355469,-0.1617188
1.074,-0.1511719,-0.02460938,-0.06679688,-0.16875,-0.02460938,-0.07734375,-0.04570313,0.05976563
1.075,0.06328125,0.2320313,0.1265625,0.1230469,0.2285156,0.1125,0.1335938,0.2847656
1.076,0.2988281,0.5238281,0.3515625,0.4429688,0.5027344,0.3234375,0.3128906,0.5132813
1.077,0.45,0.7136719,0.4957031,0.6679688,0.6820313,0.4640625,0.4183594,0.6539063
1.078,0.4746094,0.7488281,0.5132813,0.7207031,0.703125,0.478125,0.421875,0.6574219
1.079,0.4746094,0.7382813,0.5027344,0.6996094,0.6644531,0.4535156,0.3832031,0.6117188
1.08,0.4746094,0.7066406,0.4886719,0.6503906,0.6046875,0.4253906,0.3410156,0.5625
1.081,0.4324219,0.61875,0.4394531,0.534375,0.4921875,0.3761719,0.2777344,0.4851563
1.082,0.3726563,0.4886719,0.3761719,0.365625,0.3445313,0.309375,0.2003906,0.3902344
1.083,0.3339844,0.3832031,0.3304688,0.2179688,0.2355469,0.253125,0.1476563,0.3128906
1.084,0.2144531,0.2144531,0.2144531,0.01757813,0.0703125,0.1511719,0.06328125,0.1863281
1.085,-0.00703125,-0.04921875,0.01054688,-0.2707031,-0.1757813,-0.03515625,-0.08789063,-0.0140625
1.086,-0.2601563,-0.3164063,-0.2109375,-0.5484375,-0.4183594,-0.253125,-0.2636719,-0.225
1.087,-0.4464844,-0.4921875,-0.3726563,-0.7207031,-0.5554688,-0.4078125,-0.3832031,-0.3621094
1.088,-0.5132813,-0.5273438,-0.4253906,-0.7453125,-0.5625,-0.4464844,-0.3972656,-0.3761719
1.089,-0.4464844,-0.4183594,-0.3585938,-0.6222656,-0.4394531,-0.3691406,-0.3199219,-0.2777344
1.09,-0.2355469,-0.1476563,-0.1511719,-0.3269531,-0.1582031,-0.1722656,-0.1335938,-0.04921875
1.091,-0.02109375,0.1195313,0.04570313,-0.01757813,0.1125,0.02460938,0.05273438,0.1792969
1.092,0.1335938,0.3304688,0.2003906,0.2320313,0.3234375,0.1863281,0.1898438,0.3550781
1.093,0.3199219,0.5695313,0.3796875,0.4992188,0.5484375,0.3515625,0.3234375,0.5273438
1.094,0.4464844,0.7242188,0.4992188,0.675,0.6855469,0.4570313,0.4078125,0.6328125
1.095,0.4640625,0.7488281,0.5097656,0.7136719,0.6890625,0.4605469,0.4042969,0.6292969
1.096,0.478125,0.73125,0.4957031,0.6925781,0.646875,0.4394531,0.3691406,0.5941406
1.097,0.5027344,0.7207031,0.50625,0.6574219,0.6082031,0.4289063,0.3550781,0.5695313
1.098,0.4640625,0.6222656,0.4605469,0.5273438,0.4886719,0.3796875,0.2953125,0.4886719
1.099,0.3515625,0.4464844,0.3480469,0.3164063,0.2988281,0.2847656,0.1792969,0.3550781
1.1,0.2390625,0.2847656,0.2425781,0.1195313,0.1300781,0.1863281,0.08789063,0.2320313
1.101,0.08789063,0.08789063,0.1054688,-0.1054688,-0.05976563,0.05976563,-0.0140625,0.084375
1.102,-0.1265625,-0.1652344,-0.09492188,-0.3832031,-0.2988281,-0.1265625,-0.16875,-0.1089844
1.103,-0.3585938,-0.3972656,-0.3023438,-0.6292969,-0.50625,-0.3269531,-0.3269531,-0.2988281
1.104,-0.4675781,-0.4886719,-0.3902344,-0.7207031,-0.5625,-0.4183594,-0.3796875,-0.365625
1.105,-0.4605469,-0.4535156,-0.3726563,-0.6714844,-0.50625,-0.4042969,-0.3445313,-0.3234375
1.106,-0.3832031,-0.3304688,-0.2953125,-0.5203125,-0.365625,-0.3128906,-0.2566406,-0.2074219
1.107,-0.2039063,-0.09492188,-0.1195313,-0.2425781,-0.1054688,-0.1335938,-0.09140625,-0.003515625
1.108,-0.00703125,0.1511719,0.06328125,0.03867188,0.1476563,0.04921875,0.07734375,0.2039063
1.109,0.1863281,0.4007813,0.2496094,0.3164063,0.3902344,0.2285156,0.2320313,0.3972656
1.11,0.3726563,0.6292969,0.421875,0.5730469,0.6117188,0.3867188,0.3691406,0.5660156
1.111,0.4710938,0.7488281,0.5097656,0.7101563,0.7171875,0.4640625,0.4289063,0.6398438
1.112,0.50625,0.7734375,0.5308594,0.7382813,0.7207031,0.478125,0.4253906,0.6398438
1.113,0.4886719,0.73125,0.4992188,0.6925781,0.6503906,0.4429688,0.3726563,0.5835938
1.114,0.4394531,0.6433594,0.4394531,0.5800781,0.5414063,0.3832031,0.2953125,0.5027344
1.115,0.3691406,0.5097656,0.365625,0.4078125,0.3867188,0.309375,0.2074219,0.39375
1.116,0.2953125,0.3691406,0.2882813,0.225,0.2285156,0.2320313,0.1265625,0.2847656
1.117,0.1898438,0.2179688,0.1933594,0.03867188,0.0703125,0.1441406,0.04570313,0.1757813
1.118,0.0421875,0.028125,0.05976563,-0.1863281,-0.1125,0.01757813,-0.04921875,0.03164063
1.119,-0.1546875,-0.196875,-0.1160156,-0.4394531,-0.3199219,-0.1652344,-0.1898438,-0.1511719
1.12,-0.3761719,-0.4183594,-0.3164063,-0.6609375,-0.5097656,-0.3585938,-0.3375,-0.3304688
1.121,-0.50625,-0.5203125,-0.4253906,-0.7417969,-0.5695313,-0.4535156,-0.4007813,-0.3972656
1.122,-0.4921875,-0.478125,-0.4042969,-0.6714844,-0.5027344,-0.4253906,-0.365625,-0.3445313
1.123,-0.3585938,-0.2917969,-0.2707031,-0.4570313,-0.2953125,-0.2847656,-0.2355469,-0.1757813
1.124,-0.1546875,-0.01757813,-0.0703125,-0.1546875,-0.02460938,-0.08085938,-0.04921875,0.04921875
1.125,0.05625,0.2390625,0.1300781,0.1300781,0.2285156,0.1089844,0.1265625,0.2636719
1.126,0.2917969,0.5203125,0.3445313,0.4394531,0.5027344,0.309375,0.309375,0.4816406
1.127,0.4464844,0.7101563,0.4886719,0.6609375,0.6820313,0.4394531,0.4253906,0.6152344
1.128,0.4710938,0.7488281,0.5097656,0.7171875,0.6996094,0.4570313,0.4253906,0.6292969
1.129,0.4675781,0.7347656,0.4921875,0.7066406,0.6539063,0.4324219,0.3832031,0.590625
1.13,0.4605469,0.6960938,0.4746094,0.6539063,0.5871094,0.4042969,0.3375,0.5449219
1.131,0.4148438,0.5976563,0.4183594,0.5308594,0.4640625,0.3480469,0.2671875,0.4605469
1.132,0.3515625,0.4640625,0.3480469,0.3515625,0.3058594,0.2707031,0.1828125,0.3550781
1.133,0.3128906,0.3585938,0.3058594,0.2039063,0.1898438,0.2179688,0.1371094,0.28125
1.134,0.196875,0.1933594,0.2003906,0,0.028125,0.1160156,0.05625,0.1582031
1.135,-0.02460938,-0.06328125,-0.003515625,-0.2847656,-0.2179688,-0.06679688,-0.0984375,-0.0421875
1.136,-0.28125,-0.3304688,-0.2355469,-0.5625,-0.4570313,-0.2882813,-0.28125,-0.2636719
1.137,-0.4675781,-0.5027344,-0.3972656,-0.73125,-0.5941406,-0.4429688,-0.3972656,-0.4007813
1.138,-0.5308594,-0.534375,-0.4464844,-0.7488281,-0.5976563,-0.4816406,-0.4113281,-0.4113281
1.139,-0.4605469,-0.4289063,-0.3726563,-0.61875,-0.4710938,-0.4042969,-0.3269531,-0.3023438
1.14,-0.2496094,-0.1652344,-0.16875,-0.3199219,-0.1898438,-0.2039063,-0.1335938,-0.06679688
1.141,-0.03515625,0.1019531,0.03164063,-0.01054688,0.084375,0,0.05625,0.1582031
1.142,0.1265625,0.3128906,0.1863281,0.2390625,0.2988281,0.1582031,0.1933594,0.3375
1.143,0.309375,0.5519531,0.3515625,0.5097656,0.5238281,0.3234375,0.3304688,0.5132813
1.144,0.4289063,0.703125,0.4640625,0.6855469,0.6609375,0.4253906,0.4078125,0.6152344
1.145,0.45,0.73125,0.4746094,0.7136719,0.6644531,0.4324219,0.3902344,0.6117188
1.146,0.4570313,0.7171875,0.4675781,0.6890625,0.6222656,0.4113281,0.3550781,0.5730469
1.147,0.478125,0.703125,0.478125,0.646875,0.5765625,0.4042969,0.3304688,0.5414063
1.148,0.4394531,0.6046875,0.4324219,0.5132813,0.4535156,0.3515625,0.2671875,0.4605469
1.149,0.3445313,0.4324219,0.3339844,0.309375,0.2742188,0.2496094,0.1652344,0.3339844
1.15,0.2390625,0.2742188,0.2355469,0.1160156,0.1125,0.1546875,0.07734375,0.2109375
1.151,0.084375,0.07734375,0.0984375,-0.1160156,-0.084375,0.03164063,-0.03164063,0.06328125
1.152,-0.1371094,-0.1722656,-0.1054688,-0.39375,-0.3199219,-0.1546875,-0.1863281,-0.1265625
1.153,-0.3621094,-0.4078125,-0.309375,-0.6292969,-0.5238281,-0.3550781,-0.3410156,-0.3164063
1.154,-0.478125,-0.50625,-0.4042969,-0.7171875,-0.5800781,-0.4464844,-0.3867188,-0.3832031
1.155,-0.4710938,-0.4710938,-0.39375,-0.6609375,-0.5167969,-0.4253906,-0.3480469,-0.3339844
1.156,-0.3902344,-0.3410156,-0.3128906,-0.4992188,-0.3585938,-0.3339844,-0.2566406,-0.2144531
1.157,-0.2039063,-0.0984375,-0.1335938,-0.2179688,-0.0984375,-0.1511719,-0.084375,-0.01054688
1.158,-0.01054688,0.1441406,0.04921875,0.05625,0.1476563,0.03164063,0.07734375,0.1898438
1.159,0.1722656,0.3796875,0.2214844,0.3304688,0.3796875,0.2003906,0.2214844,0.3796875
1.16,0.3585938,0.6117188,0.3972656,0.5871094,0.5941406,0.3621094,0.3585938,0.5449219
1.161,0.4851563,0.7558594,0.5132813,0.7347656,0.7171875,0.4570313,0.4359375,0.6363281
1.162,0.5238281,0.7875,0.5449219,0.759375,0.7207031,0.4640625,0.4289063,0.6328125
1.163,0.4992188,0.7382813,0.50625,0.703125,0.6433594,0.421875,0.3691406,0.5765625
1.164,0.45,0.646875,0.45,0.6046875,0.5308594,0.3726563,0.3023438,0.5097656
1.165,0.3761719,0.5132813,0.3691406,0.4324219,0.3726563,0.3023438,0.2214844,0.4113281
1.166,0.2917969,0.365625,0.2847656,0.2496094,0.2109375,0.2179688,0.1335938,0.2953125
1.167,0.1863281,0.2109375,0.1828125,0.05976563,0.05625,0.1265625,0.04921875,0.1792969
1.168,0.03515625,0.01054688,0.04921875,-0.1722656,-0.1230469,-0.003515625,-0.05273438,0.03164063
1.169,-0.1617188,-0.2109375,-0.1335938,-0.4289063,-0.3375,-0.1898438,-0.1933594,-0.1546875
1.17,-0.3867188,-0.4253906,-0.3339844,-0.646875,-0.5238281,-0.3761719,-0.3445313,-0.3304688
1.171,-0.5132813,-0.5203125,-0.4359375,-0.73125,-0.5835938,-0.4605469,-0.4078125,-0.3972656
1.172,-0.5027344,-0.4675781,-0.4148438,-0.6644531,-0.5097656,-0.4324219,-0.365625,-0.3375
1.173,-0.3585938,-0.2742188,-0.2742188,-0.4394531,-0.2988281,-0.2917969,-0.2320313,-0.1652344
1.174,-0.1476563,-0.00703125,-0.0703125,-0.1371094,-0.01757813,-0.09140625,-0.04570313,0.05625
1.175,0.06328125,0.2496094,0.1300781,0.1511719,0.2425781,0.09492188,0.1300781,0.2707031
1.176,0.2917969,0.5273438,0.3410156,0.4570313,0.5132813,0.2882813,0.3058594,0.4886719
1.177,0.4429688,0.7101563,0.4816406,0.6785156,0.6855469,0.421875,0.4113281,0.6257813
1.178,0.4746094,0.7523438,0.50625,0.7347656,0.7101563,0.4464844,0.4113281,0.6363281
1.179,0.4675781,0.7382813,0.4886719,0.7101563,0.6574219,0.421875,0.365625,0.5976563
1.18,0.4570313,0.6960938,0.4640625,0.6539063,0.5871094,0.3902344,0.3164063,0.5519531
1.181,0.4148438,0.5976563,0.4113281,0.534375,0.4746094,0.3339844,0.253125,0.4675781
1.182,0.3515625,0.4605469,0.3410156,0.3621094,0.3269531,0.2636719,0.1757813,0.365625
1.183,0.3023438,0.3550781,0.2917969,0.2109375,0.2039063,0.2074219,0.1230469,0.2882813
1.184,0.1792969,0.1863281,0.1792969,0,0.03164063,0.1054688,0.03515625,0.1617188
1.185,-0.04570313,-0.07734375,-0.02460938,-0.2953125,-0.2144531,-0.084375,-0.1230469,-0.04570313
1.186,-0.3058594,-0.3445313,-0.2566406,-0.5730469,-0.4570313,-0.3023438,-0.3023438,-0.2636719
1.187,-0.4851563,-0.5097656,-0.4183594,-0.73125,-0.5941406,-0.45,-0.4078125,-0.39375
1.188,-0.534375,-0.534375,-0.4570313,-0.7453125,-0.5871094,-0.4816406,-0.4078125,-0.4007813
1.189,-0.4570313,-0.4148438,-0.3761719,-0.6117188,-0.45,-0.4007813,-0.3199219,-0.2917969
1.19,-0.2390625,-0.1476563,-0.1652344,-0.309375,-0.1652344,-0.2039063,-0.1230469,-0.06328125
1.191,-0.02460938,0.1160156,0.03515625,-0.003515625,0.1054688,0,0.0703125,0.1617188
1.192,0.140625,0.3304688,0.1933594,0.2496094,0.3234375,0.1546875,0.2109375,0.3410156
1.193,0.3199219,0.5625,0.365625,0.5097656,0.5449219,0.3199219,0.3445313,0.5132813
1.194,0.421875,0.6925781,0.4570313,0.6609375,0.6609375,0.4113281,0.4078125,0.6046875
1.195,0.4324219,0.7066406,0.4640625,0.6820313,0.6539063,0.4078125,0.3832031,0.5976563
1.196,0.4464844,0.6960938,0.4640625,0.6644531,0.61875,0.3902344,0.3480469,0.5660156
1.197,0.4710938,0.6820313,0.4746094,0.6222656,0.5765625,0.3796875,0.3339844,0.5308594
1.198,0.4289063,0.5835938,0.4253906,0.4851563,0.45,0.3269531,0.2671875,0.4464844
1.199,0.3164063,0.4148438,0.3164063,0.2777344,0.2601563,0.2285156,0.1546875,0.3164063
1.2,0.2074219,0.253125,0.2144531,0.084375,0.09140625,0.1300781,0.06328125,0.1933594
1.201,0.05625,0.04921875,0.07734375,-0.1476563,-0.1019531,0,-0.0421875,0.0421875
1.202,-0.16875,-0.2074219,-0.1300781,-0.4324219,-0.3445313,-0.196875,-0.2003906,-0.1617188
1.203,-0.4007813,-0.4429688,-0.3375,-0.6714844,-0.5519531,-0.39375,-0.3550781,-0.3515625
1.204,-0.5097656,-0.5308594,-0.4253906,-0.7523438,-0.6082031,-0.4746094,-0.3972656,-0.4113281
1.205,-0.4992188,-0.4851563,-0.4113281,-0.6960938,-0.5449219,-0.4535156,-0.3621094,-0.3585938
1.206,-0.4113281,-0.3515625,-0.3234375,-0.534375,-0.3867188,-0.3550781,-0.2707031,-0.2390625
1.207,-0.2320313,-0.1089844,-0.1441406,-0.2566406,-0.1265625,-0.1757813,-0.1019531,-0.03164063
1.208,-0.03515625,0.1371094,0.03867188,0.02109375,0.1195313,0.00703125,0.06328125,0.1757813
1.209,0.1582031,0.3832031,0.2214844,0.3058594,0.3585938,0.1863281,0.2179688,0.3796875
1.21,0.3375,0.6082031,0.3867188,0.5660156,0.5695313,0.3480469,0.3515625,0.5519531
1.211,0.4289063,0.7242188,0.4746094,0.6925781,0.6644531,0.4183594,0.4078125,0.6257813
1.212,0.4640625,0.7523438,0.4957031,0.7136719,0.6609375,0.4253906,0.39375,0.61875
1.213,0.45,0.7171875,0.4710938,0.6644531,0.5976563,0.4007813,0.3375,0.5625
1.214,0.4078125,0.6292969,0.421875,0.5519531,0.4886719,0.3480469,0.2707031,0.4816406
1.215,0.3410156,0.4851563,0.3410156,0.3761719,0.3339844,0.2636719,0.1828125,0.3691406
1.216,0.2601563,0.3375,0.2566406,0.196875,0.1792969,0.1792969,0.1019531,0.2636719
1.217,0.1582031,0.1828125,0.1652344,0.01054688,0.02460938,0.09140625,0.028125,0.1582031
1.218,0.01054688,-0.01054688,0.028125,-0.2214844,-0.1582031,-0.0421875,-0.06328125,0.01054688
1.219,-0.1898438,-0.2390625,-0.1582031,-0.478125,-0.365625,-0.2285156,-0.2003906,-0.1722656
1.22,-0.4183594,-0.4570313,-0.3585938,-0.6996094,-0.5484375,-0.4113281,-0.3480469,-0.3515625
1.221,-0.5449219,-0.5484375,-0.4570313,-0.7804688,-0.6082031,-0.4957031,-0.4113281,-0.4183594
1.222,-0.5167969,-0.4886719,-0.4289063,-0.703125,-0.5203125,-0.4605469,-0.365625,-0.3621094
1.223,-0.3621094,-0.2917969,-0.2777344,-0.4710938,-0.2988281,-0.3128906,-0.2179688,-0.1898438
1.224,-0.1582031,-0.02460938,-0.08085938,-0.1652344,-0.02460938,-0.1089844,-0.03515625,0.03515625
1.225,0.04570313,0.2355469,0.1125,0.1230469,0.2285156,0.08085938,0.140625,0.2566406
1.226,0.2917969,0.5273438,0.3410156,0.4429688,0.50625,0.2882813,0.3269531,0.4851563
1.227,0.4429688,0.7101563,0.4816406,0.6574219,0.6820313,0.4113281,0.4289063,0.6152344
1.228,0.4535156,0.7347656,0.4886719,0.703125,0.6925781,0.4148438,0.4183594,0.6152344
1.229,0.45,0.7101563,0.4675781,0.6855469,0.646875,0.39375,0.3726563,0.5730469
1.23,0.4359375,0.675,0.4429688,0.6292969,0.5800781,0.3691406,0.3234375,0.5203125
1.231,0.3867188,0.5800781,0.3867188,0.5027344,0.4605469,0.3164063,0.2496094,0.4394531
1.232,0.3304688,0.45,0.3234375,0.3339844,0.3128906,0.2460938,0.1757813,0.3445313
1.233,0.2917969,0.3445313,0.2847656,0.1863281,0.2039063,0.1898438,0.1335938,0.2636719
1.234,0.1722656,0.1722656,0.1722656,-0.02460938,0.03867188,0.08789063,0.04570313,0.1335938
1.235,-0.05273438,-0.09140625,-0.028125,-0.3199219,-0.2074219,-0.1019531,-0.1089844,-0.0703125
1.236,-0.2988281,-0.3550781,-0.2566406,-0.5941406,-0.4394531,-0.3199219,-0.28125,-0.2847656
1.237,-0.4816406,-0.5203125,-0.4183594,-0.7523438,-0.5695313,-0.4640625,-0.3902344,-0.4113281
1.238,-0.5378906,-0.5484375,-0.4605469,-0.7664063,-0.5660156,-0.4957031,-0.4007813,-0.4148438
1.239,-0.4570313,-0.4289063,-0.3832031,-0.6257813,-0.4289063,-0.4113281,-0.3128906,-0.3023438
1.24,-0.2390625,-0.1582031,-0.1722656,-0.3234375,-0.1441406,-0.2074219,-0.1195313,-0.07382813
1.241,-0.028125,0.1089844,0.03164063,-0.02109375,0.1195313,-0.00703125,0.06328125,0.1441406
1.242,0.1300781,0.3269531,0.1898438,0.2320313,0.3304688,0.1511719,0.2003906,0.3234375
1.243,0.3164063,0.5625,0.3621094,0.4992188,0.5589844,0.3164063,0.3375,0.4992188
1.244,0.4324219,0.6996094,0.4675781,0.6644531,0.6890625,0.4078125,0.4183594,0.590625
1.245,0.45,0.7136719,0.4746094,0.6890625,0.6820313,0.4042969,0.4007813,0.5835938
1.246,0.4570313,0.6996094,0.4675781,0.6644531,0.6398438,0.3867188,0.3585938,0.5484375
1.247,0.4710938,0.6785156,0.4746094,0.61875,0.590625,0.3761719,0.3304688,0.5167969
1.248,0.4253906,0.5730469,0.421875,0.478125,0.4640625,0.3269531,0.2601563,0.4359375
1.249,0.3199219,0.4007813,0.3128906,0.2742188,0.28125,0.2285156,0.1546875,0.3128906
1.25,0.2109375,0.2390625,0.2109375,0.084375,0.1195313,0.1335938,0.06679688,0.1933594
1.251,0.05625,0.03867188,0.0703125,-0.1476563,-0.07734375,0,-0.03867188,0.0421875
1.252,-0.1722656,-0.2179688,-0.140625,-0.4324219,-0.3234375,-0.196875,-0.2074219,-0.1617188
1.253,-0.4007813,-0.45,-0.3445313,-0.6679688,-0.5273438,-0.3972656,-0.3621094,-0.3480469
1.254,-0.4992188,-0.534375,-0.4253906,-0.7453125,-0.5800781,-0.4851563,-0.4007813,-0.4078125
1.255,-0.4851563,-0.4921875,-0.4078125,-0.6960938,-0.5132813,-0.4640625,-0.3585938,-0.3585938
1.256,-0.39375,-0.3550781,-0.3164063,-0.5308594,-0.3585938,-0.365625,-0.2671875,-0.2390625
1.257,-0.2074219,-0.1089844,-0.1335938,-0.2460938,-0.0984375,-0.1757813,-0.08789063,-0.02460938
1.258,-0.01054688,0.1335938,0.04921875,0.03867188,0.1476563,0.00703125,0.08085938,0.1828125
1.259,0.1792969,0.3832031,0.2355469,0.3199219,0.3902344,0.1863281,0.2320313,0.3796875
1.26,0.3621094,0.6082031,0.4042969,0.5695313,0.6082031,0.3410156,0.3621094,0.5378906
1.261,0.4675781,0.7242188,0.4957031,0.6960938,0.7066406,0.4113281,0.421875,0.6082031
1.262,0.5027344,0.7523438,0.5167969,0.7242188,0.7066406,0.4253906,0.4183594,0.6117188
1.263,0.4816406,0.7101563,0.4851563,0.6785156,0.6292969,0.3972656,0.3621094,0.5625
1.264,0.4289063,0.6152344,0.4253906,0.5625,0.5097656,0.3375,0.2882813,0.478125
1.265,0.3550781,0.478125,0.3480469,0.3832031,0.3550781,0.2601563,0.2003906,0.365625
1.266,0.2742188,0.3339844,0.2636719,0.2039063,0.2003906,0.1792969,0.1195313,0.2566406
1.267,0.16875,0.1722656,0.16875,0.01757813,0.04570313,0.08789063,0.04570313,0.1441406
1.268,0.01757813,-0.02109375,0.03164063,-0.2144531,-0.1371094,-0.04570313,-0.05625,0
1.269,-0.1828125,-0.2390625,-0.1511719,-0.4640625,-0.3480469,-0.2285156,-0.2003906,-0.1757813
1.27,-0.4113281,-0.4535156,-0.3515625,-0.675,-0.534375,-0.4078125,-0.3480469,-0.3480469
1.271,-0.5308594,-0.5449219,-0.45,-0.7558594,-0.590625,-0.4886719,-0.4007813,-0.4113281
1.272,-0.5027344,-0.4886719,-0.421875,-0.6785156,-0.5027344,-0.4535156,-0.3480469,-0.3445313
1.273,-0.3480469,-0.28125,-0.2707031,-0.4394531,-0.2742188,-0.2988281,-0.2003906,-0.1617188
1.274,-0.1371094,-0.01054688,-0.06679688,-0.1300781,0,-0.09492188,-0.0140625,0.06679688
1.275,0.0703125,0.2425781,0.1300781,0.1617188,0.2496094,0.09140625,0.1617188,0.2847656
1.276,0.3128906,0.534375,0.3515625,0.478125,0.5273438,0.2953125,0.3445313,0.50625
1.277,0.4605469,0.7207031,0.4957031,0.6890625,0.6925781,0.4253906,0.4464844,0.6363281
1.278,0.478125,0.7488281,0.5097656,0.7347656,0.703125,0.4359375,0.4359375,0.6433594
1.279,0.4746094,0.73125,0.4921875,0.7136719,0.6574219,0.4148438,0.39375,0.6082031
1.28,0.4640625,0.6855469,0.4675781,0.6574219,0.5871094,0.3832031,0.3480469,0.5589844
1.281,0.4183594,0.5871094,0.4113281,0.5273438,0.4640625,0.3269531,0.2742188,0.4746094
1.282,0.3621094,0.4570313,0.3480469,0.3515625,0.3164063,0.2566406,0.196875,0.3691406
1.283,0.3199219,0.3550781,0.309375,0.2039063,0.2074219,0.2039063,0.1476563,0.2917969
1.284,0.196875,0.1863281,0.196875,0,0.03515625,0.09492188,0.05625,0.16875
1.285,-0.03164063,-0.07734375,-0.01054688,-0.2953125,-0.2144531,-0.09492188,-0.1019531,-0.03867188
1.286,-0.2882813,-0.3445313,-0.2425781,-0.5695313,-0.4535156,-0.3128906,-0.28125,-0.2566406
1.287,-0.4675781,-0.5132813,-0.4007813,-0.7277344,-0.5835938,-0.4605469,-0.3867188,-0.3832031
1.288,-0.5167969,-0.5414063,-0.4394531,-0.7347656,-0.5765625,-0.4886719,-0.3902344,-0.3867188
1.289,-0.4324219,-0.4183594,-0.3480469,-0.590625,-0.4253906,-0.4042969,-0.2988281,-0.2777344
1.29,-0.2074219,-0.140625,-0.1371094,-0.2777344,-0.1371094,-0.196875,-0.09492188,-0.03867188
1.291,0.003515625,0.1265625,0.06328125,0.02460938,0.1300781,0,0.09140625,0.1863281
1.292,0.1617188,0.3375,0.2214844,0.2707031,0.3410156,0.1546875,0.2214844,0.3515625
1.293,0.3410156,0.5695313,0.3902344,0.5308594,0.5589844,0.3128906,0.3515625,0.5167969
1.294,0.45,0.7066406,0.4886719,0.6960938,0.6855469,0.4113281,0.4253906,0.6152344
1.295,0.4675781,0.7242188,0.4921875,0.7242188,0.6785156,0.4148438,0.4078125,0.6117188
1.296,0.4746094,0.7066406,0.478125,0.6960938,0.6257813,0.39375,0.3726563,0.5730469
1.297,0.4851563,0.6855469,0.478125,0.6503906,0.5730469,0.3832031,0.3445313,0.5414063
1.298,0.4394531,0.590625,0.4253906,0.50625,0.4429688,0.3304688,0.2742188,0.4605469
1.299,0.3375,0.421875,0.3199219,0.2953125,0.2566406,0.2320313,0.16875,0.3269531
1.3,0.225,0.253125,0.2179688,0.0984375,0.09140625,0.1300781,0.08085938,0.2003906
1.301,0.0703125,0.04570313,0.07382813,-0.1371094,-0.1054688,0,-0.02460938,0.04570313
1.302,-0.1546875,-0.2074219,-0.1300781,-0.4253906,-0.3515625,-0.196875,-0.1898438,-0.1582031
1.303,-0.3867188,-0.4324219,-0.3339844,-0.6609375,-0.5519531,-0.3902344,-0.3480469,-0.3445313
1.304,-0.4886719,-0.5132813,-0.4183594,-0.7382813,-0.6011719,-0.4710938,-0.3902344,-0.4007813
1.305,-0.4710938,-0.4640625,-0.39375,-0.675,-0.5273438,-0.4464844,-0.3410156,-0.3445313
1.306,-0.3761719,-0.3199219,-0.2988281,-0.4957031,-0.365625,-0.3445313,-0.2390625,-0.2109375
1.307,-0.1933594,-0.07382813,-0.1160156,-0.2109375,-0.1054688,-0.1582031,-0.06679688,0.003515625
1.308,-0.00703125,0.1546875,0.05273438,0.05625,0.1265625,0.01757813,0.08789063,0.2003906
1.309,0.1722656,0.3796875,0.2214844,0.3269531,0.3621094,0.1792969,0.2320313,0.3796875
1.31,0.3550781,0.6046875,0.3902344,0.5835938,0.5765625,0.3339844,0.3726563,0.5484375
1.311,0.4710938,0.7382813,0.4957031,0.7277344,0.6890625,0.421875,0.45,0.6398438
1.312,0.5132813,0.7734375,0.5273438,0.759375,0.6925781,0.4359375,0.4464844,0.6503906
1.313,0.4921875,0.7242188,0.4921875,0.703125,0.6117188,0.39375,0.3867188,0.590625
1.314,0.4324219,0.6222656,0.4289063,0.5800781,0.4886719,0.3304688,0.3058594,0.4992188
1.315,0.3585938,0.478125,0.3480469,0.39375,0.3269531,0.253125,0.2109375,0.3832031
1.316,0.28125,0.3304688,0.2671875,0.2144531,0.1722656,0.1722656,0.1265625,0.2707031
1.317,0.1757813,0.1722656,0.1722656,0.02460938,0.02109375,0.07734375,0.04921875,0.1546875
1.318,0.02460938,-0.02109375,0.03867188,-0.2109375,-0.1652344,-0.05625,-0.05273438,0
1.319,-0.1722656,-0.2460938,-0.1371094,-0.4605469,-0.3726563,-0.2425781,-0.1898438,-0.1757813
1.32,-0.39375,-0.45,-0.3339844,-0.6679688,-0.5484375,-0.421875,-0.3304688,-0.3410156
1.321,-0.5097656,-0.5378906,-0.4289063,-0.7417969,-0.6011719,-0.4992188,-0.3796875,-0.3972656
1.322,-0.4851563,-0.478125,-0.4007813,-0.6644531,-0.5167969,-0.4570313,-0.3339844,-0.3339844
1.323,-0.3375,-0.2777344,-0.2601563,-0.4253906,-0.2953125,-0.3023438,-0.1933594,-0.1546875
1.324,-0.1335938,-0.0140625,-0.05976563,-0.1230469,-0.02109375,-0.1019531,-0.003515625,0.0703125
1.325,0.07382813,0.2425781,0.1371094,0.1652344,0.2320313,0.084375,0.1722656,0.28125
1.326,0.3128906,0.5378906,0.3621094,0.4816406,0.50625,0.2953125,0.3550781,0.5027344
1.327,0.4535156,0.7171875,0.4957031,0.6890625,0.6679688,0.4253906,0.4570313,0.6398438
1.328,0.4640625,0.7417969,0.5027344,0.7347656,0.675,0.4289063,0.4535156,0.6433594
1.329,0.4605469,0.7207031,0.4851563,0.7242188,0.6257813,0.4042969,0.4113281,0.6082031
1.33,0.4429688,0.675,0.4605469,0.6679688,0.5519531,0.3761719,0.3585938,0.5625
1.331,0.3832031,0.5765625,0.4007813,0.534375,0.4253906,0.3199219,0.2777344,0.478125
1.332,0.3199219,0.4464844,0.3269531,0.3550781,0.2707031,0.253125,0.1933594,0.3726563
1.333,0.2671875,0.3375,0.2777344,0.2003906,0.1511719,0.196875,0.140625,0.2882813
1.334,0.1335938,0.1617188,0.1617188,-0.01054688,-0.02109375,0.084375,0.0421875,0.1582031
1.335,-0.1019531,-0.1019531,-0.04921875,-0.3023438,-0.2777344,-0.1089844,-0.1230469,-0.04570313
1.336,-0.3550781,-0.3585938,-0.2742188,-0.5695313,-0.5132813,-0.3199219,-0.2953125,-0.253125
1.337,-0.534375,-0.5097656,-0.4289063,-0.7207031,-0.6398438,-0.4605469,-0.4007813,-0.3726563
1.338,-0.5835938,-0.5308594,-0.4640625,-0.7171875,-0.6328125,-0.4851563,-0.4042969,-0.3621094
1.339,-0.5027344,-0.4113281,-0.3832031,-0.5695313,-0.4851563,-0.4007813,-0.3128906,-0.2496094
1.34,-0.28125,-0.140625,-0.16875,-0.2636719,-0.196875,-0.1933594,-0.1125,-0.01757813
1.341,-0.0703125,0.1265625,0.03164063,0.03515625,0.06679688,0.00703125,0.0703125,0.2039063
1.342,0.09140625,0.3480469,0.1898438,0.2917969,0.28125,0.16875,0.2074219,0.3832031
1.343,0.2707031,0.5871094,0.3621094,0.5554688,0.4992188,0.3375,0.3375,0.5589844
1.344,0.3691406,0.7171875,0.4535156,0.6996094,0.6046875,0.421875,0.3972656,0.6433594
1.345,0.3761719,0.7207031,0.45,0.7101563,0.5871094,0.4148438,0.3691406,0.6257813
1.346,0.3796875,0.703125,0.4359375,0.6890625,0.5449219,0.3972656,0.3269531,0.590625
1.347,0.4007813,0.6820313,0.4429688,0.6433594,0.4957031,0.3902344,0.3023438,0.5589844
1.348,0.3585938,0.5800781,0.3902344,0.4992188,0.3691406,0.3339844,0.2355469,0.4746094
1.349,0.253125,0.4113281,0.2847656,0.2847656,0.1792969,0.2320313,0.1230469,0.3375
1.35,0.1441406,0.2460938,0.1828125,0.08789063,0.01757813,0.1335938,0.03164063,0.2144531
1.351,-0.003515625,0.03515625,0.0421875,-0.1476563,-0.1722656,0,-0.0703125,0.05976563
1.352,-0.2355469,-0.2214844,-0.1652344,-0.4289063,-0.4113281,-0.196875,-0.2285156,-0.140625
1.353,-0.4605469,-0.4464844,-0.3691406,-0.6574219,-0.6046875,-0.3902344,-0.3796875,-0.3269531
1.354,-0.5414063,-0.5167969,-0.4394531,-0.7347656,-0.6433594,-0.4710938,-0.4148438,-0.3867188
1.355,-0.5097656,-0.4675781,-0.4042969,-0.675,-0.5589844,-0.4429688,-0.3691406,-0.3339844
1.356,-0.4148438,-0.3269531,-0.3128906,-0.4992188,-0.39375,-0.3375,-0.2671875,-0.2074219
1.357,-0.2285156,-0.084375,-0.1335938,-0.2109375,-0.1300781,-0.1511719,-0.09492188,0.003515625
1.358,-0.028125,0.1546875,0.04921875,0.06679688,0.1160156,0.02460938,0.0703125,0.2109375
1.359,0.1652344,0.3972656,0.2355469,0.3410156,0.3550781,0.196875,0.2214844,0.4007813
1.36,0.3480469,0.6222656,0.4042969,0.5941406,0.5695313,0.3585938,0.3515625,0.5625
1.361,0.4570313,0.7417969,0.4992188,0.7207031,0.6679688,0.4324219,0.4113281,0.6292969
1.362,0.5027344,0.7664063,0.5308594,0.7453125,0.6714844,0.4359375,0.4078125,0.6257813
1.363,0.4851563,0.7171875,0.4957031,0.6925781,0.6011719,0.4007813,0.3550781,0.5695313
1.364,0.4324219,0.6152344,0.4324219,0.5730469,0.4816406,0.3410156,0.2777344,0.4851563
1.365,0.3550781,0.4746094,0.3480469,0.39375,0.3164063,0.2601563,0.1898438,0.3761719
1.366,0.2742188,0.3304688,0.2671875,0.2109375,0.1652344,0.1792969,0.1089844,0.2707031
