9005.339027,11189.618550,751.689166,-702.001238,8157.023270,7274.576399,8844.250005,-19593.203913,12360.693498,7984.043119,9596.877944,-5657.338280,22422.107747,2950.899655,21527.322713,5743.705421,-294.264008,-837.895996,-451.888000,8960.000000,-2940.000000,700.000000
-76128.186420,-177243.186801,139157.423575,118684.209130,-171358.330114,121616.579189,-131912.507941,-58959.967966,70343.689065,117224.997845,67360.714657,115810.244180,-169910.384108,-109779.207084,64475.551483,-79467.782911,-293.287994,-835.455994,-450.424011,8960.000000,-2800.000000,420.000000
8354.255063,10459.945853,619.165673,-1305.654801,8089.319836,6986.551820,8905.806709,-19393.088745,12402.088928,8038.402562,9587.758432,-5890.958713,23188.616119,2752.863199,21198.997939,5736.754028,-262.056000,-814.471985,-515.328003,3780.000000,-3780.000000,-2520.000000
8408.882726,10620.744302,742.390840,-1198.031151,8246.899634,7017.978372,8983.479021,-19296.260988,12471.066412,8151.323575,9607.785595,-5782.910381,23245.568364,2794.280981,21288.606082,5860.023899,-261.567993,-816.424011,-519.231995,3360.000000,-3360.000000,-2800.000000
8452.602738,10810.085930,864.811345,-1068.659254,8403.138328,7058.636195,9087.481688,-19182.132981,12540.200357,8232.326297,9630.316154,-5655.997176,23307.862676,2827.003935,21404.365767,6004.594982,-257.664001,-814.471985,-519.720032,3640.000000,-2940.000000,-2940.000000
8432.843796,10832.795302,853.791935,-1047.045117,8391.649531,7066.660472,9111.845089,-19175.025126,12536.892299,8197.614038,9635.859386,-5636.819379,23317.965665,2817.638554,21439.703875,6028.846625,-262.544006,-817.888000,-518.255981,3500.000000,-2660.000000,-2940.000000
8389.749633,10712.766434,759.959311,-1127.556101,8267.530294,7039.771323,9052.143580,-19258.575947,12485.371528,8119.002952,9625.242308,-5712.368275,23277.084324,2785.094414,21378.683612,5941.339545,-261.567993,-814.471985,-518.255981,3640.000000,-2100.000000,-2800.000000
8369.856580,10627.203957,701.978886,-1189.582192,8195.401215,7018.805387,9005.964876,-19308.509744,12447.150045,8077.048728,9611.048950,-5776.853058,23242.394417,2765.670748,21319.406786,5866.125925,-260.592010,-816.911987,-522.160034,3780.000000,-1820.000000,-2660.000000
8357.473714,10557.667680,660.471697,-1235.984413,8143.858092,7004.969657,8972.794887,-19337.209384,12416.550507,8042.559986,9597.682607,-5831.883053,23214.141812,2750.560969,21269.718858,5801.462329,-259.615997,-814.960022,-521.184021,4060.000000,-1820.000000,-2520.000000
8336.686592,10466.159638,604.167653,-1296.982324,8074.008891,6988.831698,8924.179843,-19382.404611,12384.274588,8000.069320,9584.942113,-5895.518469,23181.731782,2734.378306,21211.447860,5729.959098,-260.592010,-813.496033,-520.695984,4200.000000,-1540.000000,-2240.000000
8339.704077,10426.842919,589.616667,-1322.351554,8057.937987,6982.752023,8897.201287,-19404.376376,12386.129783,8009.121777,9581.477592,-5915.702095,23175.272128,2740.972071,21188.157342,5705.171013,-260.104004,-816.424011,-521.671997,4340.000000,-1400.000000,-2100.000000
8389.459060,10543.273156,687.271439,-1244.254559,8180.582008,7006.042541,8950.219625,-19336.024742,12445.697182,8106.865955,9595.536839,-5833.872358,23218.858030,2779.640589,21250.898689,5795.047378,-259.615997,-813.007996,-517.768005,4620.000000,-1400.000000,-1820.000000
8444.109076,10746.785789,827.349821,-1105.539633,8358.837170,7048.644966,9056.613929,-19214.319493,12524.934116,8213.751997,9621.084883,-5695.626819,23286.047374,2819.739618,21367.395981,5949.587339,-261.080017,-813.007996,-519.231995,4620.000000,-1260.000000,-1680.000000
8443.550282,10844.105285,872.232124,-1036.316280,8415.655305,7070.795544,9116.047217,-19162.910481,12550.482160,8223.363247,9633.288936,-5627.856329,23315.194048,2824.366429,21437.580459,6029.338363,-261.080017,-810.080017,-517.768005,5040.000000,-1400.000000,-1120.000000
8393.750595,10746.115237,782.355759,-1094.833147,8302.086091,7052.042431,9070.181438,-19236.179499,12504.616380,8135.252671,9625.577584,-5684.652112,23283.231054,2793.096339,21403.382290,5963.534828,-261.567993,-814.471985,-522.160034,5040.000000,-1680.000000,-840.000000
8368.783697,10649.287480,716.999259,-1158.110935,8217.663552,7030.137721,9016.649010,-19296.193933,12462.058659,8084.938894,9612.345351,-5749.606281,23249.390513,2772.286865,21348.888737,5885.661350,-260.592010,-813.007996,-524.599976,5180.000000,-1680.000000,-420.000000
8362.368746,10584.579180,679.582438,-1202.657962,8168.065032,7015.899660,8980.774460,-19327.620486,12434.230737,8055.300481,9601.728273,-5801.752901,23223.440137,2757.579417,21298.351443,5823.165872,-261.567993,-811.056030,-525.575989,5740.000000,-1680.000000,-140.000000
8353.763324,10512.986542,637.359993,-1251.608283,8110.866917,7004.410863,8943.335288,-19363.740905,12409.666170,8021.236422,9594.843935,-5855.531198,23199.523771,2745.330661,21248.082369,5760.044546,-262.056000,-809.591980,-516.791992,5880.000000,-1540.000000,0.000000
8338.340621,10440.857463,600.837243,-1302.570260,8060.217865,6991.133927,8901.001084,-19403.325844,12384.945140,7999.823451,9591.379415,-5903.900373,23183.341108,2741.061478,21202.618921,5710.021342,-261.567993,-809.104004,-516.791992,6020.000000,-1680.000000,420.000000
8364.469810,10491.975903,653.788525,-1273.781213,8126.513139,6997.437119,8914.658000,-19372.413382,12413.600077,8066.275187,9594.240438,-5866.930588,23203.860009,2764.173182,21223.808375,5753.651947,-263.032013,-811.056030,-519.231995,6160.000000,-1960.000000,560.000000
8430.161587,10691.040539,792.682265,-1142.867046,8309.730388,7037.469093,9012.849213,-19250.439912,12498.268485,8184.068881,9612.054779,-5733.893005,23267.897757,2808.072008,21334.494213,5906.292010,-265.959991,-810.080017,-518.744019,6300.000000,-1960.000000,700.000000
8463.108058,10851.928395,885.486708,-1032.136504,8432.709686,7073.969492,9102.725578,-19156.361420,12553.387887,8240.283518,9632.953660,-5626.291707,23318.300941,2829.440275,21435.345284,6028.891328,-265.959991,-810.567993,-514.351990,6160.000000,-2100.000000,840.000000
8421.667924,10801.614618,828.981498,-1057.841010,8357.339604,7068.470963,9088.934551,-19196.371042,12523.637715,8172.289511,9633.512453,-5651.504475,23303.079403,2808.340229,21430.182031,6004.594982,-266.447998,-809.104004,-518.255981,6160.000000,-1960.000000,980.000000
8387.223886,10690.526449,749.677509,-1131.445304,8248.352498,7042.185312,9030.171815,-19270.645889,12479.448316,8109.078778,9623.163596,-5721.733656,23265.617879,2784.759138,21369.586452,5918.831339,-265.959991,-810.080017,-518.255981,6160.000000,-2380.000000,1120.000000
8376.718566,10621.258392,705.823386,-1179.881535,8191.556715,7024.013343,8991.749166,-19309.381462,12451.396877,8073.315987,9612.255944,-5776.562485,23238.192289,2767.615350,21316.948094,5849.675041,-270.839996,-809.104004,-518.744019,6580.000000,-2800.000000,1120.000000
8363.911016,10550.828046,663.489182,-1226.037887,8139.387743,7009.752930,8959.383840,-19342.082064,12422.607830,8034.960393,9598.710787,-5831.994812,23211.526658,2751.924426,21267.349573,5787.447785,-268.399994,-807.640015,-516.304016,6580.000000,-3080.000000,1260.000000
8345.694345,10460.549350,610.448493,-1284.040664,8069.493838,6993.257343,8913.160433,-19392.619359,12393.192934,7999.421120,9585.366796,-5891.584562,23185.084544,2741.016774,21213.526572,5721.912470,-270.351990,-808.616028,-516.304016,6440.000000,-3360.000000,1260.000000
8358.166618,10452.234501,623.300746,-1290.053283,8080.826173,6992.050349,8900.866974,-19398.430812,12401.530135,8033.127550,9585.165630,-5889.148222,23191.208922,2753.712565,21206.061090,5724.818197,-269.376007,-806.664001,-514.840027,6440.000000,-3640.000000,1120.000000
8422.316125,10619.604363,748.403460,-1182.004950,8241.915195,7026.136759,8976.549980,-19297.937369,12480.364738,8154.452819,9607.472671,-5772.717985,23250.865728,2798.103130,21293.724632,5855.151219,-269.864014,-809.104004,-519.231995,6160.000000,-4200.000000,1120.000000
8468.718346,10812.835194,869.147583,-1049.615568,8401.417244,7068.359204,9081.558476,-19181.283615,12555.421895,8240.641146,9630.606726,-5641.870873,23311.438955,2830.826084,21413.887610,6005.310238,-272.304016,-809.591980,-518.255981,6300.000000,-4340.000000,980.000000
8445.986622,10843.479436,861.726804,-1021.072390,8397.773909,7076.361129,9111.263944,-19174.131057,12555.958337,8208.097006,9636.932270,-5615.205242,23319.619694,2822.153607,21458.769913,6036.714439,-274.743988,-810.080017,-516.304016,6020.000000,-4200.000000,700.000000
8388.833212,10715.403940,757.992358,-1107.126606,8267.910274,7048.399097,9047.270900,-19264.901491,12492.702900,8119.651153,9623.610630,-5695.425653,23278.246615,2788.514231,21395.536828,5946.771019,-271.816010,-810.080017,-515.815979,6160.000000,-4340.000000,560.000000
8366.950854,10619.671419,695.273363,-1172.617218,8191.444956,7027.075532,9000.086367,-19320.445576,12448.424095,8075.864086,9610.668970,-5762.883218,23244.495481,2769.448193,21335.343580,5871.915027,-274.743988,-811.544006,-513.864014,6020.000000,-4200.000000,140.000000
8358.345432,10548.324650,653.676767,-1220.069971,8140.572386,7012.390436,8965.865846,-19348.541719,12418.763330,8044.124609,9601.482403,-5818.404951,23218.567457,2757.422955,21283.465181,5807.072616,-273.768005,-808.127991,-518.744019,5740.000000,-3920.000000,-140.000000
8346.141380,10462.158675,602.781844,-1281.984303,8071.706661,6997.347712,8915.864994,-19389.132486,12393.662321,8006.976009,9592.944037,-5878.642902,23190.650128,2743.475466,21220.075634,5735.614089,-273.279999,-811.056030,-513.864014,6020.000000,-3780.000000,-420.000000
8346.119028,10412.806024,585.906277,-1318.104722,8046.359783,6987.669407,8881.666825,-19416.200449,12387.247370,8009.591163,9587.937246,-5906.806100,23177.797875,2744.436591,21185.899816,5703.561688,-273.279999,-811.056030,-517.280029,5740.000000,-3220.000000,-700.000000
8388.900267,10515.914621,677.839002,-1249.216646,8159.459610,7005.729616,8926.079741,-19352.162701,12435.527138,8102.306199,9598.889601,-5837.605099,23213.717128,2776.109013,21240.303962,5786.665474,-275.231995,-811.544006,-516.791992,5320.000000,-2660.000000,-1260.000000
8445.204311,10721.774187,819.638469,-1110.926403,8338.720600,7047.907358,9031.758789,-19226.970580,12516.775729,8213.573183,9622.627154,-5701.013589,23281.264100,2814.509310,21358.969374,5943.775886,-271.816010,-812.031982,-516.304016,5320.000000,-2380.000000,-1260.000000
8451.239282,10827.766160,867.918237,-1034.416382,8404.233563,7073.343643,9095.617723,-19166.531463,12552.493817,8227.721837,9636.596994,-5625.844672,23314.478792,2822.019496,21435.993485,6029.785398,-271.328003,-810.080017,-513.864014,5180.000000,-2100.000000,-1540.000000
8399.271476,10730.178443,775.113794,-1095.660161,8291.267847,7055.618710,9052.680022,-19235.218374,12503.007055,8136.057333,9626.918689,-5685.546182,23281.040583,2792.626952,21396.900284,5966.641720,-274.743988,-811.544006,-513.375977,5460.000000,-1400.000000,-1680.000000
8366.950854,10627.718047,706.516290,-1168.348034,8200.810337,7031.568233,8995.548963,-19296.171581,12452.827388,8083.307217,9610.713674,-5757.854075,23242.886155,2769.783469,21329.152146,5885.951923,-270.839996,-811.544006,-515.328003,5320.000000,-1260.000000,-1820.000000
8357.540769,10564.641424,670.753499,-1214.347925,8152.441162,7016.525509,8962.714250,-19328.805128,12423.434844,8051.187760,9598.263752,-5810.291268,23214.544143,2752.080888,21279.263053,5824.328163,-271.328003,-811.056030,-515.815979,5460.000000,-840.000000,-1820.000000
8353.293938,10498.837888,631.347374,-1258.514972,8099.467528,7003.159166,8929.588965,-19366.937204,12402.647722,8018.889489,9589.188944,-5860.962672,23191.700660,2739.049821,21235.341875,5762.078555,-271.328003,-809.104004,-513.864014,5460.000000,-700.000000,-1820.000000
8345.850807,10435.940079,599.496138,-1302.234984,8056.529827,6990.642189,8893.893229,-19405.940998,12388.074385,8004.338503,9580.628226,-5900.502908,23175.316832,2735.607652,21195.064031,5713.105883,-271.816010,-812.031982,-517.768005,5880.000000,-700.000000,-1820.000000
8379.691348,10495.507478,655.017871,-1266.069861,8128.837720,6999.582887,8916.535546,-19372.726306,12426.474682,8072.757193,9588.451336,-5854.391259,23199.076736,2761.692138,21222.511974,5761.229189,-271.328003,-812.031982,-515.328003,5740.000000,-420.000000,-1820.000000
8441.136294,10692.761623,795.900917,-1136.005060,8307.964600,7037.066762,9017.744245,-19251.199871,12507.052720,8192.204916,9610.266639,-5723.186520,23265.506120,2806.328572,21335.365931,5913.623382,-268.888000,-810.080017,-513.864014,6020.000000,-560.000000,-1960.000000
8468.830105,10856.219930,892.572211,-1024.648669,8429.491035,7073.745975,9111.532165,-19153.656859,12563.155599,8247.346669,9630.316154,-5615.585222,23316.065766,2827.115694,21439.905040,6042.525893,-269.376007,-810.080017,-518.744019,6160.000000,-560.000000,-1820.000000
8424.752465,10813.282229,834.636490,-1051.649577,8354.433877,7066.302844,9098.076415,-19187.497400,12532.712523,8170.031985,9626.650468,-5641.222673,23299.570179,2799.243069,21433.333627,6022.923413,-269.864014,-812.031982,-518.255981,6440.000000,-560.000000,-1680.000000
8383.178220,10696.583771,746.078878,-1130.528883,8241.736381,7036.575024,9037.257318,-19260.431142,12477.101383,8101.166260,9609.081997,-5720.057275,23258.465321,2772.756251,21367.597147,5936.913900,-265.959991,-811.056030,-513.864014,6720.000000,-560.000000,-1680.000000
8370.437726,10622.823015,697.463834,-1178.451023,8184.046529,7019.252422,8999.482870,-19296.573913,12447.217101,8067.169257,9597.861421,-5777.970645,23228.804556,2757.713527,21315.495231,5870.149239,-266.447998,-811.544006,-515.815979,6440.000000,-700.000000,-1820.000000
8356.266720,10550.023383,651.039261,-1227.155474,8128.904775,7003.941477,8963.585968,-19328.156928,12416.706969,8030.735914,9585.947941,-5836.867492,23200.753117,2740.927367,21262.834521,5807.117320,-269.376007,-812.520020,-516.791992,6860.000000,-1120.000000,-1680.000000
8340.687554,10463.522132,598.870289,-1285.471175,8062.900074,6987.468241,8915.105035,-19379.565940,12387.135611,7997.968256,9576.984892,-5896.099615,23175.383887,2729.572681,21211.067881,5739.793866,-264.007996,-807.640015,-519.231995,6580.000000,-1400.000000,-1540.000000
8360.133572,10469.311234,620.037391,-1282.073710,8086.324702,6986.730634,8908.108939,-19383.097515,12402.938295,8037.039106,9580.762336,-5886.845992,23185.419820,2748.459905,21211.447860,5746.119409,-264.496002,-811.544006,-516.791992,6720.000000,-1540.000000,-1400.000000
8418.248107,10635.116474,745.095401,-1172.706625,8246.184378,7020.571175,8985.267161,-19283.967529,12473.949787,8150.138932,9598.442566,-5774.439070,23242.975562,2792.537545,21300.452507,5875.468954,-263.032013,-808.616028,-515.815979,6720.000000,-1680.000000,-1540.000000
8460.895236,10828.101436,867.560609,-1043.468838,8402.624238,7062.570103,9083.726595,-19171.180626,12543.284898,8233.846215,9619.363799,-5646.587091,23303.504086,2822.667697,21413.887610,6021.358791,-262.544006,-811.056030,-517.280029,6720.000000,-1820.000000,-1400.000000
8444.131427,10864.579483,865.303083,-1015.484454,8401.573706,7075.265893,9113.588525,-19157.948394,12548.001116,8207.448805,9628.282145,-5617.194547,23314.635255,2815.001048,21453.181976,6056.763954,-262.544006,-810.080017,-514.840027,6580.000000,-1820.000000,-1400.000000
8389.749633,10737.688629,764.831992,-1099.616420,8272.179457,7047.974413,9052.367097,-19241.968601,12484.924493,8118.600621,9614.558174,-5696.431481,23271.563443,2783.686254,21390.306519,5969.368633,-261.567993,-809.591980,-513.375977,6580.000000,-2240.000000,-1540.000000
8370.415374,10648.751038,707.008029,-1158.893247,8200.318599,7026.896718,9006.657780,-19291.857695,12444.691353,8072.734841,9599.001360,-5760.469229,23238.415806,2765.491934,21331.655542,5891.428100,-260.104004,-810.080017,-513.864014,6300.000000,-2240.000000,-1400.000000
8363.486333,10583.305130,666.841944,-1204.311991,8153.871674,7012.993933,8973.241922,-19321.294942,12420.886746,8038.760190,9587.177287,-5813.331105,23212.890114,2750.516266,21279.955957,5824.663439,-258.640015,-809.591980,-515.328003,6020.000000,-2520.000000,-1400.000000
8349.829417,10497.317969,611.968411,-1261.890085,8087.531696,6997.727692,8930.326573,-19367.987736,12394.511687,8000.046968,9576.739022,-5875.156030,23184.861026,2736.457018,21224.344817,5755.082459,-259.615997,-810.080017,-514.840027,5880.000000,-2660.000000,-1260.000000
8352.377516,10452.256853,595.964562,-1291.394388,8063.212998,6991.178631,8905.113805,-19396.039176,12391.091870,8007.490099,9577.253112,-5897.396016,23177.775523,2742.246120,21200.026119,5726.941613,-258.152008,-809.591980,-511.912018,5880.000000,-3080.000000,-1120.000000
8399.964380,10558.941729,688.411377,-1219.086494,8176.826915,7009.998800,8950.778419,-19336.203556,12445.920699,8104.943705,9593.122851,-5818.069675,23216.734614,2775.952551,21256.888957,5808.838404,-256.687988,-811.056030,-512.888000,5740.000000,-3080.000000,-840.000000
8458.749468,10768.981072,829.450885,-1075.476536,8358.613653,7052.020079,9060.301967,-19211.033787,12531.840805,8215.987172,9618.425026,-5676.136097,23282.314632,2816.856243,21381.187008,5964.093621,-258.152008,-814.471985,-513.864014,5460.000000,-3780.000000,-700.000000
8464.247997,10881.633864,883.363293,-993.535041,8431.212119,7078.842172,9135.247366,-19146.079617,12565.368422,8233.354477,9631.947831,-5599.491966,23316.512801,2827.115694,21464.514311,6056.406326,-259.615997,-811.056030,-511.912018,5320.000000,-3920.000000,-420.000000
8411.453177,10784.269665,795.386826,-1057.282216,8316.435911,7059.709079,9093.941342,-19216.733481,12516.596915,8144.416886,9624.281183,-5656.824190,23284.527455,2795.979714,21424.035302,5995.184898,-256.200012,-812.031982,-513.375977,5320.000000,-3780.000000,-280.000000
8381.703005,10681.272826,726.521102,-1129.500703,8224.234965,7036.396210,9039.894824,-19276.613805,12468.540665,8091.979693,9610.020770,-5722.963002,23247.311800,2774.678501,21360.891624,5913.981010,-258.152008,-817.400024,-512.888000,5460.000000,-4060.000000,0.000000
8368.157848,10607.087386,683.024607,-1180.417976,8166.835686,7021.241727,9000.354588,-19308.196820,12433.493129,8055.300481,9596.967351,-5778.730604,23218.187477,2756.595940,21303.358233,5843.908291,-256.200012,-815.447998,-513.864014,5320.000000,-4200.000000,280.000000
8351.863426,10525.414112,632.442609,-1234.151570,8103.535545,7007.294238,8959.070916,-19345.747750,12402.178335,8013.122739,9583.511601,-5839.616756,23189.420782,2740.972071,21247.590631,5775.310788,-258.152008,-817.888000,-515.328003,5320.000000,-4200.000000,420.000000
8336.552481,10450.848693,592.745911,-1286.879335,8052.081830,6993.123232,8917.250802,-19387.053774,12380.027757,7991.933285,9571.709880,-5889.572905,23168.767770,2735.004155,21200.048471,5728.372124,-260.592010,-815.936035,-513.375977,5320.000000,-4060.000000,700.000000
8366.325005,10499.530792,645.898360,-1258.224399,8115.471377,7001.594544,8931.891195,-19361.572786,12414.382388,8054.674632,9580.024729,-5850.211483,23194.673442,2759.054632,21220.612075,5773.388538,-255.223999,-816.911987,-514.351990,5180.000000,-4060.000000,980.000000
8433.447293,10696.896696,784.054492,-1126.796141,8295.157051,7041.581814,9030.507091,-19245.835453,12500.235438,8176.111660,9604.589296,-5716.793921,23262.354524,2802.528775,21333.577792,5923.726371,-259.127991,-818.376038,-517.768005,5040.000000,-4340.000000,980.000000
8466.460820,10864.981814,881.329284,-1011.617602,8424.908927,7078.372786,9126.641944,-19146.549004,12559.176989,8236.684887,9625.532880,-5606.532765,23315.730490,2825.729886,21441.447311,6051.980680,-259.127991,-815.447998,-515.328003,5180.000000,-4340.000000,1400.000000
8426.808825,10823.385218,830.724934,-1033.298794,8358.636005,7075.891742,9116.851880,-19177.908501,12531.013790,8169.763764,9627.343372,-5627.029315,23307.125069,2801.992333,21438.005142,6035.350983,-259.127991,-816.424011,-516.304016,5180.000000,-4060.000000,1680.000000
8375.377461,10693.029844,740.647404,-1121.185854,8237.690716,7046.119219,9050.578958,-19258.039505,12465.478476,8093.097281,9613.731159,-5712.725903,23264.701458,2771.996292,21366.524263,5940.914862,-260.592010,-815.936035,-510.936005,5180.000000,-4200.000000,1820.000000
8354.277415,10612.787081,691.518270,-1176.618180,8175.619921,7025.063875,9007.887126,-19300.910151,12426.988772,8054.518170,9598.308456,-5775.780174,23231.129137,2752.349109,21309.080280,5866.483553,-262.544006,-815.936035,-512.400024,5600.000000,-4060.000000,1960.000000
8348.778885,10543.407267,648.982900,-1224.629727,8120.589926,7011.675180,8971.118506,-19336.739997,12405.352283,8020.230594,9583.690415,-5829.133788,23202.340091,2738.848655,21254.832596,5799.070692,-262.544006,-816.911987,-515.328003,5460.000000,-4340.000000,2240.000000
8342.520397,10465.556141,601.731312,-1279.615018,8059.524960,6996.319532,8925.275078,-19383.544550,12385.191010,7991.709768,9575.353214,-5880.967484,23179.295442,2730.109123,21203.803564,5733.468322,-262.544006,-815.447998,-512.888000,5740.000000,-4340.000000,2380.000000
8361.094697,10464.058574,615.701153,-1284.979437,8076.646397,6994.531392,8912.288715,-19384.908007,12398.982036,8029.484216,9577.342519,-5874.463126,23183.989308,2743.833094,21197.969758,5737.536339,-267.912018,-815.447998,-513.864014,5880.000000,-4620.000000,2660.000000
8418.292811,10621.392503,739.418058,-1181.714378,8230.426399,7026.919070,8986.652969,-19286.806200,12468.384203,8144.439238,9600.834203,-5767.733546,23240.405111,2786.904906,21287.309681,5858.548684,-263.519989,-816.424011,-517.768005,6580.000000,-4760.000000,2800.000000
8459.040041,10815.137424,865.973635,-1049.101478,8393.705892,7069.007405,9094.209563,-19166.754981,12534.724180,8229.822901,9624.437645,-5640.887396,23303.213513,2820.790150,21408.009101,6007.701875,-265.959991,-817.400024,-516.304016,6860.000000,-4900.000000,2940.000000
8438.923471,10851.771933,861.078603,-1021.318259,8392.901229,7079.378614,9125.189081,-19153.545100,12535.148863,8199.201012,9630.249099,-5616.054608,23312.333025,2812.564708,21445.828253,6042.190616,-266.936005,-815.936035,-511.912018,7700.000000,-5320.000000,2940.000000
8386.374520,10731.094865,758.864076,-1107.216013,8264.803382,7052.489466,9063.744135,-19239.688723,12478.107211,8111.582173,9615.228726,-5694.509231,23268.925937,2781.026397,21381.522284,5954.012985,-265.959991,-815.936035,-515.815979,8120.000000,-5040.000000,3080.000000
8370.191857,10654.048402,708.393837,-1163.654168,8195.960009,7033.401076,9020.739379,-19285.442744,12445.764237,8073.986539,9605.393959,-5754.925997,23238.885193,2766.095432,21324.190059,5881.593332,-268.888000,-815.936035,-517.768005,8540.000000,-4900.000000,3220.000000
8362.592264,10594.369244,671.312293,-1203.753198,8148.641366,7017.285468,8988.597570,-19313.829459,12424.127749,8043.968146,9596.252095,-5806.402064,23212.241913,2752.013833,21276.245567,5817.957916,-266.936005,-813.007996,-513.375977,9100.000000,-4480.000000,3220.000000
8344.196778,10505.990446,616.394057,-1261.241884,8079.418013,6999.694645,8941.010707,-19362.980945,12392.097699,8000.538707,9584.271560,-5870.283350,23182.938776,2734.244196,21221.416738,5741.693764,-269.864014,-814.471985,-514.351990,9100.000000,-4200.000000,3080.000000
8344.174426,10459.521170,597.998571,-1291.372036,8056.194551,6990.239857,8913.898041,-19395.323920,12386.040376,8004.249096,9581.365833,-5896.926629,23175.294480,2735.160617,21196.047508,5712.614144,-270.351990,-815.447998,-513.864014,9240.000000,-3640.000000,2940.000000
8386.933313,10557.958252,681.437633,-1226.484922,8163.974662,7007.830680,8959.227378,-19338.058750,12436.398856,8094.885420,9592.765223,-5827.725628,23211.191381,2767.972978,21251.166910,5796.433186,-273.279999,-815.936035,-513.375977,9240.000000,-3220.000000,2940.000000
8444.533759,10766.052993,823.728838,-1086.205374,8347.817760,7052.578873,9065.241702,-19212.285484,12518.943848,8206.845308,9617.732122,-5689.413034,23278.805408,2811.357714,21372.268662,5954.795296,-272.791992,-813.496033,-513.375977,9100.000000,-2660.000000,2660.000000
8455.799038,10882.460878,882.759796,-1003.839195,8423.232546,7082.865486,9134.621517,-19142.860966,12554.594881,8229.241756,9634.227709,-5607.940925,23318.636217,2822.310069,21454.701895,6047.286814,-273.768005,-815.447998,-509.472015,9240.000000,-1960.000000,2380.000000
8406.088758,10787.600075,797.353780,-1063.205429,8313.083150,7067.576893,9095.885944,-19209.580923,12509.824337,8139.298336,9625.488177,-5661.071022,23289.646004,2793.722188,21420.190802,5986.579476,-277.183990,-815.936035,-507.520020,8960.000000,-1540.000000,2240.000000
8376.293883,10682.725690,727.303413,-1136.675613,8221.239832,7043.437009,9039.984231,-19273.126933,12463.042136,8085.832964,9608.478499,-5732.618956,23251.469225,2774.410281,21358.969374,5903.341580,-276.696014,-813.007996,-509.959991,9100.000000,-1120.000000,1820.000000
8363.642796,10613.100006,682.979904,-1187.369369,8166.120430,7026.740256,9000.466347,-19305.626369,12432.174377,8051.299519,9596.408557,-5790.889953,23220.869687,2758.719356,21305.973387,5834.274689,-273.768005,-813.496033,-508.496002,9100.000000,-840.000000,1540.000000
8346.700173,10533.214871,632.621423,-1240.968852,8103.580249,7010.378779,8958.936806,-19344.808977,12400.814879,8010.015846,9584.539781,-5851.217312,23190.828942,2744.391888,21251.837462,5765.140744,-275.231995,-810.080017,-506.056000,9240.000000,-280.000000,980.000000
8335.032563,10461.599882,596.612763,-1290.723835,8052.998251,6996.498346,8916.535546,-19384.125696,12378.418431,7993.095576,9576.247284,-5899.541783,23171.405276,2740.301518,21206.016386,5714.648153,-273.768005,-813.007996,-507.032013,8960.000000,0.000000,700.000000
8367.174371,10506.951571,647.731203,-1259.565504,8110.822214,7004.209698,8929.253689,-19358.868224,12411.096681,8054.205245,9582.326958,-5863.019033,23190.672480,2762.854429,21227.407006,5753.406078,-274.743988,-813.007996,-503.615997,8960.000000,140.000000,280.000000
8431.413285,10696.606123,789.061283,-1131.557063,8287.110423,7041.447704,9021.521690,-19245.455473,12491.473555,8174.345872,9604.656351,-5733.088342,23254.218489,2803.489900,21329.465071,5897.507775,-273.768005,-812.031982,-508.007996,8960.000000,560.000000,140.000000
8460.492904,10858.656270,888.548897,-1019.954803,8414.403607,7077.568123,9114.460244,-19148.761827,12546.682363,8232.974497,9623.945907,-5622.581318,23306.968606,2824.813464,21431.031398,6025.516215,-274.256012,-810.080017,-508.007996,8680.000000,700.000000,-280.000000
8416.750540,10822.021761,836.692850,-1037.702088,8350.119990,7073.723623,9109.811081,-19181.909464,12518.675628,8164.242883,9621.598973,-5642.273205,23295.032775,2802.595830,21433.400683,6012.194575,-272.304016,-812.031982,-509.472015,8540.000000,1120.000000,-560.000000
8374.595150,10707.022036,749.051660,-1116.246118,8238.316564,7045.649832,9051.987118,-19258.643002,12464.450296,8095.935952,9605.952752,-5721.174863,23254.710228,2775.997254,21370.078191,5926.877967,-275.720001,-813.007996,-510.447998,8260.000000,1540.000000,-700.000000
8358.211322,10631.271974,698.536718,-1169.778546,8176.871619,7028.260175,9014.078559,-19297.870314,12429.045132,8058.899112,9590.462993,-5780.541096,23226.167050,2760.731013,21316.590466,5855.955882,-274.256012,-809.591980,-507.520020,8120.000000,1680.000000,-700.000000
8342.073362,10556.237168,650.569874,-1222.551015,8119.539394,7013.999762,8976.862905,-19331.889669,12395.562219,8019.537690,9576.783726,-5841.740172,23197.936797,2744.414239,21263.303907,5787.291323,-273.279999,-811.544006,-507.032013,7700.000000,2240.000000,-840.000000
8333.959679,10475.055632,602.915955,-1278.609190,8059.189684,6999.158204,8934.483997,-19382.270501,12376.183257,7992.313265,9571.665176,-5896.993684,23173.528692,2736.009984,21216.186430,5722.493615,-274.743988,-807.640015,-509.472015,7420.000000,2660.000000,-980.000000
8355.372650,10475.480315,622.049048,-1281.581972,8076.534638,6998.465299,8927.331439,-19388.171361,12398.333835,8031.451169,9576.962540,-5887.538897,23181.195340,2751.142115,21213.794793,5727.589813,-274.256012,-809.591980,-505.080017,7140.000000,2800.000000,-1120.000000
8414.627125,10630.914346,745.408326,-1180.887363,8229.666439,7029.489521,8999.594629,-19295.568084,12470.664080,8146.227377,9594.083976,-5781.323407,23235.510079,2790.794109,21295.713937,5845.182341,-275.231995,-807.152039,-507.032013,7000.000000,3080.000000,-1120.000000
8456.804866,10824.189880,873.036787,-1050.375527,8389.526116,7069.275626,9100.915086,-19177.372060,12538.367514,8233.890919,9615.407540,-5654.857237,23296.977377,2818.130293,21409.797240,5993.642627,-271.328003,-811.544006,-510.936005,6580.000000,3360.000000,-840.000000
8437.023573,10862.009032,871.360406,-1020.066562,8391.895401,7077.791640,9129.212395,-19158.127208,12539.440398,8205.347741,9618.827357,-5626.425818,23307.840324,2808.764912,21448.018723,6032.244090,-277.183990,-812.520020,-509.959991,6160.000000,3780.000000,-980.000000
8386.463927,10739.454417,770.308169,-1099.392903,8264.512809,7049.717849,9067.745098,-19242.996781,12482.018767,8115.761950,9605.393959,-5700.611258,23264.388533,2775.214943,21389.077173,5946.256929,-272.304016,-811.056030,-508.007996,5880.000000,3780.000000,-980.000000
8370.460078,10655.367155,716.999259,-1152.880627,8196.004712,7032.037620,9025.589708,-19290.091907,12446.747714,8075.707623,9595.693302,-5757.719965,23234.057216,2760.082812,21337.176423,5874.954864,-271.816010,-810.080017,-508.984009,5740.000000,3920.000000,-980.000000
8363.575740,10594.972741,681.147061,-1193.851375,8151.256520,7021.711114,8996.443033,-19317.338683,12422.116092,8046.493893,9585.322092,-5809.397198,23209.515001,2748.750478,21291.243588,5813.487567,-273.768005,-812.031982,-511.912018,5320.000000,3920.000000,-840.000000
8346.744877,10508.784414,626.877025,-1253.016442,8083.955417,7005.014361,8950.286680,-19364.322050,12391.538905,8006.685437,9572.603950,-5873.457297,23179.474256,2732.545463,21233.441977,5740.799694,-272.304016,-810.567993,-508.496002,5040.000000,3780.000000,-840.000000
8337.021868,10454.983765,606.916917,-1291.841423,8054.965205,6993.458509,8916.177918,-19394.206332,12377.211437,8001.566887,9563.775011,-5906.470824,23166.666706,2734.534768,21199.914360,5708.099092,-272.304016,-815.447998,-510.447998,4760.000000,3500.000000,-560.000000
8377.947912,10550.582177,691.361808,-1231.447009,8158.252616,7010.289372,8955.516989,-19338.550489,12425.357094,8085.832964,9572.603950,-5840.153198,23202.965939,2767.324778,21248.082369,5784.027968,-272.791992,-814.471985,-511.912018,4620.000000,3220.000000,-420.000000
8439.661078,10759.168656,835.932891,-1089.535783,8338.742952,7054.121143,9059.944339,-19214.051272,12511.187793,8202.062035,9597.950828,-5702.064121,23270.691725,2810.888327,21366.457208,5941.965394,-274.743988,-816.424011,-511.424011,4480.000000,2380.000000,-280.000000
8454.055602,10882.684396,894.449758,-1001.179338,8420.751503,7083.357225,9130.173520,-19144.157367,12550.348049,8229.644088,9615.787520,-5618.937983,23308.086194,2822.913566,21452.377314,6040.670698,-273.279999,-815.936035,-512.400024,4760.000000,2100.000000,0.000000
8398.086834,10789.656435,803.545213,-1061.976083,8311.183251,7065.721698,9090.141546,-19212.576057,12499.944866,8139.387743,9606.980933,-5674.146792,23277.017269,2791.777586,21418.447366,5983.383177,-274.743988,-814.960022,-511.424011,4480.000000,1680.000000,0.000000
8369.364842,10687.486611,733.897177,-1135.490970,8221.329239,7041.380649,9036.296193,-19279.430125,12453.967327,8084.581266,9594.754528,-5744.107752,23241.880326,2772.532734,21356.667144,5901.933420,-273.279999,-817.400024,-508.496002,4620.000000,980.000000,420.000000
8361.966415,10619.067922,695.563936,-1180.999122,8170.009633,7025.689724,9001.114547,-19312.555410,12427.145234,8051.634795,9586.238514,-5797.461366,23215.505268,2757.110030,21305.101669,5835.794608,-271.816010,-815.447998,-513.375977,4340.000000,700.000000,700.000000
8340.665202,10531.516138,646.814781,-1235.827951,8104.653133,7009.998800,8959.361489,-19349.614602,12391.985940,8008.138300,9572.469839,-5860.001547,23188.347899,2738.043992,21250.563413,5764.604302,-274.743988,-820.328003,-515.815979,4760.000000,0.000000,700.000000
8331.188063,10455.609614,609.263850,-1286.231135,8054.965205,6995.470166,8916.870823,-19390.294777,12372.696385,7991.754471,9567.708918,-5906.940211,23172.075829,2731.785504,21204.407061,5709.440197,-273.279999,-814.471985,-514.840027,4620.000000,-420.000000,980.000000
8358.121915,10491.059481,652.581531,-1265.801640,8107.335342,6998.375892,8922.592869,-19370.804056,12400.211382,8047.656184,9573.296854,-5877.882943,23187.498532,2750.002176,21215.918209,5741.403191,-269.864014,-814.960022,-515.328003,5600.000000,-1680.000000,1260.000000
8418.918660,10677.383623,790.938829,-1138.530807,8283.243571,7036.306803,9016.604306,-19256.944270,12479.716537,8166.656872,9594.329845,-5749.852151,23247.960001,2794.616258,21322.848955,5889.774071,-271.328003,-817.400024,-511.912018,5880.000000,-1960.000000,1400.000000
8452.155704,10847.033363,894.114482,-1020.200672,8416.907003,7072.941312,9110.235764,-19159.334202,12539.529805,8231.611041,9615.586354,-5632.639603,23300.598359,2820.186653,21432.216040,6019.414189,-269.376007,-813.496033,-513.375977,5740.000000,-2100.000000,1400.000000
8409.396816,10814.064540,843.465429,-1037.545626,8356.713755,7069.655606,9104.357255,-19191.006624,12513.490023,8164.712270,9615.787520,-5646.989423,23290.338908,2795.711493,21435.837023,6005.667866,-271.328003,-816.911987,-509.472015,5880.000000,-2240.000000,1540.000000
8368.359014,10697.857821,753.253788,-1116.335525,8242.094009,7044.241672,9046.667403,-19269.617709,12463.288005,8091.934990,9601.482403,-5724.572328,23251.089245,2769.850525,21374.950871,5919.211318,-267.424011,-812.520020,-514.351990,5460.000000,-2520.000000,1540.000000
8358.345432,10623.381808,702.917660,-1167.498668,8179.352662,7026.136759,9007.261277,-19312.287189,12433.023743,8056.194551,9589.323054,-5784.229134,23221.093204,2754.718394,21322.580734,5846.277576,-271.816010,-816.911987,-509.959991,5180.000000,-2100.000000,1680.000000
8348.778885,10553.242034,653.989691,-1218.237128,8120.724037,7010.468186,8969.196256,-19347.602945,12406.961609,8021.258774,9579.465935,-5839.907329,23193.265282,2738.267510,21268.288346,5777.903590,-268.888000,-819.351990,-511.424011,4620.000000,-2100.000000,1540.000000
8336.016039,10475.681481,605.218185,-1274.250600,8061.760135,6995.716035,8925.364485,-19391.322957,12381.704138,7992.983817,9571.128734,-5893.149184,23169.170102,2728.455094,21215.515878,5718.939688,-269.864014,-818.864014,-508.007996,4480.000000,-1680.000000,1400.000000
8351.125819,10468.327757,615.321173,-1282.721911,8071.773716,6994.151413,8912.825157,-19398.497867,12394.332873,8024.857405,9574.325034,-5891.450452,23174.981555,2741.217940,21206.105793,5721.845415,-268.888000,-815.936035,-509.472015,4480.000000,-1540.000000,1540.000000
8410.134424,10620.073750,733.673660,-1180.797956,8222.893861,7023.856881,8986.317693,-19307.101584,12467.244264,8137.219624,9593.882810,-5785.771404,23228.804556,2786.569629,21293.456411,5842.768352,-268.888000,-816.911987,-509.472015,4060.000000,-1820.000000,1540.000000
8464.180942,10826.626221,867.694720,-1035.869245,8398.869145,7068.113335,9099.194002,-19183.742307,12548.738724,8233.198015,9619.497909,-5645.000117,23294.384574,2828.792075,21423.856488,6000.728130,-266.936005,-816.424011,-509.472015,3920.000000,-1960.000000,1680.000000
8459.375317,10886.730061,882.357464,-986.874221,8420.550337,7084.720681,9142.534035,-19155.512053,12566.396602,8223.676172,9634.294764,-5598.262620,23316.132822,2828.702668,21478.998241,6053.947634,-270.351990,-816.424011,-506.544006,3780.000000,-2100.000000,1540.000000
8409.016837,10766.857656,785.261486,-1065.440603,8294.888830,7060.312576,9086.431156,-19235.263078,12508.393825,8136.861996,9624.102369,-5671.621045,23276.749048,2795.845603,21421.934238,5973.570761,-267.912018,-819.840027,-509.959991,3780.000000,-2100.000000,1680.000000
8393.258857,10684.670292,731.013802,-1122.996345,8225.888994,7041.045373,9046.399182,-19282.738183,12473.435697,8097.232353,9612.300648,-5731.322555,23245.389550,2777.561876,21368.871196,5903.900373,-271.328003,-817.888000,-509.959991,3360.000000,-2240.000000,1680.000000
8388.676749,10626.667515,696.413302,-1162.469526,8180.313787,7029.780093,9020.761731,-19307.235695,12451.508635,8067.437478,9601.661217,-5780.138764,23220.981445,2763.703795,21325.888792,5845.785838,-268.888000,-820.815979,-510.447998,3360.000000,-2100.000000,1680.000000
8374.148115,10538.132255,643.640833,-1222.215739,8109.011723,7013.105692,8977.198181,-19351.335687,12422.965458,8027.025524,9590.865325,-5841.315489,23193.891131,2748.795181,21271.104666,5775.221381,-267.912018,-817.888000,-505.567993,2940.000000,-2100.000000,1540.000000
8366.056784,10480.308292,619.322135,-1262.180658,8075.439403,7001.840413,8941.658907,-19380.191789,12409.666170,8023.225727,9583.601008,-5873.792574,23180.860064,2750.695080,21236.973552,5741.693764,-264.984009,-818.864014,-504.592010,2660.000000,-1960.000000,1680.000000
8402.557183,10568.463572,696.167433,-1203.887308,8173.585912,7017.464282,8978.114602,-19326.324085,12452.983851,8103.267324,9594.016921,-5811.542965,23214.253570,2781.093452,21282.369945,5815.141596,-266.936005,-822.768005,-507.032013,3220.000000,-2100.000000,1540.000000
8462.102230,10773.831400,836.424629,-1063.406594,8358.859522,7060.022004,9083.972464,-19206.183458,12535.730009,8217.082407,9618.045046,-5675.532600,23280.884121,2823.494711,21400.320101,5970.888552,-265.472015,-821.304016,-504.104004,3080.000000,-1960.000000,1540.000000
8475.379166,10895.983684,897.891927,-976.570067,8443.885558,7088.945161,9155.296881,-19139.709370,12574.554989,8245.692640,9634.115950,-5593.836974,23319.485583,2837.084572,21482.798038,6067.023404,-263.519989,-819.840027,-508.496002,3080.000000,-1820.000000,1400.000000
8422.003200,10804.632104,809.691943,-1035.422210,8335.256080,7070.661434,9114.639057,-19204.931760,12526.454035,8155.391592,9623.789444,-5650.342184,23290.830647,2805.099226,21445.850604,6006.874860,-265.472015,-820.328003,-505.080017,2940.000000,-1400.000000,1260.000000
8384.318159,10693.163954,735.037116,-1112.535729,8237.444846,7045.627480,9056.792743,-19269.148322,12471.424040,8094.304275,9606.556249,-5728.550938,23252.720923,2779.059443,21380.605862,5922.608784,-264.984009,-818.864014,-505.567993,2940.000000,-1400.000000,1260.000000
8366.704985,10616.117491,691.406511,-1165.554066,8178.749165,7029.266003,9016.649010,-19304.106451,12434.700124,8053.847617,9591.245304,-5789.973532,23222.143736,2759.747536,21325.531164,5852.983100,-263.032013,-817.400024,-504.592010,3080.000000,-1960.000000,1120.000000
8352.422220,10538.244014,645.227807,-1220.002916,8115.046694,7014.536204,8974.270102,-19342.819672,12407.229830,8014.106216,9579.689453,-5845.584672,23192.415916,2742.782562,21269.048306,5780.049357,-264.007996,-818.864014,-506.544006,3920.000000,-2100.000000,980.000000
8332.439760,10452.167446,600.993705,-1280.665550,8053.981728,6998.822927,8925.677410,-19386.807905,12378.396079,7987.015901,9569.519409,-5898.044216,23168.074866,2730.802027,21214.934732,5716.972735,-262.056000,-820.815979,-505.080017,4480.000000,-2240.000000,1120.000000
8344.219130,10470.942911,635.147170,-1273.401233,8094.594848,6999.515831,8926.482073,-19370.155855,12391.114222,8032.099370,9570.011147,-5880.967484,23179.094276,2745.710641,21219.382729,5741.850226,-262.056000,-819.351990,-508.007996,5040.000000,-2940.000000,980.000000
8399.606752,10656.015355,770.688149,-1150.891322,8271.285387,7035.300974,9018.168928,-19253.323287,12465.322014,8145.936805,9593.882810,-5757.742316,23242.752045,2790.727054,21323.318341,5886.778937,-263.519989,-820.328003,-506.544006,5740.000000,-3080.000000,1120.000000
8440.488093,10831.767122,875.897810,-1030.750696,8409.106244,7072.449574,9115.063741,-19153.098065,12532.198433,8217.730608,9616.703941,-5635.455923,23303.012348,2817.482092,21431.657247,6021.425846,-263.032013,-817.400024,-507.520020,5880.000000,-3080.000000,1120.000000
8415.342380,10814.913906,835.709373,-1036.495094,8356.803162,7071.734318,9117.298915,-19178.802571,12521.782520,8163.527627,9620.235517,-5636.685268,23299.391365,2800.248897,21442.609601,6016.821386,-264.007996,-816.911987,-507.520020,5740.000000,-2940.000000,1400.000000
8377.053842,10698.640132,750.415117,-1114.659144,8241.557567,7043.928748,9055.719859,-19258.508892,12471.379336,8093.074929,9606.958581,-5711.943592,23259.046466,2775.661978,21379.532978,5929.381362,-264.496002,-817.400024,-505.080017,5740.000000,-2800.000000,1260.000000
8359.641833,10617.525651,701.710665,-1171.298465,8175.239942,7024.281564,9012.871565,-19302.832401,12433.247260,8053.780562,9591.290008,-5775.355491,23225.161222,2756.506533,21322.178402,5856.671137,-264.496002,-819.840027,-505.080017,5600.000000,-2660.000000,1540.000000
8345.537883,10546.067124,661.008139,-1220.114675,8120.366409,7009.015323,8977.555809,-19337.611716,12404.771138,8018.174233,9581.678758,-5833.782951,23195.701622,2740.949719,21271.171721,5791.560506,-264.496002,-816.911987,-507.520020,5180.000000,-2660.000000,1540.000000
8331.165711,10468.014832,615.857615,-1271.613094,8064.107068,6992.944419,8936.249785,-19380.795286,12380.743013,7986.300646,9572.335729,-5888.589428,23170.801779,2731.651393,21224.948314,5730.830816,-264.007996,-817.888000,-504.104004,5320.000000,-2380.000000,1680.000000
8344.889682,10455.900187,623.658374,-1278.720949,8074.746498,6990.865706,8926.012686,-19389.445411,12390.197800,8010.909916,9571.843990,-5889.282333,23174.199244,2744.615405,21220.969703,5728.215662,-262.544006,-820.815979,-503.615997,5040.000000,-2100.000000,1680.000000
8404.010046,10601.410043,740.066259,-1184.620104,8219.451692,7019.967678,8995.258390,-19299.636102,12460.292871,8120.679333,9589.703034,-5788.028930,23225.585905,2784.535621,21300.743079,5841.650765,-265.472015,-820.328003,-508.496002,5040.000000,-1960.000000,1680.000000
8447.797113,10792.830383,864.923103,-1058.511562,8379.870162,7058.099754,9091.884982,-19184.658728,12528.666857,8209.996904,9612.345351,-5661.585112,23289.288376,2813.637592,21407.159735,5988.054691,-266.936005,-822.280029,-503.615997,5320.000000,-1680.000000,1820.000000
8436.554186,10846.876901,873.483822,-1018.501940,8397.572744,7072.606036,9130.106465,-19159.870644,12537.495796,8195.401215,9622.850671,-5623.229518,23307.594455,2810.821272,21454.120750,6039.977794,-265.959991,-818.376038,-507.032013,5320.000000,-1680.000000,2100.000000
8384.049938,10725.059894,771.716329,-1100.912821,8271.687719,7049.449629,9070.136734,-19242.080360,12477.704880,8105.837775,9609.819604,-5701.505327,23268.456551,2779.372368,21395.648586,5956.650490,-266.447998,-818.864014,-507.520020,5460.000000,-1540.000000,2100.000000
8362.815781,10632.993058,710.070218,-1164.458831,8194.596552,7028.818968,9022.281649,-19294.450497,12435.527138,8063.034184,9596.229744,-5768.448802,23234.906582,2761.200400,21339.031618,5878.464088,-268.399994,-818.864014,-506.544006,5040.000000,-1400.000000,2100.000000
8352.824551,10566.407212,669.658264,-1206.725980,8146.406191,7014.670314,8992.330312,-19324.491242,12407.699216,8031.875853,9584.316264,-5822.696486,23209.135021,2747.387021,21294.216370,5816.102721,-269.864014,-818.376038,-506.056000,5040.000000,-1400.000000,2100.000000
8336.619536,10480.934141,619.232728,-1266.248675,8079.462717,6997.839451,8947.313898,-19369.999393,12380.206571,7991.575657,9573.095688,-5882.442699,23180.614195,2731.182007,21236.928849,5742.386668,-271.328003,-817.400024,-508.007996,5320.000000,-1120.000000,2380.000000
8332.707981,10428.809873,596.053969,-1304.783083,8049.399620,6987.803517,8912.154604,-19402.632940,12371.601149,7988.915800,9568.178304,-5910.717656,23168.499549,2730.846731,21199.802601,5703.248763,-273.279999,-817.400024,-506.544006,5040.000000,-980.000000,2520.000000
8369.364842,10513.232412,672.251066,-1249.998957,8146.450895,7002.220392,8947.023326,-19350.195748,12413.465966,8070.276150,9577.364871,-5848.780972,23199.076736,2759.903998,21244.059055,5772.740337,-270.839996,-815.936035,-509.472015,4900.000000,-980.000000,2660.000000
8428.775779,10717.639115,812.307097,-1111.865176,8329.511682,7043.235844,9050.981289,-19229.093996,12497.061491,8184.694729,9600.811851,-5714.670505,23266.064914,2799.913621,21362.769170,5926.721505,-268.399994,-813.984009,-506.056000,4900.000000,-840.000000,2520.000000
8444.980794,10847.145122,877.373025,-1017.540815,8419.164529,7073.790678,9128.497139,-19158.931870,12539.485102,8214.735474,9618.134453,-5626.090542,23307.058013,2814.330496,21452.734942,6028.511349,-273.279999,-813.984009,-510.936005,4760.000000,-420.000000,2520.000000
8395.896363,10764.398964,797.242021,-1067.027577,8314.781882,7059.083230,9094.500136,-19221.226182,12494.803964,8129.776493,9612.904145,-5673.140964,23282.068763,2786.122595,21424.124709,5977.638778,-273.279999,-816.424011,-506.544006,4480.000000,-140.000000,2520.000000
8361.340566,10659.859855,725.515273,-1138.083772,8220.591631,7033.892814,9040.811246,-19284.883950,12444.378429,8073.047766,9598.219049,-5746.275872,23245.344847,2766.788336,21364.177330,5899.877059,-275.231995,-812.520020,-510.447998,4480.000000,0.000000,2660.000000
8350.969356,10591.776442,684.030436,-1187.816404,8168.757936,7015.787901,9004.512013,-19319.015064,12413.711836,8041.889434,9586.529086,-5802.691675,23217.963960,2751.410335,21311.404861,5834.609966,-277.183990,-809.591980,-510.447998,4480.000000,280.000000,2660.000000
8342.453342,10520.049694,639.259891,-1238.688974,8110.576345,6999.851108,8966.312881,-19356.990678,12390.801298,8007.110120,9577.566037,-5857.699318,23191.164218,2736.211149,21257.760675,5767.286511,-276.696014,-813.007996,-508.496002,4200.000000,560.000000,2240.000000
8331.478635,10448.233539,603.027714,-1290.165042,8055.211074,6984.897791,8923.039904,-19400.196600,12372.003480,7986.524163,9569.407650,-5904.325057,23170.041820,2729.505626,21210.151459,5713.463511,-278.160004,-813.496033,-511.424011,4200.000000,840.000000,2380.000000
8349.114162,10475.860295,641.964453,-1274.585876,8099.892211,6988.742291,8928.203157,-19382.896350,12390.711891,8036.055629,9572.872171,-5878.665254,23184.302233,2748.258740,21222.601381,5740.017383,-277.183990,-811.544006,-510.447998,4340.000000,840.000000,2100.000000
8405.932296,10656.440038,776.611361,-1151.763040,8271.017166,7026.047352,9019.286516,-19272.277566,12466.953691,8152.888197,9594.620418,-5755.171866,23244.584888,2791.621124,21325.777033,5877.793536,-279.136017,-810.567993,-511.424011,4200.000000,840.000000,1820.000000
8438.767009,10828.392008,880.591676,-1031.577710,8405.127633,7062.346585,9114.147319,-19169.392487,12528.353933,8217.663552,9613.284125,-5641.133266,23298.094964,2815.939822,21433.937124,6008.931221,-281.088013,-812.031982,-510.936005,4200.000000,980.000000,1540.000000
8405.686427,10811.114110,842.705469,-1040.853684,8354.947967,7061.988957,9113.275601,-19189.039670,12511.970104,8159.817238,9612.345351,-5647.525865,23294.004595,2795.510327,21441.156738,6003.924430,-279.136017,-808.616028,-509.472015,4200.000000,980.000000,980.000000
8367.107316,10694.370949,752.449125,-1120.560005,8241.848140,7035.613899,9051.540083,-19268.455418,12460.158761,8088.179897,9600.096595,-5721.420732,23253.726751,2767.213019,21379.220054,5915.724446,-279.623993,-808.127991,-508.984009,4200.000000,840.000000,700.000000
8357.317252,10618.553831,701.531851,-1171.276113,8183.375976,7017.732503,9012.201013,-19311.326064,12429.559222,8052.417106,9589.300703,-5777.165982,23221.987274,2749.801010,21328.302780,5845.025879,-278.648010,-809.591980,-508.984009,4340.000000,840.000000,140.000000
8349.069458,10550.872749,661.969264,-1217.700686,8132.123426,7003.561497,8975.611207,-19343.691390,12400.256085,8019.403579,9576.984892,-5830.810169,23197.445059,2733.059553,21277.385506,5780.138764,-276.696014,-806.176025,-508.496002,3780.000000,560.000000,-560.000000
8335.703115,10469.624158,615.701153,-1267.589780,8069.270321,6991.044520,8935.869805,-19384.706841,12376.473829,7986.010073,9566.837200,-5882.420347,23174.199244,2723.135379,21231.072692,5718.313839,-276.696014,-806.664001,-509.472015,3780.000000,700.000000,-980.000000
8344.733220,10453.843827,621.333792,-1276.821050,8075.037071,6988.518773,8921.095302,-19393.759298,12385.280417,8012.273373,9565.943130,-5885.638998,23172.925195,2734.847693,21220.947352,5714.648153,-274.743988,-804.712036,-508.984009,3780.000000,280.000000,-1540.000000
8396.566915,10592.625808,732.220797,-1185.290657,8218.311753,7015.296163,8983.724890,-19307.749785,12448.826426,8118.175938,9580.739985,-5791.158174,23220.735576,2772.331568,21292.942320,5825.333992,-273.768005,-806.664001,-510.447998,3500.000000,0.000000,-1960.000000
8446.098381,10790.774022,862.956150,-1049.704975,8386.486278,7056.982166,9088.398109,-19187.296234,12521.134319,8214.847233,9606.623305,-5658.232350,23286.002670,2808.027304,21409.081985,5977.124688,-272.304016,-804.223999,-509.472015,3780.000000,-280.000000,-2660.000000
8439.035230,10856.443448,877.551839,-999.502957,8410.492052,7074.617693,9134.777979,-19156.517882,12536.333506,8203.939581,9619.095578,-5611.718370,23305.538095,2806.842662,21466.078933,6034.993355,-269.376007,-806.664001,-508.984009,3640.000000,-560.000000,-3080.000000
8384.005235,10734.961717,774.175021,-1078.717539,8280.248437,7050.120181,9077.669272,-19241.141586,12478.107211,8111.224545,9607.316209,-5688.273095,23265.550824,2774.522039,21406.891514,5953.454191,-269.864014,-807.152039,-505.567993,3640.000000,-700.000000,-3500.000000
8361.161752,10642.090218,714.965250,-1143.202322,8201.726759,7027.969602,9026.886109,-19296.439802,12435.236565,8065.671690,9592.988741,-5755.328328,23231.106786,2754.338414,21344.440740,5875.536010,-267.424011,-808.127991,-508.007996,3780.000000,-1260.000000,-3780.000000
8349.628252,10576.018462,677.906058,-1184.910677,8155.659813,7013.463320,8997.202992,-19324.737111,12403.452385,8032.501701,9578.258941,-5807.765521,23205.223466,2739.854484,21299.312568,5813.129939,-264.984009,-811.056030,-505.567993,3920.000000,-1540.000000,-3920.000000
8330.316345,10489.360748,622.227862,-1240.454762,8091.465603,6997.258305,8955.695803,-19370.111152,12369.164809,7989.206372,9563.998528,-5869.590446,23174.936852,2725.862292,21249.803454,5742.230206,-266.936005,-812.520020,-506.544006,3920.000000,-1540.000000,-3920.000000
8327.790597,10437.951736,599.004400,-1275.882277,8063.972958,6986.440061,8921.274116,-19400.956559,12361.900492,7988.759338,9557.471819,-5898.625362,23163.202186,2728.075114,21215.493526,5705.014551,-264.984009,-811.056030,-503.615997,3920.000000,-1960.000000,-3780.000000
8369.297787,10520.675542,673.972151,-1222.685125,8156.777401,7002.533317,8956.031079,-19352.140349,12409.353245,8072.578379,9570.078202,-5838.163893,23196.752154,2759.524019,21255.749018,5769.834610,-265.472015,-815.447998,-505.080017,4060.000000,-1960.000000,-3640.000000
8429.826311,10723.115292,817.716219,-1082.629094,8338.452380,7046.409791,9064.861723,-19227.775243,12493.015825,8187.712215,9592.452299,-5702.399397,23265.506120,2802.528775,21375.666127,5928.621403,-265.472015,-820.328003,-505.567993,4200.000000,-1540.000000,-3500.000000
8448.869997,10855.907006,887.453662,-987.947105,8429.133407,7075.400004,9140.947061,-19153.478045,12540.312116,8222.044494,9608.523203,-5613.126530,23307.907380,2815.179862,21464.916642,6033.026401,-265.959991,-821.304016,-503.127991,4200.000000,-1260.000000,-2940.000000
8405.015875,10779.039357,806.674457,-1038.506751,8326.941231,7060.044355,9105.251325,-19214.922990,12503.744662,8141.980546,9607.070340,-5656.734783,23285.130952,2785.496746,21438.340418,5982.712624,-266.936005,-820.815979,-502.640015,4340.000000,-980.000000,-2380.000000
8374.416336,10671.035727,730.633823,-1114.972069,8226.917175,7035.457436,9048.746115,-19281.374726,12455.196673,8085.721205,9594.598066,-5727.209834,23248.027056,2763.569684,21374.213263,5900.391150,-265.959991,-820.815979,-498.735992,4200.000000,-560.000000,-1820.000000
8362.145229,10594.950389,681.862316,-1169.711491,8166.455706,7016.413750,9009.988190,-19318.992712,12420.126786,8048.617309,9581.030557,-5783.715044,23216.846373,2744.190722,21320.189097,5831.480721,-266.936005,-823.744019,-502.640015,4760.000000,-140.000000,-1400.000000
8346.186083,10517.300429,634.230749,-1224.786189,8103.356731,7000.633419,8967.721041,-19358.667059,12386.666225,8009.680570,9570.078202,-5842.008393,23190.448963,2725.705829,21263.974460,5763.486715,-268.888000,-825.695984,-501.664001,4900.000000,420.000000,-700.000000
8330.629269,10439.002268,592.410635,-1279.950294,8046.560949,6985.791860,8923.241070,-19403.884638,12359.642966,7986.010073,9560.690470,-5893.819737,23170.622965,2717.703905,21212.945427,5708.590830,-271.328003,-825.208008,-498.735992,5180.000000,840.000000,-140.000000
8354.210359,10468.260702,628.776923,-1262.135954,8091.331493,6992.251514,8931.220642,-19384.304510,12384.296940,8038.179045,9566.054888,-5870.328053,23188.146733,2740.659146,21230.111567,5741.693764,-269.864014,-825.695984,-501.664001,5460.000000,1120.000000,560.000000
8414.627125,10650.539178,762.038024,-1142.889397,8261.696489,7029.556576,9019.375923,-19271.271738,12463.980909,8158.319671,9586.976121,-5748.622805,23248.965829,2785.340284,21332.929591,5883.493231,-270.351990,-826.184021,-502.152008,5600.000000,560.000000,1260.000000
8446.187788,10823.318162,866.867705,-1026.705030,8398.735034,7067.018100,9113.834395,-19164.385696,12524.665895,8225.665477,9605.237497,-5632.974879,23301.626539,2811.983563,21441.223793,6020.084741,-272.791992,-825.695984,-504.104004,5740.000000,560.000000,1680.000000
8416.281154,10816.880860,837.095182,-1023.016992,8359.351261,7070.750841,9126.507834,-19176.545045,12514.272334,8171.484848,9607.807947,-5630.113856,23299.123144,2797.119653,21463.441427,6028.131369,-273.279999,-824.720032,-500.688019,5740.000000,280.000000,2100.000000
8375.198647,10702.417577,752.046794,-1100.041103,8244.731515,7044.532245,9068.192132,-19257.570119,12460.158761,8097.567630,9596.162688,-5704.366351,23259.091170,2771.526905,21401.772964,5942.904168,-272.304016,-825.208008,-502.152008,5600.000000,-140.000000,2380.000000
8361.251159,10625.259355,707.969154,-1154.177028,8183.778308,7027.835492,9026.215556,-19300.150192,12425.312391,8061.737783,9586.998473,-5762.480886,23230.235068,2754.986615,21346.877080,5870.886847,-273.279999,-821.304016,-504.592010,5880.000000,-700.000000,2520.000000
8353.271586,10557.734735,669.725319,-1199.774587,8133.822159,7014.066817,8993.917286,-19333.409588,12399.473774,8029.260698,9580.292950,-5814.851024,23205.536390,2738.222806,21297.725594,5807.385541,-269.864014,-820.815979,-507.520020,5740.000000,-1400.000000,2520.000000
8330.428103,10467.254873,617.981031,-1262.761803,8064.509399,6994.710206,8946.755105,-19385.332690,12363.934501,7989.027558,9569.362947,-5879.984007,23176.054439,2722.330716,21237.532346,5737.558691,-269.864014,-822.768005,-506.544006,6020.000000,-2240.000000,2520.000000
8333.646754,10445.171350,620.059743,-1279.994998,8064.263530,6988.362311,8929.276041,-19399.458992,12366.750820,8007.423044,9566.300758,-5892.366873,23173.908672,2729.595033,21221.662607,5730.808464,-271.328003,-819.840027,-508.496002,6020.000000,-2800.000000,2520.000000
8391.068386,10589.541267,732.041983,-1187.369369,8202.486718,7015.743198,8994.252562,-19318.031587,12437.605850,8115.560784,9584.338615,-5797.461366,23226.457623,2771.124574,21297.949111,5840.935509,-266.447998,-817.888000,-510.936005,6160.000000,-3220.000000,2380.000000
8444.220834,10794.506764,864.185496,-1047.447449,8373.343453,7058.546789,9100.803328,-19198.829734,12518.563869,8212.545003,9608.724369,-5663.417955,23293.244635,2806.887365,21419.207325,5996.213078,-270.351990,-816.911987,-506.056000,6300.000000,-3640.000000,1960.000000
8438.096456,10859.371526,881.731615,-998.608887,8400.925505,7075.087079,9144.098657,-19167.537292,12534.545366,8204.520727,9620.548441,-5613.394751,23313.741185,2805.233336,21472.851512,6051.913625,-267.912018,-815.447998,-506.544006,6440.000000,-3360.000000,1680.000000
8385.189877,10739.588528,782.087538,-1078.002283,8271.285387,7048.913187,9085.067700,-19251.423389,12478.733060,8112.766816,9609.327866,-5685.590885,23273.709211,2769.716414,21416.770985,5969.547447,-269.376007,-813.007996,-506.056000,6300.000000,-3360.000000,1540.000000
8360.804124,10646.761733,719.256785,-1142.777639,8189.969741,7024.773303,9031.132940,-19306.788660,12436.801188,8065.738745,9593.793403,-5753.584892,23240.852146,2748.057574,21355.236632,5888.567077,-266.447998,-810.567993,-508.007996,6300.000000,-3080.000000,1260.000000
8353.159827,10585.629712,678.710720,-1185.223601,8143.008726,7010.401131,8999.192297,-19337.410550,12410.157908,8034.491007,9580.538819,-5807.340837,23216.689910,2734.847693,21305.906332,5824.663439,-266.447998,-808.127991,-507.032013,6020.000000,-2520.000000,980.000000
8339.279394,10505.610467,622.250214,-1239.895968,8079.574475,6995.000779,8960.613186,-19382.449315,12381.502972,7995.621323,9569.877037,-5866.908236,23187.543236,2721.101370,21253.625602,5755.641252,-265.959991,-808.616028,-505.567993,5600.000000,-1260.000000,700.000000
8339.815836,10454.246158,597.909164,-1273.557696,8052.327699,6988.071738,8933.321706,-19413.004150,12376.026794,7996.157765,9567.530104,-5896.948981,23176.792047,2721.838978,21224.568334,5720.057275,-269.376007,-805.200012,-509.472015,5180.000000,0.000000,560.000000
8374.371633,10535.941784,671.289941,-1220.896986,8146.517950,7003.114462,8967.430468,-19363.606794,12418.137481,8075.729975,9574.123868,-5839.437942,23206.519867,2751.700908,21267.617794,5784.899686,-270.839996,-803.736023,-510.447998,4340.000000,420.000000,420.000000
8426.808825,10735.498158,813.804664,-1088.172327,8328.215281,7042.900567,9068.192132,-19240.292220,12495.899200,8188.136898,9593.994569,-5705.774511,23269.037696,2794.437444,21379.331813,5935.773961,-272.304016,-802.272034,-508.007996,3360.000000,840.000000,700.000000
8441.426866,10866.345270,886.716054,-995.256125,8422.383180,7072.471925,9143.942194,-19162.865777,12536.445264,8221.329239,9611.540688,-5614.825262,23308.533228,2810.150720,21465.520139,6040.648346,-278.648010,-805.200012,-507.032013,2940.000000,1540.000000,840.000000
8393.705892,10791.154002,810.921289,-1038.529103,8329.221109,7060.916073,9116.583659,-19216.442909,12493.999302,8138.448970,9606.220973,-5656.712432,23284.549807,2782.881592,21443.280154,5999.677598,-277.183990,-804.712036,-509.472015,2100.000000,2240.000000,840.000000
8362.435801,10685.251437,735.417096,-1109.607650,8232.996849,7035.502140,9060.123153,-19281.978224,12445.719534,8079.283903,9591.535877,-5727.947441,23247.021228,2758.272321,21381.142304,5918.116083,-279.623993,-807.152039,-506.056000,1820.000000,2800.000000,980.000000
8351.461095,10613.949372,690.423034,-1158.468563,8174.234113,7017.866614,9018.168928,-19316.466965,12414.114167,8044.102257,9579.197714,-5783.826802,23216.555800,2741.441457,21324.078300,5849.317413,-282.063995,-806.664001,-506.056000,1400.000000,2940.000000,1120.000000
8334.920804,10532.790188,640.891569,-1213.073875,8105.055464,7002.466262,8975.030062,-19355.761332,12381.167696,8002.572716,9566.725441,-5844.467085,23187.207960,2724.968222,21268.824788,5779.982302,-280.600006,-809.104004,-508.984009,560.000000,3080.000000,1260.000000
8325.220147,10458.560045,603.988839,-1264.125259,8047.477370,6987.244724,8928.829006,-19398.050833,12361.811085,7983.126698,9559.237606,-5893.082129,23165.772637,2715.155806,21219.919171,5723.097113,-282.552002,-811.056030,-511.912018,560.000000,3360.000000,1400.000000
8351.572854,10485.136269,640.891569,-1248.143762,8086.212943,6991.268038,8930.728904,-19384.773896,12391.248332,8036.703829,9567.954787,-5869.501039,23180.591843,2734.378306,21228.770462,5747.549921,-279.623993,-815.447998,-509.472015,280.000000,3080.000000,1260.000000
8415.968229,10667.906483,777.594838,-1123.935118,8257.114381,7028.260175,9022.795740,-19274.691555,12474.016842,8159.817238,9590.597104,-5743.101924,23244.830757,2781.361673,21332.728426,5891.741024,-277.671997,-813.984009,-506.544006,-280.000000,3220.000000,1120.000000
8449.697012,10840.216081,883.899734,-1004.129768,8394.935238,7064.894684,9119.131758,-19171.046516,12535.327677,8230.828730,9610.043122,-5625.151768,23301.783002,2809.100188,21441.424959,6030.634765,-275.231995,-816.424011,-509.959991,-560.000000,3500.000000,840.000000
8418.292811,10831.856529,848.226350,-1001.961649,8355.149133,7065.945216,9127.536014,-19182.915292,12521.067264,8175.999901,9609.529031,-5625.084713,23298.832571,2793.453967,21459.261651,6037.116770,-276.696014,-816.911987,-505.567993,-560.000000,3080.000000,280.000000
8375.690386,10710.084225,754.371375,-1078.292856,8239.747076,7042.788809,9071.589598,-19257.368953,12466.283139,8096.718263,9594.888639,-5699.046636,23259.471149,2768.397661,21402.331758,5952.962453,-273.768005,-820.328003,-509.959991,-560.000000,2940.000000,-140.000000
8364.201589,10629.349724,703.498805,-1132.294671,8177.922151,7026.114407,9029.970649,-19300.552523,12435.750656,8063.257702,9585.746775,-5757.071764,23230.570344,2752.594978,21348.687571,5884.230838,-271.328003,-823.255981,-508.984009,-420.000000,2940.000000,-840.000000
8356.199665,10565.177866,665.098508,-1173.757157,8132.078723,7011.630477,8999.728739,-19331.263820,12412.974228,8031.808797,9576.582560,-5808.592535,23206.273998,2737.552254,21300.787783,5825.624564,-272.304016,-823.255981,-506.544006,140.000000,2660.000000,-1400.000000
8335.814874,10474.608597,608.101560,-1234.330384,8062.564798,6993.592619,8953.415925,-19379.945920,12380.944178,7990.748643,9563.216217,-5871.378585,23177.417895,2721.749571,21245.064884,5755.529494,-269.376007,-823.255981,-504.592010,560.000000,2380.000000,-2240.000000
8341.782789,10449.194664,604.122949,-1253.821105,8057.200379,6987.043558,8928.583137,-19397.134411,12382.218228,8008.719445,9559.617586,-5883.403824,23173.707506,2726.532844,21225.909439,5739.995031,-268.399994,-825.208008,-507.032013,1120.000000,2100.000000,-2800.000000
8391.716587,10581.584046,710.629011,-1168.191572,8191.556715,7010.557593,8987.636445,-19318.858602,12445.093685,8110.732807,9573.766240,-5791.739320,23217.382815,2760.507495,21295.244550,5843.707126,-265.472015,-824.231995,-507.520020,1680.000000,1540.000000,-3360.000000
8439.750485,10779.598150,845.521789,-1034.371678,8361.519380,7053.160018,9093.561362,-19199.477935,12519.077959,8209.795738,9597.660255,-5659.104068,23282.761667,2796.314990,21410.981883,5998.157680,-264.007996,-823.255981,-506.544006,1960.000000,980.000000,-3920.000000
8436.643593,10853.962404,872.232124,-979.833422,8396.343398,7074.125954,9144.925671,-19161.345859,12537.652259,8209.125186,9613.217069,-5606.353951,23310.164906,2798.594868,21472.739753,6062.888332,-264.007996,-825.208008,-511.912018,2240.000000,700.000000,-4200.000000
8386.732148,10741.533129,776.700768,-1051.738984,8273.207637,7052.020079,9095.416557,-19238.928764,12484.745679,8121.372237,9604.902220,-5675.957283,23274.379763,2768.352958,21423.677674,5985.730110,-264.496002,-821.304016,-508.984009,2380.000000,140.000000,-4620.000000
8365.833266,10652.260262,718.519177,-1113.161577,8195.982360,7031.970564,9049.304908,-19292.058860,12445.585423,8077.428708,9592.340540,-5740.039735,23240.896850,2749.957472,21363.909109,5909.443606,-265.959991,-821.791992,-508.496002,2940.000000,-280.000000,-4760.000000
8352.153999,10581.896970,677.704892,-1162.357767,8141.667621,7016.570212,9012.446882,-19325.228849,12413.398911,8038.939004,9579.175362,-5795.919096,23212.376024,2733.953623,21305.839277,5839.125018,-261.080017,-822.768005,-510.936005,3080.000000,-560.000000,-4760.000000
8332.350353,10493.317007,625.804141,-1222.059276,8072.243103,6997.928858,8965.105887,-19373.463914,12380.206571,7997.051835,9566.457220,-5860.783858,23182.804666,2716.116931,21247.680038,5762.749107,-265.472015,-822.768005,-507.032013,3360.000000,-840.000000,-4760.000000
8328.818778,10438.532882,602.692437,-1258.872599,8037.732010,6987.490593,8933.008782,-19405.270446,12369.880065,7992.425024,9561.852761,-5893.529164,23170.511206,2719.067361,21216.365244,5724.281755,-261.567993,-823.255981,-509.472015,3220.000000,-840.000000,-4760.000000
8368.738993,10517.345133,674.374482,-1209.028209,8125.954345,7003.114462,8963.518913,-19355.917794,12414.337684,8070.298501,9572.089859,-5837.716858,23201.311910,2751.589149,21255.011410,5788.565372,-262.544006,-821.791992,-508.496002,3220.000000,-1120.000000,-4760.000000
8429.580442,10723.361161,816.822149,-1070.514449,8312.032618,7045.426315,9069.376775,-19231.128005,12500.123680,8186.415814,9594.978046,-5699.247801,23267.026039,2796.046769,21374.369726,5945.586377,-261.567993,-819.351990,-511.424011,3360.000000,-1260.000000,-4200.000000
8450.501674,10863.037212,890.135871,-972.747919,8411.922564,7076.696405,9151.072401,-19152.226347,12547.688192,8224.391428,9614.111139,-5605.571640,23310.813106,2812.497653,21468.694087,6050.751335,-261.567993,-818.376038,-509.472015,2940.000000,-1260.000000,-4060.000000
8401.037264,10779.553447,808.104969,-1024.983945,8309.439815,7059.887893,9116.918935,-19211.413766,12504.258752,8139.968889,9608.254982,-5654.678423,23285.466228,2781.764004,21440.329723,5998.381197,-259.127991,-819.351990,-510.447998,2660.000000,-1120.000000,-3920.000000
8368.604883,10669.359347,731.349079,-1099.951696,8210.220422,7034.473960,9057.798571,-19281.240616,12455.308432,8083.038996,9594.151031,-5730.473188,23248.339981,2757.691176,21377.364859,5916.193833,-262.056000,-819.840027,-508.496002,2660.000000,-1120.000000,-3640.000000
8354.679746,10597.632599,687.539659,-1147.180932,8155.928034,7019.811215,9021.432283,-19316.288151,12422.898403,8047.834998,9580.427060,-5788.945352,23218.835678,2740.636795,21326.112309,5849.742097,-262.056000,-817.400024,-508.496002,2520.000000,-1120.000000,-2940.000000
8341.872196,10523.022476,640.958624,-1195.930087,8099.400473,7005.886079,8985.200105,-19351.872128,12393.774080,8008.764149,9568.982967,-5844.221216,23191.745364,2725.638774,21275.016221,5780.831668,-263.519989,-818.376038,-506.056000,2240.000000,-560.000000,-2520.000000
8330.562214,10444.389039,599.205565,-1246.959120,8045.599824,6990.597485,8943.312936,-19396.620321,12371.444687,7982.791422,9559.170551,-5893.596219,23169.035991,2719.313230,21228.345779,5721.063104,-264.007996,-818.376038,-506.544006,2240.000000,-420.000000,-1960.000000
8352.936310,10467.724260,632.666127,-1232.721058,8087.218772,6994.374930,8946.084553,-19383.946882,12394.556391,8032.233480,9563.372679,-5871.646806,23182.044707,2741.217940,21239.923983,5743.459552,-264.007996,-818.376038,-507.520020,2380.000000,0.000000,-1540.000000
8414.604773,10646.828788,764.943750,-1116.559043,8254.767448,7027.634326,9029.858891,-19280.368898,12473.949787,8151.390630,9586.082052,-5749.494523,23241.813271,2784.177993,21336.505870,5875.960693,-265.472015,-818.376038,-506.544006,2380.000000,140.000000,-1120.000000
8455.240244,10830.962459,876.657769,-991.501032,8401.596058,7066.079326,9126.306668,-19175.539216,12540.937965,8226.537195,9608.411444,-5624.749437,23299.190199,2811.022438,21446.968192,6014.541509,-264.496002,-819.351990,-506.544006,2100.000000,280.000000,-560.000000
8428.708724,10831.007162,845.678251,-985.354303,8368.806048,7069.879123,9137.594299,-19187.050365,12532.354895,8176.826915,9612.993552,-5615.853443,23299.972510,2796.069121,21468.492921,6024.868014,-264.984009,-816.911987,-503.615997,2380.000000,420.000000,-140.000000
8388.229714,10710.128928,753.074974,-1064.323016,8250.230044,7043.772285,9078.339824,-19265.460284,12481.616435,8101.590944,9602.935267,-5689.480089,23261.639269,2766.989501,21408.187915,5938.187949,-264.007996,-817.400024,-502.640015,2240.000000,560.000000,280.000000
8376.606807,10634.490625,706.449235,-1113.385095,8192.316674,7027.790788,9039.313679,-19303.949988,12450.011069,8066.923388,9591.982912,-5745.091229,23231.598524,2753.980786,21357.963545,5869.389280,-267.912018,-815.936035,-504.104004,2380.000000,420.000000,560.000000
8366.906150,10562.853284,666.104337,-1160.994310,8139.231281,7013.262154,9002.701521,-19337.410550,12422.563126,8032.389943,9581.812868,-5797.751939,23205.871666,2740.726202,21303.693510,5799.540079,-270.351990,-818.376038,-506.056000,2380.000000,140.000000,980.000000
8346.633118,10473.669824,614.874138,-1221.880462,8070.745536,6996.386587,8954.868788,-19384.885655,12389.773117,7995.934247,9569.809982,-5858.481629,23177.954337,2726.421085,21243.142634,5731.344906,-271.328003,-815.447998,-505.080017,2520.000000,420.000000,1120.000000
8348.600072,10445.350164,610.359086,-1243.047564,8063.972958,6991.558610,8933.858148,-19399.213123,12386.867390,8012.295724,9567.150124,-5871.646806,23175.495645,2732.858388,21222.377863,5720.794883,-270.839996,-816.424011,-503.127991,2520.000000,280.000000,1400.000000
8398.757386,10573.045680,713.802959,-1156.658072,8194.954180,7016.458454,8993.067919,-19321.451404,12445.071333,8117.348923,9584.115098,-5782.843325,23222.031977,2772.376272,21291.355347,5823.322335,-271.328003,-813.984009,-502.640015,2660.000000,420.000000,1400.000000
8450.367564,10773.540827,845.030051,-1019.887748,8368.582531,7057.652719,9100.691569,-19196.661615,12522.631886,8217.976477,9607.226802,-5647.704679,23285.332118,2809.234298,21414.625217,5978.801069,-269.864014,-813.496033,-507.032013,2660.000000,280.000000,1260.000000
8442.276233,10843.412381,869.639322,-972.434994,8402.423072,7074.908265,9148.814875,-19156.897862,12537.160520,8210.421587,9617.262735,-5596.273315,23305.962778,2804.831005,21473.611471,6042.928224,-271.328003,-812.031982,-502.152008,2940.000000,280.000000,1260.000000
8391.247200,10733.888833,780.791137,-1045.324033,8280.159030,7050.723678,9097.629380,-19234.279601,12483.404575,8123.227432,9607.740892,-5664.200266,23270.825836,2771.638664,21425.175241,5971.603807,-271.816010,-813.984009,-503.127991,3080.000000,280.000000,980.000000
8370.482429,10641.956108,721.827235,-1107.283069,8199.983323,7025.622669,9047.092086,-19292.483543,12444.289022,8079.842696,9595.112156,-5728.617993,23237.097053,2751.566798,21366.948946,5896.814870,-274.256012,-812.520020,-504.592010,3080.000000,0.000000,700.000000
8361.698194,10574.587950,680.029473,-1152.768869,8146.115618,7006.467224,9008.848251,-19327.285210,12415.902307,8048.617309,9584.204505,-5784.072671,23208.039785,2734.065382,21313.572981,5830.832521,-271.816010,-812.031982,-503.615997,3080.000000,140.000000,280.000000
8346.230787,10489.316045,627.122894,-1212.045695,8077.875743,6988.697587,8961.730774,-19373.396858,12386.532114,8006.126643,9574.392089,-5846.679908,23180.524788,2720.900204,21255.145521,5757.831723,-270.839996,-811.056030,-505.080017,3220.000000,140.000000,-280.000000
8339.681725,10431.313268,599.876118,-1253.932864,8041.598861,6977.432308,8924.738637,-19408.913780,12373.769268,7996.962428,9567.574807,-5883.448527,23165.370305,2721.391943,21218.153384,5715.676333,-275.231995,-813.496033,-502.640015,3220.000000,140.000000,-700.000000
8377.545581,10508.002103,669.501802,-1204.960192,8130.581156,6991.044520,8956.321651,-19365.014954,12416.796376,8073.450097,9574.257979,-5828.127960,23192.795896,2750.203341,21260.152311,5777.836535,-272.791992,-811.056030,-508.984009,3220.000000,140.000000,-1260.000000
8444.354945,10717.929687,819.683173,-1060.076184,8324.236670,7034.295146,9064.347632,-19240.135758,12506.985665,8196.384692,9599.783671,-5684.808574,23261.080475,2796.314990,21385.903226,5936.690383,-271.328003,-811.056030,-504.104004,3080.000000,280.000000,-1680.000000
8463.644500,10860.511465,895.567345,-958.331044,8428.306392,7066.749879,9149.597186,-19158.551891,12552.136189,8238.003640,9618.693247,-5588.293742,23305.940426,2813.369371,21485.547302,6048.538512,-273.768005,-812.031982,-507.032013,3220.000000,420.000000,-2380.000000
8420.595040,10793.344473,821.337202,-998.720646,8334.876100,7055.372841,9126.351372,-19212.017263,12516.865136,8159.571369,9616.055741,-5624.749437,23284.773324,2786.502574,21467.420038,6005.489052,-269.864014,-809.591980,-504.104004,2800.000000,280.000000,-2940.000000
8389.526116,10683.664463,744.514256,-1072.771975,8234.293250,7030.495349,9070.360252,-19282.000575,12471.446392,8100.898039,9602.152956,-5696.833813,23248.071760,2763.703795,21402.935255,5918.473711,-271.328003,-813.984009,-507.520020,2800.000000,280.000000,-3220.000000
8375.332758,10609.993113,700.548375,-1125.075057,8175.709328,7013.083340,9031.088237,-19317.785718,12437.874071,8063.637681,9587.534915,-5753.875465,23217.271056,2747.051745,21347.480577,5848.758620,-268.399994,-813.984009,-507.520020,2660.000000,140.000000,-3500.000000
8362.569912,10538.489883,653.341490,-1175.880572,8118.712380,6998.130023,8994.073748,-19353.146178,12410.984923,8022.957507,9576.336691,-5810.470082,23188.772582,2731.561986,21296.920931,5780.630503,-270.839996,-809.104004,-508.496002,2520.000000,420.000000,-3920.000000
8346.834284,10460.012908,609.375609,-1229.345945,8062.274225,6983.087299,8952.700669,-19395.189809,12385.101603,7994.973122,9564.624377,-5864.561303,23165.079733,2724.096504,21251.077503,5722.426560,-269.864014,-812.031982,-506.056000,2240.000000,280.000000,-3920.000000
8356.959624,10468.283053,634.946005,-1227.244881,8092.516135,6984.048424,8949.124390,-19386.003242,12395.249295,8035.563890,9561.830409,-5855.262978,23173.416933,2740.502684,21253.402085,5739.056258,-269.376007,-812.031982,-507.520020,2240.000000,0.000000,-4060.000000
8413.822462,10637.351648,764.586123,-1118.570700,8257.941396,7016.614916,9027.802530,-19281.888817,12469.032403,8151.591796,9582.036386,-5741.582005,23231.330303,2782.456909,21343.524318,5869.858667,-267.424011,-812.031982,-508.984009,1960.000000,140.000000,-3920.000000
8456.581349,10817.417302,877.708301,-998.094797,8405.082930,7055.126972,9122.775092,-19174.689850,12538.568680,8231.007544,9606.131566,-5621.217861,23290.942406,2809.301354,21452.422017,6007.903040,-264.496002,-815.936035,-507.032013,1680.000000,140.000000,-3920.000000
8436.084799,10821.284154,856.004757,-989.288210,8375.668034,7061.474867,9139.203625,-19179.629586,12535.037104,8189.209782,9613.038255,-5609.282030,23291.970586,2796.560859,21478.484151,6021.291735,-267.424011,-814.471985,-507.520020,1960.000000,140.000000,-3780.000000
8391.314255,10699.400091,766.240152,-1069.061586,8251.973480,7034.988050,9079.569170,-19260.989936,12481.325863,8112.655057,9600.834203,-5684.987388,23249.904603,2770.834001,21416.011025,5933.337621,-266.447998,-814.471985,-510.936005,1540.000000,-140.000000,-3500.000000
8376.137421,10621.571317,717.133369,-1119.777694,8187.980436,7017.888965,9040.699487,-19303.413546,12447.284156,8073.539504,9588.741909,-5744.867712,23221.786108,2753.891379,21362.992688,5866.304739,-266.447998,-817.400024,-508.496002,1540.000000,0.000000,-3220.000000
8362.413450,10554.337270,678.241334,-1167.364558,8134.939746,7005.036712,9005.562545,-19332.359056,12415.254106,8037.150864,9575.040290,-5800.858832,23198.562646,2737.574606,21311.628379,5802.468157,-263.519989,-816.911987,-508.984009,1400.000000,-420.000000,-3080.000000
8339.994650,10461.778696,624.127760,-1232.676355,8061.357804,6986.037730,8954.019422,-19379.521236,12379.021928,7995.375454,9561.696298,-5866.081222,23171.517035,2721.123722,21252.709180,5727.790979,-264.496002,-821.791992,-506.056000,1120.000000,-140.000000,-2800.000000
8348.890644,10436.565928,620.126798,-1253.508181,8055.367536,6978.482840,8933.388762,-19393.356966,12381.860600,8014.620306,9559.237606,-5878.195867,23168.097218,2727.762190,21236.146538,5713.463511,-263.032013,-819.840027,-508.984009,1120.000000,-280.000000,-2240.000000
8398.846793,10567.055412,724.710610,-1167.744537,8188.941561,7003.583849,8995.213687,-19311.102547,12441.673868,8115.270211,9572.045156,-5787.850116,23212.465431,2766.698929,21309.616722,5817.019143,-265.472015,-818.864014,-511.424011,1120.000000,-280.000000,-1960.000000
8451.663965,10770.880970,859.290464,-1026.593271,8361.184104,7044.554596,9105.452491,-19188.749097,12522.542479,8216.814186,9594.776880,-5650.766867,23275.743219,2806.216813,21435.904078,5973.079023,-263.519989,-821.304016,-509.959991,980.000000,-280.000000,-1400.000000
8450.814599,10853.291852,891.588735,-965.908285,8405.038226,7065.095850,9157.353241,-19146.124321,12546.123570,8219.272878,9609.104348,-5592.227649,23302.162981,2808.899022,21501.551151,6043.151741,-263.519989,-821.791992,-507.520020,1120.000000,-420.000000,-1120.000000
8396.946895,10739.342658,794.738626,-1041.770106,8279.063795,7041.559463,9100.848031,-19226.300028,12489.551305,8127.898947,9600.655389,-5662.188609,23266.623708,2775.594923,21447.102302,5965.702947,-267.424011,-819.840027,-506.544006,1120.000000,-700.000000,-420.000000
8374.796316,10643.252509,731.550244,-1107.685400,8194.395387,7019.319477,9049.304908,-19283.296976,12447.530025,8081.004987,9587.087880,-5731.858996,23229.832736,2756.104202,21382.058726,5886.197792,-261.567993,-820.815979,-510.936005,1260.000000,-560.000000,0.000000
8363.016947,10571.615168,688.903116,-1158.245046,8138.314860,7002.645076,9010.859908,-19317.003407,12415.499975,8044.459885,9572.223970,-5790.934657,23199.613178,2736.546425,21323.743024,5819.746056,-267.424011,-820.815979,-508.496002,1260.000000,-700.000000,280.000000
8346.566063,10483.839868,637.449400,-1218.617108,8067.862161,6983.668445,8961.507256,-19364.411457,12383.559332,8003.422082,9562.098630,-5855.464143,23170.734724,2717.100408,21259.459407,5745.784133,-265.959991,-818.864014,-508.496002,980.000000,-980.000000,700.000000
8342.408638,10424.987724,613.153054,-1260.236056,8031.741742,6971.687910,8926.571480,-19397.983777,12371.020004,7999.041140,9558.544702,-5888.880001,23158.731837,2718.039181,21222.333160,5708.166147,-264.984009,-819.840027,-511.424011,980.000000,-980.000000,1120.000000
8375.198647,10495.842754,677.459023,-1214.303221,8116.745426,6985.277770,8960.344965,-19349.212271,12408.526231,8070.097336,9564.892598,-5836.398105,23186.313890,2748.616367,21265.583785,5774.841401,-266.936005,-818.864014,-508.496002,1120.000000,-1120.000000,1400.000000
8436.174206,10697.790765,817.984440,-1077.041158,8301.974333,7027.679029,9065.733441,-19221.852031,12492.188810,8187.332235,9587.423156,-5701.371217,23253.167957,2794.303333,21385.702060,5933.002345,-267.912018,-818.376038,-508.984009,980.000000,-1120.000000,1680.000000
8456.469590,10841.199558,897.757816,-977.262971,8411.095549,7061.206646,9150.424200,-19131.930963,12538.903956,8229.487625,9605.125738,-5605.728102,23301.715946,2810.530700,21481.501637,6052.539474,-267.424011,-815.936035,-508.984009,980.000000,-1260.000000,1960.000000
8410.201479,10774.256083,824.868777,-1017.406704,8322.225013,7050.366050,9127.357200,-19180.389545,12500.481308,8146.227377,9601.616514,-5643.413144,23284.929786,2781.138156,21462.346192,6018.408360,-266.936005,-816.911987,-510.936005,1120.000000,-1400.000000,1960.000000
8376.897380,10663.592596,745.631843,-1091.793310,8221.865680,7023.767474,9068.348595,-19252.563328,12448.893481,8083.083699,9587.177287,-5715.743389,23245.993047,2758.629949,21397.235560,5935.014002,-269.376007,-816.424011,-508.496002,980.000000,-1400.000000,1960.000000
8360.088868,10587.596665,696.592116,-1146.398621,8164.332290,7004.567326,9025.992039,-19292.505895,12412.549545,8043.342297,9571.620473,-5775.735471,23213.180687,2740.703850,21339.970391,5863.622530,-267.912018,-815.936035,-508.984009,1120.000000,-1260.000000,2240.000000
8347.124856,10513.902964,650.681633,-1198.209965,8105.726016,6991.200982,8987.256466,-19332.761387,12385.347472,8007.467748,9562.165685,-5832.397143,23183.654032,2723.314193,21284.515713,5792.991017,-265.472015,-818.376038,-512.400024,1120.000000,-1120.000000,2240.000000
8336.775999,10441.751533,610.180272,-1249.775439,8047.410315,6977.767584,8944.005840,-19377.889559,12367.689594,7984.803079,9554.387278,-5883.783803,23159.424741,2716.429855,21234.023122,5732.328383,-267.424011,-816.911987,-507.032013,1260.000000,-980.000000,1960.000000
8358.233673,10462.292786,640.355127,-1243.628710,8080.937932,6978.527543,8942.865901,-19366.445466,12388.655530,8031.853501,9557.851798,-5867.265864,23168.745419,2734.624175,21238.649933,5751.193255,-267.424011,-817.400024,-508.007996,1120.000000,-700.000000,1820.000000
8415.320029,10632.970707,768.072995,-1132.987575,8246.631413,7012.569250,9024.606231,-19260.542901,12460.874016,8149.066049,9578.214237,-5753.964872,23225.205925,2777.651283,21332.460205,5883.828507,-265.959991,-813.984009,-505.567993,1260.000000,-560.000000,1680.000000
8456.760163,10817.305543,881.373987,-1007.259012,8397.751558,7053.115315,9125.680819,-19150.572318,12530.276183,8226.783064,9601.504755,-5628.929213,23283.611033,2808.206118,21446.454101,6027.080837,-269.376007,-816.424011,-506.544006,1120.000000,-280.000000,1400.000000
8432.217948,10822.625258,858.038766,-1000.821710,8367.576703,7058.591492,9140.030639,-19155.892033,12523.324790,8183.800660,9607.897354,-5617.351010,23286.449705,2793.141042,21468.045887,6040.983622,-267.424011,-817.888000,-504.592010,1260.000000,-140.000000,1400.000000
8384.496973,10699.288332,762.127431,-1084.372531,8242.585748,7030.830625,9077.848086,-19237.565307,12463.086839,8103.848470,9593.771052,-5696.140909,23245.210736,2759.121687,21403.426993,5951.509589,-268.888000,-815.936035,-503.127991,1540.000000,140.000000,980.000000
8368.291958,10615.156366,707.633878,-1137.212054,8175.910494,7010.825814,9036.497359,-19282.224093,12427.324048,8061.491914,9580.739985,-5759.753973,23214.074756,2738.960414,21349.715751,5877.413556,-267.912018,-815.936035,-508.007996,1260.000000,420.000000,840.000000
8359.664185,10548.212892,664.204438,-1177.199325,8127.854243,6997.057140,9005.584896,-19310.275532,12403.184164,8028.590146,9568.871208,-5813.554622,23188.347899,2725.303498,21302.575922,5814.783968,-269.376007,-816.424011,-505.080017,1260.000000,560.000000,700.000000
8340.844016,10461.711641,604.949964,-1235.403268,8060.240216,6978.661654,8960.836704,-19356.141312,12373.165771,7989.206372,9554.901368,-5875.960693,23159.089465,2708.651448,21248.149425,5745.202988,-268.888000,-816.911987,-504.104004,1540.000000,1120.000000,560.000000
8343.459170,10424.071303,594.824623,-1266.315730,8044.236367,6969.564494,8930.013648,-19380.281196,12368.360146,7999.488175,9551.861531,-5895.473766,23155.244965,2710.730161,21219.852116,5721.264270,-268.888000,-815.447998,-508.496002,1680.000000,1120.000000,560.000000
8398.176241,10548.749333,700.637782,-1184.038959,8174.882314,6994.106709,8985.110698,-19303.771174,12431.727342,8102.261496,9567.574807,-5807.296134,23202.429498,2750.180990,21286.415611,5820.058980,-268.888000,-821.304016,-504.104004,1680.000000,1260.000000,280.000000
8457.989509,10757.581682,840.716164,-1036.338632,8357.451362,7039.458399,9095.997703,-19176.053307,12520.866099,8208.745206,9591.111194,-5665.764888,23269.864711,2792.068159,21415.943970,5981.662092,-268.399994,-818.376038,-507.520020,1540.000000,1820.000000,280.000000
8454.122657,10839.076142,872.433290,-975.027797,8402.110148,7058.300919,9148.166674,-19130.902783,12542.100256,8210.041608,9601.795328,-5607.739759,23292.574083,2791.844641,21481.054602,6052.360660,-266.447998,-819.351990,-508.007996,1820.000000,1820.000000,140.000000
8397.908020,10726.356295,773.415062,-1048.207408,8278.706167,7036.664431,9095.662426,-19205.669368,12483.628092,8117.371275,9589.166592,-5677.387795,23254.866690,2759.881647,21429.913810,5978.443441,-268.888000,-820.815979,-507.032013,2240.000000,2240.000000,280.000000
8375.176296,10632.702486,710.427846,-1109.272374,8200.989151,7016.905489,9048.634356,-19260.185273,12442.791455,8067.795106,9574.235627,-5740.553825,23220.176783,2743.475466,21374.257967,5905.129719,-269.376007,-819.351990,-504.104004,2520.000000,2380.000000,280.000000
8365.408583,10565.468438,670.529982,-1154.288787,8151.189464,7002.868593,9015.710237,-19294.003462,12413.555373,8031.965260,9562.165685,-5794.332122,23192.482971,2727.270451,21323.318341,5840.667288,-268.888000,-820.328003,-505.567993,2800.000000,2380.000000,420.000000
8345.761400,10478.430745,617.422237,-1213.856186,8082.279036,6984.406052,8970.850285,-19339.221041,12377.949044,7990.435718,9549.916929,-5858.548684,23161.481102,2709.456111,21264.645012,5766.928883,-269.376007,-818.864014,-505.080017,3080.000000,2520.000000,560.000000
8340.732257,10421.299687,592.947077,-1254.446954,8044.415181,6971.822020,8935.243956,-19373.687431,12363.442762,7984.736024,9545.446580,-5892.299818,23146.818357,2708.651448,21228.502241,5724.751142,-267.424011,-822.280029,-507.032013,3080.000000,2520.000000,420.000000
8373.410508,10485.851525,655.822534,-1213.833834,8121.014609,6982.617913,8958.243902,-19337.969343,12397.640931,8056.619234,9553.292042,-5841.226082,23173.752209,2734.825341,21257.425399,5777.434203,-267.912018,-820.328003,-506.056000,3500.000000,2660.000000,840.000000
8431.100360,10682.546876,798.538422,-1080.460975,8302.510774,7022.359314,9059.407897,-19215.347673,12476.028499,8170.680186,9573.989758,-5707.674409,23240.472167,2777.673635,21369.921728,5930.253080,-267.424011,-819.840027,-508.007996,3780.000000,2800.000000,980.000000
8451.932186,10824.525157,879.384682,-981.241582,8407.161642,7054.232902,9143.070476,-19130.142823,12520.977857,8211.293305,9592.742871,-5612.590088,23285.309766,2794.392740,21463.463779,6043.621128,-268.888000,-821.304016,-509.472015,3640.000000,2660.000000,1120.000000
8406.133462,10758.788676,807.367361,-1018.859568,8318.268754,7043.057030,9118.863537,-19177.975557,12486.645578,8132.928089,9590.552400,-5648.352879,23264.947327,2766.050728,21447.526985,6007.768930,-266.447998,-818.864014,-509.959991,3920.000000,2800.000000,1260.000000
8377.389118,10650.270957,728.823331,-1090.519260,8214.400198,7016.279640,9060.257263,-19250.059932,12446.635955,8076.154658,9581.388185,-5720.750179,23225.697664,2741.083830,21388.361918,5921.222975,-267.424011,-822.280029,-508.984009,4060.000000,2800.000000,1260.000000
8367.509647,10580.533514,689.372502,-1136.563854,8162.588854,7000.789881,9027.467254,-19284.727488,12419.322123,8041.732972,9569.541761,-5775.489602,23196.483934,2726.532844,21340.953868,5855.106515,-266.447998,-820.328003,-508.984009,4060.000000,2660.000000,1680.000000
8354.344470,10507.353903,645.361918,-1185.670636,8108.497633,6987.803517,8992.017387,-19320.870259,12389.639007,8005.813719,9558.477647,-5832.061867,23169.035991,2712.607707,21289.120172,5787.447785,-264.496002,-818.864014,-508.496002,4060.000000,2940.000000,1680.000000
8342.520397,10428.452245,599.049103,-1240.030079,8053.199417,6974.191305,8948.677355,-19365.350230,12366.169675,7983.014939,9548.218196,-5883.739100,23147.935945,2704.874004,21241.220384,5729.221491,-267.424011,-818.376038,-511.912018,4200.000000,2800.000000,1820.000000
8362.882836,10436.700039,620.149150,-1238.085477,8079.797993,6975.040671,8944.274061,-19363.226815,12386.710928,8025.349143,9550.140446,-5871.892675,23157.793064,2721.034315,21242.695599,5741.313784,-265.472015,-821.304016,-510.447998,3920.000000,2520.000000,2100.000000
8422.874918,10606.372131,751.152724,-1127.690211,8240.060000,7006.087244,9024.159196,-19262.308688,12462.170418,8141.019421,9570.972272,-5758.077593,23216.667559,2761.625083,21331.364969,5869.590446,-266.936005,-820.328003,-509.959991,3640.000000,2380.000000,2100.000000
8466.639634,10795.914924,870.801612,-997.625410,8392.923581,7045.359259,9126.753703,-19150.035876,12534.075979,8223.139730,9594.732177,-5633.578376,23277.687821,2790.995275,21444.464796,6013.558032,-265.472015,-816.911987,-511.912018,3640.000000,2380.000000,2380.000000
8447.640651,10816.612639,859.849257,-975.921866,8377.970264,7053.271777,9151.944119,-19147.599536,12536.400561,8186.527572,9600.990665,-5613.685323,23283.566330,2783.038054,21479.333517,6039.128427,-266.447998,-821.791992,-508.984009,3640.000000,2240.000000,2380.000000
8396.164584,10691.711091,763.088556,-1059.182115,8251.034707,7024.616840,9089.649807,-19227.149394,12476.721403,8101.032150,9584.942113,-5691.558801,23242.014437,2751.186818,21414.222886,5952.515418,-266.447998,-819.840027,-509.959991,3360.000000,2240.000000,2520.000000
8372.270569,10599.621904,703.208232,-1123.577490,8175.329348,7003.092111,9039.380734,-19274.780962,12431.839100,8055.881626,9568.580636,-5757.384689,23205.826963,2728.164521,21350.743932,5874.440774,-266.447998,-821.304016,-505.567993,3220.000000,1820.000000,2660.000000
8366.280301,10536.880557,665.053805,-1164.101203,8129.977659,6989.815174,9008.892954,-19305.693424,12407.207478,8026.265565,9561.137505,-5808.011390,23178.960166,2715.021695,21306.800402,5810.313619,-265.472015,-820.815979,-505.080017,3220.000000,1820.000000,2800.000000
8353.897435,10453.553254,611.968411,-1217.879500,8066.319891,6973.610160,8966.089364,-19352.363867,12381.659434,7989.988683,9552.979118,-5866.595312,23152.898032,2701.677704,21255.637259,5741.246729,-266.447998,-821.791992,-508.007996,3220.000000,1400.000000,2520.000000
8354.523284,10418.840995,600.971353,-1243.025213,8052.841789,6967.150505,8941.703611,-19374.827370,12379.848943,8001.276314,9549.425191,-5885.370777,23148.450035,2708.338524,21233.240811,5723.119464,-268.399994,-820.815979,-502.640015,3220.000000,980.000000,2520.000000
8400.925505,10538.378124,700.302506,-1163.363595,8176.737508,6990.865706,8995.504260,-19301.781869,12435.974173,8100.406301,9563.216217,-5802.088177,23189.063154,2745.978862,21297.144448,5821.042457,-264.984009,-822.280029,-501.664001,3360.000000,700.000000,2380.000000
8451.082820,10737.532167,834.189455,-1029.789571,8351.662260,7032.149378,9099.953961,-19180.903635,12511.187793,8203.693712,9584.606836,-5668.268283,23253.838510,2783.127461,21413.954665,5975.872991,-267.424011,-821.304016,-505.567993,3500.000000,280.000000,2100.000000
8455.284948,10827.766160,872.723862,-964.142497,8403.406549,7054.523475,9157.509703,-19135.261373,12537.965183,8209.594573,9599.068415,-5601.324809,23285.913263,2788.067196,21482.172189,6050.751335,-268.888000,-821.791992,-504.592010,3780.000000,-280.000000,1960.000000
8400.746691,10716.946210,779.584143,-1035.288100,8280.606065,7031.881157,9107.128871,-19213.805403,12482.622264,8119.025304,9590.150069,-5666.480144,23249.882251,2757.177086,21432.439558,5979.985712,-265.959991,-818.376038,-506.544006,3780.000000,-980.000000,1820.000000
8373.924598,10614.239945,713.780607,-1108.847691,8192.048453,7008.233012,9052.724725,-19271.316441,12435.191862,8067.951568,9577.431926,-5737.491636,23212.532486,2736.032335,21365.384324,5900.033522,-263.519989,-816.424011,-503.615997,3780.000000,-1400.000000,1820.000000
8369.633063,10549.911624,676.162622,-1155.562837,8143.276947,6992.855012,9017.230155,-19302.385366,12410.671998,8037.821417,9568.401822,-5790.219401,23185.956262,2720.408466,21312.522449,5834.878187,-262.544006,-814.471985,-508.007996,4060.000000,-1680.000000,1680.000000
8351.394040,10464.863237,622.943118,-1212.515081,8077.495763,6973.699567,8974.247751,-19345.926564,12376.742050,7996.068358,9557.002432,-5852.893693,23156.496663,2705.812777,21257.246585,5760.782154,-262.056000,-814.960022,-507.520020,3780.000000,-1680.000000,1540.000000
8336.708943,10393.225896,585.638056,-1259.565504,8030.847672,6960.735555,8935.847454,-19381.219969,12353.429181,7978.812811,9548.419362,-5897.306609,23136.894183,2703.152919,21216.678168,5710.960115,-261.080017,-815.936035,-507.032013,3500.000000,-1400.000000,1400.000000
8373.388156,10461.599882,652.469772,-1212.649192,8112.163319,6976.605293,8963.027175,-19339.690428,12395.741033,8053.937024,9556.913025,-5846.679908,23163.939794,2734.244196,21254.854948,5765.677186,-266.936005,-816.911987,-500.688019,3500.000000,-980.000000,1400.000000
8441.270404,10667.548855,804.752207,-1072.369644,8299.515641,7021.867576,9066.672214,-19219.169822,12487.204371,8181.274913,9583.444546,-5707.875575,23234.437196,2781.696949,21374.436781,5920.485368,-263.032013,-815.936035,-501.175995,3080.000000,-1120.000000,1400.000000
8462.906893,10816.612639,891.029941,-967.763480,8411.430825,7056.468076,9152.368802,-19133.294419,12536.869948,8228.302983,9601.616514,-5607.046855,23282.873426,2799.399531,21473.410305,6039.597814,-263.519989,-817.400024,-505.567993,2940.000000,-1540.000000,1540.000000
8413.956572,10752.440781,821.739533,-1006.297887,8324.370781,7045.426315,9128.653601,-19182.691775,12497.307360,8148.395496,9596.252095,-5639.881568,23261.840434,2772.800955,21459.641631,6004.192651,-259.127991,-819.351990,-505.567993,2380.000000,-1540.000000,1260.000000
8378.864333,10638.357477,739.440410,-1082.450280,8217.730608,7018.246593,9068.259188,-19256.094903,12446.077162,8083.374272,9581.119964,-5713.754083,23221.875515,2749.957472,21396.408546,5915.903260,-263.032013,-818.864014,-505.080017,2100.000000,-1540.000000,1120.000000
8367.844923,10567.189523,693.105244,-1130.037144,8161.471267,7000.923991,9030.775312,-19289.935445,12415.254106,8048.416143,9567.597159,-5770.035776,23193.466448,2731.584338,21345.558327,5846.746963,-263.519989,-824.231995,-506.056000,2100.000000,-2100.000000,1120.000000
8354.277415,10491.104185,643.082040,-1181.423805,8102.708531,6984.562514,8991.168021,-19327.151099,12386.129783,8010.060550,9554.208464,-5828.574995,23165.258547,2712.965335,21292.785858,5777.143631,-262.544006,-824.720032,-506.544006,1960.000000,-2800.000000,980.000000
8344.085019,10412.291934,597.506833,-1234.129218,8048.371440,6969.832715,8948.163265,-19374.872074,12365.365012,7986.390053,9548.978156,-5879.380510,23144.180851,2703.197623,21244.550794,5716.659810,-262.544006,-825.695984,-506.544006,1960.000000,-2940.000000,1120.000000
8358.747763,10418.237498,615.075304,-1230.843512,8072.041937,6970.950302,8945.838683,-19373.843893,12378.977225,8022.108140,9549.447542,-5870.506867,23151.087541,2717.234518,21248.372942,5728.886214,-262.056000,-823.255981,-508.007996,2100.000000,-2800.000000,980.000000
8419.097474,10588.244866,738.479285,-1118.503644,8234.002678,7004.164994,9027.556661,-19273.775133,12455.755467,8137.577252,9567.284234,-5756.982357,23207.659806,2762.765022,21344.373684,5860.046251,-262.056000,-821.304016,-504.592010,2100.000000,-2940.000000,840.000000
8463.979776,10778.637025,858.239932,-988.304733,8389.012025,7044.018155,9129.704133,-19163.469274,12528.041008,8220.926907,9591.222953,-5632.505492,23267.182501,2796.359694,21461.452122,6004.997314,-259.127991,-823.744019,-505.567993,2800.000000,-3220.000000,840.000000
8445.271366,10803.514517,850.863856,-964.902456,8378.976092,7053.472943,9154.939253,-19155.981440,12529.873852,8189.299189,9599.694264,-5611.450149,23275.609109,2787.195478,21496.991396,6036.289756,-265.959991,-819.351990,-505.567993,3080.000000,-3500.000000,980.000000
8393.281209,10678.411803,755.958349,-1050.219065,8251.057059,7025.823835,9092.153203,-19238.235860,12471.021708,8103.893173,9586.350272,-5692.318760,23234.504251,2753.533751,21430.807880,5948.961490,-264.496002,-817.888000,-505.567993,3220.000000,-2940.000000,980.000000
8373.209342,10590.435337,701.554203,-1110.859348,8178.279779,7005.774320,9044.029897,-19286.247407,12431.772045,8059.770830,9571.709880,-5755.484790,23202.563608,2732.657222,21369.139417,5873.390242,-266.447998,-816.911987,-502.152008,3500.000000,-2660.000000,1120.000000
8362.435801,10520.317915,657.834191,-1160.211999,8124.747351,6990.821003,9006.635428,-19318.836250,12403.050053,8026.131454,9559.617586,-5809.687771,23177.395544,2718.285050,21315.227010,5807.050265,-264.984009,-816.424011,-508.007996,3920.000000,-2380.000000,1120.000000
8348.331851,10437.102370,605.486406,-1218.192425,8059.457905,6976.001796,8963.697727,-19361.617489,12373.903379,7990.793346,9551.213330,-5867.601140,23151.311058,2705.209280,21263.348611,5737.983374,-267.424011,-813.984009,-504.592010,4340.000000,-1820.000000,1680.000000
8350.231749,10401.697207,594.958734,-1244.455724,8046.315079,6969.609197,8940.228395,-19381.667004,12368.315443,8001.164556,9547.525292,-5886.756585,23144.113796,2712.630059,21244.528442,5716.928031,-268.399994,-812.520020,-506.056000,4480.000000,-1680.000000,1960.000000
8399.763215,10522.128406,697.486186,-1166.001101,8171.998939,6992.653846,8993.514954,-19312.398948,12427.748731,8099.065196,9562.500961,-5803.004599,23185.978614,2749.666899,21311.449565,5810.067750,-267.424011,-812.520020,-504.592010,4620.000000,-1120.000000,2660.000000
8455.709631,10727.943269,837.475161,-1030.705992,8349.337679,7034.563367,9096.668255,-19190.961920,12508.997322,8205.168927,9587.356101,-5665.049632,23253.480882,2787.620161,21428.192726,5962.685461,-273.279999,-812.031982,-503.127991,4620.000000,-980.000000,3080.000000
8461.521084,10826.425055,881.731615,-963.449593,8406.066406,7056.088097,9155.229825,-19137.764768,12539.798026,8215.249564,9603.672874,-5596.005094,23285.555635,2795.487976,21495.426773,6040.246015,-274.256012,-813.007996,-508.984009,4340.000000,-840.000000,3360.000000
8408.189822,10720.835414,787.943696,-1032.784704,8286.775146,7035.055105,9107.128871,-19206.742252,12486.287950,8123.182729,9595.447432,-5660.266359,23250.910431,2765.894266,21450.164491,5971.469697,-276.208008,-812.520020,-506.056000,4060.000000,-280.000000,3920.000000
8378.551409,10619.693770,722.833064,-1099.459958,8201.883221,7013.440968,9056.524522,-19260.207624,12437.471740,8070.387908,9580.851743,-5729.802636,23215.862896,2746.068269,21390.664147,5894.244420,-281.088013,-810.567993,-507.520020,3780.000000,-280.000000,4200.000000
8364.670976,10548.749333,680.968247,-1151.159543,8148.440200,6998.510003,9020.068827,-19295.322215,12406.291056,8033.999268,9567.530104,-5786.129032,23185.777448,2728.700963,21336.841147,5824.685791,-281.088013,-810.567993,-507.520020,3920.000000,280.000000,4620.000000
8343.705039,10460.884626,626.005307,-1209.609355,8082.144926,6980.583904,8976.572332,-19342.484396,12372.383460,7990.391015,9552.979118,-5850.077373,23153.210956,2711.221899,21281.386469,5751.372069,-282.063995,-813.007996,-505.080017,3780.000000,700.000000,4760.000000
8337.491255,10395.617532,591.583620,-1252.994091,8041.665917,6967.329319,8936.249785,-19379.722402,12359.642966,7981.785593,9546.765333,-5890.511679,23136.760072,2704.583431,21240.549831,5706.467415,-287.432007,-814.471985,-509.472015,3500.000000,1120.000000,4620.000000
8373.164639,10454.290861,645.652490,-1218.862977,8113.102092,6976.493535,8954.958195,-19344.183128,12400.256085,8051.634795,9555.482513,-5847.685736,23162.509282,2727.404562,21269.428285,5756.222398,-288.407990,-813.984009,-505.567993,3640.000000,1680.000000,4340.000000
8437.403552,10654.383678,787.921344,-1086.004208,8296.386396,7016.749026,9055.272824,-19224.310723,12487.494944,8175.530514,9580.315301,-5715.385761,23231.486765,2770.521077,21384.718583,5909.376551,-289.384003,-816.911987,-506.056000,3360.000000,1540.000000,4340.000000
8465.656157,10809.258915,878.512964,-977.933523,8410.715569,7051.282472,9143.741029,-19134.255544,12543.329602,8230.359343,9599.314284,-5611.584259,23279.408905,2791.956400,21485.726116,6031.573538,-284.015991,-815.447998,-506.544006,3080.000000,1540.000000,3920.000000
8421.422055,10750.898510,812.709428,-1010.768236,8326.650658,7045.001631,9124.898508,-19176.545045,12509.354950,8154.005784,9594.821584,-5642.720239,23260.521681,2768.665882,21474.505541,6003.656209,-285.968018,-817.888000,-507.032013,2940.000000,1260.000000,3220.000000
8385.547505,10636.390523,733.047811,-1086.138318,8219.094064,7019.654753,9065.845199,-19249.121159,12459.175284,8089.118670,9581.879924,-5715.251650,23221.629646,2745.576530,21412.233581,5919.434836,-283.040009,-817.400024,-504.592010,3220.000000,1120.000000,2660.000000
8372.941121,10559.411116,687.964343,-1134.485142,8160.554845,7003.159166,9026.953164,-19288.393174,12426.318219,8052.171237,9569.005319,-5774.282607,23192.237102,2728.723315,21360.846920,5850.770277,-279.136017,-817.400024,-504.104004,3360.000000,560.000000,1820.000000
8360.826476,10488.690196,644.132572,-1179.881535,8106.284810,6990.128099,8991.726815,-19321.317294,12396.791565,8016.095521,9557.270653,-5829.491416,23166.800817,2714.976992,21312.857725,5789.146517,-277.183990,-815.936035,-506.544006,3220.000000,140.000000,980.000000
8344.710868,10405.139375,594.176423,-1235.805599,8043.342297,6974.504229,8946.978622,-19366.177245,12369.209512,7983.998416,9548.128789,-5883.113251,23143.107968,2705.991591,21260.532291,5731.121389,-274.743988,-815.447998,-503.127991,3360.000000,-140.000000,0.000000
8360.312386,10411.688436,612.907185,-1235.380916,8066.945740,6973.207828,8942.575329,-19362.377448,12383.089946,8024.969164,9548.329955,-5872.227952,23152.115721,2721.324887,21259.548814,5744.934767,-270.839996,-814.471985,-503.127991,3500.000000,-840.000000,-980.000000
8421.757331,10581.293473,738.233416,-1126.594976,8228.906480,7005.416692,9025.008562,-19263.202758,12459.219987,8144.372182,9569.206484,-5757.541151,23209.582056,2762.407394,21353.247327,5873.122021,-273.768005,-814.960022,-505.567993,3780.000000,-1260.000000,-1820.000000
8466.527875,10774.770173,858.821077,-994.607925,8386.910961,7046.566253,9129.927651,-19149.074751,12530.834977,8226.939526,9591.647636,-5629.488007,23271.362277,2794.057464,21469.521102,6021.403494,-270.351990,-815.936035,-503.615997,3780.000000,-1540.000000,-2800.000000
8442.723267,10800.720549,849.321586,-970.870372,8378.059671,7055.618710,9156.526227,-19138.949411,12528.577450,8188.069843,9596.319150,-5605.951620,23279.297147,2785.049711,21504.970968,6055.780477,-269.864014,-815.936035,-507.032013,3640.000000,-1960.000000,-3360.000000
8393.214153,10679.752908,756.181867,-1051.560170,8255.706222,7029.131893,9096.400034,-19220.086243,12471.871075,8105.927182,9584.293912,-5681.276999,23238.326399,2754.383117,21444.397741,5971.402642,-267.424011,-816.424011,-505.567993,3640.000000,-1820.000000,-3920.000000
8370.080098,10587.596665,697.687351,-1116.268470,8176.961026,7006.288410,9047.472065,-19269.260081,12427.949897,8059.815533,9569.094726,-5749.181598,23203.412974,2729.773847,21383.422182,5894.423234,-267.912018,-813.984009,-503.615997,3080.000000,-1820.000000,-4340.000000
8360.670014,10520.139101,655.777831,-1160.882552,8123.719171,6992.050349,9012.871565,-19302.631235,12401.261914,8027.070228,9557.404763,-5803.965724,23174.556872,2713.188852,21333.041350,5827.435056,-264.007996,-815.936035,-505.080017,2800.000000,-2100.000000,-4340.000000
8344.219130,10432.319097,600.457263,-1216.516044,8056.730992,6975.554761,8967.609282,-19348.765236,12372.092887,7989.273428,9548.598176,-5863.354309,23145.924288,2698.615515,21275.865588,5757.541151,-263.032013,-816.911987,-506.056000,2380.000000,-2380.000000,-4340.000000
8347.773057,10393.203544,587.090920,-1242.175846,8037.530844,6968.469258,8941.614204,-19370.111152,12370.036527,7999.465823,9546.653574,-5881.615684,23140.805738,2704.292858,21253.558547,5736.865787,-265.959991,-816.911987,-503.127991,2240.000000,-2100.000000,-4340.000000
8397.237467,10508.426786,681.370578,-1168.817421,8155.436296,6989.457546,8991.279780,-19303.748823,12428.307525,8095.600676,9561.539836,-5799.115395,23183.162294,2741.106181,21315.137603,5825.266936,-263.519989,-817.888000,-504.104004,1680.000000,-2100.000000,-4060.000000
8451.775724,10711.693551,819.482007,-1032.538835,8335.546653,7029.623631,9097.517621,-19180.277786,12510.606648,8202.665532,9586.149107,-5661.965091,23251.580984,2782.032225,21435.121767,5981.215058,-262.056000,-819.351990,-507.520020,1820.000000,-2380.000000,-3780.000000
8452.334518,10808.945991,863.246723,-962.019081,8394.622313,7051.684803,9158.314366,-19123.929039,12538.121645,8213.327314,9599.917781,-5596.362721,23282.761667,2789.542412,21505.127431,6061.480172,-261.567993,-819.351990,-506.056000,1540.000000,-2380.000000,-3220.000000
8393.996464,10696.941399,767.178925,-1033.589367,8269.899579,7030.093018,9107.240630,-19198.785031,12481.795249,8119.159415,9589.546572,-5664.177914,23248.250574,2754.427821,21457.898195,5991.809784,-261.567993,-820.328003,-508.496002,1540.000000,-2380.000000,-2660.000000
8369.230732,10600.135994,702.358866,-1100.398731,8185.007654,7006.690741,9057.060964,-19259.402962,12439.393990,8069.069155,9574.794421,-5730.584947,23211.750175,2733.104257,21398.308444,5913.712789,-259.615997,-820.815979,-508.007996,1540.000000,-2380.000000,-2240.000000
8362.480505,10538.556938,666.372557,-1143.917578,8135.453836,6991.759776,9023.220423,-19293.489372,12412.661304,8039.207225,9566.144295,-5781.345759,23184.190474,2718.262698,21347.122949,5847.641033,-260.592010,-822.280029,-506.544006,1400.000000,-2380.000000,-1540.000000
8349.292976,10459.230597,620.797351,-1195.080721,8071.974882,6977.544067,8983.166097,-19333.387236,12384.498106,7999.734044,9555.951900,-5840.086143,23155.982573,2703.644658,21292.472934,5779.334102,-259.127991,-821.304016,-508.007996,1540.000000,-2380.000000,-840.000000
8342.967432,10389.604913,585.749815,-1242.309957,8024.969164,6966.457601,8944.788151,-19372.748658,12369.880065,7984.177230,9546.966499,-5885.013149,23138.391750,2699.598992,21250.988096,5731.791941,-260.104004,-819.840027,-506.544006,1540.000000,-2380.000000,-420.000000
8374.639854,10448.077076,640.846865,-1207.262422,8095.667731,6976.448831,8963.697727,-19340.070407,12404.078234,8047.767943,9551.258034,-5845.629376,23160.587032,2724.007097,21278.614852,5779.132936,-260.592010,-822.280029,-510.447998,1820.000000,-2240.000000,420.000000
8437.716477,10647.834617,784.479175,-1071.296760,8282.751832,7016.257288,9064.548798,-19219.639208,12486.243246,8168.132087,9571.911046,-5714.089360,23225.921181,2768.777641,21394.732165,5930.409542,-258.640015,-819.840027,-508.984009,1820.000000,-2240.000000,980.000000
8470.506486,10812.455215,882.759796,-956.855828,8408.927430,7053.204722,9156.794448,-19122.409120,12542.547291,8227.721837,9595.134508,-5603.425873,23279.699478,2793.029284,21502.512276,6054.819352,-260.104004,-817.400024,-508.496002,2100.000000,-2100.000000,1540.000000
8432.754389,10766.321214,821.404257,-983.432053,8333.378534,7047.572082,9143.293994,-19157.836635,12514.048816,8158.029098,9594.575714,-5625.263527,23265.707286,2770.565780,21498.108983,6028.623108,-261.080017,-819.351990,-506.056000,2240.000000,-2100.000000,2240.000000
8391.180145,10647.097009,731.997279,-1066.021748,8221.038666,7020.347657,9081.647883,-19232.290296,12457.945938,8089.319836,9577.566037,-5703.762854,23224.825945,2745.196551,21430.696122,5936.131589,-261.567993,-815.447998,-507.520020,2240.000000,-2100.000000,2660.000000
8377.299711,10572.285720,685.215078,-1117.788388,8161.292453,7002.712131,9041.906481,-19272.255215,12423.412493,8055.412239,9565.853723,-5761.743279,23194.919311,2730.131475,21376.493141,5864.762469,-263.032013,-815.936035,-506.544006,2520.000000,-2240.000000,3220.000000
8368.224903,10503.710568,643.618482,-1161.664863,8106.709493,6989.099918,9006.098986,-19308.934427,12397.640931,8023.516300,9558.097667,-5815.499224,23171.360573,2715.826358,21324.793556,5797.796643,-262.544006,-813.007996,-506.544006,2380.000000,-2240.000000,3640.000000
8354.880912,10422.819605,597.551536,-1217.208948,8045.242196,6972.514924,8960.210855,-19357.236547,12372.808143,7993.721425,9549.961632,-5868.517562,23147.935945,2704.918707,21271.730515,5734.652964,-265.959991,-814.471985,-507.520020,2380.000000,-2380.000000,4060.000000
8368.850752,10421.210280,615.522339,-1221.433428,8063.615330,6972.358462,8951.068992,-19359.114094,12385.973321,8026.891414,9550.766295,-5863.890751,23153.613288,2716.206338,21265.136750,5739.369183,-264.496002,-813.984009,-508.496002,2660.000000,-2520.000000,4480.000000
8424.238375,10577.784250,737.965195,-1119.084790,8218.825843,7003.516794,9027.221385,-19260.386438,12458.325918,8137.286679,9569.899389,-5759.396346,23207.615102,2756.506533,21350.408655,5863.242550,-267.424011,-816.911987,-505.567993,2520.000000,-2660.000000,4760.000000
8466.326710,10770.165714,861.391528,-985.242544,8379.691348,7045.582777,9134.107427,-19140.961068,12529.382113,8223.229137,9592.117023,-5633.734838,23269.395324,2790.615295,21470.370468,6014.206232,-267.424011,-814.471985,-506.544006,2380.000000,-2660.000000,4900.000000
8443.550282,10794.909095,849.500400,-961.862619,8367.889627,7053.584701,9158.895511,-19134.143786,12526.521090,8187.645160,9599.202526,-5611.293687,23278.425429,2779.975865,21505.708576,6040.849512,-273.279999,-814.471985,-507.032013,2240.000000,-3080.000000,4620.000000
8395.851659,10675.126097,749.319881,-1042.395954,8243.122189,7026.404980,9099.059892,-19215.548839,12468.384203,8106.843603,9585.567961,-5688.206039,23238.013475,2748.169333,21445.448273,5953.789467,-272.791992,-814.471985,-506.056000,2100.000000,-2940.000000,4760.000000
8380.585418,10593.296360,695.005142,-1100.309324,8172.803601,7006.020189,9052.925891,-19263.158055,12431.414417,8070.231446,9574.794421,-5748.555749,23205.424631,2730.600861,21387.221979,5878.173516,-274.743988,-813.496033,-504.592010,2100.000000,-2940.000000,4480.000000
8372.427031,10529.727999,655.062575,-1145.616310,8122.936859,6992.586791,9020.113530,-19291.276549,12404.167641,8037.016754,9564.289101,-5802.222288,23177.596709,2716.407504,21337.310533,5813.420512,-275.231995,-814.471985,-505.080017,1960.000000,-3080.000000,4340.000000
8355.305595,10442.600899,599.831414,-1204.736674,8054.920501,6977.499363,8976.661739,-19337.097625,12372.808143,7993.721425,9551.928586,-5863.175495,23148.673552,2699.889565,21283.755753,5743.370145,-276.696014,-815.447998,-502.152008,1540.000000,-3220.000000,3920.000000
8354.389173,10399.126756,585.123966,-1233.481018,8035.206262,6971.196171,8949.146742,-19363.986774,12368.181332,7999.756396,9548.017031,-5885.482536,23141.275125,2703.287030,21259.168835,5717.911508,-277.183990,-815.936035,-506.056000,1400.000000,-3220.000000,3500.000000
8402.311313,10513.768853,681.459985,-1160.055537,8153.826970,6993.346750,9000.443995,-19297.982073,12427.949897,8098.461699,9562.143333,-5804.882146,23181.664727,2738.312213,21319.898524,5807.430244,-277.671997,-815.447998,-505.080017,1120.000000,-2660.000000,2940.000000
8459.084744,10724.322286,818.699696,-1020.021858,8335.434894,7036.418562,9106.324209,-19173.415801,12509.623171,8209.035779,9584.785650,-5665.720185,23246.820062,2777.874801,21438.988619,5966.217037,-276.208008,-816.911987,-501.664001,840.000000,-2800.000000,2380.000000
8462.795134,10831.744770,864.632531,-945.501142,8401.484299,7063.888855,9168.842038,-19114.742472,12537.093465,8221.955087,9596.587371,-5593.859326,23278.023097,2786.346112,21513.196410,6055.288739,-276.696014,-816.424011,-503.615997,1120.000000,-2380.000000,1960.000000
8404.546488,10726.289240,769.391748,-1018.591347,8280.270789,7042.788809,9118.081226,-19186.402164,12481.236456,8127.228394,9586.283217,-5659.394641,23243.959039,2752.662033,21464.335497,5990.356921,-277.183990,-816.424011,-503.127991,1120.000000,-2240.000000,1260.000000
8377.500877,10624.208823,702.470625,-1092.195641,8190.237962,7017.464282,9060.614891,-19249.411732,12435.415379,8072.243103,9570.301720,-5730.361429,23206.810439,2729.147998,21396.676766,5910.717656,-281.088013,-817.400024,-503.127991,1260.000000,-1820.000000,840.000000
8365.788563,10555.119581,661.946912,-1140.631871,8138.113694,7001.773358,9024.382713,-19282.089982,12403.139460,8035.318021,9554.610795,-5787.403081,23177.104971,2712.831225,21341.512661,5847.641033,-281.088013,-817.888000,-505.080017,1400.000000,-1260.000000,420.000000
8351.014060,10476.933179,612.504853,-1194.007837,8075.797030,6986.373006,8984.127222,-19323.396006,12374.864504,7994.615495,9544.239586,-5845.539969,23149.075884,2697.386169,21286.169742,5783.312712,-279.136017,-819.840027,-504.104004,1680.000000,-1120.000000,-140.000000
8343.705039,10410.682608,576.317379,-1241.527646,8030.802969,6972.783145,8945.168131,-19361.729248,12359.106524,7978.075204,9537.131731,-5887.315379,23132.334427,2693.631076,21244.059055,5738.519816,-280.112000,-818.864014,-502.152008,1820.000000,-980.000000,-560.000000
8376.763270,10464.259739,630.520359,-1207.552994,8100.696874,6982.304988,8964.301224,-19328.469852,12396.746862,8045.309251,9548.017031,-5845.383506,23158.038933,2719.961431,21274.189207,5788.163041,-276.696014,-819.351990,-505.080017,2240.000000,-700.000000,-840.000000
8442.790323,10662.586768,774.219724,-1069.687434,8287.177478,7023.611012,9067.521580,-19208.955074,12484.700976,8169.853171,9574.168572,-5709.730769,23225.541201,2767.257722,21395.961511,5942.613595,-273.279999,-817.888000,-505.080017,2660.000000,-420.000000,-980.000000
8474.574503,10820.457139,869.795784,-957.213456,8409.888555,7058.636195,9157.308538,-19119.212820,12542.927270,8229.934660,9596.967351,-5603.001190,23276.570234,2790.414130,21503.585160,6065.011747,-276.208008,-818.864014,-504.592010,2940.000000,0.000000,-980.000000
8437.157683,10776.759479,815.682210,-979.118166,8341.045182,7052.310652,9142.779904,-19157.523710,12518.228593,8163.929959,9598.330807,-5623.385981,23263.427408,2768.799993,21500.098288,6043.397611,-274.256012,-816.424011,-508.007996,3360.000000,140.000000,-1120.000000
8395.203459,10657.714088,730.253843,-1058.220989,8229.867605,7024.281564,9079.949150,-19232.871441,12462.081011,8093.141984,9579.734156,-5699.225449,23219.416823,2741.821437,21432.305447,5955.979938,-273.768005,-816.911987,-504.592010,3500.000000,560.000000,-1120.000000
8381.703005,10581.628750,687.092625,-1111.753417,8170.121392,7006.109596,9040.408914,-19271.182331,12428.352228,8056.261606,9565.831371,-5756.267101,23189.733707,2725.303498,21376.403734,5886.756585,-273.768005,-815.447998,-507.520020,3780.000000,700.000000,-980.000000
8367.263778,10505.677522,644.937235,-1162.603636,8110.732807,6990.597485,9003.416777,-19304.195858,12396.344530,8019.582393,9555.147237,-5811.207689,23163.179834,2710.506643,21322.223106,5820.416608,-274.256012,-815.447998,-507.032013,3920.000000,560.000000,-700.000000
8349.583548,10414.750625,591.114234,-1224.160340,8042.135303,6972.023186,8953.594739,-19352.162701,12364.448591,7985.630093,9543.390220,-5870.730385,23134.524898,2699.934268,21265.024992,5753.271968,-273.279999,-816.424011,-507.032013,3920.000000,980.000000,-560.000000
8365.430935,10413.588335,604.190004,-1226.104942,8059.949644,6971.240875,8945.726925,-19352.587384,12380.385385,8019.492986,9542.518502,-5867.265864,23139.643447,2715.289916,21265.069695,5758.032889,-268.888000,-815.447998,-506.544006,3920.000000,980.000000,-420.000000
8427.009991,10579.371223,731.036154,-1114.726199,8223.229137,7003.986180,9026.729647,-19252.272755,12457.744772,8138.784246,9562.210388,-5754.344851,23196.550989,2761.960359,21358.879967,5882.040367,-270.351990,-816.424011,-508.007996,3920.000000,1260.000000,-280.000000
8474.350986,10777.452383,857.748193,-980.861602,8384.519325,7047.303861,9132.900433,-19135.529594,12532.131378,8229.308811,9587.221990,-5621.664896,23260.544033,2798.706627,21478.305337,6030.232433,-268.888000,-813.984009,-510.936005,3500.000000,1400.000000,-280.000000
8455.329651,10809.258915,850.796801,-954.397136,8378.216133,7059.329100,9160.817762,-19124.197259,12534.165386,8199.089253,9596.743834,-5596.005094,23272.301051,2790.704702,21516.482117,6063.871809,-268.888000,-813.984009,-509.472015,3360.000000,1120.000000,140.000000
8406.491090,10688.626550,751.465649,-1035.466914,8250.766486,7031.031791,9100.512755,-19207.904542,12477.526066,8112.185670,9584.740947,-5673.699757,23229.899791,2758.875818,21456.847663,5976.431784,-269.376007,-810.567993,-508.496002,3360.000000,840.000000,420.000000
8387.961493,10602.326465,696.323895,-1094.430816,8180.514953,7010.356427,9054.624624,-19258.263023,12440.221005,8069.292673,9570.033499,-5737.603395,23196.707451,2739.407449,21398.554313,5901.553440,-269.864014,-814.471985,-509.472015,3360.000000,420.000000,700.000000
8376.718566,10536.120598,658.191819,-1138.866083,8133.062200,6997.146547,9021.611097,-19289.421354,12410.962571,8034.848635,9556.018955,-5789.794718,23169.572433,2724.677649,21349.089903,5838.856797,-265.472015,-813.984009,-507.520020,2940.000000,140.000000,840.000000
8361.519380,10453.106219,608.503891,-1195.952439,8065.604635,6980.606256,8977.779326,-19335.533003,12379.714832,7996.671855,9546.832388,-5848.021012,23144.851404,2709.500815,21294.529294,5769.968721,-264.984009,-812.031982,-512.400024,2940.000000,280.000000,1120.000000
8363.262816,10412.537803,596.456301,-1223.243919,8045.800989,6973.721918,8951.694840,-19358.488245,12375.579760,8004.584373,9545.468932,-5871.333882,23140.045779,2714.194681,21270.210596,5743.772476,-268.888000,-814.471985,-507.520020,2660.000000,140.000000,1120.000000
8406.111110,10514.908792,683.471642,-1157.663901,8152.083534,6994.106709,8993.291437,-19296.708023,12426.407626,8096.450042,9556.242473,-5802.155233,23176.993212,2746.492952,21323.810080,5823.679963,-267.912018,-813.007996,-507.032013,2520.000000,-280.000000,1260.000000
8462.325747,10717.259135,821.381905,-1021.497073,8327.835301,7034.675125,9098.188174,-19176.679155,12506.493927,8204.431320,9578.638921,-5671.509286,23242.059140,2786.055539,21442.855471,5977.415261,-264.984009,-815.936035,-507.520020,2380.000000,-420.000000,1260.000000
8472.004053,10828.704933,877.730653,-941.522532,8400.143194,7059.619672,9168.327948,-19114.407195,12539.708619,8222.871509,9593.905162,-5596.273315,23277.509007,2795.800900,21525.758091,6065.078803,-263.519989,-813.984009,-504.104004,2100.000000,-840.000000,1540.000000
8419.276287,10730.804292,790.469443,-1004.688562,8285.299931,7040.486579,9126.172558,-19183.228217,12488.523124,8134.380953,9586.998473,-5654.790181,23246.618896,2766.140135,21486.910759,6001.108110,-265.472015,-815.447998,-509.959991,2240.000000,-1120.000000,1540.000000
8392.275380,10628.701523,723.771837,-1074.023673,8195.289456,7016.950192,9073.869476,-19246.997743,12444.065505,8079.909751,9574.257979,-5724.482921,23210.565533,2743.855446,21425.488165,5921.915879,-265.959991,-816.911987,-511.424011,2240.000000,-1120.000000,1680.000000
8380.630121,10559.299357,682.242296,-1121.744647,8143.612223,7002.801538,9040.744190,-19279.094849,12412.460138,8042.828207,9561.204560,-5779.848192,23182.759962,2726.734010,21374.995574,5857.274635,-265.472015,-815.447998,-507.032013,2100.000000,-1820.000000,1820.000000
8365.095659,10478.922484,632.286147,-1176.796994,8081.742594,6986.484764,9000.622809,-19317.517497,12381.704138,8002.125681,9548.397010,-5839.750867,23154.306192,2710.216070,21320.300856,5790.129994,-268.399994,-816.911987,-508.984009,2240.000000,-2240.000000,2240.000000
8357.473714,10408.246268,595.741045,-1225.367335,8034.245137,6969.676253,8958.266253,-19357.795341,12365.677937,7988.804041,9542.473798,-5883.001492,23136.201279,2705.142224,21275.396201,5738.408057,-270.839996,-817.400024,-508.496002,2380.000000,-1960.000000,2380.000000
8384.005235,10452.145094,645.808953,-1198.701703,8094.773661,6975.890038,8970.783230,-19328.179279,12395.428109,8051.411277,9547.346478,-5847.462219,23156.876642,2729.617385,21293.836390,5775.422546,-267.424011,-819.840027,-510.447998,2240.000000,-2380.000000,2660.000000
8442.097419,10642.581957,788.033103,-1069.575676,8271.933588,7016.078474,9068.125077,-19210.474993,12474.307415,8167.215665,9566.948958,-5719.923165,23220.109727,2775.639626,21401.527095,5921.424141,-267.424011,-818.376038,-508.496002,2240.000000,-2660.000000,2800.000000
8472.004053,10805.369712,885.039673,-955.894703,8395.158755,7051.841265,9160.884817,-19116.329445,12532.489006,8225.777236,9586.618493,-5609.706713,23268.903586,2798.907792,21504.501582,6046.884483,-271.328003,-816.911987,-507.032013,2100.000000,-2520.000000,2940.000000
8437.582366,10769.472810,833.317737,-976.614770,8326.449493,7046.745067,9151.988822,-19152.136940,12511.657180,8162.186523,9590.574752,-5624.727085,23260.365219,2777.114842,21501.841724,6026.857320,-269.864014,-816.424011,-508.496002,1820.000000,-2520.000000,3220.000000
8401.931334,10653.802532,751.778573,-1056.164629,8215.003695,7019.408884,9090.298008,-19228.803424,12462.237473,8095.712435,9578.795383,-5700.052464,23222.233143,2753.556103,21436.619334,5936.086885,-272.791992,-817.888000,-508.984009,1820.000000,-2660.000000,3080.000000
8386.620389,10576.197276,704.594040,-1108.221842,8155.145723,7002.198041,9051.003641,-19267.561348,12426.452330,8053.691155,9561.115153,-5763.240846,23188.258492,2737.485199,21382.930444,5866.081222,-270.839996,-821.304016,-508.496002,1680.000000,-2380.000000,3080.000000
