Time	EMG_Ch1	EMG_Ch2	EMG_Ch3	EMG_Ch4	EMG_Ch5	EMG_Ch6	EMG_Ch7	EMG_Ch8
0.0	0.0793100609407568	0.0796541877354218	0.0761663415130177	0.07516404140133859	0.08543982378124487	0.06357028468653911	0.07323761875515156	0.07525634442653346
0.001	-0.20038639120196053	-0.19927586548005605	-0.19387291464572393	-0.18523756664820565	-0.21711998471808736	-0.1522163375913699	-0.1826042953939701	-0.18294020091073446
0.002	-0.41824079178946816	-0.4166215044081208	-0.40412342376955057	-0.38828181500978093	-0.4529549450933824	-0.3203542504176895	-0.3818692512728883	-0.38420798944108825
0.003	-0.5187725765147236	-0.5170007231489755	-0.5010675349979035	-0.4822430207826921	-0.5621538530581776	-0.3978287461527343	-0.47377056672526385	-0.4771528080080855
0.004	-0.4810693299613847	-0.47951708974242585	-0.46456550248041634	-0.44756733266541937	-0.5219837175764979	-0.36855913200872825	-0.43922552664885783	-0.44243270889120473
0.005	-0.3233177979562712	-0.32229074314810713	-0.31221316869592786	-0.3011038739479379	-0.35183535536658617	-0.2468483334731439	-0.2949716830040371	-0.2969401807351695
0.006	-0.0954230461356422	-0.09509767215703183	-0.09220260407867532	-0.08924475240958218	-0.10537365448288442	-0.07152362430999924	-0.08675323214375841	-0.08691549561529693
0.007	0.1373977767541327	0.13700265780338655	0.1325230832739221	0.12733838185981947	0.1470482999799956	0.1069228269604321	0.12575174170263356	0.12730884796483408
0.008	0.3143650885536467	0.3133791896606104	0.30333180845926905	0.29207253148823903	0.3396403130617025	0.24171149595012276	0.2870319556699974	0.2896362113434249
0.009	0.395840358346904	0.3945012366432994	0.38201201087295517	0.3680306942204182	0.4292327123871646	0.30267139932462805	0.3610057636967304	0.3636626211647134
0.01	0.3721008412022079	0.3706952191708006	0.35921923053040694	0.34610623487688713	0.40486598695260057	0.2828772372378047	0.3389823439297301	0.34073449895861097
0.011	0.26233290157392075	0.2611358805177596	0.253479160945117	0.24409103845970775	0.2868671110331704	0.197652618419272	0.23865290094548158	0.23891017152468313
0.012	0.10534925174324707	0.10457459821299774	0.10221134665436747	0.09805631329943704	0.11697080417265224	0.07719481918583126	0.09552831759073167	0.09425647680339508
0.013	-0.053988752731659165	-0.05422004661979553	-0.0513732543959078	-0.05026469244932605	-0.0562750571086435	-0.04401536537596981	-0.049500066561010955	-0.051790814637767454
0.014	-0.1778394838349158	-0.17751147633504816	-0.17085923065273412	-0.1656289476956359	-0.19165835611688462	-0.1372625143058091	-0.1620680556098339	-0.16452381156288592
0.015	-0.24405022819592503	-0.2432482229689013	-0.23494944671132362	-0.22735743284864068	-0.2647881225591436	-0.18611701910108663	-0.22217165467705438	-0.22390906609269617
0.016	-0.24863021167585686	-0.24752449766576645	-0.23980522580508473	-0.23165938383921308	-0.2709240747644912	-0.18811065119652223	-0.22632125671670758	-0.22674256505255097
0.017	-0.20258416662046605	-0.20140306181568782	-0.19596270647906636	-0.18871861749584576	-0.22168908939544457	-0.15209104849974997	-0.18457343261356618	-0.18357210474835578
0.018	-0.12539328240567527	-0.12438550968688447	-0.12205018150795943	-0.11665715368518213	-0.13808806953451658	-0.0930967196085126	-0.11456630948712831	-0.11255338131704243
0.019	-0.038017743825114525	-0.03740512698098955	-0.03808499283318967	-0.035036375619401816	-0.042925079143761216	-0.0269982867612762	-0.03519254466307717	-0.032937603534509724
0.02	0.0422666944334599	0.042340725125610074	0.0394316749025352	0.039961486269524685	0.04486068994101672	0.033339509215369524	0.03800310266017004	0.03965732175791789
0.021	0.10416294640480928	0.10367728347478286	0.0996517900145878	0.09770649725195851	0.11277807875987367	0.07964651925082396	0.09480545002040944	0.0952519934578337
0.022	0.14209891625941976	0.14117519904566858	0.137092862249778	0.13293400808403594	0.15459034372235267	0.10791124396395207	0.13003570758869334	0.1291253001482527
0.023	0.15462826327897047	0.1535137328068076	0.15011013651131194	0.14429543150130736	0.1686203774827735	0.11709726801730033	0.14211373164487298	0.14021014995991274
0.024	0.14283231513978015	0.14184068957840953	0.13943067786718413	0.132880997818658	0.15601294658238649	0.10795437869280883	0.1317019727276258	0.12955045632433695
0.025	0.10957030193539298	0.10899156302144763	0.10754367228601013	0.10149517378845734	0.11989198451827099	0.08253909675325065	0.10116480982207351	0.09961960781507241
0.026	0.05963488513807473	0.059640052286549755	0.058959783486801684	0.054746383275824165	0.065500756818424	0.04443033805500299	0.054834378685299084	0.05454228221532821
0.027	0.00021273787766152089	0.0007875689992137662	0.0007151020694821202	-0.0005851130557625664	0.0006904897299140171	-0.0008708186577381996	-0.0005218038680355128	0.0006318408246829103
0.028	-0.05917407974345611	-0.05823731999284208	-0.057705095877859144	-0.055641367768109254	-0.06413786784079273	-0.04600856465144458	-0.05581150341729085	-0.053560122539382596
0.029	-0.10779980640802503	-0.10684134109180843	-0.10555672873095467	-0.10053936460439619	-0.11725536963953198	-0.08271221904865618	-0.10079700876856171	-0.09822837393221395
0.03	-0.13590470304148264	-0.13528156491534354	-0.13307468044814522	-0.1263478709466546	-0.14797012208112678	-0.10353566555863891	-0.1262564757024313	-0.12431559860822655
0.031	-0.1372688760833707	-0.13722281575987805	-0.13409196672267568	-0.12741612275271666	-0.14945385221727933	-0.10386262232349108	-0.12647568433748876	-0.12593722843434818
0.032	-0.1112373894577743	-0.11179586843494728	-0.10806634042331735	-0.10319721908703736	-0.12098363187901898	-0.08342276031533218	-0.10113865239542034	-0.10232352161987635
0.033	-0.06334968220585828	-0.06430180370226932	-0.06066479042757195	-0.05880635533096076	-0.06865368313526589	-0.04668091683752101	-0.0558198556439712	-0.0584649183990512
0.034	-0.00420478653594686	-0.0051683996055800156	-0.0025547992686652202	-0.003984745548682722	-0.004132479718493402	-0.001859375019005599	-0.0007671811207299265	-0.004096285278922524
0.035	0.05316571955039119	0.05260438998455354	0.05329430963970849	0.049285517983854665	0.0582472276812622	0.04114533109903581	0.05170933107144486	0.04873606867028908
0.036	0.09661008462751736	0.09673355085005254	0.09495911472406178	0.08979134988780232	0.10517124147573637	0.07329456263769238	0.09042392096389454	0.0887685503539183
0.037	0.11782534440335427	0.11866135420901869	0.1145070995813825	0.10979974246530796	0.12764383551444197	0.08859580296581974	0.10807254261799068	0.1083032999106518
0.038	0.11411326436350558	0.11540256024193346	0.10966715252400303	0.10668634093528409	0.12291860377462527	0.08531277055288741	0.1027463627054773	0.10485450945370015
0.039	0.08850649035895329	0.08978134900909032	0.08383057286049375	0.08309889958770134	0.09458461174688859	0.06593323898531027	0.07785291075784284	0.08126106552257732
0.04	0.0484021533502026	0.049152831190748356	0.04455976118184718	0.04576495627344483	0.05096774349736555	0.03605381398283082	0.04064302720465499	0.04439574915200008
0.041	0.0032844480534147563	0.0031545581017083588	0.0012310186843389123	0.003450247383886049	0.0025229222673853772	0.0026566497292554495	-4.0759527127685706e-05	0.003024714812011765
0.042	-0.03769252337781334	-0.03875576137140968	-0.03738362054718176	-0.03525029802095044	-0.040885249186788306	-0.027638843508246677	-0.036027155816474025	-0.034449138388363165
0.043	-0.06758554577789463	-0.06928718002182148	-0.06491050456463596	-0.06368089540539373	-0.07203064091369203	-0.04987289213925468	-0.06145589320466166	-0.06171914870304486
0.044	-0.08263044415775407	-0.08441323025739174	-0.07818923045114388	-0.07809850577507241	-0.08728079893447005	-0.06135986247782098	-0.07348494517101219	-0.07543493546799745
0.045	-0.0822816622084558	-0.08351590123781663	-0.07713800051105878	-0.07780849481699403	-0.08647332691367647	-0.061656914040428015	-0.07212062988261657	-0.07518777243297813
0.046	-0.06858634012617411	-0.06879768434834332	-0.06398806839117437	-0.06466565137026273	-0.07206405752295733	-0.05210868870919805	-0.059487611556480635	-0.0628863218076833
0.047	-0.045269598613462275	-0.04432079524739789	-0.04231035627510578	-0.042254076474264664	-0.048027550523044915	-0.03524156094474187	-0.03893602384882384	-0.04189194549372352
0.048	-0.01685346664153239	-0.015009870914710611	-0.016177484108553963	-0.015029798564795714	-0.0189070156834049	-0.014212333483355216	-0.014290734804876696	-0.016222401190856394
0.049	0.012024775354671221	0.014174868546993307	0.010385505406529778	0.012407035425075881	0.010804917726662115	0.007611541627809444	0.010638553195886202	0.01002726306115065
0.05	0.037093938411982226	0.03883935077651478	0.033702691444674186	0.035872484943964895	0.03699910723897393	0.026976071784641502	0.03234448260818933	0.03306380840469979
0.051	0.05482431471620483	0.05558055783709412	0.050652550515670046	0.05203302176835786	0.056172302695056756	0.04105089990696483	0.047851459094888256	0.0496865159054748
0.052	0.06278693141815543	0.06230396078975475	0.058919878992551675	0.05876108973839493	0.06570696619816928	0.0477757429340815	0.05500405721664567	0.05759364246798959
0.053	0.06000571385840607	0.05845635252913746	0.057334929090250064	0.05541047329598427	0.06425694941223366	0.04621435822923903	0.0528220172854037	0.05572277722009007
0.054	0.04721355444053614	0.045128864210889776	0.04621072631153356	0.04294967084608986	0.052135025319399	0.03681216804737857	0.04180975211253351	0.044537947782327635
0.055	0.026870427724504525	0.024945885218247404	0.02750597769434336	0.023864721393031876	0.03150077234695921	0.0214282485267624	0.024047935604678727	0.02611504264923622
0.056	0.0028299610585191953	0.001675541545261585	0.0046497476283419124	0.0017732553373476095	0.006160102067819173	0.0030559632006898624	0.0029300416721508085	0.0038973861243307047
0.057	-0.020355789090293338	-0.020427114485407235	-0.018034506126158815	-0.01922864172567944	-0.01909027500775304	-0.014755922072011336	-0.017474749293905426	-0.01790888072121198
0.058	-0.038368548934230765	-0.0374348155787863	-0.036217035631213756	-0.035369254069116556	-0.039463025787867784	-0.028659283128284536	-0.03330198581711126	-0.03519606292100292
0.059	-0.04806103112929958	-0.04653537201599061	-0.04653871363332677	-0.04396680532740867	-0.051262303489852196	-0.0362416137998536	-0.041773684143516066	-0.04485786916627463
0.06	-0.04813666197275132	-0.04658863675116298	-0.04739349672711009	-0.043960049094417766	-0.05272645514440627	-0.036533634563729295	-0.0418157545898112	-0.04547949511678318
0.061	-0.03937276119353432	-0.0383024185782775	-0.0392757175226241	-0.03606225606353701	-0.044372697123804525	-0.0301479920790848	-0.03422271035709914	-0.03761158590126971
0.062	-0.02432419356303011	-0.023981490653294496	-0.0245824450928242	-0.022501551467935067	-0.02874507839111472	-0.019021027127005676	-0.021329227647922444	-0.023549189111275286
0.063	-0.006603475843810614	-0.006924226608338312	-0.00693215338283	-0.006427153174565594	-0.009660788186143037	-0.005849805589617313	-0.0063085881051710875	-0.006688134217876207
0.064	0.010042387572208846	0.0093640725726134	0.009790314418017625	0.008849797194537663	0.008797017169664634	0.006598972320201707	0.007670016400452999	0.009344935375660215
0.065	0.02259104515652447	0.021933106905100988	0.02237776869497793	0.020578167369506836	0.02323350578887927	0.016109726348810444	0.01816878315281612	0.021537949856611355
0.066	0.02931502673667492	0.028941502536418882	0.028970780367618635	0.027077126970212362	0.031587679040685795	0.021413048928317895	0.023902197084234838	0.028091693061667852
0.067	0.02994880646503715	0.029894004434530497	0.029296034434339556	0.027936325626514873	0.033343059132348855	0.022286755475921034	0.024783991307463008	0.028643366403079976
0.068	0.02547291192005935	0.02554861286353311	0.024461537145918363	0.023902223884430543	0.029330113251138795	0.019391100569138123	0.0216624139539383	0.02411087532388451
0.069	0.0176446545752831	0.017565102056140088	0.01643200124749694	0.016528826073971235	0.02126386561437562	0.013938111809717494	0.0158933426877927	0.016260626325761987
0.07	0.008454916531660717	0.008017647077387547	0.007386467638198627	0.007717367608965823	0.011204967458044775	0.007321143412987681	0.008919071912419797	0.007160681237710839
0.071	-0.00032736991863633637	-0.0010958331334202896	-0.0008372152672640847	-0.000727397851613118	0.0011028926351373137	0.0008100151170023981	0.0019741516350979503	-0.0013191323407375378
0.072	-0.007428603738872451	-0.008240020523764775	-0.007070999516771387	-0.007428755479029626	-0.007496270105725999	-0.004633769971845506	-0.004041559668909306	-0.007846794985925588
0.073	-0.012149838769039181	-0.012561382958181662	-0.010877983500308242	-0.011611323484159665	-0.013576236078481064	-0.008422431416448242	-0.008558474944981883	-0.011764549500755424
0.074	-0.014304106860516528	-0.013925632112823542	-0.012400554402977671	-0.013117738070943515	-0.01666153602511039	-0.010325323244087315	-0.011276662980038248	-0.013044489376073028
0.075	-0.014089246054828091	-0.012799002144449215	-0.012105816807601739	-0.012303412931056667	-0.016771734106038525	-0.01041549332701638	-0.012116746951680317	-0.012125838057025246
0.076	-0.011960539461730188	-0.01002538572481695	-0.010543707119027594	-0.009858429204158659	-0.014352441337215388	-0.009008263111679333	-0.011209056795591227	-0.009706423123253436
0.077	-0.00853202108433227	-0.006563544532253961	-0.008194784132519131	-0.006605088844908846	-0.010183258737082252	-0.006596082875066267	-0.008901068211668943	-0.006547107276970873
0.078	-0.004500416444781786	-0.0032478449398790823	-0.005426522691684411	-0.003311285739562032	-0.005245445351652837	-0.003768148227128563	-0.005737913075925933	-0.0033233828434072604
0.079	-0.000569048243530745	-0.0006237743667353128	-0.0025262092267240143	-0.0005493297463313503	-0.0005420093482912773	-0.0011058739643290093	-0.0023799391884272297	-0.0005350635850902615
0.08	0.0026442185376486012	0.001112342229639093	0.00024544804185878434	0.0013806843890475148	0.003106965201062654	0.0009362530607034559	0.0005418278318358675	0.0015301672141045854
0.081	0.004708813627910233	0.0020680838286062913	0.0026284222709740263	0.002455273959229152	0.005240616850451029	0.002133248918470652	0.0025887772679989976	0.002789986527013233
0.082	0.005465011147344805	0.002531219129897747	0.0043844906778962595	0.002865621470534439	0.005842854407489833	0.002534946944618018	0.0036294229604573753	0.003329127405874588
0.083	0.005053789782351478	0.0028156311143392124	0.005351782440003894	0.0029100957416013833	0.005297098353696926	0.0024255837593078764	0.003849790361140903	0.0033411040479176817
0.084	0.0038703987360358162	0.003131230255630734	0.005499100972902989	0.0028742891472540947	0.004217259962998803	0.002200835624696553	0.0036458397881940123	0.0030622134685543024
0.085	0.0024463243823005416	0.003520216047413021	0.0049469162223566236	0.002935543626807882	0.003212730256382095	0.0022026735016163436	0.0034378590132861583	0.0027106994243723034
0.086	0.0012928928201292374	0.00387485553550267	0.003939599435523654	0.003120702683391057	0.002674702214979981	0.002576274028900821	0.003484789402459698	0.002442405576187993
0.087	0.0007557865783721276	0.004019185802593356	0.0027769746851589484	0.003326405028377383	0.0026638717006320124	0.0032096655287015673	0.0037790562221351708	0.0023292945879081362
0.088	0.0009259935118129704	0.0038117529518264526	0.0017303332255391816	0.0033872641705518635	0.0029372621766687347	0.003784440176374101	0.004067053446794953	0.002360034870083516
0.089	0.0016314896239196935	0.0032197247457642526	0.0009718553002331168	0.0031588177506783003	0.00309337006451774	0.00391795417865453	0.003983299553444383	0.0024556518897670895
0.09	0.002505394605144824	0.0023301410581881635	0.0005378848772348635	0.0025779542372363663	0.0027666508548404665	0.0033359852704641663	0.003234633360480422	0.002491260330029268
0.091	0.003102772352370181	0.0012955019196210912	0.00033235139586209423	0.0016763391069877028	0.0017861108652547832	0.001999936316398484	0.0017492662656083831	0.0023181693124233326
0.092	0.003028268362281146	0.00024436474113378103	0.00016447051149645316	0.0005467716614881227	0.00023480790215163428	0.00013248693401340245	-0.00027594315794780095	0.0017869834049229639
0.093	0.002041634105212244	-0.0007926777135256798	-0.00019103586609802922	-0.0007131116596625934	-0.0016040786505244903	-0.001868216845840061	-0.002447325104355547	0.0007771886022069257
0.094	0.00012217274204186744	-0.0018957656422873784	-0.0009233575545300431	-0.002043188042584767	-0.0033768289454517222	-0.003584442616240883	-0.004326646834949389	-0.0007621980980673151
0.095	-0.0025124719965359168	-0.003189817491173183	-0.0021158157910257606	-0.003419807185710175	-0.00479552247671489	-0.0047312886089105576	-0.005589202512145727	-0.0027642451407574337
0.096	-0.005429599291174467	-0.0047229659573678265	-0.0036893830611466963	-0.004806140730167035	-0.005715731086237	-0.005234863532259932	-0.0061142480756535885	-0.005002972935470702
0.097	-0.008042436797147782	-0.006346757524768874	-0.005375834559722148	-0.0060788957502044185	-0.006125160209737485	-0.005202594422554411	-0.0059711289124523455	-0.007083296823161812
0.098	-0.009706615148736487	-0.0076661334989004595	-0.006739067711081863	-0.006977252167650501	-0.006061368410530468	-0.004806388024413684	-0.0053185444330941835	-0.008485091088074197
0.099	-0.009848200736365572	-0.008106115395782022	-0.007257618020435555	-0.0071190719238213886	-0.005514533471200827	-0.004144623395319058	-0.004278706427712381	-0.008670540361878329
0.1	-0.00810958228602944	-0.007094984129602988	-0.00646464489927114	-0.006103893440800887	-0.004379581068805118	-0.0031620618483675115	-0.002860343913255552	-0.007239571860432653
0.101	-0.004483921035592698	-0.004309017684683085	-0.004116651884478581	-0.003681010567495153	-0.002496592948793892	-0.0016795946226620517	-0.0009781512965483814	-0.004092184409501594
0.102	0.000604025153864535	0.00011443017028000928	-0.0003389645276628897	7.789586730439814e-05	0.00022853111605704822	0.00047014564592307365	0.0014358311954832063	0.0004591101387361844
0.103	0.0063126807187365575	0.005491383748063565	0.00431236301322846	0.004679258473636903	0.0036769842644295524	0.003263436417580654	0.00428543175290688	0.005679098044385954
0.104	0.011516551802623367	0.010690923945646445	0.008916641043305695	0.009243030384173314	0.007419658146335627	0.006355894376835126	0.007210317426033456	0.010527638183691061
0.105	0.015043971196321126	0.014411100418526904	0.012387678769614593	0.01268863279445695	0.010732835409638545	0.009083501697352118	0.009600315310726113	0.01388963979596632
0.106	0.015966529105305202	0.015552611717173107	0.013760936855906371	0.014027798600908033	0.012747140081010366	0.01062160993483285	0.010742411471295371	0.014860048907761804
0.107	0.013859695218313421	0.01356799633611059	0.012483275903159816	0.012672752125820062	0.012694360261423253	0.010258066244878444	0.010057024048084732	0.013001547779354791
0.108	0.008952722913804875	0.008664960451874296	0.008607989515881181	0.00865282131472528	0.0101723123767818	0.007679685977006931	0.00733442378936891	0.008494693785223219
0.109	0.0021140135625017055	0.0017892362191415244	0.00282266419545597	0.0026581868576890494	0.005333222791951508	0.0031552403603307346	0.0028739068839237422	0.002129987961785572
0.11	-0.005332759099391314	-0.005612316548116968	-0.0037081018612536466	-0.0041125120433773265	-0.0010776026875824428	-0.0024682801814848512	-0.0025379370581329573	-0.004861100106759305
0.111	-0.011913672751300747	-0.011972550257038587	-0.009639226274681764	-0.010255765078776173	-0.00785700132690937	-0.007969204946750272	-0.007812037939548606	-0.011090373754502968
0.112	-0.016345302434297396	-0.016006429973870112	-0.013786848308523492	-0.014521146456538778	-0.01361916026950833	-0.012090026786648316	-0.011844013725060172	-0.015333252832443512
0.113	-0.01781706693571524	-0.01701111503588339	-0.015407836744429554	-0.016111196051371693	-0.017131174489509928	-0.013894524854922236	-0.013805127379893433	-0.016798542438929722
0.114	-0.016143208692852854	-0.014982014096796448	-0.014336297172481808	-0.01483654398150528	-0.017611766023260804	-0.013020323218864798	-0.013340741909238379	-0.01528041721613228
0.115	-0.011756098319423671	-0.010530782085398835	-0.010951245147177978	-0.01109510201044841	-0.014911085103305612	-0.009746425930630926	-0.010619696501107717	-0.011163693229984676
0.116	-0.005560898017804001	-0.004657359065599142	-0.006009860090389143	-0.005706111068126308	-0.009529577752204334	-0.004866822637333349	-0.006236528513159314	-0.005296553853040935
0.117	0.001292484746304592	0.0015318176727041844	-0.000421771454515771	0.00032646615348256875	-0.002483151444564584	0.000568597506142104	-0.001020203881806312	0.0012214924181081829
0.118	0.007651359404756903	0.007065627466151367	0.004953363102263785	0.006036796193901	0.004936701695502095	0.005544131441652693	0.004172723312071885	0.0072738858929823555
0.119	0.012558132866474562	0.011248984683534156	0.00942942662546203	0.010645827343609884	0.011437579859548078	0.009300745205156665	0.008612934414933642	0.011926806491173069
0.12	0.015372311744556017	0.013691130885313225	0.012527870812215524	0.013618785716222256	0.015967311658714522	0.011433357528015865	0.011769869274737627	0.01455869410548068
0.121	0.015813914065089408	0.014254881658618102	0.013952486041052637	0.01465605850553954	0.01787407686986866	0.011863084184411659	0.013311632836424555	0.014910090432267736
0.122	0.013946516020117258	0.012982345306385326	0.013554130079714961	0.013663133592390082	0.016968013441901724	0.010733018741654454	0.013074173398420017	0.0130665500126667
0.123	0.010125534054794908	0.010046114004731635	0.011325392745071721	0.010738811279768893	0.013494949734781471	0.008295931286396512	0.01104390029729803	0.009399046562921773
0.124	0.004932344828494012	0.005746405439304079	0.0074353724234604325	0.006193257825411032	0.008050625265740284	0.004848562587209639	0.007376330889533659	0.004486222093311553
0.125	-0.0008965525934862746	0.0005395387235798757	0.002281057381640297	0.0005747749672482395	0.0014674987281530073	0.0007301267890831337	0.0024398878321159837	-0.0009657229905663152
0.126	-0.006546561352137102	-0.004941497419456207	-0.0034883991871485567	-0.005335723988330869	-0.005301910879550424	-0.003638337199166713	-0.0031532631760888136	-0.006200811207684899
0.127	-0.011213492553590287	-0.009916534547349365	-0.009014972763866435	-0.01059956932717767	-0.011294887658925033	-0.007722458172739173	-0.008573963037893446	-0.0104918455664312
0.128	-0.014204972668320253	-0.013560103433674336	-0.01335786458992868	-0.014274544770436822	-0.015642796320926758	-0.010898056016438964	-0.012886617323119413	-0.01322373169476405
0.129	-0.015046633467484808	-0.015164571080530282	-0.01568197433070268	-0.015620495863576327	-0.017674377432548887	-0.012550025078562677	-0.015234136069050233	-0.013979446695402766
0.13	-0.013574597339591692	-0.014321232859920388	-0.01545821145379462	-0.014297155268928323	-0.0170165544204032	-0.012227686643143703	-0.015050903452532266	-0.01261685721571951
0.131	-0.009989914444952059	-0.011059443842627213	-0.012613727932385346	-0.01048575073502178	-0.013679273408616889	-0.009804488106855764	-0.012236191565734645	-0.009316769518756197
0.132	-0.004852878320782994	-0.005890350186070336	-0.00758213657137097	-0.004884344148425082	-0.00809999702836692	-0.005577966126649916	-0.007225100027955575	-0.004581532724887537
0.133	0.0009939175825334542	0.00027072322065558685	-0.0012337577749210978	0.0014335585326570874	-0.001120758980772402	-0.000260809268407854	-0.0009236978770175219	0.0008286607590792376
0.134	0.006567837655414528	0.00629091729068232	0.005298168015387718	0.00726219204585001	0.006119620021296224	0.005150217194169653	0.005481682879050832	0.006019426102219198
0.135	0.010929290033508794	0.011068139148758552	0.010850527346259107	0.011539898683931404	0.012374244311658563	0.009597960970210605	0.010790435445491076	0.0101254621269447
0.136	0.013366742663512437	0.013773973072863707	0.014464663821570117	0.013580420149542236	0.016527117428174923	0.012218366478829401	0.014055079296082573	0.012478572756632039
0.137	0.013539492523865816	0.014026033922364744	0.015568161230936444	0.013197691255058944	0.017829180472093604	0.01254912905557828	0.014777682450039978	0.012739984668484423
0.138	0.0115408176062686	0.011946482366052344	0.014067581501068453	0.01069841495996535	0.01606954107604208	0.010632297474475354	0.012987248274111615	0.01096281406404062
0.139	0.007862723890040915	0.008097369143323853	0.010339266136458929	0.006757530253367383	0.011630875189646922	0.0069829743848100825	0.00918750206564082	0.007567731021449614
0.14	0.0032696303135912475	0.003318276764324996	0.0051285383970060515	0.002223548828919504	0.005407180663223395	0.002437792973100975	0.004201876238293883	0.003238126675843365
0.141	-0.001385545797244221	-0.0014832800185085983	-0.0006142950539934762	-0.0020856967459603965	-0.0013988816273760433	-0.002067540800070146	-0.0010321930643156561	-0.0012368713887581987
0.142	-0.005352031141456106	-0.005529850210178816	-0.005922492204386015	-0.005542933304967655	-0.007545971714965698	-0.005724110893263046	-0.005660903318492581	-0.0051295635562000905
0.143	-0.008125723724376034	-0.008311001061117736	-0.009985830798178181	-0.007794555915204523	-0.012018442292667453	-0.008015743108923933	-0.00905666095918352	-0.00790833078501527
0.144	-0.009510133180943982	-0.009632700912214048	-0.012274783856961187	-0.008761863404536996	-0.014215774192192492	-0.008785689199673923	-0.010882539903389225	-0.0093093652880233
0.145	-0.009584603280721315	-0.009580927992667937	-0.012596485144719442	-0.008578884260087233	-0.014023698431400427	-0.00819911354725082	-0.011082258011425067	-0.009335890952222215
0.146	-0.00860229949864482	-0.008425901488629737	-0.011080452202208579	-0.007498659753621149	-0.01176238617758073	-0.0066290573624698205	-0.009819642228922808	-0.00819730128719699
0.147	-0.006863705035936436	-0.006506983930680079	-0.008108744497108857	-0.005801344532140325	-0.008044508006029658	-0.004513621148292089	-0.0073999142005066855	-0.006216510190008575
0.148	-0.0046171626225001185	-0.00413781518581611	-0.00421664591228825	-0.003729436576139687	-0.003598791132100954	-0.002234106680328163	-0.004200793168635068	-0.00373881071234404
0.149	-0.0020234708071779823	-0.0015580162561604567	7.468711751047047e-06	-0.0014622631590735652	0.0008843879190112655	-4.8837393586098534e-05	-0.0006279947308958362	-0.0010689417647314942
0.15	0.0008081707578854471	0.001062818889019991	0.004001511091353095	0.0008720357509953485	0.004848367510973657	0.0019078859340337915	0.00290653173872683	0.0015518048008249627
0.151	0.0037386587897891878	0.0035836159521292384	0.007280487311193906	0.003159967783033989	0.007899766410885896	0.003577811664667965	0.005997562828354397	0.003933631574253041
0.152	0.006520153091491244	0.005840779180388661	0.009465192106505038	0.0052609275902890835	0.009792764768572562	0.004914328129373093	0.008268078918321126	0.005909333698481506
0.153	0.008769622639824639	0.007617254677672217	0.0103031865153983	0.006980237440821114	0.010401367257134253	0.005836058158417626	0.009409865130600291	0.0073104216926104925
0.154	0.010023215580948135	0.008651478529058659	0.009693937515619467	0.008072049554901404	0.009706988790531888	0.006220537018075329	0.009240175735227896	0.00796509629295805
0.155	0.009863997841178439	0.00868883503391026	0.00771826382173992	0.008277675138415033	0.007809121264171971	0.00593956924910136	0.0077572867803407265	0.007723546410778761
0.156	0.008080111378328862	0.007560469641756697	0.004657955661669586	0.0073931089399898176	0.004945122844501636	0.004918474274437748	0.005170418608025246	0.006503513033408459
0.157	0.00479087670217632	0.005262345666567941	0.0009835388780255706	0.005348437802196311	0.001493296941196274	0.003191355945489402	0.0018834898785210405	0.00434008326445277
0.158	0.0004840540369746741	0.002005213562722402	-0.002707010417555125	0.0022746294380986123	-0.0020622927326726967	0.0009273128558395201	-0.0015731099316522623	0.0014208635195020738
0.159	-0.004062783596283351	-0.0017859981142776217	-0.005798209236633434	-0.0014675080382091947	-0.005208742874796208	-0.0015842626033167008	-0.004648866042926912	-0.0019089349072876974
0.16	-0.007961316199837696	-0.0055299489570206466	-0.007792011652158443	-0.005314427947083922	-0.007504166089511308	-0.00398427805394822	-0.006887697830463063	-0.005179249175157458
0.161	-0.01043811774996077	-0.0085934125633148	-0.008426410072345757	-0.008587446523745799	-0.008667077414775466	-0.00591260878161624	-0.008015870172321903	-0.007863993207303084
0.162	-0.011034082473617882	-0.010418352764223537	-0.007734325859025913	-0.010627758303365344	-0.008622963005491308	-0.007073244186525732	-0.007977236156869289	-0.009475036943300891
0.163	-0.009713088636882713	-0.01064061084265162	-0.006016732094222243	-0.010949399007081025	-0.007492466778715694	-0.007279840410191333	-0.006909087480957216	-0.009663182974203346
0.164	-0.00684763610060365	-0.009171269397646542	-0.0037353278062917643	-0.009370913387313638	-0.00553026209883856	-0.006476456670488564	-0.005073699223603389	-0.008304015899020849
0.165	-0.0030927548477868924	-0.006221482346804878	-0.0013627398114648848	-0.006087408261349625	-0.0030440759073022804	-0.004738384480761973	-0.0027757677863131163	-0.005546913129193026
0.166	0.0008029413186710201	-0.0022657378938129263	0.0007528569087916768	-0.001657228230227255	-0.00032917560477589876	-0.0022622577144232707	-0.0002978170653639117	-0.001810920794701428
0.167	0.004183051495319408	0.002047025394053447	0.0024567021472814707	0.003101095362521497	0.002358196468561901	0.000648503079202343	0.00212644058150407	0.0022785645361327192
0.168	0.00660888445752186	0.0060139237947674385	0.003766270003223219	0.007281423016224146	0.004788402025860745	0.003604514676626326	0.004301150171131165	0.006004632291149555
0.169	0.007896908760668264	0.00900421126464352	0.004776209659243615	0.010091275423301918	0.006729733700071374	0.00616553789553574	0.006039137571263299	0.008703143157459337
0.17	0.00807675761803924	0.010565612766651068	0.005539300885879311	0.011030577004562395	0.007936061588656894	0.00789765943017344	0.007142533920757381	0.009903499790651586
0.171	0.007306184887607991	0.010491769031859069	0.005984496265776082	0.01000034781584597	0.008174495758311391	0.008451757996081413	0.00741533944775194	0.009429909470385371
0.172	0.0057880858778760255	0.008841525946773463	0.005915816319303378	0.007311600843979128	0.007293203682042549	0.007648953778776425	0.006712367177306645	0.007434785969703251
0.173	0.003722983125552258	0.005911862341258116	0.005097457523727172	0.0035923553887784584	0.005303313747799521	0.005547436235021036	0.005007908571280177	0.004353663174285939
0.174	0.0013058384381725535	0.002175621254463216	0.003388506146737146	-0.0003797287369882434	0.0024339128370918514	0.0024630280656559927	0.0024531213789211674	0.0007939715774195029
0.175	-0.0012488050056518912	-0.0017996353659204918	0.0008646424531492281	-0.003869619725794164	-0.0008757346560723709	-0.0010738158132500017	-0.0006092518663838101	-0.0026096481759441945
0.176	-0.003683011191258639	-0.005435542558589128	-0.0021334589999891457	-0.00634617824733447	-0.0040584425000709575	-0.00442192104778117	-0.0036898065922628225	-0.005331085388918333
0.177	-0.0056996951742568774	-0.008218173718933328	-0.005055299187982866	-0.00756861370579839	-0.006554920033482105	-0.006969689759136099	-0.0062507739508389695	-0.007042330187912251
0.178	-0.007004798328013104	-0.009759421386942621	-0.007285187082398885	-0.0075811752626375704	-0.007956537765366162	-0.008272629281385448	-0.007829493307462368	-0.00763803641974713
0.179	-0.007375511054512033	-0.00984367946401004	-0.008323414264993292	-0.006630965017059329	-0.008102302037555364	-0.008148048520040396	-0.008147820463536374	-0.007200313592659201
0.18	-0.006726909922301148	-0.008459245178657312	-0.007935153455679463	-0.005048573875416476	-0.007094592784966422	-0.006700528657677061	-0.007172873185424927	-0.005928780290427743
0.181	-0.005147351578310145	-0.005810568682228073	-0.006212157999994638	-0.0031396605384943427	-0.005231828524289822	-0.004274908473015303	-0.005112690981322044	-0.004068595382125208
0.182	-0.002885487818387574	-0.0023036863383309528	-0.003529221438675411	-0.0011248206996823428	-0.002890972145823503	-0.0013569942642765865	-0.0023539191824401614	-0.0018624982667121027
0.183	-0.000292489854501364	0.0015031534552582266	-0.0004200155694653527	0.000859824316608331	-0.0004124105131805546	0.0015432570395459923	0.0006328333539021938	0.0004639935917237366
0.184	0.00225817837868208	0.004985762283640593	0.002573903517662634	0.002716967915793336	0.00196514968025918	0.003990967703233494	0.0033881916719509346	0.0026935594696168097
0.185	0.004443269248382635	0.007567502247438818	0.005023608423040423	0.004332004197410207	0.004099242933488399	0.005685543871586346	0.005535310033604178	0.004604744382808031
0.186	0.006030906160781911	0.008836832663932696	0.006667222708970683	0.005542837775829789	0.005883456012404371	0.006476319564411876	0.006818165311248809	0.0059759210796424735
0.187	0.0068839428631426655	0.008637116480511853	0.007397306218568359	0.006156312855312752	0.00717618308296601	0.006347154127080316	0.007112550619703539	0.006613513132735191
0.188	0.006938026646370998	0.00709901871544545	0.007210304526730646	0.006006656271434997	0.00776776471384409	0.005388914058912872	0.00642255882295824	0.006396778342713164
0.189	0.006177938623939599	0.004600641313410593	0.006158621777439439	0.0050287472070235165	0.007415936166939736	0.0037743635942803135	0.004872624769708239	0.005320124531721593
0.19	0.004633431377040152	0.0016640089823612625	0.004334954831096307	0.003310075671618855	0.005943801220673763	0.0017392576743545992	0.0026962951391563766	0.0035126720093483907
0.191	0.0024012161793918333	-0.001180410168854843	0.001892789866591458	0.0010940667469573726	0.0033595776876327635	-0.0004363776206943302	0.00021472044112744626	0.0012238394414371481
0.192	-0.000319514369746577	-0.0035170200741926894	-0.0009190290432901853	-0.001270526924960178	-5.996068005694648e-05	-0.0024557862400579064	-0.0022034529310568773	-0.0012218998067310065
0.193	-0.003204370563820875	-0.005116718215011648	-0.003742025435448675	-0.0034150903747914886	-0.003771099560436305	-0.004045595606083376	-0.004201790262639182	-0.0034856674360138193
0.194	-0.0058205201682853275	-0.005938047594498589	-0.006140689235240131	-0.005037468812389088	-0.007065858271740687	-0.005002304533791208	-0.005504171317515804	-0.005270509799036677
0.195	-0.007695015793757257	-0.006067606449743386	-0.0076849020595799525	-0.0059565942591532865	-0.00924957289010499	-0.005230647988684233	-0.005970302111123718	-0.006358731287295097
0.196	-0.00842330830879474	-0.005633333007310205	-0.008058062138539766	-0.00611948276902264	-0.00983421355176798	-0.004758221700120284	-0.005617083448472062	-0.0066264398890785725
0.197	-0.00778501242246071	-0.004733030362659709	-0.007150401504292124	-0.0055679649305758055	-0.008679078934064978	-0.003718501629226055	-0.004595267565988154	-0.006042090866277565
0.198	-0.005824991910602448	-0.0034103243740120125	-0.005099907818857818	-0.0043908970092365	-0.006029358035459984	-0.00230768944200883	-0.0031293259234733634	-0.0046606265538622635
0.199	-0.00286641043990998	-0.0016857863472444735	-0.0022640273263335423	-0.002691904842328427	-0.0024416082178329848	-0.0007327228695748031	-0.0014454436335426856	-0.0026216882893623818
0.2	0.0005544682796296088	0.00037678283587164554	0.0008666370144081062	-0.0005907247556253394	0.001373335269711185	0.0008285056193798571	0.0002813302093219727	-0.00015149350534878912
0.201	0.0038137914968661164	0.002607302128286009	0.003779958770277856	0.00174596615347715	0.0047324632003548205	0.0022408190363979973	0.0019388857506350936	0.0024411713776688534
0.202	0.006346499013620891	0.004708484162557022	0.0060414907682469245	0.004069087577182369	0.007127652120517015	0.0034000169573477346	0.0034478038000021645	0.004787874199874647
0.203	0.007767949521604242	0.006297999521766479	0.007355570890775988	0.006039891800976405	0.008298527379740642	0.004210628803428689	0.004710629441945792	0.0065102017181228235
0.204	0.00793630579919451	0.007006173184689638	0.0075838422068854015	0.007273662399138138	0.008225196469311535	0.004573745649956138	0.005574818210525375	0.007291783547419059
0.205	0.006944463535573856	0.006595246089774052	0.006734920505060589	0.007432892781013511	0.007065159503359926	0.004399102536945661	0.005838802224812936	0.006954883483025632
0.206	0.005055819012841817	0.005053815981296066	0.004945089961254385	0.006341454717297746	0.0050736537868341525	0.003640351027959986	0.005309818627422038	0.005516222767302562
0.207	0.0026155935773598676	0.0026272579559279783	0.0024624992427569013	0.004074911426745752	0.0025421169941044945	0.002336832047067101	0.0038946503545633083	0.0031996660899119077
0.208	-2.766011031739849e-05	-0.00023135223505805575	-0.0003672227854757961	0.00098518809825574	-0.0002297342779394515	0.0006379789090322317	0.001683569949613504	0.0003965920229734709
0.209	-0.002567264995126886	-0.002975154954290026	-0.0031274069435419114	-0.00235988829148907	-0.0029355071422358546	-0.0012078708754781078	-0.0010155991058115703	-0.0024170399739067852
0.21	-0.004746937874310566	-0.005103631920319087	-0.005382392010004185	-0.0053092728639112675	-0.005259618932781993	-0.0029025190311584275	-0.0037193557506740704	-0.004782526277835344
0.211	-0.006347733987123804	-0.00628204991293165	-0.006756238220983833	-0.00729216762568133	-0.006893307171852487	-0.004168889103723565	-0.005881671288454415	-0.0063488794460439014
0.212	-0.007177542122903342	-0.006403376530113225	-0.007020611909994963	-0.007958507928805989	-0.007578717986290305	-0.004816986774197172	-0.007042800199955363	-0.006927617437664983
0.213	-0.0070830903993810215	-0.00557911840135268	-0.006160658003913695	-0.0072518235263060865	-0.007171521102548012	-0.004779792087513109	-0.006960952220402305	-0.0065024143045575526
0.214	-0.005989547755643577	-0.004072025885737536	-0.0043882173449677105	-0.0053961877748597165	-0.0056975132618460435	-0.0041082265540452485	-0.005678778626832961	-0.005201003773231194
0.215	-0.003954411940899185	-0.0022025682489489763	-0.0020887724300746573	-0.002810896278181887	-0.0033755179624498583	-0.00293368586490093	-0.0035016086302953344	-0.0032481852097758024
0.216	-0.0012090635566042863	-0.00026546038992855984	0.0002847787287547258	9.822550478995004e-06	-0.0005892379768381746	-0.0014209916964255792	-0.0008985881166766183	-0.0009201836177126529
0.217	0.0018403471650292411	0.0015181380748164187	0.0023347282516310436	0.0026087941089078257	0.0021901057786083353	0.0002637932723095432	0.0016337106034330032	0.0014876138267374637
0.218	0.004669254669490719	0.003006658872235198	0.003812178689879625	0.004638675784009396	0.004508933494935469	0.0019583926421071728	0.003694929103416811	0.0036800546257593925
0.219	0.0067433522126156414	0.004115062212614174	0.004647984519372287	0.005887350116556328	0.006031235844753664	0.003489053378884964	0.005051994101739803	0.005378755703416336
0.22	0.007651666173785626	0.004784973075756725	0.004914477698169403	0.006268735939228885	0.006601475940597044	0.004656970965500277	0.005643344600245587	0.006346905775291555
0.221	0.007221354130577997	0.004967680253506917	0.004741585641417762	0.005801174194371293	0.006252270774633166	0.005250095307302114	0.005530384753509129	0.006425826235760818
0.222	0.005572413721209687	0.004627989728403262	0.004230035184134662	0.0045906124309789895	0.005159224335073551	0.005090236845117535	0.004828928972369965	0.005575148008833035
0.223	0.003088499909801004	0.003763531813220371	0.003403600714368081	0.0028219720165526766	0.0035646544806704717	0.004102934755893054	0.0036554525015865483	0.0039000199692928884
0.224	0.0003094038377017582	0.0024261015396190937	0.00222233591918206	0.0007490948620940824	0.0017023481392031256	0.0023787103993919484	0.0021094015608497468	0.0016489474929381222
0.225	-0.0022199028918590625	0.0007321570438459408	0.0006488013057331704	-0.0013301174904783736	-0.0002474106753462286	0.00019038117347524252	0.00029150374937246103	-0.0008247027357179424
0.226	-0.004091706927545243	-0.0011431422445610752	-0.0012668021393115224	-0.003119070350307009	-0.0021584246702885676	-0.002053921583971491	-0.0016605916559401914	-0.003130262660305999
0.227	-0.005120621558142415	-0.0029852723485364677	-0.003327200606669479	-0.004379802994986406	-0.003921889130719582	-0.003914368662230713	-0.003545856511308513	-0.004917174855940277
0.228	-0.00534523160816369	-0.004565124263415335	-0.005189252316974733	-0.004982007742704549	-0.005397861601899588	-0.005044201663670039	-0.005103805273272	-0.005939242162405503
0.229	-0.004953707455479054	-0.005662540550381911	-0.006435216469701346	-0.004922146237371493	-0.006387491414468429	-0.00528672263245397	-0.006055132702624718	-0.006088623681270649
0.23	-0.004170904106047195	-0.006087449353720735	-0.006693370533475582	-0.00430229238431528	-0.006650703211003858	-0.004704464352607351	-0.0061683952215424425	-0.005394942690287632
0.231	-0.003158422267025839	-0.005702755174120276	-0.005765434013128518	-0.0032771112710585928	-0.005973634050738853	-0.0035290834850994868	-0.0053303768486943565	-0.003997801837081793
0.232	-0.001970767363684431	-0.004453787877160365	-0.003713617889604811	-0.001993900237302561	-0.004265411452924452	-0.002056013209255505	-0.0035955834545221077	-0.0021084717665985145
0.233	-0.0005835235011083654	-0.0024033746133645434	-0.0008738553443223643	-0.000555358420197274	-0.0016454178613592937	-0.0005331750617523565	-0.001197188056604683	2.443690189856498e-05
0.234	0.001024760736700916	0.00023800721361384985	0.002212391602966564	0.0009761163423944938	0.0015212039842429081	0.0009048893136460977	0.0014860503844173118	0.002138440863326426
0.235	0.002781193545493107	0.003105247984543435	0.004927803020205051	0.0025358820370106425	0.004667286546558097	0.0022292014223014092	0.003999606916830817	0.003972821150080619
0.236	0.004467628304075776	0.00571286471652817	0.006731096257056073	0.004001976163550138	0.007145650152734339	0.0034442675188839558	0.005902943043656433	0.005285570239774768
0.237	0.005742788431645229	0.007537746254820763	0.007286637811526152	0.005164000009311482	0.00839707592012569	0.004495120067791018	0.006858069760394053	0.00587963973173674
0.238	0.006236994073790683	0.008138812780001845	0.006536314975942568	0.005744655553371423	0.008110589566646434	0.005209928967559148	0.006696895722083412	0.005638756842137821
0.239	0.005685209039802439	0.007282777588879923	0.004697236322294007	0.005478505176151735	0.0063207435943028615	0.005319442459497959	0.005452920658840216	0.004563281112652097
0.24	0.004044689169576166	0.005034761537537033	0.0021910988156872415	0.004222855169231147	0.0034064438783070975	0.004557301455758925	0.0033513407868336438	0.002790547728816275
0.241	0.0015471856503911008	0.0017772726759212763	-0.00047024671020784166	0.0020547085305908383	-9.996261768050341e-06	0.0028030830820858442	0.000761114482065717	0.0005858720585989355
0.242	-0.0013392364003959887	-0.0018587499392842175	-0.0028083901427122778	-0.0006935693605620839	-0.003229922132237717	0.00020283332943974233	-0.0018790881532944614	-0.0017001671960143348
0.243	-0.004028229141771471	-0.005138102506070486	-0.004477096909810797	-0.003486626953006604	-0.005655975977021574	-0.0027963619023810967	-0.004143808459028673	-0.0036995224854942813
0.244	-0.005971963383541836	-0.0074010576785783246	-0.005312614702654718	-0.005718661000340242	-0.006924338803040114	-0.005529581386044757	-0.005694471597577843	-0.0051004798095499165
0.245	-0.00680257390292446	-0.008225013810899236	-0.005328688505059624	-0.006884233409588906	-0.006955939523370019	-0.007298036772358376	-0.0063294454315435175	-0.005705633569778098
0.246	-0.006412997844229405	-0.007519216798091876	-0.004667056844435031	-0.006727181464116218	-0.005922746279214056	-0.007591762169366774	-0.006003287509795318	-0.005458497106875298
0.247	-0.004957618559135867	-0.005526078746777191	-0.0035272059141425293	-0.005313472705208357	-0.004154944904610176	-0.006267946677925252	-0.004816303764708769	-0.0044357139768448055
0.248	-0.0027836733950967634	-0.0027341711799039625	-0.0021033351588411247	-0.003002398524829783	-0.0020308493645593904	-0.0036149973992577024	-0.002982455208086254	-0.002814694718718251
0.249	-0.0003266765671406098	0.00026346436838051233	-0.000550339445416445	-0.0003295557298249308	0.00011114648901265536	-0.00027497537169805363	-0.0007869737755854739	-0.000833533718992847
0.25	0.0019912339364555045	0.00291739306073963	0.0010138072839650874	0.0021522337040959503	0.002016927388091606	0.0029488750653423297	0.001456098655070676	0.0012420756778518908
0.251	0.003832108368758887	0.0048320697638547395	0.002479136316222221	0.0040154984599061255	0.003518712877830367	0.005329954872545775	0.0034407808654633356	0.0031399287431141155
0.252	0.004974186238313277	0.005813829039143216	0.003711057894356479	0.0050380174332718235	0.0045135703901729805	0.006417791947711939	0.004900045388056195	0.0045968095907755555
0.253	0.005315018096580642	0.005857850063804539	0.004539428949969067	0.005204196225633489	0.004941839608217296	0.006134512981185737	0.005633422021029594	0.005380821288172308
0.254	0.004862940094638773	0.005096005387387939	0.004784769329436103	0.004645537127436735	0.004780869291996622	0.004746125871339094	0.005533187552968756	0.005329225372970545
0.255	0.003728957280073433	0.0037352500876655743	0.004318042713838996	0.003559096302114666	0.00405487909845914	0.0027335353165552183	0.004606877685155548	0.004398146442924185
0.256	0.0021187601606033335	0.002009960854828279	0.0031306321196709814	0.002143461718593232	0.0028493990480227037	0.0006208815952856743	0.0029890328657837207	0.0027061348163867956
0.257	0.00031418293226987944	0.00015670064683918363	0.001380372507797499	0.0005737978478920387	0.001315086338306651	-0.001174270156691925	0.0009329606553716307	0.0005458951453309116
0.258	-0.0013675585139974239	-0.0015951992319689259	-0.0006157375049235422	-0.0009883051217356368	-0.0003482101050798472	-0.0024228097563628883	-0.001223805449278768	-0.0016562664124942191
0.259	-0.002638288007865727	-0.0030316019853296	-0.00245152651771238	-0.0023742134040660758	-0.001924835379271149	-0.0030851529435920507	-0.0031188280191969875	-0.0034354098063366905
0.26	-0.0033121578233844913	-0.003971874145903655	-0.0037462147045414776	-0.0034047334427559526	-0.0032219853369949633	-0.0032512522859227348	-0.004437401562052573	-0.004414931313724068
0.261	-0.003360301177160836	-0.00429899703097304	-0.004262650847133276	-0.003918314363106918	-0.004098708253014262	-0.003058282481295433	-0.00497951288009579	-0.004423536800046965
0.262	-0.00291891471997529	-0.0039911483036869965	-0.003981615456228838	-0.003823129990846192	-0.004475985706383178	-0.0026244825700983765	-0.0047010469900321565	-0.003556006137415116
0.263	-0.002237753468204772	-0.003138029462846136	-0.0030988463516176123	-0.003146286317514054	-0.00432922746200327	-0.0020215148741538546	-0.0037159464802139826	-0.002147218569738028
0.264	-0.0015813780600027064	-0.0019282087546977642	-0.0019422177011045386	-0.0020490322391986497	-0.003673945268354582	-0.0012854519643000157	-0.002258674555706341	-0.0006603361041662851
0.265	-0.0011199136438136384	-0.0006051685443203333	-0.0008410696342073445	-0.0007903783997030007	-0.0025581134865108996	-0.0004489442524242297	-0.0006198887293219803	0.0004747915379619699
0.266	-0.0008567495326867024	0.0005959508513567787	-2.246214474799159e-06	0.00035340233053011733	-0.0010687770352181217	0.000428984793977391	0.00092314085103182	0.0010133201148867334
0.267	-0.000629911793164941	0.0015089443214281024	0.0005535149539332481	0.0011821560822530045	0.00065125839609474	0.0012533122098638888	0.0021599816751649054	0.0009771299089412178
0.268	-0.00019406879414585404	0.0020719792150196486	0.0009667299777405517	0.0016370590845169405	0.0023916495289813353	0.0019085952029826506	0.002971597999698466	0.0006314880718895004
0.269	0.0006465751099383223	0.0023248456385152327	0.0014373771284376716	0.0018066045907414964	0.003885647897491299	0.0022919170510340226	0.0033260020326916504	0.0003628710762673985
0.27	0.0019110063791067172	0.0023702574616351023	0.002093553069330496	0.0018680828655675752	0.004854084130995589	0.002347794242101089	0.0032556588616930674	0.0005049369965692916
0.271	0.00337943714372314	0.002315762625351995	0.00289304809809424	0.001988834599864514	0.005075799935203884	0.0020894393472639	0.0028311534177264865	0.0011824875827049055
0.272	0.004632514696460937	0.00222016572143513	0.0036068585731614637	0.002231007951307264	0.004461405889906928	0.001596798517687781	0.002141782694072201	0.002237986063281454
0.273	0.005185839050690606	0.00206603118730468	0.003897223055045986	0.0025037575339278808	0.00309935206589114	0.0009910445335058172	0.0012855183065443856	0.0032734002628192855
0.274	0.004672075992629701	0.001769181939037516	0.0034597709756436596	0.0025874657443010975	0.001249730720025328	0.00039425547762022835	0.00036358247275367983	0.003794555957342424
0.275	0.0029995559305008453	0.001221588837251853	0.002169404171743983	0.0022240003427320344	-0.0007193940721131784	-0.00011105606754122587	-0.0005270120551092768	0.0034042467125707837
0.276	0.0004222044481324832	0.00035123665077466007	0.0001662353898510176	0.0012383845118908651	-0.0024340368395286624	-0.0005068939542104533	-0.0013054886941588112	0.001970458992129836
0.277	-0.0025108970299135775	-0.0008239957053400556	-0.0021573393382889137	-0.00035737699793826454	-0.003617616963693903	-0.0008380191788736622	-0.001919622220976522	-0.00029509900391859077
0.278	-0.00511099682265626	-0.0021696291447400786	-0.004265904626899623	-0.002322256186091243	-0.004155857360341974	-0.0011813709496512428	-0.0023498230297680717	-0.0028793229316362474
0.279	-0.006754105445846956	-0.0034470481751681017	-0.005644544535439331	-0.004227015038394434	-0.004098740359239107	-0.0015958096215767485	-0.00259859871531305	-0.005117064461877832
0.28	-0.007060778260364676	-0.004363973603567484	-0.0059541419935011854	-0.005567960354548738	-0.003602029545069687	-0.0020711030579618024	-0.0026673119859836197	-0.006394890889793899
0.281	-0.005990217849590802	-0.004649353166953632	-0.005122827630750745	-0.005916929000472665	-0.0028377769863030785	-0.002499372374140189	-0.0025321837091229014	-0.00633858677234629
0.282	-0.003823839737796976	-0.004131386427426547	-0.003347362996932531	-0.0050580637432309445	-0.0019173059644983289	-0.0026878678106152043	-0.0021366352714424605	-0.004922246043662945
0.283	-0.0010566526305040719	-0.0027963600279842086	-0.001015490241724538	-0.003066962794187292	-0.0008639528922850082	-0.0024183460208023902	-0.0014124188625342991	-0.0024670927824165774
0.284	0.0017537140129181617	-0.000811206099772628	0.0014118215306356974	-0.0003073841921719157	0.0003516741201342664	-0.0015388625008145686	-0.0003278779556042447	0.0004624176462757574
0.285	0.004123000513327226	0.0014977779520672693	0.003511927784704723	0.00265301260578774	0.0017329789482609234	-5.5765192844490965e-05	0.001055557929700351	0.0032241023788167015
0.286	0.0057210194941465665	0.003706480540137019	0.004972998393662567	0.005182433066689822	0.0031781841128554825	0.0018141770664559026	0.0025484429231561476	0.005267847800172523
0.287	0.0063877212619287225	0.005381131654603657	0.005619166240004803	0.006740085639527878	0.004447524185075699	0.003663134071478862	0.0038467392796926025	0.0062576689735937534
0.288	0.0061042397221754904	0.00617257124950364	0.005401997215903249	0.007004384240775074	0.005204532580951804	0.004990372640482792	0.004602365819928109	0.006116648177057081
0.289	0.004952286334190411	0.005894256458524032	0.004380879428704709	0.005941666232387994	0.005124963396386672	0.005354641737503291	0.004533510495825783	0.004995323359540279
0.29	0.003089292794147206	0.004565377262394102	0.0027087731651042734	0.003800946109032971	0.0040331960590984164	0.0045300901348884655	0.0035352332969650923	0.0031895494681378786
0.291	0.0007466417736870668	0.0024090483967562967	0.0006247720765247233	0.0010410791311403044	0.0020084309752986837	0.002607051352061081	0.0017442534676948948	0.0010458037351768954
0.292	-0.001763541963590018	-0.00019323496695060967	-0.0015584701681977385	-0.0017856204562379484	-0.0005897164603864483	-5.404739592671046e-06	-0.00047443050241780535	-0.0011125157933397625
0.293	-0.004058787004770716	-0.0027790232176086206	-0.0034875665401554084	-0.0041596254034745464	-0.0031967379697087194	-0.0026838593392383373	-0.0026218864187798367	-0.0030210819952997204
0.294	-0.005733871478214664	-0.0048953899383176215	-0.004827370447071204	-0.005697410212296541	-0.005200173635257838	-0.0047705990810870645	-0.004210407945368174	-0.004476814839912392
0.295	-0.006445747535912311	-0.006182231424054467	-0.005335572315389243	-0.0062090671076790276	-0.006124542515256128	-0.005768687245097581	-0.004907543926450542	-0.0053250869919473625
0.296	-0.006012198024656501	-0.00643220508452866	-0.004928352263144809	-0.005703717945094352	-0.005777716099941571	-0.005484797950066856	-0.004626368376303959	-0.005453921486310511
0.297	-0.004485778251418875	-0.005618681403743395	-0.0037095942914488846	-0.004352161736043757	-0.0043053388853511705	-0.00407174643886218	-0.0035305719147984997	-0.004808146783906136
0.298	-0.002167324977805033	-0.0038912658199323352	-0.0019474054588596167	-0.0024269768722264213	-0.0021342027864987324	-0.0019600708729762086	-0.001957146429895312	-0.0034207597762540083
0.299	0.00045625150675944053	-0.0015445154638062985	-2.453149774276123e-06	-0.00024239433265072115	0.00017289210655071032	0.00029147857361925265	-0.000291750737475842	-0.001444487093916392
0.3	0.002835691091895662	0.0010319804047894973	0.0017671488703479843	0.0018904522838450958	0.002096048057038838	0.002169398482585922	0.0011517771676634568	0.0008391540408353021
0.301	0.004505062820297798	0.003414399019818354	0.0030901909876401047	0.003689285979352093	0.0033060051665215967	0.003341918923036563	0.0022025521165869857	0.0030500618263799815
0.302	0.005200021980194003	0.005209923719126319	0.0038278247836698144	0.004915199720186201	0.0037309159417438405	0.0037173506441663317	0.0028344190388497016	0.004780485065634474
0.303	0.004909382134450714	0.006120093066513817	0.003970505374823867	0.0053886500207418475	0.0035259387874334554	0.0034165715996374727	0.0031104071805142857	0.005690031190526676
0.304	0.0038462856173811424	0.005994103369722881	0.0035982467506020565	0.005015502956164495	0.002967307261090516	0.0026842561688820562	0.0031059382293703187	0.005595178849106465
0.305	0.0023552322692765057	0.004861549747761042	0.0028297357502079165	0.0038204411452074935	0.002319587437773989	0.0017817941629469907	0.0028523914536549176	0.004522085977922073
0.306	0.0007933117392372167	0.0029340179581870043	0.0017856647122457764	0.001972934356454707	0.001731116966781428	0.0009037762380492036	0.002328155175800502	0.0027025708843643856
0.307	-0.0005701683874365412	0.0005694871588055725	0.0005788389939272534	-0.00021455956048148535	0.0011969512606057934	0.00014282236981180436	0.0014977181964400195	0.0005129486717670225
0.308	-0.0016030589484031363	-0.0017973102724647399	-0.0006741328209432015	-0.0023309117138568406	0.0005985002261352462	-0.0004960977242630934	0.00037391436466334833	-0.0016240347129611128
0.309	-0.0022992615565870286	-0.0037444456631541756	-0.0018376349260916572	-0.003952172463050894	-0.00020287833675821428	-0.0010501613160472534	-0.0009336525683247099	-0.0033411575946854597
0.31	-0.0027222424199537026	-0.004950018860262879	-0.002757659190562336	-0.0047485698185818215	-0.001262130452119349	-0.0015484708810609804	-0.0022142624385413385	-0.004399974931999032
0.311	-0.002934566552912744	-0.005253733157048499	-0.0032870005284481264	-0.004578380825525186	-0.0024829969548352754	-0.001979362524672082	-0.0032042679808230333	-0.004716138502139379
0.312	-0.002947074676525562	-0.004676864511692237	-0.003327575173398878	-0.003533517939993507	-0.0036172010036644824	-0.0022852914172537195	-0.0036701876326060727	-0.004337837397159559
0.313	-0.0027096714677171943	-0.0033980489018521852	-0.0028697501723026412	-0.0019158745272443494	-0.004333398975188623	-0.0023820913872259278	-0.003491315043125569	-0.0033965070906162597
0.314	-0.0021458622424535305	-0.0016964809402278801	-0.0020068341724582325	-0.00014808031301422183	-0.004331219532807553	-0.0021910108074704782	-0.0027055365712436103	-0.0020569370242111175
0.315	-0.0012136319428706507	0.00011672369761564884	-0.000913493995695549	0.001352524430879537	-0.003458150853693103	-0.0016705787951783349	-0.001498249539647196	-0.0004885989408704979
0.316	3.637156061921191e-05	0.0017578590687787564	0.00020559530709281164	0.0022930899565027788	-0.0017855890343405185	-0.0008391496446917151	-0.00013957274976617983	0.0011356127040869058
0.317	0.0014340217190545483	0.003007615317508081	0.0011754502078887082	0.002576456626763065	0.0003852821968344778	0.0002160373303136551	0.0011027533982406123	0.002625061735308897
0.318	0.0027110641494829746	0.003724864188948903	0.0018929265473819606	0.0023021668374208298	0.0025927028089547024	0.0013443291919247192	0.002038502295543366	0.003764349423256246
0.319	0.003568624271425242	0.003846267456596562	0.0023341436596311833	0.0017025697946485407	0.004337875362204436	0.002351842078113623	0.0025897848937173826	0.004334272218070374
0.32	0.0037700364687671666	0.0033833353363601796	0.0025275042309313833	0.001043412556091615	0.005223791117846372	0.0030358636875623306	0.00277735949005483	0.004166192832207893
0.321	0.003226258802591946	0.002423051177439441	0.0025097529923663008	0.000529015347899143	0.005065281409876568	0.003230102244101722	0.0026725375671060574	0.0032139458683593377
0.322	0.002040912299051912	0.0011284669310261423	0.0022904220533153897	0.0002458313844895528	0.003935868080652651	0.0028520004207474945	0.00234284999394612	0.0016108508523913372
0.323	0.0004942882220901499	-0.0002716909489622107	0.001844764459453726	0.00015908570586939223	0.00213792605432833	0.0019380083203295272	0.0018195027873130144	-0.00032280814298082374
0.324	-0.0010332292470687941	-0.0015149832317723263	0.0011396925508146305	0.00015466069867972566	0.00010780391148548037	0.0006515264792977212	0.0011012713102531563	-0.002141010537296764
0.325	-0.002175329483098297	-0.002360174981217588	0.00017925699149579078	0.0001022722245397242	-0.0017116669372420007	-0.0007459877356318304	0.00018981906274641877	-0.0033930732138341404
0.326	-0.0026930413162797153	-0.002652637678603468	-0.0009551542520096204	-8.788857134637575e-05	-0.002989439927451461	-0.001958094177061155	-0.00086502691561916	-0.003766958260256581
0.327	-0.002546656850289201	-0.0023767034306134793	-0.002093827433524026	-0.0004347590357963462	-0.0035785347404008088	-0.002733821024925259	-0.0019371773177044044	-0.003201281137296462
0.328	-0.001899186591022656	-0.0016701361146192993	-0.003008138663724373	-0.0008873673708845705	-0.0035231129200148275	-0.0029389811081555533	-0.002832954760598537	-0.0019182842229375405
0.329	-0.0010486288220022785	-0.0007869843146253537	-0.003473033158509051	-0.0013487236253080944	-0.0030046577028272512	-0.0025919336472164716	-0.003338967166095808	-0.00035720200926907556
0.33	-0.0003130611051968095	-1.516084472635024e-05	-0.0033396474219766293	-0.0017076339270933089	-0.0022525330289112485	-0.0018487949082066288	-0.003292702348297886	0.000974030821879463
0.331	8.861230118828922e-05	0.0004242137799235473	-0.0025897853869726937	-0.0018655251927127848	-0.0014551501209517622	-0.0009422878262068933	-0.002647425443394466	0.0016765917321657638
0.332	0.00011437760058255779	0.00045720237340726917	-0.0013510225188464236	-0.001753135174008897	-0.0007051354938889414	-9.757128053879507e-05	-0.0015034483905072874	0.0016010451558943228
0.333	-9.558139756372697e-05	0.00018310472277722085	0.00013304283473962198	-0.0013396922692665413	3.4836971935000693e-06	0.0005413421879469596	-9.053481983395138e-05	0.0008949450081548984
0.334	-0.0002887250970054617	-0.00016784119027007862	0.001565945254112243	-0.0006401160661938706	0.000729962580239542	0.0009451054426655614	0.0012944394457784659	-6.224481799182752e-05
0.335	-0.00021741466966271978	-0.0003312131423423329	0.0026726958469089294	0.00027743917164810717	0.001517064415439483	0.0011805507905553025	0.002372653127296397	-0.0008124604453572115
0.336	0.00024440913095520904	-0.0001220042169380181	0.003262156005461918	0.001287790904136353	0.0023303254183358367	0.001351575305949696	0.0029605288240957383	-0.001000685172450357
0.337	0.0010341187416144102	0.00048118998384160836	0.003261864969604766	0.002217202427231766	0.0030357718756183942	0.0015289977843362555	0.0030116166209196047	-0.0005135783782313262
0.338	0.0019123017151663878	0.0013167503712551059	0.002720966139122541	0.0028709177634374536	0.003429152501628005	0.0017033463189825336	0.0026100142391263124	0.00047875510999276314
0.339	0.0025505881511844533	0.0020945325823946443	0.0017864482987488268	0.003078392689274125	0.0033077945854186894	0.001782945318331051	0.0019211757296586367	0.0015924769247508339
0.34	0.0026604144556617282	0.002503132914645499	0.0006628366849721016	0.0027442982636399276	0.0025575829344470324	0.0016378250788494165	0.0011221923859128578	0.002381299948762545
0.341	0.0021101747837548564	0.0023274027387444195	-0.00043414083714522756	0.001886521043780548	0.0012198285328689279	0.0011683961713669993	0.00034066189496274413	0.002507989947012029
0.342	0.0009827986249454248	0.0015302994949797986	-0.0013212647010328736	0.0006439411460770313	-0.0004909000498319412	0.0003666226376265057	-0.0003736192091750993	0.001868926588234363
0.343	-0.00044923925362922714	0.00026878905535477216	-0.001882006833480436	-0.0007527956554913649	-0.0022289724953810236	-0.0006585760239806848	-0.0010346604760712568	0.0006259516361904335
0.344	-0.0018199096373954617	-0.0011591254047191206	-0.0020850821949973774	-0.002039358067537499	-0.0036083670422476606	-0.0017033092772444827	-0.0016731492814675434	-0.0008615285501048201
0.345	-0.002795977047170506	-0.002412165026555526	-0.001982262472676881	-0.002984194234232766	-0.004311899684199833	-0.0025286863214203223	-0.0022802392511067212	-0.0021717260818568326
0.346	-0.003182095356321883	-0.0032089308311839416	-0.0016835207474828117	-0.003439470353535596	-0.004181966859664601	-0.0029338202068216555	-0.002771117228052106	-0.002966369471413683
0.347	-0.00296473234303007	-0.003399147521689575	-0.0013139675499286925	-0.0033601270706123086	-0.0032625326961405	-0.002813541418935846	-0.0029897097118985923	-0.0030910843984217097
0.348	-0.00228367320903244	-0.0029829568165717405	-0.0009652181903472402	-0.00278986901001359	-0.0017800136865487124	-0.0021818622778480234	-0.0027588182968998056	-0.0025972829550554603
0.349	-0.0013520142364338203	-0.0020817284530447447	-0.0006597486174491656	-0.0018280692783763598	-7.25457607212794e-05	-0.0011586491332199035	-0.0019598539644490732	-0.0016875429305393567
0.35	-0.00036624736172756917	-0.0008824368301532993	-0.0003457383046929409	-0.0005986746428757652	0.0015058265105048273	6.82890997796969e-05	-0.0006110530528244618	-0.0006174194362033045
0.351	0.0005519463270891212	0.0004165664994019438	7.032149034202776e-05	0.0007627740990486169	0.0026735461960107577	0.0012873501337028145	0.0010908868588756838	0.00039941017030587726
0.352	0.001360296761792854	0.0016385771796833637	0.0006626910246718245	0.0021023784252194875	0.0032765384174485044	0.0022992509407956862	0.00279074927849636	0.0012435444980810405
0.353	0.002054056239251015	0.0026365918849332584	0.001422478916053036	0.0032355870913999066	0.003298918930349359	0.0029408839125410107	0.004059802567747258	0.0018850388773130463
0.354	0.0026083522305803937	0.003287495607804736	0.0022225507357845524	0.00395120550356518	0.0028352425033602454	0.0031015484710391486	0.004523719540464957	0.002335327781005662
0.355	0.0029421556540791165	0.003489523185974574	0.0028346476531655555	0.004047386701609769	0.002041711018714027	0.0027382564797767826	0.003991345481416704	0.002589476253518009
0.356	0.002928195792560511	0.003174992242431337	0.003000765215155271	0.003397311661483518	0.0010866903743010066	0.0018914790025429972	0.002536713177872825	0.002594337332951336
0.357	0.002447614014868268	0.0023376885433967765	0.0025354042765879836	0.0020214051843662666	0.00011572693779705553	0.0006943942660097657	0.0004993341095804727	0.00226247388494342
0.358	0.0014633074026595028	0.0010616140614828776	0.001417735161722559	0.0001306547181331513	-0.0007632709335850784	-0.000636103031129283	-0.001604690247361023	0.0015263817515190504
0.359	7.426615966120583e-05	-0.00046776303408088324	-0.00016776556815923413	-0.0018899585984445593	-0.0014781460095348387	-0.001835148954401861	-0.0032354659787103453	0.00040501647020660164
0.36	-0.0014796315464635254	-0.0019838505733185004	-0.0018653426770734371	-0.00356747722584007	-0.0019825220264660217	-0.002650018467746979	-0.0039954435158333825	-0.0009542403842779457
0.361	-0.0028707444495370714	-0.0031920182854923507	-0.003249813036089226	-0.004475982867237098	-0.0022465259929297012	-0.0029088361310632945	-0.003751000746928945	-0.002285848087867179
0.362	-0.0037768668956149687	-0.0038416730903453383	-0.003960646476092083	-0.004375084178803475	-0.002253425762788463	-0.002573670542224348	-0.002666045210441957	-0.003273037780146571
0.363	-0.003978838164377623	-0.0037938017998481507	-0.003818037396702431	-0.0032985925898903084	-0.002002662080147714	-0.0017557162315669436	-0.0011356344512656142	-0.003649144813761384
0.364	-0.003425477417435047	-0.0030604616973156093	-0.002877117944178006	-0.0015549256146013398	-0.0015161865869475844	-0.0006831147777559192	0.0003557414682507415	-0.003293369417042393
0.365	-0.002243546410453945	-0.001802452724200541	-0.0014014061442949857	0.000366690975669687	-0.0008437457698788717	0.000369387485966559	0.0013989009127903529	-0.00228071221198781
0.366	-0.0006935495935755034	-0.00028635986315150673	0.0002309583135945914	0.001953224092669755	-6.343213570818193e-05	0.0011638871819308204	0.0017877792250921942	-0.0008634268888830681
0.367	0.0009075264549753331	0.0011842448529250315	0.0016490896617379364	0.0028315197987421005	0.0007245384978244779	0.0015654284673869848	0.0015659080436048892	0.0006108006973232023
0.368	0.0022665625828403777	0.0023416214857215527	0.0025925323501039725	0.0028790805784874507	0.0014109791658943518	0.0015680879319498347	0.0009795833123876032	0.0018126429591480155
0.369	0.003172528504245849	0.0030101274796639167	0.0029614017861189995	0.0022430324750185963	0.0018960302358580574	0.0012755253601126353	0.0003617335061468698	0.0025324646957622047
0.37	0.0035212624143302357	0.003132954263996717	0.0028047467941465475	0.001264022813719498	0.002108888259481546	0.0008487438991170095	-4.480775195036049e-06	0.0027302384585388305
0.371	0.0033105110187733175	0.002766446518105096	0.002264455846967525	0.00033754716812848173	0.0020237343464924906	0.0004447291693293724	1.1086358682960932e-05	0.0025168358903106744
0.372	0.002618042908420094	0.0020481035936478643	0.0015068238639218375	-0.000233075777572863	0.0016664382745038096	0.00016909024297456516	0.0003519077503710876	0.002078408433579399
0.373	0.0015761768193083472	0.001150250582612923	0.000672153474285148	-0.0003377935135969255	0.001108583339697447	5.573917385394921e-05	0.000816949076440122	0.0015794988938776827
0.374	0.00035015031293105035	0.00023360263837921783	-0.0001424569008298145	-8.087731627003385e-05	0.0004493752325899371	7.330699176163146e-05	0.0011546595953131032	0.0010892544424637213
0.375	-0.0008796588178129319	-0.000586325403633546	-0.0008715902220690975	0.00028066843873986023	-0.00020932502994356359	0.00014825920626622494	0.0011668572902937535	0.0005646341910255244
0.376	-0.0019358690959259367	-0.001251447833705086	-0.0014595092833236765	0.00045359312553734546	-0.0007863980836973006	0.00019236831229644787	0.0007812717111943565	-0.00010117318623471014
0.377	-0.0026658932254714452	-0.0017504238210513568	-0.0018477484755654284	0.00023364420639880503	-0.0012349310696047632	0.00012650276769693024	6.880050960377817e-05	-0.0009872153249765574
0.378	-0.0029660763099985067	-0.0020915338915030793	-0.0019826812726844133	-0.0004073187316721884	-0.0015411885287251728	-0.00010077070849098878	-0.0007934295575183609	-0.002054131655595386
0.379	-0.002801981688869859	-0.002272127675658991	-0.0018385978278461128	-0.0013032768407071145	-0.0017106304207512497	-0.0004974808617086203	-0.0015906403532505156	-0.003101743925261225
0.38	-0.002216920831566943	-0.002259836863685606	-0.0014405103986211496	-0.0021500084215422084	-0.0017483197024819983	-0.001014719148852975	-0.002138961840827772	-0.003804270012411083
0.381	-0.0013237178479370564	-0.001996822573086755	-0.0008695682267844456	-0.002613603012494991	-0.0016439844361240447	-0.0015401590938071133	-0.002328250934477397	-0.0038197170703638027
0.382	-0.00028081020747641565	-0.001428805962914505	-0.00024329744689449131	-0.002452375542354079	-0.0013704910668955613	-0.0019083975999205456	-0.00212998392843656	-0.002935550229102558
0.383	0.0007402582600783644	-0.000548670162380705	0.00032256577561379837	-0.0016093910754067043	-0.0008987026242493446	-0.0019366877342508974	-0.0015790064763066892	-0.0011914540838385901
0.384	0.0015863019094206946	0.0005649227558135648	0.0007525527235981066	-0.00024367300911469416	-0.00022377413059028342	-0.0014850618725945944	-0.0007482189907964518	0.0010777571685433754
0.385	0.0021451480964152438	0.0017352620226167908	0.0010307018675645065	0.001310705104929909	0.00060865811753626	-0.0005250455391404177	0.00026653923837777335	0.0033090676773758886
0.386	0.0023566059359382257	0.00271505236582561	0.0011905601180643988	0.0026442674956060133	0.0014899429307811923	0.000811098529074889	0.00134583024380607	0.004875588465828406
0.387	0.0022137361164573763	0.0032512926890966775	0.0012814004461724295	0.003397740387972259	0.0022590548828130552	0.002229838264826094	0.0023387432847066306	0.005294587663210977
0.388	0.001758565416801639	0.003167907168065866	0.001329021102565457	0.0033723299684008225	0.0027371413769241614	0.003339728666567003	0.0030644955976036137	0.004402912159111834
0.389	0.0010751594943475679	0.00243534251275751	0.001312804292418271	0.0025885681220358097	0.00277679965397723	0.003768192829958574	0.0033373818477773747	0.002430449136926348
0.39	0.00027990466307695997	0.0011974368776745854	0.001172550313081484	0.0012749123297939157	0.002310139181558856	0.003294829237732768	0.0030163011331910483	-6.209404442184853e-05
0.391	-0.0004934195475828765	-0.000259882207849029	0.0008431016838923811	-0.0002089828197422736	0.0013788989436961403	0.0019501323060777198	0.002064116890821909	-0.0023636720161397413
0.392	-0.0011155982649495176	-0.001591161325203691	0.00029986787190940833	-0.0014873127961335724	0.00013536253627806848	3.5274725359178824e-05	0.0005914074042611558	-0.0038479457044492188
0.393	-0.001489069179559462	-0.002497089885734994	-0.00040826951429843083	-0.002281782301561889	-0.0011876649996299111	-0.0019540487897494133	-0.0011399258895337773	-0.0041768930281088955
0.394	-0.0015732446810493073	-0.0028143964598628885	-0.0011570338336510419	-0.0024855242485779337	-0.0023296443595859128	-0.003479029663704312	-0.002764469485109375	-0.0033983401929583135
0.395	-0.0013979628723907876	-0.002556173871806756	-0.0017796204974798425	-0.0021739925696347352	-0.0030628905895539876	-0.004131670168295519	-0.0039035327168437783	-0.0019035704862743058
0.396	-0.0010562296184706004	-0.0018882176374630092	-0.0021213539975504206	-0.0015528978265206927	-0.0032443594576382446	-0.0037666355578881766	-0.004270442738319632	-0.00026500254222974577
0.397	-0.0006739927161822246	-0.0010528452203879522	-0.0020925181892733186	-0.0008663326419079105	-0.002845590425573286	-0.0025411378756444994	-0.0037554744858027036	0.0009808259994962946
0.398	-0.0003646386979803283	-0.000273104454294078	-0.0016967280770973285	-0.0003023966445216638	-0.0019548277434206446	-0.0008489174325284794	-0.0024611057381678366	0.0015209111448247037
0.399	-0.000184781476050795	0.0003222397651647569	-0.0010241738711917606	6.672613935601373e-05	-0.0007531576424090244	0.000823538363895601	-0.0006759470301595792	0.0013545810795451791
0.4	-0.00011071432965105508	0.0007227740801088506	-0.00021564577504450239	0.00028838023574463234	0.000527495767601766	0.0020605625000009987	0.0012028384860229104	0.0007553870876152437
0.401	-4.884120503351576e-05	0.001003130282947664	0.0005841346658416035	0.00047896210907317637	0.0016537599063866765	0.0026380315107537135	0.0027724151218321115	0.00012909925535728917
0.402	0.00012012649770496201	0.0012524915868433024	0.0012628454465165194	0.0007448031892054443	0.002436826580187768	0.0025605280325971492	0.003720795613155698	-0.00016924058007911904
0.403	0.00047895930182500655	0.0015042271985488357	0.0017536591700954849	0.0011122288035367517	0.00276623515308563	0.0020118995782534843	0.003891443599901296	1.685102563471594e-05
0.404	0.0010197166408780069	0.0017023073862015132	0.0020258487524520605	0.0015002877438940578	0.002625446284734817	0.0012518913484301764	0.0033037919105293996	0.0005905470523816171
0.405	0.0016231343466538554	0.0017226911948862232	0.0020651818911721835	0.0017500185531010028	0.002086710347593861	0.0005094047410696832	0.002131786599972437	0.001257210675270288
0.406	0.002085149674120086	0.0014402496878983123	0.0018599746841888435	0.0016976988740996408	0.0012869014682912795	-8.354754489236962e-05	0.0006524933856508995	0.001661431211581492
0.407	0.002185085354404381	0.0008082269234275377	0.0014031464928773811	0.00125833453497595	0.00039054591589327426	-0.0004985692155025796	-0.0008195804040168734	0.0015448918069590647
0.408	0.0017718589684732882	-9.073388318969373e-05	0.000709610396531948	0.0004796850465359737	-0.00044994796618487085	-0.0007702206002164933	-0.0019981453339111633	0.000858750295580111
0.409	0.0008352006557782666	-0.0010510747371689619	-0.00016191064885812101	-0.000460372153092588	-0.0011255313702882128	-0.0009404086564992044	-0.00267980141009571	-0.00021397168517137556
0.41	-0.000467400716656534	-0.0018107728953848552	-0.0010975826947283909	-0.001314671408968684	-0.0015842955654102753	-0.0010217298808979215	-0.0027797075362873975	-0.001331547423500987
0.411	-0.001841613825391142	-0.002151223353056494	-0.001938513005628602	-0.0018601746500116136	-0.0018248506289176968	-0.0009972640645258316	-0.0023424368854565412	-0.0021285721641841077
0.412	-0.0029371514023676625	-0.0019864806789191996	-0.0025130559377868882	-0.0019825037520953396	-0.001874041135994552	-0.0008501932121001176	-0.0015249533343422098	-0.0023557134937503533
0.413	-0.0034520103343201455	-0.0014004884512664841	-0.00268161593788303	-0.0017133975102989287	-0.0017600203342379842	-0.0005984001447191512	-0.0005534527728412665	-0.0019680921419523594
0.414	-0.003224886341411746	-0.0006133791311116682	-0.002378091769097234	-0.0012043860180655916	-0.0014937356232634412	-0.0003068650873926529	0.00033718949205464627	-0.001130075252757445
0.415	-0.0022852561591415305	0.00010983917109880312	-0.0016332607393273772	-0.000649904102790863	-0.0010683111082417868	-6.52135330358449e-05	0.0009656097469136001	-0.0001399138362833649
0.416	-0.0008460263549806907	0.0005680157828414215	-0.0005726209367492098	-0.0001971196728319291	-0.00047752128193574565	5.945329454219379e-05	0.001248810614443966	0.0006904076627215881
0.417	0.0007567794967961758	0.0007013077490420855	0.0006095618013154567	0.00011396963047998789	0.0002552995538944626	6.67373077722655e-05	0.0012144373482023561	0.0011495477897565482
0.418	0.0021564850666515624	0.0006028437302933527	0.0016913702343152315	0.00035151031920479907	0.0010534687384632715	3.4723315655859916e-05	0.0009759876770271997	0.001191383926816646
0.419	0.0030516136282295048	0.00046044459678507444	0.0024685959381265266	0.0006342342766801905	0.0017839427070057805	8.59599250461389e-05	0.0006804719460152366	0.0009294403989738727
0.42	0.003278107380578519	0.0004564332399704103	0.002795023672154215	0.0010448888416112537	0.0022829176454570044	0.0003197222259136484	0.00044917715554703775	0.0005703377992019689
0.421	0.002840162650275128	0.0006724961862353048	0.0026112567730963263	0.0015591086015984872	0.0024048437232119615	0.0007436789971252021	0.00033501533782821715	0.00031825477648787207
0.422	0.0018948417821928424	0.0010436414038179943	0.0019578416654468245	0.0020276265779592727	0.0020772089338858	0.0012427447088093325	0.0003126663698406764	0.00029022279727043384
0.423	0.0006983354495257652	0.0013823699600591355	0.0009696241679791678	0.002224868388773289	0.0013379202435786425	0.0016076636686502073	0.00030338062913769985	0.00047373534185862916
0.424	-0.0004686829589653674	0.0014622098394096218	-0.0001500303166730294	0.0019456366894449314	0.0003369826063652862	0.0016175417687164038	0.00022134188152217015	0.0007389910073941938
0.425	-0.0013746483631775304	0.0011233944716370716	-0.001172760092551105	0.0011083366060940351	-0.0007019807600845897	0.0011428215501106426	1.969845601481487e-05	0.0008968032439078612
0.426	-0.0018890889922366936	0.0003542233575698655	-0.0018983360990374003	-0.0001815098456309245	-0.001547947947982583	0.00022195256986971422	-0.0002843753726723484	0.000777856899130811
0.427	-0.0019995691890688145	-0.000687145190336962	-0.0022037729464280853	-0.0016380700685784725	-0.0020318749767159355	-0.0009265925289336373	-0.0006158009793573091	0.00030396856239861244
0.428	-0.0017913344156299492	-0.0017198708928397879	-0.002072909520154515	-0.0028741692407003644	-0.0020929585859713203	-0.001968335505165475	-0.0008745588293711483	-0.0004727816766156648
0.429	-0.0013995142237789927	-0.002437249344956871	-0.0015950407106403927	-0.0035248830576106224	-0.0017851728516050584	-0.0025706250255398294	-0.000979164116345257	-0.0013751389414011447
0.43	-0.000952835097125061	-0.0026144466901609244	-0.0009310446021197718	-0.0033704175776481052	-0.0012440879844228703	-0.002527221452614328	-0.0009002613920164307	-0.002147925311220161
0.431	-0.0005304096507305176	-0.0021858151595968295	-0.00025781979323914327	-0.00241349717786918	-0.0006300939214804973	-0.0018381450389400144	-0.0006694908993949578	-0.002533311609591166
0.432	-0.00014767281956568372	-0.0012644238699751858	0.0002886155614484759	-0.0008841973031167047	-7.261353720108138e-05	-0.0007115757678079503	-0.0003610717001326282	-0.0023524299297289853
0.433	0.00022475296655861862	-9.990591690459122e-05	0.0006493617649992697	0.0008280468706700194	0.00036284044797530357	0.0005126950611616031	-5.649599344901745e-05	-0.0015695423945977346
0.434	0.0006200419657144654	0.0010064473692356151	0.0008443407794259334	0.0022905084047104393	0.0006750303871552149	0.001486376708958077	0.00018988287236575997	-0.00031846668592222673
0.435	0.0010332875868775404	0.0017968132721360186	0.0009406345491381968	0.0031522094032824114	0.0009003516212063201	0.001972587382931182	0.00036803217144622626	0.001120109561686854
0.436	0.0014012157854897973	0.0021291795582379547	0.0010038420724197848	0.003238872823432431	0.0010758872859693018	0.0019164937264908206	0.0005050445801088558	0.0023884245601619473
0.437	0.001616316310933745	0.0020050065233382063	0.0010567269581428528	0.00259121175302082	0.0012110095254823472	0.0014430494446534493	0.0006386279251060275	0.0031514779986930967
0.438	0.0015715295743739832	0.0015475960200580438	0.001065670037790707	0.0014391622606321369	0.0012795283234908615	0.0007886424469804145	0.0007856390026933279	0.003197702028296801
0.439	0.0012155754271676714	0.000943455047240602	0.0009614932095894702	0.0001239048927949727	0.0012330141963122696	0.00019880018667563996	0.0009221586163677506	0.002507357947871136
0.44	0.0005916973265529729	0.00037014504594389864	0.000683821411856601	-0.0010064583457148185	0.0010261766580176943	-0.00016538266492553086	0.000985875756349744	0.001263268240058782
0.441	-0.00016167169162676487	-6.320850006776715e-05	0.0002259417117584271	-0.0016959036512268618	0.0006414575305288879	-0.00027655550878614873	0.0009008730874154635	-0.00020312304144387404
0.442	-0.0008529783439171113	-0.00034248539558158584	-0.0003437127505231018	-0.0018456081579368722	0.00010290973898119529	-0.00023096304196139236	0.0006143227724727362	-0.0015142505670908192
0.443	-0.0013066823701900609	-0.0005342536348921236	-0.0008962001164093873	-0.001527422305370784	-0.0005239202691354509	-0.00018808944617871833	0.000128861806472579	-0.0023625460815028853
0.444	-0.0014297790431103173	-0.0007374920136109205	-0.001287885376885832	-0.0009435732023376367	-0.0011433064939359921	-0.00028819170558857035	-0.0004841287359002699	-0.002599025158113247
0.445	-0.0012455315827357995	-0.001021130121110084	-0.0014169140128818536	-0.0003469654244342643	-0.001646529880521701	-0.0005824190557193439	-0.0010973003923383912	-0.0022631794099177626
0.446	-0.0008780723440229652	-0.0013735394135910564	-0.001264021990938965	5.095026151042607e-05	-0.0019307536665708826	-0.0010031643674784287	-0.0015624171068284042	-0.0015458235988524598
0.447	-0.0004937052112367723	-0.0016871665763589327	-0.0008983143998537754	0.0001532082190810923	-0.0019179412161604743	-0.0013854364028878683	-0.001755013999940212	-0.0007030067068823209
0.448	-0.0002250826299590857	-0.001789339025627367	-0.0004451672336841639	5.4084194507871865e-06	-0.001573339055641745	-0.0015304132209266151	-0.0016124603035089428	4.196331574165841e-05
0.449	-0.00011320019825519605	-0.0015122559048392358	-3.1519954611756106e-05	-0.00023189812805282845	-0.0009214905324197195	-0.0012870483663938086	-0.0011524513019929054	0.0005682411272944876
0.45	-9.469395906074304e-05	-0.0007774528259153891	0.00026538647366230626	-0.00035699528469898914	-5.4528548086782425e-05	-0.0006213790054462685	-0.0004669178239338483	0.0008730794472076736
0.451	-4.1180954142399674e-05	0.0003401272814244883	0.00044170484970189523	-0.0002190102333931837	0.0008744156530548863	0.000352621623660482	0.0003046277582937004	0.0010328950743738524
0.452	0.00016724417327362764	0.001600331224980404	0.0005527933227542842	0.00020887140943861692	0.0016775996110600165	0.0013940031020506249	0.001011871546356115	0.001134103498884665
0.453	0.0005691796517807018	0.0026530138895931935	0.0006697211392300494	0.000806809643613095	0.0021767826057288013	0.00220359866820379	0.0015284656652361666	0.0012108918899648479
0.454	0.0010855013531073116	0.0031488155552285594	0.0008295834783523766	0.0013491263158028665	0.0022538748759084078	0.0025198330020341345	0.0017755026426810598	0.0012219722430970637
0.455	0.001539083953141538	0.002868696271457502	0.0010056124502303308	0.0015950648802979667	0.001890449874206973	0.0022099872323132395	0.0017298700886344749	0.0010777564190312095
0.456	0.0017245644455759334	0.0018222139556838507	0.001112913740608769	0.0013933639914646874	0.0011790414829165516	0.0013245329660570892	0.0014191339954599152	0.0007032521881788496
0.457	0.001498403199563803	0.00027091913971143914	0.0010476697052268374	0.0007559193645042286	0.0002981339672008446	9.272078203824831e-05	0.0009080549990034826	0.00010294944976609694
0.458	0.000849117195952768	-0.0013411019451330809	0.0007408626792039774	-0.00013366392785674793	-0.0005429524131947	-0.0011430368177937555	0.00028249078777953967	-0.0006086140642963434
0.459	-8.4525009622051e-05	-0.002531460194555163	0.00020031239409441781	-0.0009844047672552608	-0.001169750786947334	-0.002034550194533388	-0.00036515042974718484	-0.0012314527246330062
0.46	-0.001056826821327705	-0.002948348314450384	-0.0004794570598577587	-0.0015113599365459938	-0.0014935434396368967	-0.002341130170764891	-0.0009471906461556989	-0.0015542194502049184
0.461	-0.0018023339912054477	-0.0024999024298603695	-0.0011443982860638146	-0.0015514297441540877	-0.0015272303737928657	-0.0020086835615877995	-0.001388926103268847	-0.001446897631444002
0.462	-0.002130014437309829	-0.001391188538874568	-0.0016325135057965214	-0.001131449847792368	-0.0013604819157800783	-0.001185179883188977	-0.0016347543243718783	-0.0009293575718886476
0.463	-0.001985138683860184	-4.977034693830207e-05	-0.0018264792431848843	-0.00045711881581952376	-0.0011062783129204034	-0.00016545925858909	-0.0016527193993459087	-0.0001806973386608956
0.464	-0.001454838035047488	0.0010354053389201104	-0.0016853191240863677	0.00017510654320441554	-0.0008439673662859438	0.0007153448696631191	-0.0014374276746044713	0.0005210334131502846
0.465	-0.0007191463370107533	0.0015008850094224513	-0.00124526430984689	0.0005067911615050176	-0.0005859419662803694	0.0012004189841094608	-0.0010112112696047941	0.0009078679901361082
0.466	2.6584067343601373e-05	0.0012474614140339508	-0.0005958448700567143	0.00043118424600217657	-0.00028431062771309577	0.0011972120577786562	-0.00042368128375959164	0.0008351038948913146
0.467	0.0006410780671440893	0.0004739390843808949	0.0001519691662804	4.082547413498819e-05	0.000125264323219488	0.0007984047544639672	0.00025031841790768244	0.0003491225029518116
0.468	0.0010686279122378499	-0.0004096503901583494	0.0008887174037096135	-0.0004138952548279331	0.0006643680307051711	0.00023143240399770525	0.000915238755493121	-0.0003225615183187922
0.469	0.0013240022462329892	-0.0009557620540561851	0.0015134910464365196	-0.0006389952888125167	0.0012685560998212694	-0.00024108412000596483	0.0014638035865571553	-0.0008591140680029442
0.47	0.0014461649218017692	-0.0008697657659272753	0.0019311389540563198	-0.0004346972096932229	0.0017858710417323438	-0.0004281070689289572	0.001792417507612111	-0.0009784730109808396
0.471	0.001451056230125119	-0.00013868818379073207	0.002053468036020857	0.00020421269431389506	0.002024250586812281	-0.00028061428415125796	0.0018228626209538731	-0.0005598856075576567
0.472	0.0013120545844732426	0.00095583820712653	0.0018155871902252305	0.0010711078095469308	0.0018310794439640038	0.00010091296124001444	0.0015261491500636807	0.00029469036236854165
0.473	0.0009798729633825457	0.0019474427096226087	0.0012068198104277512	0.001823188411213813	0.0011705980460757074	0.0005208258594162315	0.0009404110407799295	0.0012878513161561078
0.474	0.00043054136733273747	0.002374238043226865	0.0003019177356879116	0.0021195688854139176	0.00016253512531106947	0.0007773495580883658	0.00017346661378870633	0.0020343465269504228
0.475	-0.0002871018242842804	0.0019709585937813163	-0.0007286697216694097	0.0017640921054534102	-0.000939915261363077	0.0007463640336847562	-0.0006159973351984817	0.0022079019997849484
0.476	-0.0010351510286700015	0.0007858231163280305	-0.0016456335650884253	0.000793026576693449	-0.0018289427337671118	0.0004253416607552925	-0.0012570148965638714	0.0016699416972831395
0.477	-0.0016178328272185264	-0.0008258476594763219	-0.0022049316583220664	-0.0005287473459640406	-0.0022487703008879367	-7.696079842470628e-05	-0.0016140874782621327	0.000529701328395015
0.478	-0.0018520487035244568	-0.0023295012978857186	-0.0022398753831607628	-0.0018010359047156582	-0.0020878537946157926	-0.0005945271570121141	-0.0016274825374210976	-0.0008878621098054851
0.479	-0.0016470428466385655	-0.003210163535828904	-0.0017287600930805808	-0.0026325100781641585	-0.0014192065557996547	-0.0009732998033516096	-0.0013300963022337324	-0.002153925789978713
0.48	-0.0010546309574079968	-0.0031637378403108034	-0.0008165852724447113	-0.002777898618665213	-0.0004723260582460802	-0.0011238398509585581	-0.0008328793452184778	-0.0028843281753618112
0.481	-0.00026208974565654765	-0.0022065214825059457	0.00022427937105196728	-0.0022158486724999254	0.00045184988068430314	-0.0010376373605392923	-0.000283373349505864	-0.002868610539513091
0.482	0.00047463638875933594	-0.0006626024932043664	0.001084284467505375	-0.0011417817367485456	0.001088634457920806	-0.0007673721921041033	0.000186488693591167	-0.0021327514631243856
0.483	0.0009312571495844113	0.0009621758901066958	0.0015246004470736271	0.00011471578991644661	0.0012975848547770992	-0.0003888730995498177	0.0005021971962591603	-0.0009160151597090113
0.484	0.0010053694698547518	0.002167289240835043	0.0014600689662728696	0.0012100884432533132	0.0010983285680909306	3.1434206083236194e-05	0.0006614290736389312	0.00042407971455677926
0.485	0.0007555501088831083	0.002632168797193408	0.0009835878765937368	0.0018963857349731965	0.0006445128138404914	0.00044736176624884786	0.0007171788016896144	0.0015383323497198537
0.486	0.0003703103551522522	0.002313695811442747	0.0003223440051831549	0.002082049131212059	0.00015136884711131732	0.0008217598824822039	0.0007388134573705571	0.0021946424722984552
0.487	7.948868430383165e-05	0.001435217922915735	-0.0002553560524573979	0.0018295783755607666	-0.0001908035691771297	0.001107602861813435	0.0007701780260999805	0.0023306638039817724
0.488	4.7095972013535886e-05	0.0003790044672437147	-0.0005439675666488268	0.0013017761108873485	-0.00028281094641097583	0.0012405197805448335	0.0008045048894549623	0.0020374170428506754
0.489	0.0002936317679157218	-0.0004702589427667832	-0.00047366072187147843	0.0006856812216056163	-0.00013988930540093883	0.0011543418142088487	0.000787536097421719	0.001489715788549056
0.49	0.0006832428751483227	-0.0008683047018428649	-0.0001253827947605833	0.00012652737655265134	0.0001309457672098417	0.0008157619897585233	0.000647059724988505	0.0008594064267582033
0.491	0.0009824778941732622	-0.0007875563767921985	0.0003137993608113931	-0.0003058074073057231	0.00038455886659607215	0.00025983209991476753	0.00033505500195293224	0.0002510266413892105
0.492	0.0009656872361235151	-0.0004028915778603314	0.0006326871977752535	-0.0006122202670739873	0.00049767315409317	-0.0003967350670818846	-0.00013697799599618373	-0.0003141706383527334
0.493	0.0005214642273035554	1.1800129825068192e-06	0.0006798250973058817	-0.0008320055294547891	0.0004117887044493656	-0.0009791739166764065	-0.0006860430407537553	-0.0008642070348868348
0.494	-0.00028611798665976237	0.00016096650628254227	0.00041653109979890995	-0.0010020996565877896	0.00014583951840230777	-0.001312039565813781	-0.0011758018737737384	-0.001414803477830477
0.495	-0.0012283948241952666	-5.1266973829413925e-05	-7.779365327552162e-05	-0.0011272979796171788	-0.00022095461806501495	-0.0012886062320321145	-0.0014592917011587094	-0.0019157359388526467
0.496	-0.001991518037157269	-0.0005720256941092264	-0.0006440308991586038	-0.0011731922431689377	-0.0005843548078072959	-0.0009209639670562463	-0.0014307012662258607	-0.002236878866902788
0.497	-0.0022924646008280654	-0.0011712719470409285	-0.0011048603293174006	-0.0010826776088357548	-0.0008520590811587345	-0.00034476392030586287	-0.0010669176900267073	-0.0022068039050281737
0.498	-0.0019856000513875467	-0.0015463641535865837	-0.001323372061212463	-0.0008073399135764867	-0.0009685106380673133	0.00022855567960051076	-0.0004431204777935924	-0.001691212154804089
0.499	-0.0011189892473895172	-0.0014486441129476263	-0.0012388383485125707	-0.00033995800272213145	-0.0009213001601848182	0.0005950730460975919	0.0002841115780111773	-0.0006775549410632332
0.5	7.919082548571736e-05	-0.0007939153241076708	-0.0008726613392045419	0.00026545425689160194	-0.0007314513003505485	0.0006423991235387695	0.0009215514432486735	0.000674683045099214
0.501	0.0012764674248697402	0.0002864472846998091	-0.00031018945256028546	0.000895123106201718	-0.0004358095137102669	0.0003971688836450637	0.001298023238474279	0.002047821372602811
0.502	0.00214425824023421	0.001475840854571918	0.00032906464159253215	0.0014004467090407702	-7.128133359367414e-05	1.3622208139791453e-05	0.001318472608093684	0.0030490490985582755
0.503	0.00245942846008529	0.002376627725384077	0.000920763626318614	0.0016404682795166641	0.0003319735998231707	-0.0002934531015024068	0.0009958548214879345	0.003338813945705286
0.504	0.00216596100017239	0.0026525866626003116	0.0013578943552326633	0.0015292299102076198	0.000746441631751445	-0.00034344424454204513	0.0004495180048928561	0.0027590640812170373
0.505	0.0013801322810603153	0.0021579069293131458	0.0015647808601901144	0.0010717230200583297	0.001135796746270176	-7.188412749080028e-05	-0.0001314244362809184	0.0014110925694963187
0.506	0.0003428921130610637	0.001003391053531103	0.0015050952669793485	0.0003735892248959681	0.001443654859141861	0.0004355181672286968	-0.0005501970514528874	-0.00035216366273405677
0.507	-0.0006603037694963055	-0.00046832916833094583	0.0011856960398651916	-0.0003829671163661213	0.0015912983950784442	0.0009717349746452147	-0.000671061647399605	-0.0020243207771416883
0.508	-0.0013841593821414498	-0.0017937760290047606	0.000656068270765462	-0.0009928773268131359	0.0014907422802576623	0.0012889482957288857	-0.00047121569776361325	-0.0031050385942064966
0.509	-0.0016868401487488823	-0.002548182788479627	1.755218189456668e-06	-0.001295112716560922	0.0010737414837550922	0.0011986018176621802	-5.529265997610022e-05	-0.0032667319849191915
0.51	-0.0015559634366794695	-0.0024960444048034935	-0.0006690731388174229	-0.0012288129245435926	0.00032963942005789706	0.0006514637129438162	0.00037734931344730286	-0.002468953305816392
0.511	-0.00109463324964678	-0.001676456247102263	-0.0012442262250067795	-0.0008559318504503756	-0.0006619597102903469	-0.0002333700249404283	0.0006058350504823209	-0.0009776697103922075
0.512	-0.00047691703885519433	-0.00039010639768465667	-0.0016270013484066836	-0.0003387305327834558	-0.001720493731377944	-0.0012015358023932726	0.00047783297070023425	0.0007200811038588226
0.513	0.00011041519204602751	0.0009087228222864006	-0.0017515983832607782	0.00012217232133489102	-0.0025886073475559143	-0.0019462417396196104	-1.754964483448502e-05	0.002078138355142212
0.514	0.0005215074269373455	0.0017757478538557045	-0.001591375116370313	0.00036651377930121113	-0.002993291922417439	-0.0022110852279901907	-0.000726210616690315	0.0026738360330609565
0.515	0.0006857088815003762	0.001935019495499733	-0.001160415904744208	0.0003381744420263099	-0.0027313615782277173	-0.001877265102754035	-0.0013714214923351384	0.0023474793929346726
0.516	0.0006151794442618304	0.0013730740715410285	-0.0005115845195874401	0.0001063290162515148	-0.0017531930235468911	-0.001006448528983536	-0.0016535287633781975	0.0012501666695808955
0.517	0.00038716837119363303	0.00033486544368291024	0.00026606810073746487	-0.00016707874797336494	-0.00021260831782571286	0.00017371776330748188	-0.0013728956552600136	-0.00021556707010476575
0.518	0.0001099127088799943	-0.0007745394260521138	0.001051067477822295	-0.00030153061448528193	0.0015434582344694137	0.001335974923812619	-0.0005273944037001639	-0.0015393934458318751
0.519	-0.000114757110452194	-0.0015427049769161359	0.0016990602249705683	-0.00018244367323876477	0.00305401268362624	0.002150857725502349	0.0006597353334357925	-0.0022787589322837256
0.52	-0.0002196683387877585	-0.0016979737324130631	0.0020639043854643892	0.0001816560346130868	0.0038753330557683456	0.0023858606325013847	0.0018015275662974844	-0.0022043248159490953
0.521	-0.00018410353517458902	-0.0011985846762748848	0.0020319323361949262	0.0006562410117922372	0.0037252391265271308	0.0019769002918296153	0.0024824451961821615	-0.001366412095825921
0.522	-2.9227446691243832e-05	-0.00023390054999569525	0.0015625790928825692	0.0010354128404292742	0.002590065841151971	0.0010502038511166628	0.002418296565350932	-6.386774133500326e-05
0.523	0.00019645215400706845	0.0008560739192390312	0.0007202581823470384	0.001131186895476062	0.0007516234237147838	-0.00011355670587303519	0.0015773062710735387	0.0012679520478340474
0.524	0.0004328004563735605	0.0017068327578665028	-0.00032029896283537626	0.0008582362712011273	-0.0012833274650528386	-0.0011642042186239062	0.00020991252583434236	0.0022064285424045053
0.525	0.0006186237339705798	0.002051829549387401	-0.0013066728774444843	0.00027620848435164756	-0.002933942009799142	-0.001791602120604805	-0.0012307937522715374	0.002475140261880422
0.526	0.0006964656773904831	0.0017988615052602838	-0.0019765127021133706	-0.0004296875040538065	-0.003728463453090012	-0.0018255748245909675	-0.002251903141479703	0.0020187082667436395
0.527	0.000616453368964626	0.0010401741564537033	-0.002141061578226906	-0.0010217510528482145	-0.003457073048091914	-0.0012924404071185031	-0.0025052004491101926	0.0010004183982410312
0.528	0.0003456195739279949	2.8516761165728885e-06	-0.0017542090986416234	-0.0013048191404792962	-0.0022401491026486473	-0.00040657963328279763	-0.0019205106162679592	-0.0002679174855060751
0.529	-0.00011468841002942919	-0.001033826517118576	-0.000937807395935278	-0.0012023128542240987	-0.00048661891404969105	0.0005033340536213893	-0.0007336667366976741	-0.0014329418404649156
0.53	-0.0007083781990216602	-0.0018209122907495217	5.182093384879978e-05	-0.0007814015001057599	0.0012439209100609807	0.001110294008438725	0.0006036086600232008	-0.0022046737779365774
0.531	-0.0013134776202579977	-0.0021965222062579172	0.0009085450476239822	-0.0002183274784154117	0.00242718465079913	0.0012067762081518262	0.0015970993352320338	-0.0024270917464140626
0.532	-0.0017543381676096508	-0.0021067405992652335	0.0013826904972048678	0.00027882345217341545	0.002743249381068519	0.0007807343664979511	0.0018981976378568987	-0.0020987985046294058
0.533	-0.0018443462924264565	-0.0015960119950756096	0.0013682222149497317	0.0005549823531499077	0.0021707262839595885	1.955921116588801e-05	0.0014324551268699187	-0.0013472452655376808
0.534	-0.0014522459135222793	-0.0007807567178079481	0.0009358168177437175	0.0005642494729534706	0.000976275813362403	-0.0007616708665308939	0.0004191625213578044	-0.0003740697124811274
0.535	-0.0005699755815148687	0.00018050461273553143	0.0002978765178305522	0.0003757182511567981	-0.00039209073950756813	-0.0012415239290813568	-0.0007227428498587545	0.0006058367976416838
0.536	0.0006482791902482242	0.0011136330334772814	-0.0002804708285359496	0.00013070602467137775	-0.0014659003415583125	-0.001216273803368097	-0.0015416124192429524	0.0014127006443973873
0.537	0.0019012226836925944	0.0018520294070036264	-0.000587592919773893	-2.600578443754699e-05	-0.0019126887156586906	-0.0006776524150542463	-0.0017247499844208905	0.0019280296728680902
0.538	0.0028167397744930447	0.0022595014324973354	-0.0005447973860577568	-9.24104080234859e-06	-0.0016350442986928068	0.00018640503805113977	-0.0012083491055218487	0.0020988846328537157
0.539	0.003070724246834393	0.002253657129998516	-0.00022685552705419416	0.00017510000567491873	-0.0007833287627702641	0.0010671537907153605	-0.0001876943473387222	0.0019275964766657864
0.54	0.002508068045725062	0.001825660845368557	0.0001826917332050827	0.00043960991395773804	0.00031459508354374785	0.0016544818988701304	0.0009686604548167343	0.0014566498958437804
0.541	0.0012181492372353095	0.0010485650339656914	0.0004793610784664976	0.0006569299696712639	0.001275348919927991	0.0017511054083127076	0.0018602697876261877	0.0007565041088550378
0.542	-0.0004704295279262718	6.738283182502005e-05	0.0005284202020183681	0.0007123009771165354	0.0017882983423850147	0.0013364295627628397	0.00219416654682733	-8.046140108594217e-05
0.543	-0.0020822092293034025	-0.0009300653607872118	0.00031836502152717553	0.0005451777757707907	0.0017076693730312426	0.0005583167718988495	0.0018722023382680402	-0.0009417077476715256
0.544	-0.0031463585810697922	-0.0017545415577452398	-4.462727680637176e-05	0.00016666368594906442	0.0010830559827511557	-0.00033743822264821217	0.0010024971500006313	-0.0016973713088028093
0.545	-0.0033538595680154253	-0.00225635257849033	-0.0003953232263973264	-0.00034794045538079246	0.00012599836688886716	-0.001104668829269651	-0.00015721898091500524	-0.0022103160041858244
0.546	-0.0026619230108998705	-0.002353196118260004	-0.0005909010381949574	-0.0008825352621897743	-0.0008690247329261756	-0.001577987947003741	-0.001293140845302802	-0.0023571269238786574
0.547	-0.0013057328967724588	-0.002038214029048951	-0.0005755413436680916	-0.0013080897403597023	-0.0016191452121100429	-0.001706156687129761	-0.0021276279965920905	-0.002058786039254426
0.548	0.00028702607028365917	-0.0013705647561773893	-0.00039809185405065354	-0.0015076994630734432	-0.0019328201743762266	-0.0015320764145473917	-0.002481546337279012	-0.0013138599069162748
0.549	0.0016457397745406003	-0.0004576966661051225	-0.0001766596095513543	-0.0013980774123348364	-0.0017534705858416391	-0.0011401937163408845	-0.0022967996223432464	-0.00022235879250298712
0.55	0.00241331598149701	0.0005608801329273709	-3.0248507308516646e-05	-0.0009500329594659255	-0.001159701263646482	-0.0006058400694628936	-0.0016265803310588965	0.0010127997689255831
0.551	0.002451797768493151	0.0015245036500149615	-1.331098912203877e-05	-0.00020777766659001254	-0.000328287583092727	2.4513585157028125e-05	-0.0006092287571788504	0.0021159192218744845
0.552	0.0018621844999412013	0.0022616658398895793	-8.681228507247118e-05	0.0006999115207909047	0.0005244737567224372	0.000714419170783493	0.0005608560894974524	0.002800293864455367
0.553	0.0009190999625959314	0.002609335929748166	-0.00014057657378582452	0.0015688286393051357	0.0012038314072665558	0.001397545397235995	0.0016607096927271025	0.0028493381227267032
0.554	-4.6238399205065475e-05	0.0024476934883640843	-5.5843580045884995e-05	0.002158637652688862	0.00158285720325112	0.0019491714956614888	0.0024682530746222486	0.0021935621387538014
0.555	-0.0007648166422324491	0.0017457160425970182	0.0002231913304344092	0.002260662807225203	0.001623071501944988	0.00219754235459181	0.002798814248734049	0.0009550200030571632
0.556	-0.0011058367899848202	0.0006002502530442326	0.0006449892986062846	0.0017761272187009182	0.0013672835339484189	0.0019820104414721993	0.0025478436033016007	-0.0005636045393440411
0.557	-0.0010882852166541803	-0.0007551751099494708	0.0010571677458664688	0.00077435087003365	0.0009112004020038913	0.0012367628739507251	0.001729426138443639	-0.0019518326943100636
0.558	-0.0008353129857226808	-0.0019894929694880717	0.0012639741589115312	-0.0004996687975910948	0.00036640573416763867	5.9122973297386636e-05	0.0004937109801608574	-0.0028102433885601004
0.559	-0.0005006498687422239	-0.0027607062919885847	0.0011110230405861378	-0.0016834366154025921	-0.00017126428969082088	-0.0012786928067190404	-0.0008917191459031201	-0.0028791870645976767
0.56	-0.0002027247365262748	-0.002826422026489757	0.0005604907168081348	-0.0024097463546024233	-0.0006376890155816331	-0.0023939279627428712	-0.0021002976000718742	-0.0021322120478660532
0.561	7.66795236730464e-06	-0.002138111738110653	-0.00027675273419388734	-0.0024368576554007052	-0.0009981774136614563	-0.0029189576636221657	-0.002832296814310194	-0.0007969242322937199
0.562	0.00013993217513840693	-0.0008781976620903084	-0.0011677010705558844	-0.001745601492359042	-0.0012328169482160763	-0.002642122702507698	-0.002901915501075761	0.000710340675221698
0.563	0.00022954802409666189	0.0005829225042308352	-0.0018336950708928014	-0.0005605167886902869	-0.0013209180869540923	-0.0016046397391198735	-0.0022953814956296315	0.0019182584654832823
0.564	0.00030053857085487004	0.0018020908541629321	-0.0020478207121288816	0.0007204285399213101	-0.0012359694124130973	-0.00010771382226931866	-0.001178115163679962	0.00245783895737758
0.565	0.0003453470851816859	0.002412328828301093	-0.0017163822084721718	0.001666021703958822	-0.0009565124713987097	0.0013808934883276724	0.00015315924826888694	0.002187069939345284
0.566	0.00033076642079850013	0.0022502166051133338	-0.0009145665914444613	0.0019697891530352984	-0.0004887865557577718	0.0023893839741234535	0.0013575946468871614	0.0012365790300114493
0.567	0.0002238277679537436	0.0014120794872627142	0.00013574615423527913	0.001563616798100456	0.000111583655664785	0.0026115698000728463	0.0021474469653491144	-4.140009123430244e-05
0.568	2.1632806948492563e-05	0.00021609097110179398	0.0011370469906906544	0.0006408767210991531	0.000734328766912174	0.002016791491642799	0.0023641624660423258	-0.0012020126110265498
0.569	-0.0002319419239405515	-0.0009156585969158111	0.0018108161555872378	-0.00042101995513360357	0.0012354962248053336	0.0008565018688275153	0.002011549074347627	-0.0018662155188255082
0.57	-0.00045257638065464225	-0.0016095929849762264	0.0019838025265723523	-0.0012079212320729696	0.0014819038794936044	-0.0004346580145603688	0.0012401255754564053	-0.0018493294233072172
0.571	-0.0005436795075873121	-0.0016693405322854224	0.0016383086762491864	-0.0014273633163835394	0.0014026699180928377	-0.0014035890161544261	0.00029235076309825335	-0.0012130510380619292
0.572	-0.0004354301107302826	-0.0011335019291275682	0.0009114835678715974	-0.0010159998969429354	0.0010239583244544149	-0.0017445888726710845	-0.000571531750765074	-0.0002251699045858632
0.573	-0.000119035298671032	-0.0002447723885009579	4.529358198136215e-05	-0.0001558868601378079	0.0004671297776742086	-0.0014031187278476871	-0.0011448171251480731	0.0007525308935023218
0.574	0.0003378691900912523	0.0006523305845789247	-0.0006955358635275585	0.0008031843768055296	-9.425388822923404e-05	-0.0005805368677021484	-0.0013245040015748086	0.0014010304007529987
0.575	0.000802205837106958	0.0012418822417489363	-0.0011102668074135422	0.0014814161662857989	-0.0005031403118816321	0.0003575397236500458	-0.0011294474989285228	0.0015517207614911155
0.576	0.0011115095144233703	0.0013446914038815188	-0.0011247471424373344	0.0016116470665519472	-0.0006831969338932792	0.001029793688520784	-0.0006841009448299257	0.0012265082999043373
0.577	0.001125373681235216	0.0009667732688993358	-0.0008087915299545159	0.0011333592311759838	-0.0006671961156147006	0.0011854169374229345	-0.00017341571908068378	0.0006017757714475841
0.578	0.0007769422230758825	0.0002769491978930257	-0.0003423136226594529	0.00020654564089501174	-0.0005731021974764833	0.0007926200548211403	0.00021868686646059674	-8.10973817736173e-05
0.579	0.00010756290426891947	-0.0004699352195650071	5.803064673849667e-05	-0.000853928358108284	-0.0005363019714856902	3.8938210704085173e-05	0.00036995085889059446	-0.0006162905703219106
0.58	-0.0007290538639507784	-0.0010295541472653178	0.00022528216860624663	-0.0016939358410721149	-0.000629596757766987	-0.0007521319097355114	0.00026072748245589705	-0.0009023493925825197
0.581	-0.0014991588309098945	-0.001247265361006179	0.00010922194653890612	-0.002041138521917517	-0.0008119213076410755	-0.0012523977082245738	-1.9902341736648338e-05	-0.0009543627106058928
0.582	-0.0019529891811161403	-0.0010947737960048502	-0.0002028715020686657	-0.0017897575139639108	-0.0009360177822208405	-0.0012564125669364276	-0.0003082898872168121	-0.0008621897611301964
0.583	-0.0019043260493407956	-0.0006588066882900931	-0.0005221763947166464	-0.0010244534344223094	-0.0008178528988655982	-0.0007574417578894137	-0.00043199225425235666	-0.0007217953468656641
0.584	-0.001301029621923981	-9.455967577644544e-05	-0.0006392923069148718	1.8188593276871406e-05	-0.00033880586165583064	5.4496905423301887e-05	-0.00028448785999590624	-0.0005770294615896359
0.585	-0.00026053393264680085	0.0004333387461142485	-0.0004191065112659873	0.001031904645365761	0.0004685415886111269	0.0008692812694148645	0.00012117894679662894	-0.0004012924512412346
0.586	0.0009477985571977969	0.0008001029718563443	0.00012977203083186506	0.0017369238460098134	0.0013974112016845474	0.0013774750948345933	0.000645302698996104	-0.00012685923540326253
0.587	0.001975048427151548	0.0009465917499182934	0.000842609469786094	0.0019598552387345863	0.002126641840514192	0.0013891322343591822	0.0010695411515863167	0.0002951623978933595
0.588	0.00250110428816806	0.0008793339546820308	0.0014527857133598053	0.0016754073442568156	0.0023446112203711392	0.0009057595003140226	0.0011851075796131605	0.0008373595818724738
0.589	0.0023438951804760104	0.0006517852618878478	0.0016944272493242727	0.0010013088179779037	0.0018858946219208763	0.00011825084609786243	0.0008863104993055259	0.0013740156324396297
0.59	0.0015295400950497318	0.0003381454479246897	0.0014133005283289942	0.000151912526965991	0.0008191247508687185	-0.0006684234847928798	0.00022844729815371423	0.001711305523606361
0.591	0.0002940546860009168	1.0164187450940315e-05	0.0006399218028152659	-0.0006326165844682035	-0.0005570675504102396	-0.0011548353469074135	-0.000578898778383801	0.0016614930565789986
0.592	-0.0009891134065791733	-0.0002769589479377084	-0.00040764595295368926	-0.001158587652099537	-0.0018138322353314748	-0.0011645023407797128	-0.001245709327180119	0.0011308281306474047
0.593	-0.0019331776115089632	-0.0004886262497278605	-0.0013958754736553638	-0.0013303895015975473	-0.002549074539387978	-0.0007127783380568128	-0.001515392007277046	0.00018177575019513246
0.594	-0.002269692294118671	-0.0006077685846707999	-0.001996410972252232	-0.0011667131825837548	-0.002537329451440512	4.865056792417071e-07	-0.0012720071380747352	-0.0009614098810642575
0.595	-0.0019386291108552272	-0.0006291807260153355	-0.002008216993562693	-0.0007787071709148088	-0.0018108481925098465	0.0006721777898161078	-0.0005944166396223845	-0.0019722315884610642
0.596	-0.0011021446801000082	-0.0005552396421813256	-0.0014326506911309723	-0.00032020582204255794	-0.0006398001538966025	0.001019034562866007	0.0002682764927718046	-0.002527941906911301
0.597	-7.658543787320856e-05	-0.0003950932463434546	-0.00047148744617106974	7.050132768724062e-05	0.000577526865298865	0.0008933600117778332	0.0009926000395614732	-0.0024232049157954932
0.598	0.000790203262541578	-0.0001671895605519266	0.000550835533722456	0.0003154739604165027	0.0014665323326966794	0.0003443207387220209	0.0013094445242855868	-0.0016482459223386228
0.599	0.0012470803119057072	9.690518426313158e-05	0.0013087884156675084	0.00041238723189421526	0.0018070151542860038	-0.00040079552500347484	0.0011120413969510894	-0.00040136074734145957
0.6	0.001222338226438628	0.00035075784133276094	0.0015920950613404522	0.0004164186112716247	0.0015924031624315734	-0.001028686784413943	0.000497573445931737	0.0009695751396065586
0.601	0.0008298001189251546	0.0005370152717007323	0.0013715784186076252	0.00039908620867698595	0.001000691886817626	-0.0012684941533008666	-0.0002751019569746523	0.002075798962613192
0.602	0.00030022813349053214	0.0005993253963901459	0.0007918173891614287	0.00040447602187074585	0.00029870070039693814	-0.0010038639207266596	-0.0008932319144522746	0.002608465140905526
0.603	-0.00012822304137391992	0.00050127774988176	9.907574594744331e-05	0.0004245202316527112	-0.0002728481883320501	-0.00032185409786878057	-0.0011172997821487895	0.002431025812251775
0.604	-0.00031057665299905393	0.0002469440121952455	-0.00046120644781728036	0.000406058439639226	-0.0005831975024348576	0.0005221267356244506	-0.0008740340741409402	0.0016146914582171273
0.605	-0.00024331126171695555	-0.0001061854506496617	-0.0007335665760891692	0.00028675621106077237	-0.0006339409047744742	0.0012087619342724212	-0.00027789130801190033	0.00040919961524400696
0.606	-4.3044829408329076e-05	-0.00045154958982257553	-0.0006944372997227549	4.169519980531792e-05	-0.0005208062432376564	0.0014844168762558865	0.00042460724905582655	-0.0008376891950263294
0.607	0.00012868734782098918	-0.0006601949445465191	-0.00043640834186141125	-0.0002847649209912884	-0.000363026562533321	0.0012609415700468706	0.0009603779989898452	-0.0017840738967442994
0.608	0.000154466402107491	-0.0006256714970759872	-0.00010987710151456052	-0.0005820743339051467	-0.00023946034669439058	0.0006440227548512136	0.0011383202696108826	-0.0021892223401011766
0.609	1.9256961814285815e-05	-0.000312759920485468	0.0001469327967159048	-0.0007155990661476221	-0.00016162532575563946	-0.00012000708712664308	0.0009160245800367767	-0.001974261145596162
0.61	-0.00018949998525802055	0.00021064661761405388	0.00025835441590350513	-0.0005917126799883671	-9.105976873339708e-05	-0.0007531765948848323	0.00040102203390212195	-0.001234556551317885
0.611	-0.0003372712762722916	0.0007771080784807467	0.00022456934009154432	-0.0002155027373689856	1.5647564196966904e-05	-0.0010610458066742097	-0.00020717503744236364	-0.00020430864130125033
0.612	-0.0003224682351945892	0.0011657469467246495	0.00010001315516102572	0.00029002277374004385	0.00016404434949551507	-0.0010031595091916396	-0.0007034661806722849	0.0008140198950577584
0.613	-0.0001380488276197976	0.0011805191966608101	-4.5274180533985914e-05	0.0007195298110831341	0.0003074980895621398	-0.0006898319913339283	-0.0009526267243429277	0.0015351868812120905
0.614	0.00011867533931623635	0.0007338176220027743	-0.00015905966563911048	0.0008671082290088726	0.0003699830612465358	-0.0003112384064303178	-0.0009243845676978582	0.0017688532008354979
0.615	0.00029450231114936916	-9.897208724504383e-05	-0.000220301355345609	0.0006215424653318882	0.00029271365089821803	-3.638887439320879e-05	-0.000680732824241217	0.001469301543278492
0.616	0.0002630988867787305	-0.0010817898745735287	-0.00023164880894357672	3.147637325113312e-05	7.718507307153764e-05	6.722500295952571e-05	-0.00033060282186364397	0.0007441623439054547
0.617	-4.311455231162994e-07	-0.0018848246522321184	-0.00020213800557210043	-0.0006941469805477721	-0.0002017029738122503	5.419277180799791e-05	2.1019571989082533e-05	-0.00018015164778700113
0.618	-0.00039276278653772314	-0.0021972914978421075	-0.00013466526798442785	-0.001258224597073189	-0.0004230047203638572	5.382863914088872e-05	0.00030559079434720304	-0.0010264809909547614
0.619	-0.0007199741825180929	-0.0018456924005369755	-2.6880666087619645e-05	-0.0013948612535531805	-0.0004761466649510895	0.00018182654906360226	0.0004957253906879324	-0.0015484897890660127
0.62	-0.0007845467763794717	-0.0008707932224437573	0.00011668644710911879	-0.0009865202886624371	-0.0003184358465547014	0.0004593455839156141	0.0005894466305096338	-0.0016013169091712123
0.621	-0.0004819897038013453	0.00047027319542938535	0.0002720325861519786	-0.00012681819974603347	-3.4093899675493623e-06	0.0007846677377887966	0.0005908056294856953	-0.00118011914092425
0.622	0.00013845789083704273	0.0017819787100398434	0.00039439795123089787	0.0009019063532388369	0.00033681059943935785	0.0009757492931627171	0.0005017097453326871	-0.00041574376763020706
0.623	0.0008788783588829117	0.0026616746453850507	0.00043308952138687616	0.0017308162903700891	0.0005494877560050606	0.0008649268424442551	0.00032894360518017	0.0004692188684356914
0.624	0.0014637542021151897	0.0028355771584971123	0.00035656014258430305	0.00204615031895359	0.0005334083023333436	0.00039846032736903103	9.813019153142045e-05	0.0012282755207309079
0.625	0.0016478464088307218	0.0022487612798890383	0.00017407332633884306	0.0017119630972614766	0.00029067106126527995	-0.0003117698959290032	-0.00013950332917414603	0.001660594758800994
0.626	0.001315618769122459	0.001077036775788119	-5.98345794423244e-05	0.000823485377480884	-6.82505472927336e-05	-0.0010158672669724313	-0.00031766988700206763	0.0016616984805527904
0.627	0.0005311179880672605	-0.0003402812249505018	-0.00026378282749155635	-0.00032992745002412326	-0.0003714116977420152	-0.001426221880858107	-0.0003816083177414784	0.0012429394799197005
0.628	-0.0004811328292964117	-0.001617440899968263	-0.0003643661662732716	-0.0013752464013121678	-0.0004649940425208674	-0.0013472611782147327	-0.0003176667338853388	0.0005185684003891857
0.629	-0.0014148415722216611	-0.00244312492546515	-0.00033110868883779354	-0.001992893934323363	-0.0002897982400391943	-0.000774114020638578	-0.00016796713272324416	-0.0003311540425377413
0.63	-0.0019876896841858364	-0.002662029191517841	-0.00019347584617811285	-0.00202512684792753	8.176803319110321e-05	8.91354859008429e-05	-1.7832158868516068e-05	-0.0011073320560794522
0.631	-0.002033448233542095	-0.0022941034947399027	-2.958107527186875e-05	-0.0015155345980904405	0.0004683285710142326	0.0009054285012058731	4.247213348082204e-05	-0.0016372852891356157
0.632	-0.0015487380056390693	-0.001495572715318384	6.998972998270708e-05	-0.0006708183406995932	0.0006555740234915421	0.0013450166550215102	-3.489770358349869e-05	-0.0018081436375267444
0.633	-0.0006829238666816948	-0.00048762164279812466	4.689454247509763e-05	0.00023144774895049875	0.0004947502737393411	0.0012287455680575227	-0.00022314670436230456	-0.0015855556258303598
0.634	0.0003186529461037782	0.000513984755077716	-9.332180621383627e-05	0.0009460533267374716	-1.9184896049606473e-05	0.0006094011774265612	-0.00042325105586870867	-0.001017340748054474
0.635	0.0011935084152206333	0.0013434546965912634	-0.0002789073388233652	0.0013326341937226428	-0.0007259022702517098	-0.0002472013669668535	-0.0005045684107885848	-0.00022315264692286088
0.636	0.0017353854327279618	0.0018967249638302762	-0.00040154979216419786	0.0013748267534124062	-0.001348142540389199	-0.0009747443388888119	-0.0003677097912680031	0.0006285716781144546
0.637	0.0018417294480046588	0.0021207510079763064	-0.0003654219811000895	0.0011498760357440158	-0.0015947957360091679	-0.0012634443470635106	-6.088911601332412e-07	0.0013541530464610094
0.638	0.0015268777388075772	0.0019987380351816813	-0.00013369389694034176	0.0007730130060904846	-0.0012797387644459344	-0.0009923411992664823	0.0005006950164393596	0.0017939564286389175
0.639	0.0009039852335223588	0.0015457880886682591	0.00024851135252501914	0.00034691639849295387	-0.0004094195665885684	-0.00027895065363939985	0.0009601602162987741	0.001849486830270699
0.64	0.00014596975380193897	0.0008173877792635549	0.0006652526672081912	-6.265375387050584e-05	0.0007973622801718419	0.0005743035187342158	0.00118981035057086	0.0015085800571131792
0.641	-0.0005618699236294413	-7.919823137267015e-05	0.0009706159669978671	-0.000421733351346159	0.0019690274900102393	0.0012116101831577183	0.0010693972654066688	0.000850420675802046
0.642	-0.0010660807713747393	-0.0009858969758082374	0.0010424527549056002	-0.0007065482942594417	0.0027018050769561175	0.0013744152894304548	0.0006024353464455124	2.7135953565096313e-05
0.643	-0.0012774139035244283	-0.001717678993491087	0.0008275817281642426	-0.000885235025553977	0.0026996562599057874	0.001005769461921437	-7.725179010068092e-05	-0.000774178514384103
0.644	-0.0011857293346737964	-0.0021075962847061426	0.00036163904886886455	-0.0009175878931410011	0.0018838093055578962	0.00026538698843227195	-0.0007528808450035867	-0.001378642301786823
0.645	-0.0008551469635557484	-0.002058288336363474	-0.00024217911716028346	-0.0007743807246504066	0.00043231230352381417	-0.0005471060579173393	-0.00120668154119234	-0.001666342819005592
0.646	-0.00040091626840859615	-0.001578537352125249	-0.0008290473951189248	-0.0004642935540226149	-0.0012655893177272429	-0.00112331348184321	-0.0013021238260887177	-0.0015983338700114513
0.647	4.6179743502682794e-05	-0.0007871276686694027	-0.0012486038784879079	-5.011475122401754e-05	-0.002725895031323514	-0.0012724234654046755	-0.001032294855438629	-0.0012191349022287641
0.648	0.0003780147012792534	0.00012079270394280877	-0.0013954974049476306	0.00035974084321954426	-0.0035187617859902833	-0.0009889364683055841	-0.0005155874417489351	-0.000636859857655015
0.649	0.0005381419358629403	0.0009334052167538878	-0.0012335331361908756	0.0006455024640979202	-0.0034012163267383246	-0.0004367239368088003	5.7156623153524014e-05	1.0744673839580912e-05
0.65	0.0005320216274536508	0.0014849227919344404	-0.0007999654159838877	0.0007227303753197181	-0.002391194475607564	0.00013741906258841086	0.0004998012226475741	0.0005924492507165461
0.651	0.0004152205410139421	0.0016971063279917094	-0.00019265302596979694	0.0005797365676618437	-0.0007603532923754612	0.0005175160881164757	0.0006995941421871097	0.0010110653317430991
0.652	0.00026487433784207047	0.0015853644599662705	0.0004542796846584647	0.00028656338932350804	0.0010502899513712238	0.0006072744081755098	0.0006505355419653383	0.0012163724145304326
0.653	0.0001465658946818338	0.0012314265691870155	0.0010004893968338401	-3.1214476737969634e-05	0.0025633400515548007	0.00045671169078234273	0.00044127426571334	0.0012036046188081129
0.654	9.048192160514035e-05	0.0007391360819215987	0.0013300751802954168	-0.00024420009021637525	0.0034034730467488255	0.00021960225106266637	0.00020669714548103655	0.0010023784968899597
0.655	8.613252546216715e-05	0.00019584773772552468	0.0013777043511141787	-0.00027433039714702976	0.003397989804054814	6.62880046279751e-05	6.602964464826793e-05	0.0006626700259300921
0.656	9.613050824478818e-05	-0.00034332186575537175	0.0011443687891068434	-0.000128939947853571	0.0026101697819224143	9.50108472577862e-05	7.33481103388155e-05	0.00024320653766347607
0.657	8.076108177900309e-05	-0.0008446376076410889	0.0006972558381634348	0.00010212849959477399	0.001299536129190531	0.0002832816318437118	0.00019900662233646776	-0.00019535472857873883
0.658	2.0531085578905816e-05	-0.0012694647856339267	0.0001512274190466869	0.00028623032999322036	-0.00017232372783743485	0.0005007336327534876	0.00034684347219401387	-0.0005932684987249505
