-70.83177205739345,-110.83579126797798,-146.47946669113816,-41.4859960254806,-119.55897618790098,NaN,-129.8748513666303,NaN,-151.2667460077194,-161.59886593604108,-91.24708151334595,-127.26385142459927,-159.44509392958875,-110.91539867315596,-113.60433942139676,-111.7109263059564,47.824001,-688.080017,-722.23999,-2240.0,-3780.0,140.0
-26.050866880373672,92.89974223398384,203.87900440764972,78.45823942033218,61.226009323874955,NaN,21.37497458166942,NaN,71.91432511412452,99.46129774344595,-2.9835364741364465,40.79978120270453,192.54783413449704,77.28405189698385,111.3343209516486,108.12185805679727,47.336002,-685.151978,-725.16803,-1960.0,-3640.0,0.0
390.7927038252432,-411.1824617924729,-1116.8968187322807,-628.5276522876193,-129.04868201985354,NaN,266.1750401694601,NaN,-48.36377393661564,-228.143775802686,296.5971212154505,122.51218513150344,-986.1750415009112,-294.66301483444533,-552.1171634101165,-507.16721609045703,40.015999,-684.664001,-725.656006,140.0,-1820.0,3360.0
295.4187379595803,-428.678285022857,-1070.5915342107396,-564.6296992598284,-190.52046352063132,NaN,148.91346632674959,NaN,-140.6387257627152,-305.9476157200684,204.6095286226636,22.65729172606832,-968.5048598916572,-327.1087434022458,-556.4086001969989,-515.2841904978337,41.968002,-683.200012,-725.16803,140.0,-1820.0,3220.0
248.0835556012876,-368.9029184556248,-927.1054214121707,-444.7392650344533,-171.92578629147692,NaN,110.37594567599253,NaN,-144.9177003087774,-289.9877924818508,174.98603698437353,0.921767444297766,-850.7727635703934,-284.0920997875946,-480.17137443739455,-444.5500498757352,44.896,-685.640015,-723.216003,0.0,-1540.0,3220.0
234.87853533136487,-221.25052070167905,-647.7820256989053,-274.0537626447708,-66.37739529396866,NaN,153.08249308655948,NaN,-45.49074504084268,-158.0150741548084,197.02889126098424,60.86429848681621,-590.0723784845752,-153.37879375825884,-305.7150946889509,-277.21908906322847,41.48,-684.176025,-723.703979,140.0,-1820.0,3080.0
269.9581518908671,-91.5429235513178,-434.9065792967174,-175.16520978060984,50.18860740589959,NaN,247.02988975595088,NaN,87.0622904493168,-4.348446920867765,255.43942720176756,160.93387289969615,-380.1459358999707,-30.87698674442741,-161.1915152719592,-137.34040711743583,42.944,-681.247986,-724.6799929999999,0.0,-2100.0,2800.0
228.2459174454502,58.303227867527546,-106.5204559753534,-45.601664263467256,148.6514520933823,NaN,272.394413220967,NaN,197.11951009404885,153.09173751482933,240.02541093197337,216.73479114583716,-68.82321400102941,95.16471024117553,19.253232250006175,30.511228811845296,43.920002,-681.247986,-722.728027,-280.0,-2520.0,2380.0
147.8829932899471,94.35785873890461,48.57104711581504,-12.851184095106785,143.22650067919955,NaN,212.8830647277382,NaN,196.6389105917985,185.64003993975368,165.0115539199666,185.60568226833863,79.05854315280583,117.5703400780362,82.58047696311513,81.46242637873182,44.896,-682.223999,-727.608032,-700.0,-3360.0,1820.0
77.83471847587542,-11.567145648556806,-77.33918146900285,-109.84636409325492,34.55553474224784,NaN,101.61138408825823,NaN,77.10764013884781,64.87919427097205,70.8523940427092,81.45672987240134,-47.151666673124495,9.411997498623313,-24.44690614570105,-28.069784195296393,44.408001,-681.736023,-729.5599979999998,-1120.0,-4200.0,1680.0
-63.70557028815001,-51.96835162530911,-23.58700886573087,-77.25333799300246,-59.56200621076713,NaN,-67.30095860772151,NaN,-53.50301589732669,-38.597762819581206,-75.30088802718184,-52.81016602034486,-23.773658853728016,-55.29935398924204,-43.683970739719605,-53.45793567991549,45.383999,-680.76001,-732.4880369999998,-1820.0,-5180.0,1260.0
-141.33120801226775,-91.66241328726552,-36.915871884606624,-50.73340990833079,-127.61330787459606,NaN,-173.85260328156244,NaN,-152.4203859253596,-131.22240892101988,-155.24722955612123,-145.49579330204352,-54.39257313939364,-105.44291821619215,-74.43119099999596,-84.50555527280932,43.920002,-682.223999,-739.807983,-2100.0,-5600.0,980.0
-142.1809835098801,-99.2745577767704,-64.251702381376,-18.995443755280117,-138.1484745809391,NaN,-190.8095869747116,NaN,-179.59835255171728,-167.24904263633186,-153.30335976976005,-170.06169256558064,-87.23360458183168,-114.22033499187486,-83.89976752350489,-90.41530103795257,46.360001,-683.200012,-736.880005,-1960.0,-5460.0,840.0
-112.22291235680547,-15.803171223757476,54.04551618165968,78.94066363576606,-66.23765534946581,NaN,-136.87600024366708,NaN,-109.9916248593004,-91.73185273896448,-104.89375109132014,-116.58911676556232,24.51708951027729,-38.57974110981331,3.662142119588065,-1.030681977617819,43.920002,-684.664001,-736.880005,-1400.0,-4760.0,700.0
-33.06719355613448,82.10900520600384,160.81322353747916,141.3717327227581,39.63073266351637,NaN,-19.03502314530887,NaN,16.291547083176575,35.47857112707467,-7.189378732266288,-2.72556592240206,141.093556905097,60.03787145349875,99.40288476237828,96.78681717726928,44.896,-684.664001,-734.927979,-420.0,-3920.0,280.0
17.668861673420754,181.1320844382524,304.766815299056,190.017917882328,139.0255827899896,NaN,78.99756951215363,NaN,140.4835006468222,169.65145880652,61.32653042535548,98.94718463887315,292.90593374919285,155.04691896708965,202.97303146177148,198.06165861779309,43.920002,-682.712036,-733.4639889999999,560.0,-2240.0,-140.0
-11.245686721504699,222.0088068639894,421.52613366943143,209.9389194329028,162.46360622272704,NaN,75.34965911438493,NaN,174.78717542642565,223.355894691941,37.97496599062016,112.25808368302536,406.1720130036401,189.65008836673587,255.8871578257564,246.33771293123647,44.896,-683.200012,-730.536011,1960.0,-1540.0,-840.0
-18.234899212765406,125.3546883630166,261.655266336654,96.89473015535145,87.86615064607254,NaN,31.94579079821548,NaN,108.18238509909423,141.6552369990864,4.277010185015854,66.93473480530663,258.47043049395967,107.05270141020684,147.51383230417144,139.36866134650575,45.872002,-680.272034,-730.048035,2240.0,-1820.0,-1120.0
-78.48846381961562,40.06669544018808,165.51974240731,45.31710953497425,-6.400158215885188,NaN,-70.95167765312075,NaN,-1.4029528821911488,30.48995441412494,-77.94748840501877,-30.158241139095583,155.05452851198675,22.470895821787416,62.35588585547868,54.24154527578132,46.360001,-681.736023,-731.023987,2520.0,-2240.0,-1820.0
-143.49416603649667,-31.66245893345798,89.55755335494457,23.918901531160763,-90.76443264935104,NaN,-173.02134415876273,NaN,-116.14705012897817,-83.64257672357493,-157.24750972542327,-126.13956126590898,61.62469392615502,-54.30149137293938,-8.669031761527089,-16.734915379368225,46.848,-684.664001,-730.536011,2520.0,-3080.0,-2240.0
-136.1929146263148,-82.26496889603555,-23.086117083235926,1.8527626069397591,-124.29989478213825,NaN,-186.89743007399107,NaN,-167.10063021204544,-152.12380462700307,-153.1455334595726,-154.7953914371308,-52.43281157165037,-95.71686955053137,-67.58141605313247,-70.58797567678562,50.751999,-682.712036,-732.0,2520.0,-4200.0,-2660.0
-91.99091730093431,-53.87389559523096,-20.876341970059816,41.8084150513302,-87.15189323650553,NaN,-135.4069482891136,NaN,-128.3068075171614,-123.87664378950348,-97.72021508570909,-117.79929223625263,-45.874717219035226,-57.24936731224572,-40.2170113955256,-40.702503855697806,49.288002,-684.176025,-729.0720209999998,2660.0,-4900.0,-2940.0
-16.309455803950243,24.258794762484456,50.57698937115526,94.53862996997299,4.42060893855236,NaN,-25.439644067243627,NaN,-13.958902969011483,-15.847278947795841,-2.605393343615283,-24.586755668836567,40.15038372943372,31.48612483576256,38.365443446605184,35.41930332581553,50.264,-682.712036,-727.608032,2660.0,-5460.0,-3080.0
62.39795439193578,98.5518216170126,116.8497688916592,112.74363029835511,99.24585170827336,NaN,95.59481732310195,NaN,108.8764351816176,104.41355749096888,89.9538795291331,79.52652292390138,125.49028523096231,112.68268564557016,108.99767039931083,106.48407661362457,48.799999,-680.272034,-722.728027,2380.0,-6020.0,-2940.0
66.89794760924447,160.0314406228923,231.44472711199347,129.09189505805296,152.7281771715034,NaN,137.21173858530827,NaN,169.8091028180228,185.9901593293336,98.39357153660995,125.1559203320958,236.1269830028682,157.99534845736395,171.60788563861254,168.66519708254097,46.360001,-675.880005,-723.216003,2240.0,-6160.0,-2660.0
60.46661123793215,105.5201508966942,148.15327432467353,39.936142142037056,115.68881462526664,NaN,121.904590054343,NaN,135.5212121135304,149.94060224576634,70.84780810635452,106.1618191662327,155.38366640662412,102.62957791488844,107.10862467008396,107.69426743697674,44.408001,-676.856018,-725.656006,1260.0,-6160.0,-2240.0
14.217429274129785,-1.1942206029274844,1.630504748383654,-63.07690332345805,19.31033805092141,NaN,37.20826124438533,NaN,27.070370965043235,34.43513807837734,-3.334932203445218,22.372194828419424,6.689306189237488,-3.4365795454867367,-8.121263204316639,-4.383203608755952,45.383999,-676.367981,-724.1920169999999,700.0,-6020.0,-1540.0
-56.20968833552057,-70.665047443343,-61.31493743674815,-89.76985973107757,-66.8263775057608,NaN,-67.65274939407303,NaN,-75.5247057783257,-67.16636928445388,-88.18766549772381,-71.75171528197872,-65.09142135383634,-77.99937497419262,-71.97187376185265,-70.01615607071172,41.968002,-682.712036,-725.16803,0.0,-5460.0,-1120.0
-68.12352994982403,-118.081841614487,-144.2690713623718,-103.43954094980644,-115.56136204836405,NaN,-111.2720043790714,NaN,-134.2404957247543,-136.94933324444233,-109.78197939318868,-117.14181521833692,-152.7145903932963,-126.38524051867348,-125.82462382565316,-122.62837739123351,42.456001,-682.223999,-726.632019,-700.0,-5180.0,-280.0
-45.49685006165193,-118.9456453362066,-176.55269108361662,-90.44388533882632,-111.11005616157428,NaN,-95.01210344171177,NaN,-130.7481396834465,-143.3938082935896,-81.36644498554519,-106.69858678728356,-183.33249133380963,-123.3716124980444,-133.44258985024732,-124.96079212698385,41.968002,-684.664001,-726.632019,-1260.0,-4340.0,420.0
1.0938974170750848,-54.22128476452978,-108.98070277117696,-35.01317096089702,-43.84239549581902,NaN,-23.94548070561192,NaN,-54.298772456243626,-70.21967503738111,-14.413539574206123,-39.40590839361953,-112.57507402398787,-55.847179500272816,-69.50788317668352,-59.41452202065861,40.015999,-683.687988,-729.0720209999998,-1820.0,-3500.0,1260.0
64.02835127797111,8.28312901374395,-53.062505763088595,-7.854805206555834,31.71272540958143,NaN,67.60503593771828,NaN,39.05147030447657,21.121601892056194,66.12066509876445,48.17595204320019,-47.21530150754623,13.526496019326064,-9.361054407079958,-0.5490303541401449,40.992001,-685.640015,-729.5599979999998,-1680.0,-2380.0,1960.0
78.90948371041237,74.3230193871419,62.380195392360875,29.098825348112324,88.54007824218881,NaN,115.11828358876048,NaN,114.4515761470794,110.36733537912185,98.41001951050413,107.13645986709567,73.03926935148881,79.7548231920023,68.96509307955233,70.86024537492919,36.600002,-688.080017,-725.656006,-1960.0,-1400.0,2520.0
72.1551437918695,78.25470334703297,82.88638435592112,14.894516927441888,89.81625779904041,NaN,111.7177524274608,NaN,122.30463839060457,124.62518031661367,90.00285511467891,110.65599640547808,95.93465115749208,83.43040352865341,75.63006449164035,73.26414170318169,41.968002,-684.664001,-730.536011,-1260.0,0.0,3080.0
44.31463164522905,0.28077824562596376,-30.27175911687465,-58.444557016224536,19.2325100823238,NaN,52.136370516903035,NaN,46.75108585893164,42.30910128830833,43.83474557783748,55.721832587235205,-14.555160418423412,10.763738648584312,-7.164766878456289,-8.147636201518683,37.576,-688.080017,-730.536011,-840.0,980.0,3360.0
-18.79828852025197,-55.86426531937132,-77.48296118208498,-73.92502481364822,-52.74076593582679,NaN,-39.7799971606665,NaN,-43.19378742591398,-44.15618765204962,-25.71146567451328,-23.913816565885703,-71.26718301188217,-49.065075366229344,-55.620111901333985,-58.90074449428968,39.528,-683.687988,-730.536011,-280.0,1960.0,3500.0
-55.38178782164847,-97.28802227036627,-127.77009192126575,-68.70061444772695,-104.45915712500972,NaN,-104.4889669599073,NaN,-110.76152110408962,-115.63780990309093,-65.48326312164755,-85.75670853265086,-127.14596607272821,-91.34297469132456,-93.36333249667757,-97.60709298168926,38.552002,-681.736023,-735.416016,840.0,3220.0,3500.0
-42.54217274395475,-103.01951680344833,-160.57435671737954,-48.028025983817976,-107.01185794209673,NaN,-101.28934539604136,NaN,-120.68139995897943,-136.249256743175,-51.7454919322096,-91.14168393175048,-160.5386429576509,-95.2020554043211,-103.41946380238004,-105.9907699820185,40.015999,-683.687988,-730.536011,1260.0,3640.0,3500.0
-10.659995408877904,-49.88227979717714,-100.48896150524396,7.1114659616310805,-52.27455158391528,NaN,-47.35991939055359,NaN,-65.8563074960835,-83.57323716219598,-7.13902731496248,-46.21876509546858,-104.13511599369484,-44.79604212799799,-52.78325778673836,-54.66800178366509,40.015999,-680.272034,-732.9760129999999,2380.0,3920.0,3360.0
38.942804906573755,15.811120392909512,-27.572132080925687,41.80490992727135,23.42634344645753,NaN,37.71137052670517,NaN,19.682259870042092,2.1559477430349574,56.336614201005794,27.745985221054685,-28.942499261275582,20.504361428653816,8.414755734997616,9.658665345255395,37.576,-675.880005,-730.048035,2800.0,3640.0,2940.0
69.0719584500794,85.47896367853214,78.19678758898061,71.35455192928998,96.24175318622223,NaN,108.81372793085929,NaN,106.20225654953683,99.21992871522696,99.05006796412844,96.23018983893624,80.65522825384566,87.78735602890941,79.89231479411657,81.51147869640785,41.968002,-678.320007,-727.608032,3080.0,3220.0,2380.0
53.00375921924928,105.43069899299903,139.09969089796627,68.1842483399495,110.96951593418602,NaN,110.58391760146684,NaN,127.25300835542384,134.34052059300333,83.83506813878456,104.25182100475544,141.79314023038074,102.96316878154899,105.8300792241488,105.23324248664387,41.968002,-673.440002,-727.608032,2940.0,2660.0,1820.0
31.039063144327272,48.52054717453838,64.30323461626597,-0.6044631505020015,61.232412119062346,NaN,70.08512300957874,NaN,77.29118574967326,83.6976087336567,44.119145670015385,63.52268566586417,71.35826193657786,49.08383483896432,47.348933687497706,45.6601025009973,41.48,-675.392029,-730.536011,2800.0,1820.0,1120.0
-12.445346766842748,-12.370186605098699,2.05063499770675,-37.99501475561491,-7.248074866182465,NaN,-8.356792346845676,NaN,-1.684558534193743,4.697779292959896,-19.839836887683443,-5.762829949393176,3.915670337835467,-12.4316816068913,-10.485710167660248,-14.746121897667772,47.824001,-677.832031,-730.048035,2660.0,840.0,420.0
-53.89923008389104,-55.779228070137194,-38.13160826705504,-40.73691294976737,-64.9466842383772,NaN,-82.8016192953985,NaN,-73.90966511472139,-66.521795385995,-72.85340861204614,-69.71446881419506,-43.65634686774536,-57.40046951769384,-50.144992303857215,-54.17247445048297,46.848,-678.807983,-728.583984,2240.0,-140.0,0.0
-56.737702064428994,-76.87165957459698,-83.82843370502819,-36.94519130864222,-85.64592300170149,NaN,-99.6485475949139,NaN,-105.76887494468647,-105.11471220930387,-78.14857824686028,-89.78823249485262,-91.59737871812403,-77.22372840925534,-75.98723842348454,-76.65796001186156,47.336002,-673.927979,-731.023987,1960.0,-1260.0,-840.0
-39.290750343672286,-57.82657440262248,-76.51899039701513,-8.52743583622571,-63.37808062683375,NaN,-73.17876809238622,NaN,-88.68360618652211,-91.73272094910888,-53.45831979701892,-70.73568627990488,-82.79166602893008,-57.35633649264214,-59.20064689677245,-56.966899916841,47.824001,-676.367981,-730.048035,1820.0,-2100.0,-1400.0
5.864770197885204,-0.7561256177791885,-16.764881564017053,28.81458902365333,0.5070854502927848,NaN,-1.87911623812339,NaN,-16.58930131043994,-20.77760563979797,4.205059640754646,-10.964584640633376,-16.320056398737933,0.2788151755080821,-3.0268808099008906,0.8102340311733423,48.799999,-682.223999,-728.096008,1260.0,-2660.0,-1820.0
50.61931244915634,62.88957170402801,62.68876791859059,57.64374608090356,69.5832543335417,NaN,74.29867748068436,NaN,68.49731750636371,67.10822292910103,60.48478088624632,60.23143607863925,68.63437883102361,64.62136998575646,61.317715665084826,66.5778582950144,52.216,-677.832031,-734.440002,1120.0,-2940.0,-2240.0
51.549753127478006,100.26472308986214,139.21755813419708,70.33500306230133,99.97602218126049,NaN,96.85231154741427,NaN,112.75564287211748,120.85512655561008,66.56967875626904,89.66967546415995,143.71386488659329,98.69605866382943,104.88876378802964,107.63936614208684,49.776001,-677.832031,-734.440002,1120.0,-3080.0,-2520.0
39.61685077252617,72.12967041700601,108.14236030766752,28.413365174728767,75.54548464720212,NaN,77.33010063208526,NaN,93.22279292373356,101.2410320820884,46.11759738019971,72.22899831871885,113.39793225366488,69.88579305590821,77.08167507707722,78.19796150219597,51.240002,-680.272034,-733.952026,980.0,-3360.0,-2660.0
1.4773483651912604,5.369551976055018,25.27421276569329,-27.38414702945097,8.199369972308634,NaN,9.497255686662008,NaN,18.758908735531644,23.95247715765644,-7.478084972883197,9.41145039261136,27.991792822957787,1.843646571506188,6.9437304532285085,7.567463233727331,54.656002,-679.783997,-735.416016,1120.0,-3360.0,-2940.0
-46.00777854469868,-43.03381627091209,-21.82873672052497,-43.91227784942416,-52.76855222972844,NaN,-65.42967119321308,NaN,-51.81486448046669,-47.63655071963787,-63.604734244632446,-56.218995728788975,-25.041975493737855,-47.963981349213725,-41.08314042395618,-40.12481837586132,51.240002,-679.783997,-736.3920289999999,1540.0,-3360.0,-2940.0
-65.72713390887478,-75.58514259195213,-73.62116214486467,-46.58561314645785,-88.35916906685937,NaN,-101.96659360866563,NaN,-97.00319191490054,-98.8011961631906,-84.3287611686185,-91.09107361636835,-79.12114716330126,-78.0153804738346,-73.56538825636403,-73.4445163862503,51.728001,-681.247986,-735.416016,1260.0,-3500.0,-3080.0
-53.782964713660014,-72.42903592034854,-87.29468610862605,-27.80442152345723,-81.03329444698835,NaN,-91.89106693658908,NaN,-95.02685331069057,-102.53868211489115,-66.28004850557842,-85.35003704526544,-93.77608130998559,-72.50249406079917,-71.66248495964939,-73.02429283147578,54.167999,-680.76001,-731.512024,1680.0,-3360.0,-2940.0
-15.477283630045353,-22.017767705234572,-37.21648438079632,13.317180827666563,-25.487370307795317,NaN,-30.948828479455766,NaN,-37.804855860056655,-44.18798394003124,-13.931628727836541,-31.826067348221606,-42.95216945455072,-22.423227936800846,-22.241428602428343,-22.47897935929431,53.68,-679.296021,-734.440002,2240.0,-2940.0,-2800.0
27.051548899719855,29.206284535611022,16.483855692807488,34.34205501300164,34.193236562823806,NaN,39.24375132084745,NaN,30.93718463280065,27.658379359693505,37.51151962434868,32.66655505726007,17.133796963815026,29.5437175376116,29.503080060729996,28.77812148538852,52.704002,-679.296021,-736.880005,2520.0,-2520.0,-2660.0
46.67339251338183,78.20490590362265,95.20946984140576,55.26026146723409,80.0699865906446,NaN,83.19688123660671,NaN,93.21934855726208,97.18561337031724,64.9294361553327,79.03689381366905,101.871297195435,77.41895608880766,84.13613003079165,80.52891602139621,56.119999,-679.783997,-733.4639889999999,2800.0,-2380.0,-2520.0
42.32578290130989,79.5585291824976,106.28921862349593,38.07632751846737,80.56447857906963,NaN,83.54283927549506,NaN,101.11315060855172,108.82759651529501,59.04521224789456,84.95706153660977,116.89010549055858,77.98728174848883,85.5959872081131,81.41466867248556,56.608002,-677.832031,-732.0,3220.0,-1680.0,-2100.0
16.827326633009758,27.418004918239287,35.840804792587804,-12.826316070209492,31.26438747842772,NaN,38.63935580634668,NaN,47.06627858695206,52.7577270279573,21.757572904121023,42.586438311437455,47.60483661435303,27.38338986371836,29.40550655232679,26.617524037000063,53.192001,-678.807983,-728.583984,3360.0,-1120.0,-1820.0
-23.337569363230017,-21.82169939325547,-14.907427417285584,-34.554695768366045,-23.35704865954782,NaN,-24.1315902212916,NaN,-22.45250768344996,-15.585650952931724,-30.326774406864335,-17.558538581672604,-14.687933139987368,-24.6901690235224,-19.415656795539554,-22.776799039189456,56.608002,-678.807983,-729.5599979999998,3500.0,-840.0,-1400.0
-51.18832524396684,-64.95671060769988,-67.34546001659919,-44.603872904852814,-68.77965819043078,NaN,-77.03513067119894,NaN,-84.68890715230093,-81.31267134258816,-67.83827858103284,-71.90635921630141,-77.39349782620359,-68.19715956274437,-65.29560725246913,-66.30766690335494,57.096001,-677.343994,-732.0,3500.0,-420.0,-840.0
-42.07047423071606,-72.38171056783497,-91.48811322265016,-33.18934613936111,-74.71621452224744,NaN,-80.4109409639181,NaN,-94.4047303677304,-98.2852749949426,-58.91951728151441,-79.87475877644334,-102.52038894472756,-70.266325830981,-77.02710528443689,-75.45978437786256,57.096001,-677.343994,-732.4880369999998,3640.0,280.0,-560.0
-16.26984420839357,-40.85312046524654,-63.061000351067456,-1.208299153247616,-40.79606367995211,NaN,-42.178056232801424,NaN,-55.63644743406987,-62.38702191093857,-22.793195561486097,-47.260900443156046,-68.91191050373163,-34.104391687786524,-44.03288045329271,-40.83930841182192,58.072002,-675.392029,-728.096008,3360.0,700.0,140.0
16.78240665310446,6.807272909265451,-14.753219072035032,23.892918968619323,10.890408561245824,NaN,17.39366914415679,NaN,6.281692627999494,-0.025736278511361062,24.730111231736007,6.037847571608039,-12.484841297032023,13.244229025112107,1.6150988315876245,5.173421154906441,55.144001,-679.296021,-725.16803,3080.0,840.0,700.0
44.784930042385135,62.24557516889078,61.23143595572676,48.94279365887721,65.87420267183853,NaN,73.1435878682403,NaN,73.1440425616676,74.46015029568365,63.802381651425286,62.35637623368976,66.78994393999275,64.23459894476969,56.936179964289565,59.671951418187184,54.656002,-676.367981,-731.023987,2940.0,840.0,1260.0
39.78919736849821,71.4622211677665,91.32635049169315,37.824105897919715,73.23406387882211,NaN,78.06503553653577,NaN,86.20452777769081,93.77445338819662,59.89746777681199,72.87857810325043,96.66329479626548,69.97666764552103,70.11208345631763,72.5342569693561,56.608002,-680.272034,-732.4880369999998,2660.0,1120.0,1820.0
24.44387351083864,36.83017034613309,50.343969770390224,-2.993130889140958,40.17684015551136,NaN,48.161585673592405,NaN,54.907259490693534,61.46796570442948,34.6709730583903,50.5383211143488,53.88984288239702,36.386459349334416,37.274198101764746,37.37250394058847,55.144001,-677.832031,-733.952026,2660.0,1400.0,2240.0
-7.213451383211605,-8.739578225345886,-1.23528191993044,-32.81888824952978,-9.847729610130797,NaN,-7.753130180578502,NaN,-4.0711859569999245,0.9440402791656339,-8.803062069637246,-3.6327750631339226,-4.87363798044973,-11.045555398936322,-8.894375223791211,-10.19457399790614,54.656002,-676.856018,-730.048035,2240.0,1680.0,2940.0
-40.42643262834343,-48.4612234094878,-44.16890733252578,-43.197302161934445,-56.63490482314533,NaN,-63.257760736610145,NaN,-61.16277646354289,-59.088930176095616,-50.38208887235994,-57.4472623392018,-53.6348454521036,-52.239070085998286,-48.52380221918964,-50.7394126193858,51.240002,-674.903992,-728.583984,1960.0,1820.0,3220.0
-44.38509025757556,-62.05422940107587,-71.74923504436472,-36.33111286750434,-70.34320557997937,NaN,-76.07838103442015,NaN,-79.60691704466265,-84.0257042205362,-55.089837141029406,-70.72337877816395,-81.03676358774838,-63.65695181516716,-63.14166544741591,-64.96850890173963,51.728001,-679.783997,-725.16803,1680.0,1960.0,3640.0
-28.704069911883973,-47.78265518958748,-66.23701439804705,-14.932421909832588,-52.3635381658378,NaN,-55.64449581286324,NaN,-64.61433219797291,-73.1814902913381,-34.49867133144666,-53.04559744582095,-74.91341151514212,-48.184095552497354,-49.131756643290366,-50.8943677034112,51.728001,-677.832031,-732.4880369999998,1680.0,2240.0,3920.0
9.094298164881218,-2.4048135840956006,-19.428396197078523,17.73485593513169,-1.3963536605704259,NaN,1.0571097228907056,NaN,-7.741168941326276,-16.83905780007536,10.560208028088285,-2.512855652067416,-23.914824219521964,-3.0880631553332223,-4.251202916103444,-6.2370532596047275,49.288002,-676.367981,-732.9760129999999,1680.0,2100.0,4060.0
37.93199433695752,41.4251732616785,35.22137901709327,38.170534082974314,46.12968203146345,NaN,53.4401993668675,NaN,49.792346061253056,43.89509626244077,46.94562746806278,50.40185716617124,35.36566043838934,38.87425666610586,38.41932445363948,38.483363088654656,49.776001,-677.832031,-733.4639889999999,1540.0,2380.0,4200.0
39.22158290868023,63.54223199233836,79.07081129404212,41.05203667519722,65.79297257542629,NaN,71.6342664022161,NaN,78.3470410623617,79.53247487491329,53.733004078433005,75.74139112767391,81.92843903959634,60.7976409687986,65.90361736820637,66.31390549162204,47.336002,-679.296021,-734.927979,1680.0,2240.0,4340.0
31.100652872887565,49.319561874173296,66.23526543391152,15.791556357065964,53.09354378411173,NaN,59.9659035042375,NaN,68.47033808215151,71.39330443882531,39.84537969842885,64.81932260374808,71.55488762180373,48.24845964432544,51.422212774469486,52.47579522531383,47.336002,-677.832031,-729.0720209999998,1540.0,2100.0,4060.0
4.104962255161218,5.506099714939569,14.434709030057723,-17.57374876252552,8.738281086434718,NaN,10.962266387700536,NaN,19.8598586198064,21.698566997307672,1.4511604529503603,18.41505705557507,19.47204201913715,5.740852040702781,5.858553666303095,6.716121059878446,49.776001,-679.296021,-730.536011,1400.0,1960.0,4060.0
-28.00809894371644,-34.62178917980716,-27.87653917430053,-33.944053302874906,-36.559835432691926,NaN,-43.60528748066062,NaN,-33.737096046793546,-32.49859611431728,-40.50117738895123,-32.97751354756555,-24.875042061968408,-32.97894763814597,-32.06440832149071,-32.95615937622395,44.896,-677.832031,-732.9760129999999,1680.0,2240.0,3920.0
-41.93697150458068,-60.9192718670003,-65.33242291007258,-36.0764257032281,-63.90353208634024,NaN,-73.45665000136323,NaN,-72.3339313061047,-74.99392135400423,-60.42983225666918,-67.95389878254414,-66.56067851524372,-59.628903741749454,-58.12080686258713,-58.610679093710395,46.848,-676.856018,-728.096008,1400.0,1820.0,3500.0
-31.93374670118884,-56.218778768036216,-72.70180853678289,-20.77737382640355,-57.67829986293848,NaN,-64.18767520295037,NaN,-72.33307200931199,-78.83458026207843,-46.06185906575774,-65.55659715520453,-74.99438282671389,-55.38818929321279,-54.99918638506032,-55.07632429837813,43.920002,-677.832031,-732.4880369999998,1400.0,1680.0,3220.0
2.3748721534922907,-14.294585645026324,-31.66034340733301,13.480199458370056,-14.059317777965006,NaN,-15.140298542713,NaN,-23.791640028812132,-29.56749854318936,-3.767031252580564,-20.149138693919493,-30.679215852194115,-13.077458152351369,-14.581179266370873,-13.262118245312038,42.944,-676.367981,-728.583984,1260.0,1400.0,2940.0
32.78706569391191,26.96397959569488,17.150724133855213,35.541717084024626,31.7137748154317,NaN,36.24014045803311,NaN,31.773151051314837,28.655715638951108,35.674833115928806,29.947622194534677,23.349500806345272,31.64419130408237,29.294367618286778,31.922113772175287,42.456001,-676.367981,-731.512024,980.0,1260.0,2520.0
40.91174963536422,55.60871072343573,62.14522425296953,39.87398574106076,60.34971439431159,NaN,62.9246300747507,NaN,67.47176030246845,71.25284772749761,49.08209964013346,57.627174429254794,72.01374567057967,58.80889534344366,57.77579586643745,59.92473664210742,44.408001,-676.367981,-731.512024,980.0,980.0,2100.0
34.55917589730488,56.53479296833426,69.7610676705703,27.228793964921817,58.31087714123565,NaN,60.15635956777911,NaN,72.40304434843402,79.48925685472106,41.52615727140536,59.26740926988667,81.59719413301053,57.28576316677271,56.28755036195247,57.6616653576456,42.944,-675.392029,-730.536011,840.0,420.0,1540.0
10.930325610180747,18.834571390535665,29.442284273976735,-5.301287573649299,19.99099246581723,NaN,22.931727131744612,NaN,34.01198538688662,38.36029327529457,9.054177465364948,23.7493679356442,36.944535983848205,20.078266796412805,16.945570834941407,18.051237281627092,42.944,-676.856018,-734.927979,420.0,280.0,1260.0
-19.87688489137652,-18.843163708403157,-10.175300083345935,-28.315486057142486,-19.099285693293087,NaN,-22.128803381963294,NaN,-18.87097710038796,-14.598108889693197,-28.74853788673996,-22.36019376664736,-11.537230984257416,-20.2055322935502,-22.471309352834886,-19.338538043753527,41.968002,-676.367981,-730.536011,420.0,0.0,700.0
-44.63850263516918,-49.923828782643675,-48.81491664952818,-37.55014951836716,-51.05246589082729,NaN,-59.28316678526503,NaN,-64.25926566115798,-60.46540784211802,-52.499257852344165,-57.8261426787324,-55.35690388929099,-49.54223881540892,-52.38538450234863,-49.58302397471086,43.920002,-678.320007,-727.608032,560.0,-140.0,560.0
-40.256570228539374,-54.37629060333992,-63.17941232707286,-26.881418409583624,-54.59859915202615,NaN,-60.25906643444015,NaN,-71.83673728331863,-71.71248473956132,-46.10103110907667,-62.56602615427521,-69.8554444368668,-50.87199839754874,-55.08316754310886,-53.196196509148585,47.336002,-673.440002,-730.048035,140.0,-420.0,0.0
-16.9080098907238,-30.71951436406355,-44.1271927607537,-6.495221450373096,-29.20512513233148,NaN,-29.584765188871327,NaN,-45.83932364979456,-47.62330009559169,-17.370255053946188,-33.576585494477555,-49.136376345778686,-27.43849420696566,-30.497622366638872,-26.52632014404656,45.872002,-677.832031,-732.9760129999999,0.0,-1120.0,-280.0
11.16080634524326,5.930903903648406,-3.6686129081137375,12.835764092904048,9.735973465607232,NaN,15.041470247969146,NaN,0.6777402095918669,-0.5698306477927595,17.964955512323485,10.621778042092336,-7.819820851213795,7.85170428745274,4.148253913649686,8.482605418215677,44.408001,-680.272034,-734.927979,-280.0,-980.0,-560.0
32.865171318067965,47.39608760264987,52.412656112253195,34.125281418612374,51.40861341399812,NaN,56.250039948750405,NaN,54.65970379133832,55.222404734827954,47.756685890595,51.08800126155272,51.55019120031896,46.11365336627752,46.67511265445008,46.06010964271864,46.360001,-678.320007,-734.440002,0.0,-1120.0,-700.0
32.44879021864162,56.99438763157014,73.6581547510706,33.45583905846442,59.55375660425098,NaN,62.525069891401216,NaN,68.88740010777576,71.1146444573034,46.755404675140376,52.07863273194264,72.88173205577824,50.40167087245298,57.44242484670621,52.307649197357485,45.872002,-681.247986,-732.0,0.0,-1400.0,-840.0
21.47079605647824,36.46222236611088,50.04312511372207,10.39666648436976,39.44763428233946,NaN,44.02143041852949,NaN,49.43479419126592,51.94750739466553,28.12859316601489,32.647870220133626,51.23272258699565,29.52776388232632,37.31921481605618,31.77528771702852,47.824001,-678.320007,-734.927979,0.0,-1400.0,-1120.0
-5.386671783837282,0.17641506222067635,6.955795734400888,-14.473565975312718,-1.2653645560582745,NaN,0.07616816674186189,NaN,5.2088935761328266,6.81979839660301,-4.971224082015141,-5.71097501356627,10.74524838747982,-3.316043302269787,3.931991641792576,-3.8903115662598617,46.848,-677.832031,-732.0,140.0,-1260.0,-1260.0
-31.384970575591016,-33.2914801697346,-33.548260921457725,-28.714929340122925,-42.53727593925261,NaN,-45.83008479363915,NaN,-42.20072408278486,-41.7897753929952,-36.011911907536465,-43.679957432165594,-34.301315550952594,-34.42370188629255,-28.457147421226864,-36.810106624999776,47.824001,-675.880005,-734.927979,140.0,-1120.0,-1120.0
-34.8595962205755,-44.555772538617646,-56.8684624986053,-28.682246353690168,-53.688936988653175,NaN,-55.84756968430084,NaN,-62.50548721650687,-64.04605234632986,-42.732656919034945,-55.46649556722543,-61.871528466380006,-46.06656221533321,-41.95809392263469,-46.12173788720118,47.824001,-680.272034,-734.927979,140.0,-1260.0,-1120.0
-23.38297484012328,-35.602903898707545,-53.376744767354296,-14.26002186387818,-40.755255900920766,NaN,-42.01659806205482,NaN,-53.907376764302015,-57.34180076176635,-30.94918023420083,-44.59771164096469,-60.327567484849375,-36.51471559029239,-36.170409909734246,-36.99928537283888,46.360001,-677.832031,-733.952026,140.0,-1400.0,-980.0
4.526024062545149,-2.0646279199645967,-14.028819241101951,13.489293297393612,-3.4947347941183624,NaN,-3.694458230178796,NaN,-8.269080090411714,-12.467215708723575,4.086238320121766,-3.535998401081584,-17.826678842812452,-0.3774842040322193,-3.5107901800655266,-4.389938580106804,48.312,-677.343994,-736.880005,280.0,-1540.0,-700.0
29.449632868798048,32.81158078971988,31.65679952565677,34.20092428251047,33.118940337011814,NaN,34.29760739933071,NaN,40.366806252684576,37.49573240472084,36.50849334950325,39.35497316958322,33.52233186584943,35.51651451489646,34.317428258085755,31.57370172453573,46.848,-676.367981,-733.4639889999999,560.0,-1260.0,-560.0
31.67917777389616,45.302536207609286,55.36489362822597,32.14568116272544,45.03180889966837,NaN,46.11951313645614,NaN,58.34738690286351,59.53762797213207,40.39345976330422,55.86320987697841,59.1020319869467,45.955471677253136,47.45843480052524,44.41496303205116,48.312,-675.392029,-732.4880369999998,840.0,-1120.0,-560.0
23.716314248323194,36.04868485351306,46.87535344261877,13.411366145055172,34.548630981268346,NaN,38.47281757456504,NaN,50.15662320424134,53.987020942922285,29.03188992281248,50.527895213105296,52.13467752976505,35.77161865782291,34.77052723258304,34.11864130662096,50.751999,-676.367981,-730.536011,840.0,-1120.0,-280.0
-0.1254917242261504,3.079685465437985,9.22946454918272,-12.262576258527524,-0.23236290298897985,NaN,1.8968273464470375,NaN,11.932545886093331,17.003730265093015,0.3720161882052908,19.941359263896036,13.435751722347309,3.737156200500337,1.1254149171809475,3.0207705425761007,44.408001,-674.903992,-734.440002,700.0,-560.0,-140.0
-25.21469260180955,-27.147150370533254,-22.30222668309904,-24.53352965244217,-30.87183763849409,NaN,-34.612944529462666,NaN,-26.451613628569095,-25.32363999333417,-29.356797498715036,-17.651603520796815,-23.04780980261189,-27.250884421811485,-28.869015483697936,-25.766646828810423,47.824001,-674.903992,-733.4639889999999,1120.0,-700.0,140.0
-34.65042121063701,-43.728849907187595,-45.333386295828966,-24.980671872037615,-46.36866447985884,NaN,-53.203714131347695,NaN,-51.20425331828788,-54.96134433828857,-41.960636422329536,-41.11026793195175,-50.80304785724679,-44.325807719915126,-46.080818693648624,-43.452382037944645,47.824001,-679.783997,-729.5599979999998,1120.0,-700.0,280.0
-26.341378412372023,-40.13270404210478,-50.777693543974635,-16.137486298862513,-40.75279796709835,NaN,-45.59216036930882,NaN,-52.5274662544189,-57.698157497900006,-32.30447581610299,-39.97031079835942,-57.825888133104435,-39.92511899571292,-43.859449250301275,-40.84073639793199,47.824001,-677.832031,-728.096008,700.0,-840.0,280.0
-3.633716878059863,-10.132957802146885,-22.893857952244502,5.700804808895705,-9.555940381898356,NaN,-10.490443471851265,NaN,-17.478118297321004,-23.84937062373684,-1.048292213962454,-9.328641648566336,-26.920641752904793,-9.541641862435128,-14.434177169728263,-10.675216508284368,46.848,-678.320007,-732.4880369999998,140.0,-980.0,140.0
15.361785819054456,16.539819819036996,7.225299545775757,19.54403239753596,19.938625847593745,NaN,22.74039508687338,NaN,17.923731926397814,12.935699197853868,21.06450950201613,15.875187359904066,10.163854416162632,17.19202130890254,12.369621609942843,16.733604951402313,45.872002,-679.296021,-732.0,140.0,-1260.0,280.0
29.843279469034975,39.324268719763786,43.41843976489089,26.88388263461688,44.88065681002734,NaN,47.127742599778834,NaN,50.02905948966638,51.35755796194872,35.35586395660432,38.517513660386605,51.75074259517366,42.39896944476907,40.126483588780665,45.00992873345034,48.312,-681.247986,-730.048035,0.0,-1540.0,280.0
29.09371425190856,40.08909541911724,52.1432337309955,17.56848987122642,47.35159043523204,NaN,48.39821830760291,NaN,55.74931856978016,60.718968475104575,33.59548502197592,40.59487860588796,63.85130516458759,45.62300648881524,45.89978971711199,48.9324063398079,48.312,-677.832031,-731.512024,140.0,-1400.0,280.0
10.850827850581815,11.967347971597087,20.471878465186144,-9.464373942907235,18.52166366215232,NaN,20.418646824232727,NaN,21.726081153575503,26.87227258836166,6.887186348437772,10.995840491195676,28.478365209549043,15.043056866491202,15.559936924685536,16.19537755914852,47.336002,-678.320007,-732.0,280.0,-1540.0,280.0
-8.279581805737433,-14.08112614987246,-8.061484452880144,-24.552264983828085,-9.730208616465552,NaN,-10.278020803512192,NaN,-15.993841314747684,-11.9755896799774,-19.80203435289105,-18.51034322727763,-9.187749938627828,-15.636816421127,-13.375069063608063,-14.661915048466058,46.848,-677.832031,-734.927979,140.0,-1540.0,280.0
-24.144124086803508,-36.844505400196574,-36.39715530942066,-29.309641648859344,-33.53214506092515,NaN,-37.06908049906895,NaN,-50.03714166312172,-48.22969581169497,-39.95551993206416,-42.707860618787514,-44.51208108453131,-39.468491757441754,-38.648687584083,-38.22446326153416,49.288002,-678.807983,-735.903992,280.0,-1540.0,560.0
-23.18364221696341,-36.25486538330223,-42.336994721318575,-18.193735855893763,-35.794892107677946,NaN,-39.52020717547569,NaN,-49.92364469427834,-51.52680651324395,-31.883869661176288,-41.72924678024834,-50.7403835395753,-36.3461141123446,-39.75746643205393,-37.88269299544376,46.360001,-679.296021,-731.512024,420.0,-1680.0,420.0
-11.466927482770865,-18.627479631655525,-26.619272970542784,1.2952811928649048,-20.92854073914783,NaN,-22.084261686777932,NaN,-24.65490371574979,-30.687532637027125,-10.30919367702568,-26.851588825611067,-30.840964882640687,-17.432537312966936,-22.0402751046732,-21.718400297352527,47.336002,-678.320007,-729.5599979999998,280.0,-1680.0,560.0
6.87926478559847,6.523581121820952,2.8294182510859924,17.730156454980882,4.925813777361425,NaN,6.177477496291205,NaN,8.833652440523778,4.1633872839433606,14.640737091135207,-1.5262790189896147,1.5071242149205895,7.298234295046435,6.34831252460229,3.7930141405638462,45.383999,-675.880005,-731.512024,700.0,-1820.0,700.0
23.44220920617786,33.25682257629216,41.22092071246927,28.144488084279697,34.909250137169884,NaN,38.022262497605915,NaN,42.448386718565885,41.68864169919728,35.72809764093957,29.49174845376025,40.808756961057355,33.30187799575688,35.912768605871904,34.45637221240257,46.848,-677.832031,-738.3439939999998,700.0,-1680.0,840.0
18.961225988570646,32.423669757799004,46.367279540242656,16.304505529754366,35.57736206090819,NaN,39.16478612774568,NaN,41.62767756522436,45.4742339477688,29.031493906258035,34.36560135398641,44.859396693065534,30.263098058637198,35.395775595111914,35.51680979216712,48.799999,-678.320007,-734.440002,700.0,-1820.0,840.0
7.2539218222236626,15.787539629926316,26.90316310692739,-2.932224453451039,18.35015330193313,NaN,22.35596632690983,NaN,24.195514811089303,29.307476801718106,12.70944215915318,23.573810686567228,28.289070672396257,13.253728338073994,19.359771667735487,18.55176518967149,47.336002,-676.367981,-738.3439939999998,980.0,-1820.0,840.0
-11.143242480822236,-9.396096415396146,-5.05223068583928,-19.13920136128458,-9.682761153104755,NaN,-7.853803968745469,NaN,-8.116928958378098,-3.827424030458848,-12.346271458392199,-2.401901015620455,-2.5980532573098967,-12.865834815808432,-6.280640208951051,-6.629462106650076,46.848,-676.856018,-732.4880369999998,980.0,-1960.0,840.0
-27.222856116453503,-32.700728312590165,-35.116371551736385,-27.205071052642236,-36.33076645089382,NaN,-37.97514973473898,NaN,-39.13172657506351,-38.001874679417526,-34.165423617077906,-30.845320590521244,-33.48562452412267,-35.83702858963323,-29.816590433138455,-29.17920307901344,47.336002,-677.343994,-731.512024,1120.0,-1960.0,840.0
-25.584862913362,-34.3762465929021,-44.432631585374246,-18.792963789518208,-38.91630026569186,NaN,-40.94145862933848,NaN,-44.02850728339595,-47.348316068145245,-33.12677563066616,-35.35381978066815,-43.93380535699995,-37.57461674477024,-33.31715651817878,-31.276674927374327,46.360001,-676.367981,-733.4639889999999,1260.0,-2100.0,840.0
-11.14900238049944,-20.548902402294736,-35.758490441890885,-1.8585230398726396,-25.964641367825593,NaN,-28.273228378542058,NaN,-30.965824885258165,-35.82445559444503,-16.862733736411208,-24.8031579982192,-37.17036772155559,-22.712926901132032,-21.87043340602528,-22.19793196186324,45.383999,-676.367981,-733.4639889999999,1260.0,-2240.0,980.0
12.014888865423808,6.069809241308515,-6.676127980530968,15.646955328597688,1.8733915519129312,NaN,2.963787797670846,NaN,1.6220973743897231,-2.1790247749480005,9.849844275769271,2.46376073789576,-8.009838663355715,5.801733238437057,4.6856484258875115,3.207507739007564,45.872002,-677.343994,-730.048035,1400.0,-2100.0,980.0
28.664776124454114,30.78430651556228,26.07811542449017,27.51552666091144,28.58284133821376,NaN,32.086579385257785,NaN,34.948342324834556,34.069149929147414,32.459681075398834,32.2017189035408,28.421789776084378,32.925354726767544,31.539157036529577,30.462708403239407,42.456001,-678.807983,-731.023987,1540.0,-2100.0,980.0
34.9054260723919,43.37483198665984,50.67900217529269,30.945455712475383,41.80127716383984,NaN,44.00559569224044,NaN,53.81264212007114,54.76363854946435,41.344489756708136,47.705500645515514,53.77552198765509,46.096019779292575,44.24168653477066,42.80410755994468,45.872002,-677.832031,-733.952026,1540.0,-1960.0,980.0
27.500910195418847,36.30671841655678,47.51725171063842,18.35804913533246,37.17556642218216,NaN,38.89678899178303,NaN,46.3340114031155,49.937530533662816,31.281545652392776,40.85841083961677,48.936208034396806,37.59287060745657,37.08802705842338,34.321827869864634,46.360001,-681.736023,-731.512024,1680.0,-1680.0,980.0
4.5196920202603375,7.711458177188984,15.830280155973028,-4.697563973264275,8.739970643476722,NaN,9.02709345512298,NaN,11.876000157115085,15.75245135303059,3.7421983899691655,10.754703958244876,15.655597269486618,8.619744418923393,7.948610976809993,4.718680704117856,46.360001,-679.783997,-730.048035,1400.0,-1680.0,980.0
-15.450819711599552,-16.496913477285418,-14.308099780551307,-18.92040823023131,-19.010209029260537,NaN,-20.81978128057184,NaN,-20.19137472349174,-18.30802809454376,-18.769361110526255,-16.458951697873864,-14.239838812027456,-15.616143780670402,-15.307648465507356,-18.94955319981652,47.824001,-678.320007,-732.4880369999998,1540.0,-1680.0,980.0
-26.848362472656383,-33.4555275874847,-39.3464347477835,-24.70962404394052,-37.36098206923273,NaN,-39.40449080496223,NaN,-44.01342272857103,-43.77896289288619,-32.29455040790367,-38.62820456628901,-40.95176542153595,-33.206144707822475,-33.64222091595157,-35.59581328254364,46.360001,-677.832031,-732.9760129999999,1540.0,-1540.0,980.0
-25.088643909725906,-34.42419750089043,-44.49501918887351,-17.175983166331722,-37.73290803106856,NaN,-40.760664355874816,NaN,-44.70706322262774,-46.58669857071286,-30.59497737534638,-41.254370930729216,-46.642835777648166,-33.44731426544685,-37.646215316051226,-37.28820435471602,46.360001,-678.807983,-734.927979,1540.0,-1680.0,980.0
-7.363215680357706,-13.503322576127262,-22.79599610211492,1.2633748050608804,-14.26621299585545,NaN,-14.770128193194674,NaN,-18.29393013608917,-20.390049901996317,-9.280569693538764,-14.408542740882234,-21.23319685517601,-9.470028789992494,-15.275224385288896,-13.022442741105912,44.408001,-677.832031,-734.927979,1820.0,-1540.0,980.0
6.157902113650297,8.30587289392039,2.8499794312530966,13.201446771636796,10.910722099345476,NaN,13.016377677803147,NaN,7.731054872070091,8.079170610430927,9.68190677382085,10.840029964630329,5.467410688477625,11.009250276468284,6.284873221800369,8.87851899365456,45.872002,-673.440002,-732.9760129999999,1820.0,-1400.0,1260.0
11.309526595978868,23.14259338058768,25.16028793858048,16.199909391984797,26.328332269369103,NaN,28.001232566605637,NaN,28.25316364022216,30.456447455106304,16.68402601616488,24.92801387163976,29.400941006532335,22.934397385853103,19.969028962012256,21.240489909659367,46.360001,-678.320007,-733.952026,1960.0,-1400.0,1120.0
14.095807403103928,25.817746369199536,32.955989241235464,11.833547404148495,30.365909714925593,NaN,31.372957300519538,NaN,33.49639890506721,37.37612547173467,17.368775607755424,31.37294767209877,35.837959525358485,23.03415586309976,22.645193302865316,24.203668002908913,47.824001,-674.903992,-734.927979,2100.0,-1400.0,1120.0
5.189736784209697,9.32559329045363,16.422725410571594,-1.5633009116576524,12.930052588923612,NaN,11.432334301163516,NaN,15.26223800796758,18.895390407741026,3.306449830496596,16.715171071812282,16.250930592409347,6.373821729005296,6.3969413977566125,6.688128670875773,46.360001,-675.880005,-732.9760129999999,1820.0,-1400.0,1120.0
-7.501112537165714,-6.512043122024291,-2.185947437127652,-9.625376637278434,-5.277036221566595,NaN,-6.5775181278407535,NaN,-7.19113661753791,-5.515365190126521,-10.863229148462286,-1.7861591361263875,-5.778021271933551,-10.03647111097736,-9.334681809884689,-8.813522151752286,47.336002,-677.343994,-732.0,2100.0,-1540.0,1260.0
-20.780781654429447,-21.137148539743016,-22.126560378596775,-14.605604354749717,-21.806769707557624,NaN,-26.030110248096427,NaN,-28.484131069249248,-29.822216481539904,-21.55451465239117,-22.744551735759025,-26.63362527110886,-22.927735875916422,-22.742096596335763,-22.954214828303105,45.383999,-673.927979,-731.023987,2100.0,-1680.0,1120.0
-18.932079341468302,-23.210267102655568,-27.05822227062924,-10.736273876169992,-24.275631079236874,NaN,-29.530971550163216,NaN,-31.07368027752772,-34.805343656258955,-18.97419910176028,-28.415975770621927,-31.545514255755,-22.900912312988478,-22.166393723257546,-24.452378916271897,48.312,-676.367981,-729.5599979999998,2240.0,-1820.0,980.0
-6.629620208380885,-12.54495251300064,-18.46038295189472,-1.3823232229340032,-12.16764933235985,NaN,-14.705558529941724,NaN,-18.91698258056196,-23.67569492110613,-5.543535753304452,-17.989785316657073,-22.569026700130095,-12.264145551791348,-11.43327100087414,-13.504454258883598,48.799999,-673.440002,-733.952026,2240.0,-1820.0,980.0
4.491377370774221,3.8788113140955383,0.702493418230181,8.712251449555378,5.191846396278856,NaN,4.329604049702013,NaN,3.778676587395751,-1.3968318239637556,10.450649285441543,-2.422196765236479,-0.575594969961841,5.466998128918168,2.6838309015000474,2.823486422407477,48.799999,-675.392029,-732.4880369999998,2380.0,-1960.0,980.0
18.19652494514064,26.07990948704448,30.537502987173312,19.940967610779214,27.71781587391678,NaN,29.520488016450255,NaN,33.519271000479065,30.71339559745885,29.272976075531023,20.92979105386739,32.075422246434805,28.7442293275365,26.612232920366576,28.429920462378092,47.336002,-674.416016,-731.512024,2240.0,-2100.0,1120.0
15.056485279594147,23.742787744898617,32.35488597303541,10.067066174979136,26.849933828054024,NaN,29.147209952085863,NaN,32.0576464431401,32.79194545814724,23.153292957156335,20.118312551941433,33.87989204949326,25.6430576632615,26.569571167563,28.308449775516824,50.264,-671.976013,-731.023987,2100.0,-1960.0,1120.0
7.75032354717992,13.869581907823626,22.36591841258745,-1.2575885395037223,16.619311043587775,NaN,18.506450992613857,NaN,23.357866396382327,24.583426433914447,11.24590625555598,16.05296784941545,26.55303584477397,15.75007695366238,19.252021561598127,18.86355138111908,48.799999,-675.880005,-732.0,1960.0,-1960.0,980.0
-5.542887965344812,-3.519516365334016,2.055829019947935,-12.431644137146096,-3.169003418123552,NaN,-2.4655193833348847,NaN,2.443292135963146,2.5642625725872987,-6.535848551950199,-0.15250466350472058,4.618155896598598,-2.3781811455849526,2.1383695434440835,1.283991953894507,47.824001,-673.927979,-735.903992,2100.0,-1820.0,1120.0
-19.124534255563866,-22.229277735699412,-20.479389408754844,-18.6075259922893,-25.097291228708272,NaN,-26.515909764647567,NaN,-21.39922337791637,-22.250802141279248,-23.6158154040579,-20.61501668376765,-19.334796577904577,-20.366156369726298,-18.074996297745027,-19.359040894336143,48.312,-674.903992,-735.416016,1820.0,-1960.0,1260.0
-16.02855610228484,-24.29084722260112,-28.87775340661308,-14.039264973323576,-28.061363904502855,NaN,-29.5326751127246,NaN,-27.419624649074628,-29.39647845668524,-22.599539820057785,-21.386250261262465,-27.108828855563463,-22.6235683933034,-23.66615252051008,-22.44235752638056,49.776001,-673.440002,-732.9760129999999,1680.0,-1960.0,1260.0
-11.853880372510444,-21.662474899104744,-29.892980238157264,-7.36698893250905,-21.71653465605256,NaN,-21.616997300219086,NaN,-26.199339835296392,-28.904030216333442,-15.803906718953147,-19.228783170256417,-29.43669970839961,-20.643028158547928,-21.87034617353738,-19.325697032769163,50.264,-674.903992,-729.5599979999998,1820.0,-1820.0,1400.0
1.6797886591053748,-3.7717008527650626,-11.465849478605165,4.531011037942664,-1.4737444509289608,NaN,1.1047662450125435,NaN,-5.70690860419135,-8.630918498261595,1.3671201612216435,-4.8962685298457345,-13.390520575414975,-5.587744817021421,-5.182161804584966,-3.789762250020836,47.336002,-676.367981,-730.536011,1680.0,-1540.0,1400.0
17.44715150609,16.375210554820633,12.120413907237268,14.363833839062393,20.07935773814671,NaN,23.361229542248424,NaN,15.228227746756488,14.692303619363019,16.994388764283087,14.772113007736268,7.266615476936787,10.575555469218775,13.691144430321849,14.018860902988761,51.240002,-676.367981,-732.0,1400.0,-1260.0,1540.0
26.054789464449318,28.645655638106728,30.81647697907289,20.06286017872068,29.47511048976729,NaN,30.152390025045005,NaN,31.432508645249072,33.12666028993468,24.75077507197887,27.423611681391623,28.372255982389248,22.480465036875746,26.616009982814084,24.419669503545794,51.240002,-675.392029,-734.440002,1260.0,-1400.0,1680.0
25.063153732705263,28.41810600407141,33.00947443147865,15.59200937396088,27.407828294022245,NaN,27.23451808787627,NaN,32.02389088084348,35.42067070483118,22.732584928041753,27.536897740629463,33.151076860812466,22.462253801408515,25.805022326612445,24.713773907976023,45.872002,-675.880005,-733.952026,1120.0,-1120.0,1960.0
5.064546938844432,3.1513563091180625,6.8855769088561996,-4.1957314511903,1.7241218426038931,NaN,1.7459665973113403,NaN,5.127646721320423,9.601186170950577,1.2638418645395717,6.230024946497335,10.425795266048375,2.7188568861019946,4.533698047810007,4.37736513645527,48.799999,-678.320007,-734.440002,980.0,-840.0,1960.0
-7.155962296313171,-11.98463441081432,-9.186262051621217,-11.404290436988887,-16.275702238668025,NaN,-17.120200801335226,NaN,-14.330831249516997,-9.18158932319174,-11.12364473738077,-8.932238913284493,-6.558072655401808,-9.20115910961864,-9.733059008349047,-9.666040110655032,46.848,-676.367981,-728.583984,980.0,-560.0,1960.0
-11.670968251494283,-20.595811188700804,-21.278102051283334,-12.147980934490164,-25.74548581216727,NaN,-25.852665744930327,NaN,-26.327812325740805,-23.0324855502799,-16.615692830867683,-19.50833113802426,-19.80754734373225,-15.973482677047556,-17.40004707669761,-17.530419261878368,47.336002,-678.320007,-730.536011,840.0,-700.0,2100.0
-13.67188524753156,-24.991509643139903,-29.235886245021334,-12.962800518564944,-27.90941849765166,NaN,-26.41124449453423,NaN,-33.34318163125165,-31.241039527118673,-17.891052152286253,-24.80640940609064,-30.69120473513905,-21.76030182073088,-22.59104829226497,-21.868094765517306,48.312,-675.880005,-731.512024,840.0,-420.0,2380.0
-4.860301689286438,-10.134905223817205,-13.7856307147136,1.430485207802389,-10.230257088126002,NaN,-8.181384995950044,NaN,-15.273636719828188,-14.099964880796769,-4.444515853489937,-10.148139070726039,-15.596638019995927,-6.88456892004548,-9.650639080200856,-6.971273795148091,48.799999,-679.296021,-730.536011,700.0,-420.0,2240.0
5.597178146531966,5.870499214532377,6.018407976765504,10.751572090762801,7.734583482062247,NaN,9.6888281264746,NaN,6.613310900802824,6.54114897522051,8.411179674849542,5.872191963449083,4.1710385700872035,9.849653200979981,4.937835376051803,7.249344938604826,44.896,-676.367981,-732.0,1120.0,-280.0,2240.0
15.290485645550556,23.750167312408788,27.832400796527807,16.23195568752053,25.78472883062257,NaN,28.422632729969916,NaN,26.873066727860834,27.63007718820032,20.059796305802426,26.419332470202967,26.53752954044769,25.132360495038213,21.14626129951128,23.717570164826608,48.312,-677.343994,-732.9760129999999,1120.0,-280.0,2520.0
13.079975853757446,22.554470242596302,26.609652316287388,8.710621936123934,22.517807312213055,NaN,25.50686511198553,NaN,27.704369666480844,27.931838213151067,14.663280580204376,24.779866282691422,28.450584480231846,21.53504832462559,18.800174914707505,22.50680460271414,48.799999,-675.880005,-733.952026,1540.0,-420.0,2660.0
-2.537607071892221,3.6742164137292432,5.675912014172148,-7.707630860654664,1.428290849171905,NaN,2.5926080355344325,NaN,8.296885660411679,7.942017402564742,-4.17320620331256,2.4850965423543876,8.808372726414758,2.3518065506796346,-0.1227892963969216,1.6472439613083054,48.312,-674.903992,-733.952026,1820.0,-140.0,2520.0
-11.810814238955395,-6.627797171264234,-6.098433444131572,-11.69015826744385,-9.697811529304497,NaN,-10.642276032082911,NaN,-5.3476490201624305,-5.549808998490144,-12.776612784408604,-8.73410817787797,-3.799430766008791,-7.767092028348166,-8.393508454766653,-8.462559758681056,46.360001,-676.367981,-732.4880369999998,2100.0,-140.0,2520.0
-19.482644266944128,-20.24986980033268,-23.1479342553839,-16.068724782335124,-22.508696110221816,NaN,-25.45518727045853,NaN,-25.597051312317284,-25.604458031771216,-21.845916546099044,-22.669234857057607,-24.31157549749794,-22.959188738435493,-21.354186896240268,-21.96851807137104,46.360001,-674.903992,-733.4639889999999,1960.0,0.0,2520.0
-19.21694240816242,-22.624068630878863,-28.730284286084455,-13.135185361456177,-23.093978208178697,NaN,-25.932496996842673,NaN,-30.3809790732116,-32.063564380172345,-19.67200284323546,-25.25845500331116,-31.410622853983355,-25.759156448019276,-23.276116956504097,-24.330744462695595,46.360001,-675.392029,-733.4639889999999,2240.0,280.0,2520.0
-11.84900717764694,-13.929228964012268,-20.29877707000557,-4.644184736594948,-11.664975840917249,NaN,-12.30562950287032,NaN,-19.473668547926575,-22.620248161506282,-8.468234698187132,-16.9639819373471,-22.923924976381038,-16.743911346154015,-13.946472192923812,-15.108906235607524,47.336002,-675.392029,-729.0720209999998,2100.0,280.0,2520.0
0.04298305490538157,0.728437263202297,-1.6497242248167319,5.057468945622098,3.6469750240246768,NaN,4.327729442443505,NaN,1.3135987732026475,-1.9203934307235575,4.611528909573208,0.4176247623310504,-2.0684240091518213,-0.27961209317671754,2.164214975551605,0.01926766842350269,43.920002,-673.927979,-730.048035,2240.0,140.0,2380.0
16.525483336888136,22.71211292302829,26.04202571794478,18.832267832027995,25.29698100134366,NaN,27.59563974980364,NaN,27.20250456472971,25.665786398293232,21.81201894194733,22.83894443938336,25.69698219271868,21.240408930133125,24.12533988042748,20.296780380715013,45.872002,-674.903992,-734.440002,2240.0,140.0,2520.0
13.134736100813798,19.082997970374713,26.18461745867291,11.99288157588412,22.740918701237263,NaN,24.21791621155332,NaN,24.935402491597216,25.928507000955506,16.86310694873809,22.95477215004233,26.043124366132805,19.220813937258914,21.477346052815225,17.66614704496862,43.920002,-672.952026,-729.5599979999998,1820.0,140.0,2240.0
6.762924331906935,12.099502183386948,18.830010542481865,2.59937272669314,15.430396164482683,NaN,15.460497065426123,NaN,17.420018321965454,18.22344645219316,9.05991943029826,19.980012264662168,17.838782244113577,11.253936570966436,14.19650279456593,10.891658461333028,48.312,-673.927979,-731.512024,1680.0,280.0,2100.0
-0.7678587915199606,-0.18243633723112404,2.516965983822538,-7.222123458882295,1.9486967348510436,NaN,-0.28530910610024257,NaN,0.24436687095031484,0.25626542789252627,-4.265913078806319,4.902894037347036,-0.20757190760335273,-2.754380197946481,-0.73586220374753,-3.13911824717391,44.896,-676.856018,-732.4880369999998,1540.0,140.0,1960.0
-8.049001995312654,-13.97027812451623,-16.11059816745391,-12.081862048412436,-13.366732393989707,NaN,-18.661271209050895,NaN,-19.235813033495255,-20.22782386358698,-16.62197470586886,-15.40385522064358,-19.53241480787159,-16.324914557699504,-17.45178206540935,-20.360535597990182,46.360001,-676.856018,-728.583984,1260.0,140.0,1960.0
-6.630266359326403,-11.50071295115252,-17.851993833644904,-1.516681725835689,-12.589134792189716,NaN,-19.095143618875287,NaN,-16.368261375264872,-20.098748244849826,-12.08495228527018,-17.989017020049033,-18.70975386259056,-11.786006989857935,-14.64030569216884,-16.568569427211482,43.431999,-678.320007,-730.048035,1120.0,0.0,1820.0
-2.2282741686202865,-10.251426045803424,-16.983879640275173,3.4211968968503883,-10.418990218808304,NaN,-16.754026981113864,NaN,-11.688466669630673,-16.681452260931042,-6.884378107428918,-16.247340129021453,-15.246899189191112,-6.521141005024421,-10.266453167992855,-9.14161520909612,45.872002,-676.367981,-732.4880369999998,980.0,140.0,1680.0
5.521533606302973,-0.6974382950815223,-4.783992439394449,7.33563184948295,2.3975055392178537,NaN,-0.3384543875328532,NaN,0.8119741773165043,-2.47468095823082,5.31951406023278,-1.318350454739828,-2.253336440054156,4.194134199643019,1.248196615995876,2.1086889827182285,42.944,-677.343994,-731.023987,700.0,-140.0,1540.0
9.330503684360831,11.198354588413679,11.76657605899198,11.235454516950629,13.792358640257808,NaN,13.848418323029016,NaN,16.430100798031596,15.09106545695139,15.87283978324232,12.329712424091255,14.557547642323687,16.26400898082994,13.964828315587404,13.284810313539472,45.872002,-677.343994,-731.512024,280.0,0.0,1400.0
9.079286556425473,18.908114040079077,24.64609866023299,14.335797842114449,17.92227279720538,NaN,19.489618608644527,NaN,29.701786748122387,28.648440383345594,20.83014497542309,18.40389058925613,30.357701775160905,25.364167273407663,23.35803827024592,20.17860208955776,44.896,-678.320007,-732.0,-140.0,-140.0,980.0
7.900150743090488,18.716739591199897,27.725354325627563,10.766492695203551,17.156424573773705,NaN,20.267452748765614,NaN,30.976173827359677,32.45826894184846,19.00159751489984,19.41633565362796,33.74089129325007,25.822571515579234,22.86093345893163,20.61309765411027,45.383999,-679.296021,-732.0,-140.0,-420.0,980.0
1.1419516804617196,6.528562500072889,12.675435045826799,-0.3676112399875557,2.974258501111944,NaN,5.146814763395206,NaN,10.801014929677917,14.133868654788943,4.276283664594375,0.7474005629313475,15.7887265144065,9.547357808508405,6.436372651968812,6.079013261769822,45.383999,-680.272034,-730.048035,-140.0,-280.0,840.0
-6.123152034848394,-3.79394922317308,-2.573231345329672,-6.586829168328098,-9.00536133430009,NaN,-8.869282481726794,NaN,-6.113275367306897,-2.592666606296256,-6.2430044829854525,-13.594035360989539,-0.16440134211590368,-5.289177605163176,-4.590581908311483,-4.315484925364912,46.360001,-677.343994,-729.5599979999998,-420.0,-280.0,700.0
-10.917156111463024,-13.466923360794446,-15.764212808458648,-8.642908849057976,-17.41372282682877,NaN,-18.16784954293055,NaN,-20.64358565069129,-17.76509844589742,-13.876547963171468,-21.838504693907147,-16.576141044599908,-16.22655507428332,-13.7828838511814,-12.528021525675069,44.408001,-678.320007,-731.512024,-560.0,-560.0,840.0
-8.055628110184974,-13.12551553341415,-18.39519327417051,-3.183586865282705,-15.443923611335505,NaN,-16.127426293442348,NaN,-21.98290939124708,-20.535253394725697,-11.883186056336376,-14.627176718933452,-21.169092192305463,-14.976090970361144,-13.083762700939504,-12.615450680901848,48.312,-675.880005,-728.096008,-560.0,-420.0,560.0
0.9772514198720584,-0.867154664439008,-5.772922509706144,6.527591432678562,-2.6585614451966126,NaN,-0.995698795221144,NaN,-7.056943701702443,-5.804242327269549,0.7767834532442579,1.883710806091608,-8.308711236632117,-2.234857478988403,-2.5282846285138154,-1.0076679902621872,47.824001,-677.343994,-732.4880369999998,-700.0,-560.0,700.0
6.975422807813252,7.8998725422537746,5.3868483144726405,13.655129730812837,6.511922125738766,NaN,8.385311834936429,NaN,6.736524843606523,7.383324491477814,10.024977823453824,11.57961828964754,4.069052467673542,7.3290281228305565,5.360828555359932,7.754970841645334,48.312,-679.783997,-728.583984,-980.0,-700.0,840.0
11.174202181826947,14.917934731016608,14.799140370620597,11.562359227284526,15.926575465580608,NaN,19.12168686835255,NaN,16.43376192131734,18.83283970585295,14.00996581882372,21.259755871125215,14.67123085787669,14.153842796359243,12.879863228954555,17.23572444919971,47.824001,-679.296021,-731.023987,-980.0,-560.0,560.0
9.568933810577395,12.644094653599437,15.0392160139154,2.8882620410261706,15.091397079436968,NaN,18.194947398955,NaN,15.317405790444328,18.95685347147621,9.774969807495422,20.572952848817245,14.883182721477844,10.67261318047318,12.30403897272347,17.16383516708954,48.799999,-677.832031,-728.583984,-1260.0,-560.0,700.0
3.6742059309807646,2.8543959402926022,6.083137102106328,-5.390260539921894,3.035847560253913,NaN,3.074763865859058,NaN,4.1053529396154405,7.295744056108723,0.32058941865952767,11.584216397012035,4.140988599717364,-1.3663428717757644,2.10794854199106,6.126639495823758,48.312,-676.856018,-732.4880369999998,-1260.0,-700.0,840.0
-6.634463084179132,-10.817123925270012,-10.187945924805978,-17.721938965483506,-12.625240372681628,NaN,-14.645977913609116,NaN,-14.186205240887537,-11.492429857027116,-13.497600794024308,-5.73355543741308,-13.509222731202971,-17.40474913193159,-13.173299454729545,-7.206092900347326,48.799999,-679.783997,-731.023987,-1400.0,-840.0,840.0
-15.800072324618736,-25.66981217391596,-28.864906076793403,-26.058922876378688,-26.398990768915503,NaN,-29.456611139510432,NaN,-32.74715581994029,-32.348571469692175,-25.596976532538903,-23.879378745785903,-31.7766092581635,-33.37138424066852,-27.73759412200413,-21.11328735545316,48.799999,-676.856018,-732.0,-1540.0,-700.0,980.0
-17.3469264605924,-28.35428592764641,-33.602969025257956,-27.2579275353795,-26.727144261389963,NaN,-25.60715585088103,NaN,-35.58785821719207,-37.13704960365872,-25.881355212360656,-25.524785930382844,-35.286864755462794,-34.08338865990741,-30.10997838434972,-22.412411851465205,47.336002,-680.272034,-731.023987,-1540.0,-560.0,980.0
-12.709896057604771,-22.367472617438075,-28.295290270991426,-21.85039400653504,-19.227132702309852,NaN,-15.848819005182976,NaN,-27.710529114322547,-29.93485552544657,-17.928632162259184,-17.721643341123762,-30.385524667867543,-24.566873906215466,-23.127199519612542,-16.730013101057963,48.799999,-678.320007,-727.608032,-1540.0,-700.0,980.0
-5.20511349103963,-11.422336975455288,-16.534436509110584,-14.266767512127046,-8.56465489331489,NaN,-3.4100750315117567,NaN,-14.661264961039029,-16.6130086459417,-8.708318983290681,-7.3537322048723075,-17.714397308071092,-12.03018596284637,-10.993725850420825,-6.83961727172468,47.824001,-681.736023,-730.048035,-1680.0,-840.0,1120.0
5.491572326347365,5.439732073299201,5.579402740055245,-2.0174786583742814,8.626402940616455,NaN,14.542838245948412,NaN,6.452707069548959,5.131264821627247,4.779112488824824,7.5192796650300355,6.297362591672056,4.689794856501724,7.610864555854221,8.370150669568522,45.872002,-679.783997,-728.096008,-1680.0,-980.0,1260.0
3.0331919428765537,5.2160854473444775,8.547183836011886,-1.9617913709035228,7.654895099902238,NaN,13.398297423295446,NaN,9.121992581774725,8.138702476498972,3.133123682586564,7.036900905759508,11.428453712781357,5.991339268043707,8.495772331850166,4.937975231570976,46.360001,-682.712036,-728.096008,-1540.0,-700.0,1260.0
4.513903876555635,9.466473649259735,13.237181206900992,1.699548426093752,10.20263615142148,NaN,15.551556510605083,NaN,13.677280067957089,12.100467484025572,5.224367124886466,10.14439944337048,14.799537245877264,9.108220686703351,11.645100116566468,5.564061015647478,45.872002,-679.296021,-731.023987,-1540.0,-840.0,1400.0
6.493385654693426,8.103564197477464,10.705229774752492,5.312536746663868,8.690245115710182,NaN,11.530647183476503,NaN,10.696902349469676,8.280794235187074,4.467187426272967,5.197054777720584,10.62433391716933,8.590278521877202,8.998439480963894,2.282040609546508,46.360001,-679.296021,-731.023987,-1820.0,-420.0,1260.0
0.22605982436683536,-3.4065300006343846,-4.088324008044028,-0.7163590998931249,-2.4011283257939127,NaN,-2.9071647270170398,NaN,-5.37986701791727,-6.675297418162315,-5.428939733595551,-9.508895736833757,-6.423631204964068,-0.9651600216632928,-3.548613656747684,-10.985859929737163,44.408001,-677.832031,-732.9760129999999,-1540.0,-420.0,1400.0
0.6199290646124583,-2.2168934843417847,-5.144031772078652,3.9850318319912046,-2.435225857817287,NaN,-6.22257597062477,NaN,-6.348365223686093,-7.2319942911526125,-3.025522205228887,-11.366834282903827,-7.6964268739442625,1.3296037572505937,-2.7196923029559823,-12.016503146307114,47.824001,-682.223999,-730.048035,-1400.0,-280.0,1540.0
1.1977853326809556,-1.3860580873728658,-3.7236138707491855,11.624607028961632,-1.74212003298899,NaN,-7.455760952648595,NaN,-1.8063204998427016,-3.119103197725441,2.5990398676159154,-9.570190575360934,-2.929245019910536,7.281681796615245,1.1666985800503589,-7.711742758482867,48.799999,-678.320007,-732.4880369999998,-1260.0,-420.0,1540.0
9.105599296124264,12.265727185821818,13.580563501914796,24.508401762989365,12.29476714954518,NaN,6.626629717137199,NaN,17.300978399499108,15.492382269234444,16.36439682813524,5.978022869257596,17.1992178828521,23.10778266642217,15.607570126325099,7.937490698665907,46.848,-678.320007,-733.4639889999999,-1260.0,-140.0,1680.0
5.392783342608537,15.581551531398295,21.51009022238003,24.568696149035127,14.358379023917564,NaN,9.829422046271885,NaN,25.985690068481166,24.887459709177286,18.419309565282663,12.952589489968217,27.03227236279479,27.084564239129865,19.05417784626257,12.180592936191452,48.799999,-679.296021,-729.5599979999998,-1260.0,-140.0,1680.0
6.723061918746691,21.311062681885776,31.105988017186892,25.87508250019054,18.256172405728137,NaN,12.637934670385922,NaN,33.011870454376066,32.848419135699395,22.23049000697776,18.972488963389797,33.20443708294355,29.728954076179846,23.361590527663783,16.27318504563757,44.896,-677.832031,-731.512024,-980.0,-140.0,1680.0
12.87089723691451,26.597056504580923,36.800641452131664,26.316998083834736,24.57641610415446,NaN,17.466564745317953,NaN,37.779962483673,38.54026346129726,25.20935404695925,24.89775596386142,37.434760927378335,31.050651073300408,26.370457796798856,22.020728849336656,46.848,-677.832031,-730.048035,-840.0,-280.0,1400.0
2.2568765570944693,9.627270938556489,16.116242856495607,9.562863334902575,9.850606619919416,NaN,2.858156105168966,NaN,14.180622463481383,16.496384090854352,6.624028307565772,9.432810552135475,15.2093556741597,9.459225674061578,5.379589559618704,5.366701487431524,44.896,-677.343994,-727.608032,-980.0,-280.0,1540.0
-2.560297701116059,1.8726424634836,3.476176108000777,3.050938977854017,0.5883010408948748,NaN,-5.856921949890022,NaN,0.8182676370692531,2.6820591503571847,-2.7120256889938865,0.18259330334071333,1.4333985639559912,-3.0558229788037097,-4.482550406968277,-3.341524856310943,45.872002,-680.76001,-728.583984,-840.0,-560.0,1540.0
-1.1584676531898728,-0.24136062201530584,-3.4546016130261656,5.211188406715322,-2.5693901405757367,NaN,-7.202065301608356,NaN,-4.750989585724296,-4.903127975967273,-2.8515663414366,-4.458415540430058,-5.744061265819415,-7.083322129336455,-6.762025302569655,-4.002092805923362,44.408001,-678.320007,-730.048035,-700.0,-420.0,1400.0
-2.7560953992917576,-4.31312340163272,-11.88752527744574,2.324609194157431,-7.32249060465971,NaN,-7.549511450804075,NaN,-10.743755986221936,-12.46460789891764,-4.328326839461409,-11.894679333055956,-12.0418977387262,-10.654747733143392,-10.711629195275371,-6.17817214297764,42.456001,-676.367981,-728.583984,-840.0,-420.0,1400.0
-2.9199024361148145,-3.7200792305487647,-11.677331088445984,-0.3148852731555501,-5.8762050110289,NaN,-1.8990108172337523,NaN,-8.574747673160378,-9.594721700813022,-1.840747672878868,-8.92403370035154,-10.277098963310802,-10.101921365808709,-7.153428717882943,-0.2672256817848667,42.456001,-678.320007,-729.5599979999998,-840.0,-560.0,1260.0
-4.989642836477092,-8.13898240824326,-14.311234791292415,-10.536262138170494,-8.734047111285232,NaN,-2.287666095888005,NaN,-11.133690039264737,-11.445908376455977,-3.134907939052128,-4.004216154010116,-12.155821495936323,-11.54012035283668,-7.282144905527091,3.131696604586064,43.920002,-681.247986,-727.119995,-700.0,-560.0,1400.0
-0.8202868521433363,-4.781876275475635,-6.597108692927818,-14.120871140975696,-4.624492039955836,NaN,1.8741254245577312,NaN,-3.96766015946261,-4.369775023318819,-0.7941599687543953,4.896081802786054,-3.5471057999129747,-5.33965407236451,-1.2964531989499992,8.0943112966754,41.48,-679.296021,-724.6799929999999,-700.0,-280.0,1260.0
3.974604223895039,-1.5570662437853042,0.40724538601375304,-14.193106395381413,-0.5650152446806811,NaN,5.952266589251937,NaN,-0.9511738618441697,-0.46354425459333015,-0.9058661891228494,6.681111214736143,1.9832805462379393,-2.306031287179162,0.9183321966642016,9.525094431235168,42.944,-679.296021,-728.096008,-700.0,-280.0,1120.0
0.4047744459169375,-7.109600220848815,-5.817076800200238,-20.734856574941126,-5.127968892931066,NaN,-0.5014962269315544,NaN,-9.89092355624698,-7.063559404012662,-7.0060889465176075,-2.4086138845746903,-5.987547512296496,-9.292153065535263,-4.982750922975697,1.8676587569802776,44.408001,-679.296021,-728.583984,-700.0,-560.0,980.0
-5.6665934486118,-12.357232353108344,-10.591968374600215,-20.425441643304502,-9.74943056148667,NaN,-7.357132599492481,NaN,-16.61403137811393,-14.20089783340988,-12.586854093907556,-8.543038927800962,-14.66541866749676,-15.857091262923513,-9.74832091949579,-5.9616966319154345,44.896,-676.367981,-725.656006,-560.0,-420.0,840.0
-17.187777221593112,-25.2587606975944,-24.102598686062727,-24.944444921689783,-22.525516429602277,NaN,-21.36868878293877,NaN,-30.593276652067132,-28.89284734526873,-23.080079004960822,-20.818758162857783,-30.666519547397797,-26.77959852034981,-21.870074432513665,-19.317108036167166,45.383999,-681.736023,-729.5599979999998,-280.0,-280.0,980.0
-16.849038451687917,-24.07150653362269,-23.45215028960148,-19.928009210005857,-21.754373139599743,NaN,-20.94771667114132,NaN,-29.60132475296388,-27.13021173024916,-20.431591744118936,-21.46762657675868,-28.94772810932516,-24.768660944933387,-19.954335566025794,-19.69312947819129,44.408001,-681.736023,-726.143982,-140.0,-420.0,700.0
-8.157148029194431,-10.253414454884243,-10.236749934099535,-3.610608533532587,-10.804990443780868,NaN,-10.912198841526804,NaN,-13.53622706541624,-13.313732979747396,-7.923201706349057,-9.396074060107635,-14.215147072265099,-12.639375826002784,-8.488374166349367,-11.162211706237702,45.872002,-681.736023,-727.119995,-140.0,-420.0,700.0
-1.8006610175582192,0.5956470767368671,1.1403711126520084,6.442162312216972,-0.25609952730947494,NaN,-1.7854485382387488,NaN,1.8737923349110983,-1.0387366223547563,0.1637267069035117,2.9937092412589514,0.11327155187552868,-0.04527048193247335,2.8878110272079085,-3.5133061150099083,46.848,-682.223999,-727.608032,280.0,-420.0,700.0
7.286381547752938,10.43620971011847,12.582344719249257,10.191934693481778,11.789226804711609,NaN,11.882619395883003,NaN,15.08524185199404,13.068888609939323,7.778009636004227,14.229915968188658,14.318067905317724,10.448205505089723,14.330927199957893,6.82206217625005,46.360001,-680.272034,-729.5599979999998,420.0,-560.0,700.0
8.99965780819106,10.426745005150288,12.394677595437267,5.430449192731532,11.89747299962178,NaN,11.541243380587716,NaN,12.887551265406367,13.030116745528211,7.106526747715955,12.716793987963683,13.195044520986151,8.846808647025526,12.85228148349278,4.594139617599391,45.872002,-679.296021,-732.0,280.0,-420.0,560.0
5.756272825678751,7.534545331140214,10.80836440664736,0.7251730777164032,8.299548954928131,NaN,6.51992126930292,NaN,10.559537179236383,10.54513653794604,2.800255785142996,9.484235862028525,10.237188600665815,7.563675393413299,9.896968065026563,1.9680132054513169,43.920002,-678.320007,-730.048035,560.0,-700.0,280.0
3.414972862327222,3.973352731602215,4.806175020263769,-0.33494587666956493,4.990879293073944,NaN,3.455112678701747,NaN,4.190756074107058,5.181426857511138,-1.7835401806717237,5.268026066388284,4.52152440930366,3.0433424714258246,3.8221556190694015,-0.5159629028752932,45.872002,-680.272034,-729.5599979999998,700.0,-840.0,420.0
-0.976005146255186,-1.1654983050175591,-4.307086126163132,-0.001438965303275197,-1.0426368750861028,NaN,-2.8285931374276214,NaN,-4.658732751471658,-3.0445834116366046,-4.893650118045577,-2.347190455876503,-3.601472554210591,-1.3155968434959715,-4.880552949780364,-4.127439556857507,47.336002,-681.247986,-735.416016,700.0,-980.0,140.0
-1.5346928096678316,-1.0178990069912643,-7.094837828041479,3.64298220709314,-1.8682712001001736,NaN,-2.860552445555873,NaN,-3.830405762848596,-3.8561991947933287,-3.0960918881897594,-4.367986052453046,-5.007141215433262,0.6831188903098674,-6.523697314356982,-3.680613580491928,46.360001,-682.712036,-731.023987,700.0,-840.0,280.0
-0.9539090464920628,-0.6724978141504067,-8.888340031387793,6.1486503552155325,-1.8406093552232343,NaN,-2.6176149385203127,NaN,-2.21774495854567,-3.7259262491108616,-1.4021192722535063,-2.9607812340201694,-5.045592141809811,3.020358962497845,-4.683607950730986,-2.9864770324942183,47.336002,-680.272034,-733.952026,840.0,-840.0,280.0
7.388239450055696,10.70872658359695,3.3838073675755966,13.25011014535008,10.353277065689895,NaN,10.947107603855033,NaN,9.5663110291123,9.855311478295965,10.03256488786834,7.5749502712125505,8.043666517180231,13.890256561452391,6.613596730580511,8.787000913248676,44.896,-677.832031,-730.536011,980.0,-840.0,280.0
8.551260774651196,12.79314056176036,7.383118588905942,11.472797981003673,13.730840310859596,NaN,16.77566500769072,NaN,12.555154216444588,13.694937140478112,12.958573587223423,8.45070390020907,12.424466259168495,16.50774186516891,8.416026948016391,12.689091825448148,47.336002,-677.832031,-732.9760129999999,1260.0,-700.0,280.0
3.821634831722456,10.989103035615877,7.540670642047235,7.239465192674029,11.525817368358206,NaN,14.309264324676654,NaN,13.436000992361407,13.629373170108051,11.01199010527834,7.779801061440121,13.91300769666865,16.063751299862908,8.147939959091463,12.17432890651914,47.824001,-678.320007,-732.0,1400.0,-140.0,420.0
6.244751037711686,15.172434856410415,14.155212330792752,11.671471108013748,12.786461718083352,NaN,14.84159678218948,NaN,20.443172562745552,19.469823595747226,16.61148200362033,12.91919518522254,22.793480651085968,20.340073316396236,15.132172905923518,15.731049517999788,45.383999,-676.856018,-732.0,1680.0,140.0,420.0
3.478824872798417,6.8504186025515965,6.81748898545521,5.835100824198532,3.898619797304857,NaN,2.447082498452711,NaN,11.13226803720431,9.534155658198461,10.472224661911785,4.338398060691961,12.212725815605038,11.112649888689305,6.387633517160062,6.633825091316633,43.920002,-679.296021,-732.0,2240.0,700.0,280.0
-2.077453925714001,-5.384190933924622,-3.675897024610853,-4.8912526919177965,-5.260469195244011,NaN,-8.585385377302387,NaN,-2.44119602989982,-3.036567781439493,-1.8813268159187304,-4.369453485272331,-1.1137957830458516,-1.2004288050801555,-3.6533855046215535,-3.40962584238218,46.360001,-673.927979,-732.0,2800.0,1400.0,560.0
-8.160454531927275,-16.252984284869015,-14.62517050267412,-10.845814557718883,-15.381283246355151,NaN,-18.303468272446448,NaN,-15.5069998024093,-16.461018045930523,-12.007644751226376,-16.07393188293978,-13.718129301464575,-14.032779728906013,-12.278588465833264,-13.607086237543468,43.920002,-671.488037,-729.5599979999998,3220.0,2240.0,700.0
-4.776300319710612,-14.163456181974189,-12.227526712549922,-6.314722985587785,-13.931818651961692,NaN,-14.74776049270794,NaN,-15.579504334078216,-17.840275027565635,-11.012776117084634,-16.136005802441417,-16.64565428762244,-16.307889308007983,-12.936170024573896,-13.72731920459047,46.360001,-674.903992,-728.583984,3080.0,2800.0,560.0
2.3749774132651087,-2.4975252064244464,1.0919897654300903,2.6146358558507377,-3.481891613462772,NaN,-3.4687308218263686,NaN,-3.781419492557069,-5.573643272781857,-1.7522383063104536,-6.347197913699876,-7.653600576342064,-8.226669246572413,-4.68510530986576,-5.162704524601596,42.456001,-677.343994,-728.096008,3360.0,2940.0,560.0
8.539362440389155,4.038275131548796,8.060042641015311,5.423366080543388,3.389296911207611,NaN,3.0433525771792853,NaN,2.515887850949545,2.1713115972160324,4.4512682841791245,1.3940906923071488,-0.7995982951734699,-3.192072263535761,1.0533130690632997,1.1770931652073626,49.288002,-674.903992,-725.656006,3500.0,3360.0,700.0
11.298300737044524,7.491107237312758,12.713267834145691,4.151090006571913,6.884275780781846,NaN,7.951189117449968,NaN,9.414160662775778,10.259030848670504,9.633320675880137,10.551460185374156,7.976852401964174,2.9218395758631255,7.557735457433685,8.237173272300748,46.360001,-677.343994,-728.583984,3220.0,3640.0,560.0
4.763526220855054,5.736333689414564,9.671526394131277,-0.4624309740262019,4.104770558516581,NaN,5.698547598370507,NaN,5.756939251811747,7.735072586528947,3.827339980679616,6.954971413513592,4.554469055005803,-0.5992500564455152,3.5042477410712807,2.638881821803908,48.312,-677.832031,-729.5599979999998,3080.0,3640.0,560.0
-2.5224732287534546,-0.9092526808172816,3.3155577082383285,-3.438885126095159,-2.906028783870624,NaN,-2.2192545459570305,NaN,-0.3955214835388557,0.3898668479425113,-2.681349773172861,-0.11252859907925104,-1.627010117398878,-5.518509313050017,-0.9067178552982118,-4.167407298562895,48.312,-679.783997,-729.5599979999998,3080.0,3360.0,420.0
-8.120222341625517,-6.7237032995642485,-2.826462236130487,-7.357994277855181,-8.063830291950591,NaN,-8.246929110977945,NaN,-5.58692430795162,-5.585220951299994,-6.273659388209317,-5.178502112775452,-5.583465502513397,-7.215153817677854,-3.1883643984912964,-6.779214108853448,50.751999,-675.392029,-732.9760129999999,2800.0,3080.0,280.0
-14.91212549507214,-12.507032413802419,-13.056531254034798,-11.165889657216496,-14.158032221248012,NaN,-14.012961112030723,NaN,-13.9646440746722,-14.992478302639045,-11.675100464015895,-13.34218141159768,-13.598006553484982,-12.36422773023073,-9.042007712790815,-10.478971538481495,51.240002,-674.903992,-730.536011,2660.0,2380.0,140.0
-11.348617686276416,-5.030345967825961,-8.904128584109987,-2.052367615135714,-8.392406170110345,NaN,-8.527272194774051,NaN,-7.352245632001427,-7.905756908391251,-4.528811166419051,-7.166339335246308,-5.9063551468559865,-6.1779266117381635,-3.1919261755163313,-3.63996193412446,50.751999,-676.367981,-732.9760129999999,2100.0,1540.0,-280.0
-9.69118817508603,-4.789752736187562,-8.895620429535594,-2.68903647554803,-6.786481387427076,NaN,-4.976209152596722,NaN,-8.825356830564825,-6.612397248636161,-3.820135922148285,-3.212835225008586,-6.184221875503616,-4.906930262652706,-3.6735277553828674,-2.696452170034984,51.728001,-671.976013,-729.0720209999998,2100.0,700.0,-280.0
-7.697457945006566,-4.757246167622876,-6.27462840729318,-4.373889810729052,-3.6017503468710608,NaN,-0.30391945387531066,NaN,-6.906766119052548,-4.796851501541648,-3.36939907764954,-2.653438476391505,-4.472780183973642,-3.174000656817017,-3.296772512014712,-1.94644894134226,49.776001,-676.367981,-729.0720209999998,1820.0,140.0,-700.0
5.414810438029054,10.64859923625311,15.190021930247067,9.71748218250219,14.81274915979256,NaN,15.821944696693972,NaN,14.098189743417684,15.402380512572666,9.116278233023449,11.96822273939946,16.333988974303026,12.842508185933047,12.599861754717349,12.910229611962125,47.824001,-676.367981,-731.512024,1680.0,-280.0,-840.0
7.865466493378158,10.778208338240429,18.483887931377847,9.372729221739505,16.37352568960865,NaN,14.62555907403296,NaN,16.517914632382592,16.58642646020342,8.668400572784194,13.394772424018484,18.2841338141987,15.067601575836951,14.430045870666529,14.247836904684712,49.288002,-675.392029,-732.0,1400.0,-700.0,-1120.0
4.391027067499657,5.735379078337526,14.7819376998981,2.860306229910026,11.314971431966747,NaN,8.855352076447456,NaN,10.195627861999478,9.805715283069087,2.492453932993122,8.910376625540511,11.6288664103443,9.6376600364973,7.744451947002883,8.448303571986347,49.776001,-677.832031,-730.048035,1260.0,-980.0,-1400.0
-2.5749388672269458,-2.222586888271311,5.6936508183211885,-3.18478560918731,1.7241678792083615,NaN,-0.9401810863416302,NaN,-1.356961065249669,-1.125823082858256,-4.09821019947301,-2.5014790414109758,-0.1869829979878911,-0.25202517759065585,-2.9425651618712942,-0.6694076236039418,49.776001,-679.296021,-729.0720209999998,1260.0,-1260.0,-1680.0
-6.199558305356463,-9.827316247115796,-6.713282937376726,-9.705608576136928,-8.167270522425103,NaN,-8.645316271648284,NaN,-13.570860201420244,-12.40669504482332,-9.646399205708892,-10.852512109074446,-11.70002174550766,-9.147650683652849,-10.869890019330814,-8.493281271276686,49.776001,-677.343994,-730.536011,1120.0,-980.0,-1680.0
-1.4758202038733517,-5.401420283663364,-6.067758609458137,-3.6898055065513145,-4.066288883205945,NaN,-4.174230868768415,NaN,-10.408585788647558,-8.859193137204942,-5.569548070356608,-7.479437614795469,-8.919671584430416,-4.680303679918254,-6.287345763034873,-3.9380277279740654,49.288002,-682.223999,-730.048035,1120.0,-840.0,-1680.0
-2.0968368391263343,-5.8512756303197175,-10.313740516415823,-2.2109191419795318,-5.085489369968928,NaN,-5.518591102003774,NaN,-11.06819768871318,-12.236284108351398,-7.02506362176752,-10.161664855828853,-11.13280655092628,-5.35000237205846,-8.637142195557086,-5.002424357233124,47.824001,-681.247986,-728.583984,980.0,-840.0,-1540.0
2.4414302972522326,1.071388958291265,-3.4317174354483075,1.8927957656986591,1.098605370793352,NaN,0.7307338646923813,NaN,0.55609598251922,-2.4062385412135177,0.5729779246238662,-0.2785135119681235,-2.0410018603952755,2.0139499174419253,-1.2484289280492495,2.163368769172268,46.848,-679.296021,-731.512024,1120.0,-840.0,-1400.0
9.039088956211852,9.217662026896804,6.294257880218344,8.398535339226378,7.305004917205872,NaN,5.969728802730988,NaN,12.91653536898288,9.174716260832817,8.935587833362947,6.3811529402764835,9.181235743039647,10.801206306304849,8.538378121377498,7.778602009285518,48.312,-679.296021,-731.023987,1120.0,-560.0,-1260.0
9.9779741379402,10.155956773042266,6.569284435407594,7.808357837113504,7.1393036155752085,NaN,5.729642399714054,NaN,13.497108567550514,11.484565112745232,9.013746360851034,9.33612563900659,11.29525770836933,10.99587773916993,10.07569016970409,8.060455381833684,49.288002,-683.687988,-732.9760129999999,1400.0,-280.0,-840.0
8.065481307867957,9.24437571315156,5.730970885957856,4.9853051743361965,7.282443731033741,NaN,6.332454293638601,NaN,10.594563731951167,10.834579996706644,6.518476034657377,10.33204652754078,8.003547569470406,7.1587660426318225,8.261036775377864,6.4815420891702615,47.824001,-684.176025,-731.023987,1540.0,-280.0,-700.0
-1.4481849470300587,-1.9330535622917848,-8.42621401811168,-8.327216193796833,-3.453544261098157,NaN,-3.103400197573932,NaN,-4.856939727408204,-2.8585497331905145,-4.401083013042022,1.7864630044979573,-4.488709730494763,-3.4903836008341487,-2.050819033123005,-4.457500736797605,48.312,-681.736023,-733.4639889999999,2100.0,140.0,-140.0
-1.1049932090482186,-3.9215466832140367,-7.259091700547267,-8.199297762325283,-5.361004621259242,NaN,-4.542262789500985,NaN,-6.391536631995023,-4.903407875173556,-3.528669899290171,1.5564217653123276,-3.155645055862057,-1.9450065277197963,-1.4324901011320654,-3.710721982501559,44.896,-684.176025,-732.0,2520.0,560.0,280.0
-2.3269800081949623,-7.490882096075526,-6.441898187797111,-6.756899096730136,-8.672779555781329,NaN,-9.247386962837126,NaN,-10.49469013214986,-9.96944357642751,-6.260366586069717,-3.676181128348861,-10.665599065897228,-9.128885662703494,-7.606012753637105,-9.46351627390132,46.360001,-684.176025,-732.0,3220.0,1260.0,700.0
-4.981401380825035,-11.649532965897029,-13.515445280324428,-9.518776957662393,-10.285711504856303,NaN,-11.000298327024758,NaN,-16.243380670691156,-13.65668436296642,-9.45632269636786,-7.228368743450682,-18.285730886777124,-14.577782594810856,-12.90704477313316,-13.695117166999708,47.336002,-680.272034,-730.048035,3920.0,2100.0,980.0
2.504120599335398,-1.8601049122188784,-3.2338659727408894,1.1579137903930816,-0.9811077910329616,NaN,0.09738594417204909,NaN,-1.9487976586983349,-0.6937613562833927,-0.009417064101205908,0.6645412249802799,-3.5337571602188684,-1.7034313183125251,-2.1533679635854215,-2.7750924615087182,45.383999,-686.616028,-732.0,4620.0,2800.0,1400.0
5.944973162076352,3.5237757534769756,0.6466808600679399,6.608960148143963,2.6776850366649194,NaN,2.7310661468050927,NaN,5.079256360001497,5.789842965424455,4.672746190980004,3.971591867918728,4.730060355239713,3.6164856995571446,1.3331625991196534,1.4639680274386604,44.896,-681.736023,-730.048035,5740.0,3500.0,1540.0
9.09320915622571,8.206086339006854,3.2689946683044657,8.054941147888604,9.268780052394735,NaN,9.653916036399341,NaN,9.87409968117188,11.403828709210249,7.984000439813655,7.723240502319348,9.469509998248743,5.809523119767681,3.6553248113067536,4.35667046685367,42.944,-685.640015,-728.096008,6160.0,4340.0,1820.0
4.216667633492008,3.649504154618697,-4.186113655769299,1.850284134305312,6.359213530325253,NaN,7.169857518117889,NaN,6.397118242621215,7.729064149517407,3.470059279065661,3.276996359087286,7.5507613348600655,1.9579002012748992,-0.4118350734959643,0.9684805843347783,42.944,-680.76001,-729.5599979999998,7280.0,5040.0,1820.0
-3.369144463232552,-3.524197126623436,-15.416765019055408,-2.804974031069743,-2.389116415266006,NaN,-1.2124505629495395,NaN,0.3810606103149548,1.288637386509696,-1.613186189249788,-2.636670860463989,2.489964577368143,-3.453410092431804,-3.972222458853019,-3.511026791520104,45.872002,-682.712036,-730.536011,7700.0,5740.0,1960.0
-3.696941358211364,1.096553149911007,-12.340213624075243,3.304103087243788,-1.8208339774392608,NaN,0.0633407410746631,NaN,4.7889637698364895,4.210776896770517,2.2206257576852506,-0.17485960411854623,5.66716824074359,-0.4616404342414591,1.3245009994719343,-0.10464211280070648,43.920002,-682.712036,-724.1920169999999,8260.0,6020.0,1680.0
-5.266196167376758,-0.3405607214912882,-10.0052512654047,4.213454440778614,-5.765899860474516,NaN,-1.7252372145761532,NaN,0.5906667367303868,-0.9477019819943895,0.7951432783279124,-3.4438021269258736,1.1657419770751012,-0.5812110509780934,1.3826258741448882,-0.1146724778039304,42.456001,-682.712036,-730.048035,8680.0,6300.0,1540.0
-9.177949915124632,-3.9977583168634054,-3.9723131724443967,-1.5907344360580846,-9.632247815442614,NaN,-4.886469182608256,NaN,-4.045648347543278,-5.321422858479953,-0.9339562069154654,-4.11059026126882,-3.133907560140911,-1.850691827463744,1.1096441610059455,0.8309860414649723,43.920002,-682.712036,-727.608032,8680.0,6580.0,1120.0
-9.958640197466035,-6.354945319784648,-0.9471571149766176,-2.971086267481561,-8.462707605939059,NaN,-6.334011184400115,NaN,-6.003223220147029,-8.701406779953729,-0.4789643305363234,-6.526430042930306,-6.868515074748938,-5.222733105669279,-1.2598152671152196,-1.1787722704779606,45.872002,-681.736023,-727.608032,8960.0,6580.0,980.0
-2.9159193413926054,0.7866837860798195,8.73651214817252,4.707059735449976,1.16968479533734,NaN,2.5197286084919184,NaN,0.04597695283061098,-3.1407690289174046,4.280573004857121,-0.8984231059781806,-2.030189303009624,-0.8391973994372612,2.3931054778633207,2.3779066611247544,44.408001,-681.736023,-726.632019,8960.0,5740.0,560.0
6.379922691450657,13.554182097819822,26.464437096864685,12.760105544113747,14.002187774730688,NaN,13.156265464505468,NaN,13.508110704318556,9.99809812886488,10.269646431764532,7.882815732912897,10.794253099864616,10.962798276401594,11.658900685442006,12.262820860390116,44.896,-680.76001,-727.119995,8960.0,5180.0,0.0
7.315674348841485,10.900782354418768,25.341549611639238,8.34899410998095,12.061818848581062,NaN,9.975578670781672,NaN,11.086932644998736,9.111073075527534,6.600585800130521,5.050844605170348,8.05844082712176,9.07354988416704,8.909285163687882,9.972259826639908,45.383999,-681.736023,-732.0,8820.0,4480.0,-280.0
3.763363378554631,3.6102375909816873,20.51349813210387,-0.29719522028370116,5.7264035759681535,NaN,3.810158472131632,NaN,5.331741686885546,4.804302577770824,1.24238914035286,4.088752670456649,4.678249414912134,6.7409245305283445,4.995189658126836,6.963393832539534,47.336002,-678.807983,-732.9760129999999,8680.0,3920.0,-420.0
-2.765185288129273,-6.077312962866618,7.639193294155784,-7.137089663816855,-3.9705233510394726,NaN,-6.423700028237822,NaN,-5.903337001647128,-7.682799068245914,-9.0476190949326,-3.398510031021467,-6.343557599411269,-3.48929345984429,-5.039468923508519,-4.417228880303686,47.336002,-678.807983,-731.023987,8400.0,3360.0,-560.0
-5.299368138766119,-11.9231052937765,-6.049972114726,-10.633872336611876,-11.176512661623384,NaN,-15.169727453343535,NaN,-15.40087791909109,-15.892851386755295,-14.700303313346115,-10.048787777143723,-13.629392066632104,-11.719663733705792,-12.594994637754382,-12.370162820751256,47.336002,-681.736023,-733.4639889999999,8260.0,3080.0,-560.0
0.757015740278971,-4.360103809267394,-1.9938420594159365,-2.5226950451883057,-3.492599945620141,NaN,-7.255141428540344,NaN,-6.686718601284656,-6.968535877182158,-6.2559940254232895,-4.743695989887946,-4.688291144727345,-2.8153566524765057,-4.616519111444938,-4.901440972982919,50.264,-674.416016,-734.927979,8260.0,2940.0,-560.0
2.2449355320755333,-0.6155666563016767,-3.0495377699734663,-1.6131521306847332,-0.5044794139463542,NaN,-2.0627903586789444,NaN,-5.129793483766461,-4.6207414936659355,-2.6101189983322266,-5.505954116186631,-3.209630410080812,0.2861040183412117,-1.4474076937974742,-2.5240347679869606,46.848,-674.416016,-734.927979,7700.0,2660.0,-280.0
0.3763060059576321,-0.31532656965154954,-4.198653848961371,-6.695837089586209,0.43688777116362715,NaN,0.37919759045472706,NaN,-3.2716100049569232,-1.4615077990425032,0.2382172665666908,-4.654483264747554,-1.413728954154692,1.0141738179407795,0.8417405948969106,0.5644962985977856,46.360001,-673.927979,-732.0,7840.0,2660.0,-140.0
-2.03580708305186,1.6703064240533319,-1.1145470074165946,-3.9807518203537686,2.72505859969822,NaN,2.913820748142553,NaN,1.117883055389893,2.956711343586947,4.898063914173889,-2.3112554468172246,0.6951460496958272,2.880914028203063,2.697271786437705,2.776590619647646,47.824001,-674.416016,-731.512024,7420.0,2800.0,140.0
-1.5765372700614575,7.292266724450679,7.3441441177762306,5.767820133714465,7.864517858820943,NaN,6.137603648391847,NaN,8.766331571906894,11.025961147384464,8.983910489564462,1.6954096543069554,8.053366414377859,7.821099813205342,5.827089301676288,5.540231931154214,42.944,-673.440002,-736.3920289999999,6580.0,3080.0,420.0
-1.7286411872668634,8.020201363641261,9.786515399138468,7.438058633161922,10.16020766115249,NaN,8.479346576574745,NaN,11.09135170910464,13.895522271717972,5.962426740435453,3.984382989738549,11.16559883569296,6.947290848499014,4.858605505226895,5.866401030667929,43.431999,-672.952026,-733.4639889999999,6160.0,3080.0,700.0
-3.7737885070368895,0.4045020205953359,0.36460490519433686,1.0225037626156672,2.8247281512056808,NaN,3.0687629300903168,NaN,2.1422630582455158,5.3149534460910415,-0.8974194554283386,-0.5895209332601399,2.6072639059427534,-1.347208308725178,-1.021331337504148,-0.33744594665944194,43.920002,-671.488037,-733.4639889999999,5740.0,3500.0,840.0
-1.0958494348004355,-1.71239219059061,-2.8115833377258395,-1.2379187375843623,0.900202782862817,NaN,2.1013586818519046,NaN,-0.03387902829061057,2.454842845308217,-1.1188148559667233,2.6388691164820974,0.10013340375033068,-3.166542470795515,-0.4935772023390386,-1.2759530375692338,43.920002,-673.440002,-730.536011,5600.0,3500.0,1120.0
-2.250001211627311,-6.921467553748905,-10.29508121168154,-5.051703505090916,-4.476844852147485,NaN,-3.3525548659075066,NaN,-6.154083646671848,-5.0819583649669005,-4.922955943423416,-0.2634816990758431,-4.804641384936975,-6.324606030036006,-4.7878717396362465,-4.755299882774789,43.920002,-674.416016,-735.903992,4620.0,3780.0,1120.0
-3.8496921486507047,-10.135027107209796,-14.952298102492508,-5.626753743003125,-8.751741475182206,NaN,-8.570930177831606,NaN,-9.84958391223616,-9.939152082091793,-6.634571324552228,-3.48238930969792,-8.557084328214973,-9.384200201454975,-6.950794123118138,-7.6438443672743634,42.456001,-673.927979,-731.512024,4060.0,4060.0,1120.0
1.5171385967241415,-3.997618300300736,-7.133421322103865,-0.7984752752933053,-3.477346587577152,NaN,-2.7981832007429026,NaN,-5.027375693937576,-5.2163392369352275,-1.0238517357676826,2.451784068941748,-4.039280808413146,-5.590497423801372,-0.7580605982640426,-2.2951046875425902,40.992001,-675.392029,-734.927979,3640.0,3920.0,1120.0
5.252994504909822,-0.9245520976300344,-3.5898885130057128,0.6961990528192843,-1.793050515076966,NaN,-0.16686945815518217,NaN,-3.4295782479137102,-3.744660355245337,0.17184440681059288,4.300430674393593,-2.4549666378765687,-3.251941730933004,0.9182047441402115,-0.8853491841114579,40.504002,-673.440002,-734.440002,3360.0,4060.0,1120.0
3.0184296858430537,-0.19101262853630813,-1.0748854764857816,-2.164662292651889,-1.90352352782742,NaN,-0.4025485654419424,NaN,-1.2736391370940334,-0.7329177955567843,-1.9350885702205516,5.355553328751393,-0.2531039571781696,-2.5207053056332,-0.4352200536064259,-0.23908175412967497,41.968002,-677.832031,-734.927979,3220.0,4200.0,840.0
1.5836215667027367,1.82133875160891,1.6394437061159748,-1.46943462546472,-0.8830160203562979,NaN,0.2624203653528964,NaN,3.4682893949382625,3.6732821919068734,-1.1695340361874709,5.512814897152726,4.390925304650282,1.4773683757790654,0.6065306587033465,1.9144919327670844,44.896,-674.416016,-734.927979,3220.0,4340.0,420.0
4.299970457080523,3.5674033116464767,3.1069286161114835,3.056484933765971,-0.10920750473752716,NaN,0.5231625881276211,NaN,7.068452250875947,6.6887064222793775,1.416956555056158,3.1451818929536164,8.067216575371862,6.763139025737163,3.5826125051850366,3.9762224001564257,41.968002,-676.856018,-733.952026,3080.0,4200.0,280.0
5.220225804292761,3.281292478816365,2.729212321385559,4.270219569510669,-0.5320854686640749,NaN,1.0307618697523424,NaN,7.052919255475628,7.587300635968447,1.5029200094467932,2.2111484613455334,8.62004154382521,7.548079044835298,4.135642883234568,3.7488884608995545,45.872002,-676.367981,-732.9760129999999,2940.0,3920.0,0.0
2.1742187267042365,-1.1963612642068002,-3.6549413442950742,0.8820728092395573,-4.293554894570585,NaN,-4.248657676948923,NaN,0.9938201193981362,0.09498765210974906,-2.6664425638678355,-2.05836609424592,0.4191117030841419,1.5349987940181062,-1.486200574799535,-3.319168548833235,48.312,-678.807983,-736.880005,3360.0,3780.0,-420.0
2.814945365246323,-1.1592409923000115,-3.2779303532956687,1.426265825729006,-2.50079728499111,NaN,-3.050192899044276,NaN,-0.4961737354895085,-1.2604210801951683,-0.40943437767846547,-1.6109150621973802,-2.8536273514344064,0.7276131607388976,-2.216959271601162,-3.5673268947722288,48.799999,-676.367981,-737.367981,3360.0,3640.0,-700.0
6.696185135298192,3.960276950098928,0.9892710886304397,5.584906361996504,2.854838232596923,NaN,2.8560079131648672,NaN,1.2711451617281175,0.6842681377800824,4.246101833111406,0.8135271215022482,-1.6185991604178764,4.861463867160182,1.44429365344101,1.8129920433036508,48.312,-678.807983,-736.3920289999999,3500.0,3360.0,-1120.0
5.316806504181724,5.809862495032622,0.29628973538653625,4.122520996976644,4.563942012055224,NaN,4.821606401859408,NaN,0.8116861692617239,0.10184084638195871,6.052426467006393,2.297678946678477,-2.67500422030366,3.6625666202422127,1.3577347616145623,3.407298952636624,49.776001,-679.296021,-734.440002,3640.0,2940.0,-1400.0
0.07181448255309847,3.2340453962391686,-1.7457323072986928,-2.4952120018122734,2.6454860068323227,NaN,5.609631911060478,NaN,-1.7411315937502683,-2.9065771619923355,1.8791884768092035,-0.08311151076430957,-4.868135817505048,-2.599340142043697,-2.691646300531876,1.0618649474757853,51.728001,-677.832031,-733.4639889999999,3780.0,2800.0,-1820.0
-7.7852203626061325,-5.334092239459359,-8.590018160335923,-9.348501079709212,-5.558566987611924,NaN,-2.1134981410086207,NaN,-9.24239958966016,-10.967349596227733,-6.761626230513344,-6.42568472844092,-11.353563843403922,-10.138895047093566,-9.867778604462659,-7.282628264860829,51.240002,-678.320007,-732.0,4060.0,2100.0,-2100.0
-5.111002734315302,-1.9743699303360664,-0.6413059917516308,-3.664508000070288,-2.0251508620689225,NaN,0.6017964090502513,NaN,-1.8511035293186304,-2.2947726431095914,-2.100653776345676,0.34924533718039696,-2.1110906575448016,-3.0890181936597214,-4.098726195149672,-3.040694768258171,50.264,-678.807983,-732.9760129999999,4060.0,2100.0,-2240.0
-2.6750871580353044,0.4891150449327304,5.922253209974709,2.682815124372257,2.32989887216925,NaN,2.4869274503995573,NaN,2.4189181478671005,1.1182330201334916,0.6418333585398206,1.121578766019257,3.7373553491370872,0.6950173690619892,-0.12074163179916364,1.720314020869846,49.776001,-675.880005,-734.927979,4200.0,1260.0,-2520.0
-7.831861031944464,-4.297036056676932,0.2693663166065928,0.5239879316995087,-2.8508535387820304,NaN,-4.833712777399646,NaN,-2.4958271135451566,-4.281329490020156,-2.2240009798601346,-3.1064051275094036,-2.025095085729148,-2.1015296719553818,-3.8501937569747087,-2.5231844556971783,53.68,-680.76001,-736.880005,4200.0,700.0,-2520.0
-7.09171485205133,-2.121700240684985,0.39461390325147777,1.3400386462942604,-2.7225504772468496,NaN,-5.452223026640603,NaN,-0.3778129829104437,-1.5676376114209731,-0.8579067163256991,-1.3826612643992755,-0.807257366742663,0.988691666462056,-0.9248919541523,-2.555820647794825,49.776001,-676.856018,-736.3920289999999,4340.0,560.0,-2660.0
-7.198705692854501,-4.8885117179992035,-3.961702309794812,-2.5115701152260725,-5.800800639867974,NaN,-9.498497641854042,NaN,-3.447511529844875,-5.682864470228764,-2.689539778318936,-5.068492420423104,-3.5694640637401,-2.739295440281292,-3.072500645744421,-4.499616357583952,50.264,-675.392029,-732.9760129999999,4340.0,140.0,-2800.0
4.1792864612795055,3.931203293665863,6.0102280260688365,5.392875602669713,4.176133861758045,NaN,0.06123888564459276,NaN,6.091671323184563,4.700781806679186,5.1722286923412595,4.033518145138733,5.884929831423198,4.598049316943617,6.265621292526203,5.144114651176484,52.704002,-680.272034,-734.440002,4480.0,-280.0,-2940.0
10.152590237028395,7.58541779084272,8.324843770937553,8.418664671720324,10.715015915429989,NaN,7.683663552595543,NaN,7.704633016799151,8.855308695376593,6.8853805631690514,6.93222030116693,8.144989191884182,6.113935268736851,10.01175072523596,9.114915222741196,48.799999,-678.807983,-736.3920289999999,4480.0,-280.0,-2800.0
7.690159284043098,3.753661876074308,3.221574864650172,1.408277874984146,8.488015471681763,NaN,8.119751404293494,NaN,3.4737503419517,5.211046601334935,3.8583366400359695,3.3148090247789286,4.556760485178604,2.092174480879089,6.498210964065501,5.901762538275589,50.751999,-682.223999,-734.927979,4760.0,0.0,-2940.0
7.446687964495472,6.293906859244208,5.396827404901177,-0.14040299205245646,11.361585940586984,NaN,12.006597625481104,NaN,5.00326736905376,7.839659975084598,7.897210466719031,5.536477998643326,8.03167292907462,4.488961705744494,10.38472309626542,9.498258233741,47.336002,-679.296021,-735.416016,4620.0,-280.0,-2660.0
-1.2709138198474137,-1.9818417500288563,-3.4664834387570806,-6.8386016849219695,1.6129296772275543,NaN,1.0705901017571184,NaN,-4.52928737124394,-2.106313692096529,0.12206855122142037,-1.055780307048522,-1.4027364732421619,-3.503125482611574,1.303156263507929,0.8761013418000757,53.68,-678.807983,-734.927979,4620.0,-140.0,-2660.0
-4.34241681176628,-4.124299265032739,-3.703737558916425,-3.300201146737096,-2.164359485916555,NaN,-3.520652960131383,NaN,-3.981631838405337,-4.098957922321588,-4.084789144934172,-4.360612250977171,-4.33351342968584,-4.614718080750363,-1.7711963715460692,-2.5501099406850765,49.288002,-677.832031,-733.952026,4620.0,0.0,-2380.0
-6.519751511244592,-5.892347019345114,-5.262632409394415,-1.028777313513487,-5.00812119879719,NaN,-7.279369462832656,NaN,-4.807694470957589,-5.737021971720106,-5.653442641865594,-9.90842630756946,-6.462053147452241,-5.325672262532973,-3.902833666962027,-3.913461802036045,47.824001,-677.343994,-736.3920289999999,4620.0,140.0,-2380.0
-5.6126471646152645,-3.85546711191922,-4.709651688668297,0.6432617964867161,-5.570248247017191,NaN,-6.141532468606672,NaN,-3.3463913706050246,-4.073030881616196,-3.5496972221698404,-8.122061724937483,-5.98834205523166,-3.705219950763328,-4.481792253581589,-4.571137994844615,49.288002,-677.343994,-735.903992,4480.0,280.0,-1960.0
-1.1825803314053187,3.587107210808752,2.407445547337878,5.012903982643328,0.9480495133697135,NaN,2.1720989238437154,NaN,3.4310322106482647,3.60048686322326,1.9411892616332305,-2.9926882865610334,1.1532263347988059,4.533728241590001,1.3949546086051963,0.6863850404060762,51.728001,-673.440002,-737.8560179999998,4340.0,420.0,-1960.0
-3.118772405905844,0.9760186400978248,0.0929764958154836,0.7567296202995363,-1.3982179071754675,NaN,0.4509120424972403,NaN,1.733879855338852,2.6364046142474606,-0.347247211620034,-2.713716742721645,2.1051645273074713,5.357528087294148,0.8117508119963347,-1.2830344196722772,49.776001,-673.927979,-735.903992,4480.0,420.0,-1400.0
1.1499331386352047,5.001189798660674,6.523673128474235,3.0719264106773307,2.97975974084094,NaN,5.835342710955312,NaN,7.800105710522894,9.252980083415832,3.968261556935603,6.082557985965945,9.560962239521837,10.387497575726222,7.032288428678636,5.239910419745417,49.776001,-676.856018,-736.880005,4480.0,700.0,-1260.0
1.1341177445136257,1.4234531830513644,4.812333246026519,-0.33213710972938887,1.0914673468891976,NaN,3.762905469053176,NaN,4.411172857293618,5.122826386400472,0.012021283826779331,3.21359406716489,5.809909225198111,4.79234333150364,3.7950807080844022,3.4957491027385776,50.264,-675.392029,-735.903992,4480.0,980.0,-840.0
-3.078904390714235,-5.553597952627038,-3.4425318487855687,-8.123842722533984,-4.954426157731172,NaN,-4.143048320482987,NaN,-5.506055628323453,-5.652728152453348,-7.335307585936774,-4.628297952408484,-5.972646485361709,-6.9328107316481375,-5.892538187074781,-5.259214265708152,50.751999,-675.392029,-733.952026,4200.0,1260.0,-420.0
-1.5069330660215912,-3.56397745932439,0.27158860813257857,-5.875977570369532,-4.013492872756463,NaN,-4.917843688453264,NaN,-3.887631806693736,-3.559297686589421,-4.098907431713678,-1.6935082083947472,-4.2846523210474325,-5.452162549727172,-4.532991057341041,-3.7322778222289537,50.264,-674.903992,-733.4639889999999,4200.0,1260.0,-280.0
-2.947262370556066,-5.831227934482754,-2.4353384932517246,-6.634585140082454,-8.0858512399214,NaN,-7.5304049994773985,NaN,-7.6386025479588,-7.461687245833923,-4.444827436258842,-3.258858957211304,-6.576810183119086,-7.176909266415027,-6.7916443088692136,-6.094458265145681,50.264,-674.416016,-732.0,4060.0,1400.0,280.0
2.502625530126348,-2.027486618015595,0.39574075976071565,-2.7693871879187952,-5.031499240704914,NaN,-4.267584980889161,NaN,-3.8854200076174665,-3.9545549036308496,-1.5128539295157293,1.797605619300134,-1.9190459617010027,-4.375940680391948,-5.038602541290057,-4.279875953475577,49.288002,-675.392029,-732.9760129999999,3780.0,1400.0,420.0
6.059101690129506,0.7730308767378362,1.5092499089245572,0.9146577865906867,0.0043509848288368624,NaN,-0.06908258938687079,NaN,-1.0427961852851415,-0.5943746397282068,0.3146834505512131,6.1012032982829965,0.36061570304399954,-1.236634747927866,-1.846302252332768,-1.0186194947792884,49.776001,-673.927979,-732.0,3500.0,1820.0,700.0
4.00543489941948,0.012452004459283676,-0.8891148457165273,1.4254208924191383,0.8680101634527648,NaN,0.5102020799117993,NaN,-0.092832514876983,1.4815635487584107,0.5604936736944576,4.680248404869328,0.8477252818836744,-1.0460775523459072,-0.32313960862105606,-1.12418348221996,44.896,-677.343994,-729.5599979999998,3360.0,1680.0,840.0
9.307468604465763,8.404642732323882,7.186538804906857,8.983592280467219,6.858247767960808,NaN,7.897010121179549,NaN,10.091364138519587,11.517390648077756,7.842334432118085,9.508515706745715,10.823067264505172,6.0628884479008445,7.593085988880079,6.463477597635699,48.312,-675.392029,-731.512024,3220.0,1960.0,700.0
5.302481609417629,5.614882149557913,3.653088945696735,6.9811851327885535,2.4070134764873377,NaN,2.592183625190468,NaN,5.168832370339343,5.621685109616715,4.882504420646784,3.523364022284477,5.464008297360712,2.3247949663833385,3.1679340709084074,1.788811198450983,48.799999,-675.392029,-731.023987,3080.0,2100.0,1120.0
-0.3205514404376076,2.4252427820281923,2.329321789336109,3.3200720007241062,-1.0413863407670407,NaN,-1.1595805356818167,NaN,3.398740793145484,1.935870195280592,1.7061073250427792,0.9603931008207583,3.891751754401152,0.8009468880996548,0.170797934680201,-1.2753149782557271,46.848,-678.320007,-731.512024,3080.0,1820.0,1120.0
-1.6799996681574847,0.5073656283626232,0.2581672872181208,1.2368453807495725,-1.4348151210319873,NaN,0.3154369739215807,NaN,-0.2831087929569072,-2.050207915106645,-0.6674090906671333,-3.1987616832445607,-0.7701143945772374,-0.7831310086584576,-1.5096302648013515,-2.0230394856906058,45.872002,-677.343994,-731.023987,2800.0,1960.0,1260.0
-3.981613277271189,-3.175448431017084,-3.9610128678194783,-1.5957808364011044,-4.222041079939517,NaN,-2.5457996036507686,NaN,-4.73921390284476,-6.9573618209199015,-2.823320007971842,-6.1958128335570635,-5.38122760625946,-2.714592231088335,-4.205174656626605,-4.235047620493164,46.848,-675.392029,-732.9760129999999,2520.0,1820.0,1260.0
-2.489957646659547,2.812764747509184,2.8387465263708447,5.23827303896728,2.629309611483308,NaN,3.1835344997591712,NaN,1.9817198051909437,-1.2166683857148572,3.1237450799324846,1.0920164450083671,0.7301971319940992,4.142408990770695,1.1992432685655743,2.748558640755899,46.848,-675.880005,-733.4639889999999,2660.0,1680.0,1120.0
-6.256558119030551,-1.712056314649074,-2.088280933994036,2.679636271021287,0.14556167457728927,NaN,-0.9809334267984353,NaN,-1.788061193526985,-4.325131579429195,-0.19730563912938331,-2.4374977522012014,-3.0031692603002567,1.088913849313656,-2.902935680489866,-0.6883588697891776,47.824001,-677.343994,-729.0720209999998,2380.0,1540.0,980.0
-5.236033183652179,-2.4455947464680383,-4.400675622768601,-1.3416402538624599,0.6197088542283614,NaN,0.18080174783346167,NaN,-1.1793164993908831,-2.0995988746705327,-0.9055299932738726,-0.6224576689977039,-2.1726554292222398,1.620652630059412,-1.8221989896194075,1.6200339924796388,44.408001,-674.903992,-731.023987,2240.0,1260.0,840.0
-2.961055212430711,-2.926546542930804,-6.503428732804395,-4.963985013167886,2.82901375610145,NaN,2.3936737136277206,NaN,-2.9230868529216263,-2.0905524286318333,-1.513534866119044,-1.5084554832771204,-5.36789023461263,0.5859317678609347,-1.6012518293175608,2.4380876194090955,46.360001,-677.832031,-731.023987,2240.0,840.0,700.0
-2.5130607248619894,-2.7322058337933526,-6.418228579343877,-6.16370307621453,3.2360919110774753,NaN,1.9714920442673585,NaN,-3.815740118998761,-1.4664920105147579,-2.1839174469114764,-4.057038707075898,-5.679600456971246,-1.23497506436784,-1.8588504358861764,-0.4009837755743001,45.383999,-678.320007,-733.4639889999999,1820.0,560.0,420.0
0.10836611471429276,0.13270092046066395,-2.8266265829585544,-3.2527431093146606,3.895419396129308,NaN,3.2613313067141,NaN,0.16128161164256288,2.20084779098087,-0.7010741745744992,-2.0956122310816547,-1.218307066973586,0.21610432531878093,1.903336261038218,1.1155685202192667,44.896,-675.392029,-732.0,2100.0,280.0,280.0
0.11659223519795178,-3.283555619075571,-7.680346344026928,-7.093922389024439,-0.7734969882584122,NaN,-1.4049671134743407,NaN,-4.628946428628036,-3.1671825841434926,-4.001246116233321,-2.540926711785642,-5.456981323820127,-3.1709080394273226,-1.2798964393175711,-0.5319587728898019,43.920002,-674.416016,-729.5599979999998,2100.0,0.0,-140.0
3.580440622639369,-0.4586851679219012,-4.153754437903376,-4.037183723462425,0.5371150017726424,NaN,-0.4365996439933095,NaN,-1.1642065495894531,1.3653882518043965,-1.374572263125458,0.3711424247937545,0.7930628980432467,1.153273894006828,1.617614834083234,1.654752485754062,45.383999,-673.440002,-730.048035,1820.0,-280.0,-420.0
4.455359238413887,-1.1701337093624955,-4.32656983243412,-2.4025578849311358,-0.8097842401156794,NaN,-2.1642243235439116,NaN,-1.299174973036306,-0.2592441811732222,-1.8561896713669424,0.14975283782173762,0.8643544697025718,0.272372936803312,1.2330532857871876,0.5565789477803254,43.920002,-676.856018,-733.4639889999999,1820.0,-700.0,-420.0
1.9146236667807288,-2.561907699022943,-6.036690635592643,-2.6334552772953472,-3.2188171347596826,NaN,-4.0029141081667925,NaN,-3.4657361841044967,-2.8534302972465366,-1.929740263022408,3.0576748574882924,-2.633706722179954,-3.036434925958604,-0.24906417877434203,-1.3685398492367475,49.776001,-675.880005,-732.4880369999998,1680.0,-1120.0,-700.0
0.4652144344308636,-0.2553556420644389,-2.981004528789813,1.024871899731981,-3.484833201837473,NaN,-4.18482852090759,NaN,-0.07912938952198517,-0.6122469270158692,-0.9892719906659613,2.7175482149239585,0.31467920978197167,-3.8225854364338887,-0.7459356619724871,-0.790928873772759,44.896,-677.343994,-729.5599979999998,1680.0,-1120.0,-1120.0
-0.7638198796917978,0.19908422472456536,-2.1249959752534244,3.334967840103256,-4.028371251561028,NaN,-4.463714185020293,NaN,0.07254670400483637,-2.1442587070255548,-1.3169457207630606,-1.0888773397477691,-0.940894260423292,-5.389680808422529,-3.106040329546025,-1.8946656468031116,46.360001,-675.392029,-731.023987,1540.0,-1260.0,-1260.0
7.681944423343176,11.17330179855928,9.861266764562496,11.381513974325308,8.307897284213755,NaN,9.127478845297427,NaN,13.530937239943983,11.673469646888828,11.514377994528372,13.173108273723049,13.775767502752087,9.522602896703917,10.938003305682129,12.340738201672412,46.848,-677.343994,-732.0,1680.0,-1260.0,-1540.0
6.324530261274046,11.028056487750696,11.65876376249568,9.679553144562947,8.405998005162916,NaN,9.87496235219675,NaN,13.975220063512156,12.754014488583223,12.372955200663768,15.026678388107943,14.879943799678728,11.350018071046213,12.925693525664496,13.105933052946236,47.336002,-677.832031,-732.0,1540.0,-1400.0,-1680.0
-3.2302071359521074,-0.8743757150262862,1.43321861705548,-2.866518003075376,-2.790167694901804,NaN,-1.3068623002619075,NaN,0.3297277951521206,-1.1842896564794247,2.2046761567441395,-0.40119212702301765,-0.43809973171515226,-1.4028182251323116,1.130103708220409,-1.2117387889631968,48.799999,-676.856018,-730.048035,1260.0,-1680.0,-1960.0
-2.838540935997399,-2.503412783669068,1.697446409433068,-3.2117277046308246,-2.185028181507654,NaN,-2.399295136767034,NaN,-2.4474018567548392,-4.358736901393748,-1.4511278074202332,-3.8226628784893872,-3.714133210634584,-4.911916011109655,-2.1420391838614985,-4.063058685307241,49.288002,-676.367981,-727.608032,1260.0,-1400.0,-2100.0
-2.103472084547147,-3.8236244893676634,2.313223337962637,-2.1053567623820024,-2.9858174136432147,NaN,-4.353981520848732,NaN,-5.420256138697876,-5.250021394427332,-3.6376812939762737,-4.50663720078275,-6.142838143632736,-6.742842286131472,-4.6196624742489485,-6.130853709442808,49.288002,-677.343994,-733.952026,1120.0,-1540.0,-1960.0
2.807312388097897,-1.7623875848450739,6.484223277173288,1.2502916808313251,-0.2206601402372314,NaN,-1.6135482907894318,NaN,-2.703466433434144,-1.0812112872107735,-1.6940876220044587,-2.976132928510264,-1.4695777332547086,-2.740343475077636,-2.1389428074424326,-3.524585461104768,49.776001,-676.367981,-733.4639889999999,1400.0,-1400.0,-1960.0
5.050748794060347,-0.830579332174575,7.890038077034107,4.060876590826748,0.5505374771689566,NaN,0.5508420727594319,NaN,-0.5918110250941585,0.21622491608338373,-1.5351501764071267,-2.780519812635715,-0.16286555064263464,0.2394239457113821,0.010547772390178012,-1.8430575686760635,50.751999,-677.343994,-732.0,980.0,-1540.0,-1820.0
5.857142718825099,0.2246573666127926,10.116936115166553,5.058375703055374,1.317282009806126,NaN,0.5712471707792877,NaN,2.288149728656189,2.7122775331088578,-0.22014546645158256,-0.4071984758308409,2.3757681138534728,4.679370300064832,2.7797718309495365,-0.25679762111394777,48.799999,-677.832031,-730.048035,1540.0,-1260.0,-1540.0
3.449969915636547,0.3709832895791065,12.781719053406768,5.676569178061495,0.605862677660967,NaN,-1.1759470705197839,NaN,4.987299930108707,5.26494326852419,-1.0425859820420151,0.13545811306788424,5.900421332508897,4.4307004502401615,2.722488024324212,-1.82875548864348,50.751999,-678.807983,-732.4880369999998,1400.0,-980.0,-1680.0
-0.17471006765899239,-4.260775800377088,5.564209360107008,-0.32574017502549146,-3.454093221194337,NaN,-5.420215557984521,NaN,-3.170525974169092,-1.6941192794457407,-3.6759033584872016,-5.598194739668112,-2.922950270776755,-4.121304972515542,-3.687690580121676,-6.104661988038066,47.824001,-678.320007,-732.0,1400.0,-560.0,-1400.0
2.9534336520234192,1.8460258953031947,9.563411478104914,0.6971316671700596,2.498546227326526,NaN,3.3023209585192217,NaN,-0.9802581341277176,1.5266618447604487,-0.6710614048079377,-1.6076849162295743,0.15644534845892283,0.04692414261570638,-0.5761306059134905,1.1906680515358992,50.264,-677.832031,-732.9760129999999,1260.0,-700.0,-1260.0
-2.494006637774556,1.6686335122717564,7.680709683872579,-2.442143827322313,0.847321750867975,NaN,3.6180939454409295,NaN,-2.816933665615696,-0.7848599128169954,-3.069033267755617,-6.419470927504234,-0.6999558587194821,-0.5955241372142448,-4.118234455618145,0.6484938077867698,50.264,-678.807983,-731.512024,1820.0,-700.0,-1120.0
-12.638860975508155,-6.370331424774481,-0.15278455678682326,-8.305913896925837,-7.431251983731801,NaN,-6.164486468195788,NaN,-8.863118727860252,-9.026236493430268,-8.155156786389018,-14.113031032873236,-7.988464360156522,-7.056293795722352,-11.457707824868493,-8.351966115029315,50.264,-676.856018,-733.952026,1680.0,-420.0,-700.0
-12.323679982243585,-2.590710989081703,0.8496018718924054,-4.529127182986874,-5.109733193131758,NaN,-3.926255024289643,NaN,-3.737755393776831,-5.8182780988753615,-3.93964450917602,-7.531560688551641,-4.748680046455932,-3.1844467659465217,-6.080897123091935,-5.927582998912251,48.799999,-675.880005,-732.4880369999998,1820.0,-280.0,-420.0
-10.167294351590416,-2.993829034360706,-4.0928904821976815,-4.902002604199656,-3.6010938949015285,NaN,-2.3997163514290096,NaN,-3.651375015956504,-5.170237616326018,-0.8564891412727766,-3.8292806616395314,-4.318011386366324,0.17029676663114113,-2.075604792333092,-3.472013983034871,48.799999,-675.880005,-732.0,2240.0,-280.0,-280.0
-3.35623730638772,3.8699390488968177,-0.06617514814531494,1.6237424193005183,5.404568304370946,NaN,6.474500385398353,NaN,5.015924951878311,4.709003935299855,6.673519905470079,5.809217706505366,4.782420875520288,8.553283888271956,5.156179554864501,3.819552754324597,50.264,-672.952026,-734.440002,1960.0,-140.0,-140.0
-4.330019722803738,2.12773382356,-5.712228668465212,0.11281480417947228,2.532726310645121,NaN,4.201925369728626,NaN,2.452481129011609,3.4871680842584256,3.6403269568014434,7.081606009990972,2.313764810535832,5.406175661549224,1.8157350380352504,2.2095379666790924,47.824001,-675.392029,-731.512024,1960.0,-280.0,280.0
-7.08579489294168,-2.22246729685569,-12.042611912027388,-3.011148345184919,-2.778605786292866,NaN,0.022271429334439853,NaN,1.7715649647121912,0.5798673463626368,0.4101043240803149,5.488796631782079,3.0175045111964054,4.0143054399257965,1.0223655952748323,0.911976630305712,47.336002,-674.903992,-732.9760129999999,1960.0,0.0,560.0
2.179262509057416,7.054471081729759,-5.423427209503816,8.684470080294755,7.514707034025048,NaN,8.179497681132041,NaN,13.27279504785264,11.026588463810947,9.600800373276977,11.85633405199831,14.74228049323226,10.997255333935327,8.293089806455619,8.625629927078112,50.264,-677.343994,-733.4639889999999,2240.0,-140.0,700.0
3.3049891471836315,6.624794687639825,-11.194922978838411,11.083145032378104,6.443905846418367,NaN,4.258962315036247,NaN,11.64240546193738,10.412731560598544,9.451155169286398,9.442709029208888,11.822444615587983,6.992091243661587,7.23771515606824,5.336655026865865,50.751999,-672.463989,-732.4880369999998,2100.0,-140.0,840.0
0.2962337256676624,1.7381331676736465,-22.438451199203,-1.62753651488321,1.491543488976053,NaN,0.5161830184678026,NaN,-0.14000907040598243,0.3163046207703819,3.6239060119058575,2.5889297190632448,-2.0230136496064297,-2.919444296155552,2.64141119364316,2.9908184243693734,46.360001,-674.416016,-728.583984,2380.0,0.0,980.0
-3.4984656978325126,-7.771678762251105,-37.24384482019517,-20.70114613357233,-6.759299837817957,NaN,-4.3240325320521995,NaN,-19.792129733711377,-15.492126344786316,-9.529704435271238,-7.291291600961581,-23.150526943473672,-17.203244197856076,-8.293460070206212,-2.3672604571550906,48.312,-677.832031,-731.023987,2520.0,0.0,980.0
1.890379540246986,-3.851646931629295,-28.060160335195505,-12.99583475203771,-5.064959375240657,NaN,-3.4163165121985264,NaN,-13.297101785442049,-10.334967777734477,-5.240344689064425,-5.237350877707539,-16.70502035277555,-11.050392792090847,-5.222767992328484,-0.322578361250298,46.848,-673.927979,-733.952026,2660.0,140.0,1260.0
6.999417532245262,3.271940966439149,-7.184550548434564,1.1832518461411938,-0.22307040778065695,NaN,-0.13905869575012836,NaN,0.9709774394875454,-0.3060237730695792,2.4124292148751194,-0.3942381727177127,-2.3948555658645985,-1.512177093472914,0.1894333846319252,3.2190967062406513,47.336002,-675.880005,-734.927979,2660.0,140.0,1260.0
2.3661161496841108,-3.404028786545665,-6.121577531306901,-1.640514342601153,-6.04438907157276,NaN,-6.959195071717865,NaN,-3.6902108121797106,-5.149235291290068,-3.1949456871269755,-5.994597357464582,-5.684688886031825,-5.813198434545465,-4.844149738292453,-3.8105020420976574,46.360001,-676.367981,-732.9760129999999,2800.0,280.0,1260.0
5.566928862895658,-0.16396833689203533,3.353662597453616,1.8374883719787332,-0.8521809080299546,NaN,-2.2531805560832714,NaN,2.655577613784589,1.5623954655074823,0.8204201698266604,-0.8659747376213187,2.6501913730957254,1.7076920296951188,0.8330317817201219,1.135094206484201,46.360001,-675.392029,-731.023987,2940.0,280.0,1120.0
12.160793853161987,4.331354885606601,12.641716017982684,6.465453277135098,5.402466765266648,NaN,3.4644647100006662,NaN,7.764378254994198,6.890971063807158,3.551091223810394,5.019150433956241,10.19652680355268,7.308561162240661,6.504247251422435,7.032177019659321,46.848,-677.832031,-735.416016,3360.0,280.0,1120.0
13.1001137207135,1.7460348812220532,17.645267889596926,4.584762012866329,3.4684963510821505,NaN,2.1768542235273047,NaN,4.062265853789998,4.648557552814018,0.8433595740008579,4.330208801401689,7.5490659031854275,4.3106458824817615,4.989827796097636,4.81234972723184,43.920002,-677.343994,-733.4639889999999,3360.0,-140.0,1120.0
9.853435803793731,1.4319604381224615,21.94754178568085,3.6091371370961007,3.2520970025047906,NaN,1.4518960549637905,NaN,3.7788633439944737,4.979975921854392,-1.5409533220484535,4.0419775619768235,5.250071822443524,3.1494090336949814,3.530830355751761,2.077647976735733,45.383999,-679.296021,-730.048035,3500.0,0.0,840.0
1.6966965107800585,-3.841158469832637,11.81226245838058,0.08937062687283091,-2.320104126939187,NaN,-4.938404512512553,NaN,-1.6737105864802695,-1.7734613970541584,-6.383335557556601,-2.622272267268125,-1.1645280860737055,-1.219056594695669,-1.529453594267927,-4.8472019148788155,49.776001,-678.320007,-732.9760129999999,3500.0,-280.0,840.0
-0.9374218524878877,-4.255207790943518,8.845785809899834,-0.29370678740349254,-0.46692697160658175,NaN,-3.704018666279127,NaN,-1.523426983569938,-2.36158289856245,-4.882353819962481,-1.5273151588039755,-0.6199504158680669,-1.4309954813721424,-2.4164710481111538,-5.418875701099798,47.336002,-677.832031,-732.0,3500.0,-420.0,700.0
