-11190.669082,-374.391720,-1326.508978,-16261.229367,1499.489129,-4511.789025,-5315.177776,-4101.790977,2868.108793,15612.469985,12748.049229,14596.225571,20170.683583,17466.010745,8683.183334,11091.248523,3.904000,-887.184021,-456.279999,5600.000000,-700.000000,280.000000
-11193.530106,-373.855278,-1325.793722,-16314.292409,1496.248126,-4514.784159,-5325.057247,-4104.204965,2889.097081,15661.375601,12799.145317,14638.537423,20222.763148,17517.777385,8725.428131,11118.361189,3.904000,-884.744019,-453.839996,5600.000000,-1120.000000,280.000000
-11184.075318,-359.997196,-1330.264071,-16312.504269,1497.432768,-4520.506206,-5322.799721,-4098.058235,2894.617962,15663.230796,12800.151145,14647.120493,20219.611552,17513.016464,8729.496149,11116.215422,6.832000,-884.744019,-453.352020,6020.000000,-1540.000000,0.000000
-11347.846549,-428.617052,-1422.286203,-16461.925681,1444.325023,-4522.070828,-5504.944087,-4196.472966,3041.200702,15727.469710,12876.281187,14860.557301,20364.540263,17615.208640,8759.223969,11177.459202,25.375999,-878.400024,-472.872009,5040.000000,-700.000000,-1680.000000
-11334.927241,-408.746351,-1427.494160,-16391.160058,1451.745802,-4526.250604,-5485.878049,-4181.810222,3015.987935,15667.187055,12812.556364,14819.117167,20294.624006,17545.247679,8713.894631,11139.505939,30.256001,-878.888000,-472.384003,4900.000000,-700.000000,-1680.000000
-11325.673619,-395.268249,-1427.650622,-16310.023226,1461.938198,-4526.161197,-5463.816877,-4170.232018,2980.873344,15596.712005,12738.236813,14764.802428,20215.007092,17466.860112,8660.093982,11099.205744,25.864000,-877.911987,-474.335999,4760.000000,-1120.000000,-1540.000000
-11324.466625,-400.632668,-1425.169578,-16266.213806,1464.240428,-4522.584918,-5456.954891,-4171.416661,2961.784954,15558.065839,12696.416699,14728.413788,20172.985813,17424.391797,8622.028961,11076.384613,32.695999,-876.447998,-474.335999,4620.000000,-840.000000,-1540.000000
-11320.912697,-408.321668,-1418.799331,-16274.729821,1459.412451,-4518.494549,-5467.594322,-4181.810222,2976.447699,15568.906435,12706.542040,14728.972582,20183.781705,17434.003047,8615.256383,11074.730584,31.232000,-879.376038,-470.920013,4620.000000,-1120.000000,-1680.000000
-11328.579346,-421.375086,-1410.484482,-16332.464377,1455.523247,-4511.409046,-5480.960665,-4193.567239,2999.246478,15619.734302,12760.253282,14765.070649,20243.416160,17494.576275,8657.121200,11105.531288,28.304001,-876.447998,-475.312012,4760.000000,-1260.000000,-1540.000000
-11339.464645,-430.539302,-1405.522395,-16408.974398,1452.729279,-4507.743360,-5494.617581,-4203.178490,3026.783827,15685.806058,12829.543689,14818.513670,20319.143870,17573.097953,8714.296963,11149.698335,29.768000,-876.936035,-475.312012,5040.000000,-1540.000000,-1540.000000
-11348.003012,-434.450857,-1408.249308,-16466.463085,1445.777887,-4511.029066,-5507.805110,-4205.503071,3046.028679,15735.091655,12880.818591,14862.412496,20373.816237,17626.697436,8752.116114,11180.364928,34.647999,-876.447998,-474.335999,5180.000000,-1820.000000,-1540.000000
-11345.901948,-427.231244,-1415.334811,-16468.184169,1445.979052,-4514.895918,-5504.631162,-4190.952085,3044.195836,15735.918669,12883.187876,14868.670984,20375.470266,17624.819890,8754.910082,11185.014091,34.160000,-877.424011,-472.384003,5040.000000,-1820.000000,-1400.000000
-11337.274174,-416.122427,-1426.398924,-16413.489451,1449.532980,-4520.796778,-5486.481546,-4173.048338,3020.882967,15686.476610,12834.349314,14831.701199,20318.674483,17566.437133,8724.802282,11159.309585,36.112000,-877.424011,-473.847992,4760.000000,-1960.000000,-1400.000000
-11323.885479,-403.940726,-1432.679764,-16336.241822,1453.064555,-4525.870624,-5470.097717,-4162.610073,2997.458338,15618.817880,12764.142485,14777.207646,20240.152805,17486.015557,8672.074517,11118.964686,35.624001,-880.351990,-471.895996,4620.000000,-1820.000000,-1400.000000
-11317.738750,-402.666676,-1432.702116,-16278.574321,1454.763288,-4525.669459,-5460.821743,-4161.336024,2978.995798,15565.732487,12707.525516,14732.213584,20181.859455,17426.045826,8624.487653,11090.019177,34.647999,-880.840027,-470.432007,4480.000000,-2100.000000,-1260.000000
-11315.928258,-406.511176,-1424.208453,-16259.485931,1461.357052,-4517.846348,-5452.171618,-4164.286454,2971.552667,15549.907452,12688.772403,14712.856974,20164.402743,17413.104166,8616.485729,11081.637273,36.600002,-877.911987,-472.384003,4620.000000,-2240.000000,-1260.000000
-11320.935049,-413.261403,-1410.417427,-16291.650092,1469.850715,-4507.832767,-5454.272682,-4175.685844,2979.554591,15579.009423,12718.388464,14729.643134,20200.858438,17454.879577,8647.308784,11100.055110,36.600002,-878.400024,-472.872009,4620.000000,-2240.000000,-840.000000
-11329.585174,-422.358563,-1402.437854,-16363.555654,1469.023701,-4502.691865,-5471.349415,-4189.096891,3005.437911,15642.957764,12784.281407,14779.264007,20274.194512,17531.926040,8695.007407,11136.868434,34.160000,-882.791992,-471.895996,4900.000000,-2240.000000,-840.000000
-11339.688163,-429.980508,-1404.494215,-16433.270744,1463.502820,-4504.435301,-5489.633142,-4197.858774,3031.097714,15702.614570,12848.877948,14829.175452,20340.310972,17598.824811,8738.459198,11173.055908,34.647999,-878.400024,-474.824005,4900.000000,-2100.000000,-840.000000
-11344.896119,-430.204026,-1414.887776,-16457.745905,1458.540733,-4512.906613,-5495.019912,-4196.405911,3037.289147,15719.758358,12871.408507,14848.934394,20358.907623,17617.287352,8756.765277,11187.405728,34.160000,-878.400024,-472.872009,4760.000000,-1960.000000,-560.000000
-11335.575442,-421.688011,-1425.929538,-16426.900497,1455.635006,-4521.892014,-5488.135575,-4182.123146,3033.891682,15693.137430,12843.446474,14832.885841,20323.949495,17578.998814,8736.425190,11174.754640,32.695999,-883.280029,-468.968018,4900.000000,-1820.000000,-280.000000
-11321.516195,-406.377066,-1432.344488,-16351.597470,1457.646663,-4527.882281,-5469.561275,-4165.269931,3015.071513,15628.630296,12774.938378,14785.254274,20248.713523,17499.694824,8684.166811,11136.689620,31.720001,-882.304016,-469.944000,4900.000000,-1680.000000,-140.000000
-11315.391817,-399.470377,-1435.741953,-16275.780353,1461.267646,-4531.190339,-5452.842170,-4159.302015,2983.153222,15560.904510,12704.865659,14730.201927,20173.365792,17421.664884,8632.109598,11095.137727,29.768000,-884.255981,-470.432007,4620.000000,-1540.000000,-140.000000
-11308.730997,-395.804691,-1426.801256,-16241.515129,1465.872105,-4524.820092,-5446.203702,-4161.648948,2969.250437,15534.663562,12675.473115,14702.955151,20144.353228,17393.345224,8604.840470,11075.982282,30.256001,-883.280029,-469.455994,4340.000000,-1820.000000,0.000000
-11311.547316,-404.655982,-1415.312459,-16263.352783,1467.302617,-4515.454711,-5452.283377,-4171.707233,2974.771318,15556.210644,12696.394348,14713.147546,20169.163664,17421.374312,8617.603316,11087.560485,29.280001,-882.791992,-466.040009,4200.000000,-1680.000000,0.000000
-11326.053599,-423.051467,-1408.316363,-16331.659714,1465.380366,-4508.950354,-5469.047185,-4185.051225,2992.093920,15612.492336,12756.721706,14754.788846,20237.604706,17492.028176,8663.200875,11122.071579,25.375999,-881.816040,-465.552002,4060.000000,-1820.000000,280.000000
-11334.659020,-431.232206,-1405.857671,-16406.202782,1462.541695,-4507.810415,-5485.162793,-4192.896687,3018.290164,15677.915892,12824.246326,14807.896591,20313.131251,17566.906520,8711.167718,11160.963614,24.400000,-882.791992,-465.552002,3920.000000,-1820.000000,140.000000
-11337.229471,-429.153494,-1412.205566,-16442.747884,1459.926541,-4512.638392,-5491.868316,-4191.488527,3032.595281,15707.531954,12853.616518,14838.540833,20347.485882,17599.450660,8736.738114,11179.537914,23.912001,-882.791992,-464.088013,4200.000000,-2100.000000,140.000000
-11334.681372,-420.279851,-1421.995631,-16422.519555,1458.205457,-4519.343915,-5484.827517,-4182.592533,3023.386362,15687.571846,12833.812873,14829.443673,20324.195364,17574.260244,8726.545718,11169.926664,25.375999,-881.816040,-468.968018,4060.000000,-2100.000000,280.000000
-11322.097340,-407.405246,-1430.489293,-16359.666450,1456.730241,-4527.681116,-5474.433955,-4170.321425,3009.640039,15635.358171,12779.520485,14791.222190,20260.179968,17505.908609,8679.137669,11137.963669,26.352001,-882.304016,-466.528015,4340.000000,-2660.000000,280.000000
-11313.894250,-402.756083,-1436.323099,-16287.470315,1458.607788,-4531.525616,-5459.771211,-4162.833591,2991.199850,15571.588644,12712.286438,14741.936593,20186.888598,17431.812576,8624.554709,11105.151308,25.375999,-879.864014,-468.968018,4060.000000,-2520.000000,280.000000
-11312.642552,-401.370275,-1431.897453,-16232.842652,1467.749651,-4526.362363,-5443.566196,-4159.793754,2965.607103,15521.408978,12659.536321,14700.205886,20134.607868,17382.817552,8592.189383,11080.251465,24.888000,-880.840027,-469.944000,4060.000000,-2800.000000,280.000000
-11315.280058,-406.265307,-1420.296898,-16232.261507,1474.656340,-4519.343915,-5441.398077,-4168.510934,2959.683890,15520.827832,12657.994051,14696.137869,20136.597173,17389.679538,8593.999874,11081.413756,25.375999,-878.400024,-471.895996,4200.000000,-2660.000000,280.000000
-11325.114825,-422.246805,-1410.506834,-16289.481972,1473.292884,-4511.565508,-5453.847999,-4183.151327,2975.196001,15570.404002,12710.230078,14731.543032,20195.650482,17451.593870,8632.377819,11114.092006,25.375999,-879.376038,-471.895996,4200.000000,-2660.000000,0.000000
-11335.307221,-439.748220,-1408.629287,-16370.551750,1464.776869,-4508.145691,-5476.378557,-4195.265972,3004.096807,15642.555433,12785.421346,14785.120164,20276.183817,17531.166080,8680.769346,11155.733306,27.328001,-879.376038,-470.920013,3920.000000,-2940.000000,-560.000000
-11340.604584,-441.379898,-1413.010229,-16426.721683,1458.138401,-4511.252583,-5490.460156,-4196.540021,3030.449513,15694.143259,12837.433855,14825.912097,20329.939762,17582.977424,8718.141463,11184.008263,28.792000,-881.328003,-469.944000,3780.000000,-2940.000000,-840.000000
-11343.242090,-437.781267,-1425.795427,-16427.481643,1454.003329,-4518.449845,-5487.286209,-4187.196992,3028.035525,15691.617512,12835.221033,14825.867394,20326.207021,17577.188322,8725.048152,11185.885809,26.352001,-884.255981,-468.480011,3780.000000,-3080.000000,-1400.000000
-11331.574480,-424.280813,-1435.339622,-16376.407907,1453.958625,-4525.244775,-5474.880990,-4173.003635,3017.217281,15649.059790,12790.137564,14795.491373,20273.680422,17518.850269,8688.972436,11161.477704,30.256001,-886.208008,-467.992004,3640.000000,-2940.000000,-1960.000000
-11317.694046,-410.422732,-1439.251177,-16298.489725,1457.534904,-4530.832712,-5456.865484,-4162.744184,2995.960772,15583.077441,12720.511880,14744.954079,20196.946883,17438.562803,8635.596470,11122.183337,28.792000,-888.648010,-462.623993,3500.000000,-2940.000000,-2240.000000
-11308.954514,-405.393589,-1437.306575,-16233.088521,1461.088832,-4532.598499,-5442.560368,-4157.089193,2976.939437,15527.153376,12661.793847,14697.523677,20132.283286,17375.977919,8589.529525,11088.767480,28.792000,-891.575989,-463.112000,3500.000000,-2800.000000,-2380.000000
-11309.669770,-409.305144,-1429.952852,-16219.923344,1461.915846,-4528.306964,-5442.292147,-4162.543018,2972.402033,15515.217544,12648.494559,14683.442078,20120.369806,17366.947814,8573.548028,11081.301997,27.328001,-889.624023,-464.088013,3220.000000,-2800.000000,-2380.000000
-11315.816500,-416.278889,-1418.151130,-16258.234234,1464.776869,-4519.634488,-5452.573949,-4176.848135,2985.880135,15550.957984,12683.810316,14708.297218,20161.005278,17413.014759,8595.609199,11101.485622,27.328001,-889.624023,-460.183990,3360.000000,-3080.000000,-2520.000000
-11332.759122,-429.846398,-1411.311497,-16331.972639,1464.620407,-4514.381828,-5466.454383,-4189.856850,3004.409731,15610.927714,12745.143502,14756.666393,20234.967200,17489.971815,8650.706250,11140.869396,30.256001,-888.160034,-461.648010,3500.000000,-3360.000000,-2380.000000
-11352.316898,-442.564540,-1412.719657,-16397.351491,1463.659282,-4512.638392,-5474.657473,-4190.885030,3011.741103,15662.426133,12800.106442,14800.274646,20298.893189,17556.378848,8707.658494,11178.845010,30.256001,-887.671997,-462.136017,3920.000000,-4060.000000,-2380.000000
-11350.573462,-435.277872,-1416.921785,-16414.629390,1465.939160,-4512.459578,-5471.304711,-4179.977379,3015.652658,15680.173419,12817.518451,14818.178394,20316.416957,17574.841389,8727.819768,11190.311455,29.768000,-885.231995,-464.088013,3920.000000,-4620.000000,-2380.000000
-11334.569613,-418.402304,-1422.844997,-16381.012366,1466.185029,-4517.913403,-5463.571008,-4166.141649,3017.440798,15657.799322,12791.925704,14803.135670,20282.665823,17536.932830,8703.791643,11172.720632,30.256001,-884.744019,-460.183990,4060.000000,-4620.000000,-2240.000000
-11316.308238,-401.258516,-1429.058782,-16309.799708,1465.402718,-4525.378886,-5453.020984,-4154.831666,3008.969487,15600.578857,12732.581822,14758.275718,20211.140241,17459.931071,8646.794694,11131.839291,29.768000,-884.255981,-463.112000,4200.000000,-4480.000000,-1960.000000
-11304.417110,-391.759025,-1428.522340,-16237.111835,1470.655378,-4527.792874,-5439.878159,-4146.606224,2989.948152,15538.619821,12668.208798,14710.554744,20139.838176,17388.025509,8592.099976,11091.695558,26.352001,-883.768005,-463.600006,4200.000000,-4060.000000,-1680.000000
-11306.942857,-404.343057,-1425.147226,-16210.535611,1470.185992,-4525.021258,-5437.218301,-4152.887065,2978.906391,15512.423576,12643.666583,14685.073755,20116.190030,17362.209244,8568.295368,11077.949235,25.375999,-881.328003,-464.088013,3920.000000,-3640.000000,-1540.000000
-11315.950610,-417.016496,-1416.698267,-16231.836823,1472.778794,-4517.823996,-5442.783885,-4169.472059,2979.107556,15528.852109,12660.676260,14692.092203,20139.771121,17390.551256,8584.522734,11089.169811,25.375999,-881.328003,-463.112000,3640.000000,-2520.000000,-1120.000000
-11325.561860,-431.992165,-1408.495177,-16299.607313,1470.700082,-4511.543156,-5458.564217,-4185.386501,3001.012266,15586.564313,12722.925868,14736.974506,20211.207296,17464.893158,8632.467226,11124.642029,22.936001,-879.376038,-467.992004,3360.000000,-1960.000000,-1120.000000
-11332.155625,-440.754049,-1407.802273,-16374.642119,1464.218076,-4510.805549,-5475.730357,-4195.198917,3028.013173,15649.752694,12790.852820,14788.115297,20285.169218,17537.737493,8685.619674,11163.645823,21.960001,-877.424011,-465.063995,2660.000000,-980.000000,-560.000000
-11333.384971,-439.479999,-1411.467959,-16412.260105,1461.647625,-4512.727799,-5482.011197,-4193.678998,3043.011194,15682.296834,12823.978105,14818.245449,20320.797899,17572.963843,8715.615715,11182.823620,20.496000,-880.351990,-462.136017,1540.000000,0.000000,-420.000000
-11332.423846,-434.227340,-1421.660354,-16397.239732,1459.144230,-4518.427493,-5477.004406,-4181.229077,3037.289147,15665.845950,12809.494175,14811.517574,20301.575399,17553.294307,8707.949067,11176.051042,18.544001,-878.400024,-466.528015,1260.000000,980.000000,140.000000
-11325.315991,-423.051467,-1432.411543,-16334.140758,1458.920712,-4524.708334,-5462.967511,-4165.471097,3017.150225,15608.401967,12753.436000,14769.429239,20236.911802,17484.652100,8663.558503,11143.864530,21.472000,-880.840027,-465.063995,840.000000,1540.000000,560.000000
-11316.151776,-408.746351,-1434.445552,-16251.752228,1466.565009,-4526.451770,-5442.023926,-4153.579969,2980.068681,15534.238879,12675.495467,14712.611105,20155.126769,17402.352977,8610.271944,11099.161041,17.568001,-881.328003,-464.576019,560.000000,1960.000000,700.000000
-11317.112901,-411.696781,-1432.947985,-16203.919495,1467.861410,-4525.088313,-5433.910243,-4154.675204,2952.441925,15488.462506,12627.930954,14672.869703,20107.830478,17356.353087,8572.475144,11072.227189,16.592001,-879.376038,-469.944000,420.000000,2240.000000,980.000000
-11321.762064,-431.098095,-1427.874139,-16220.526841,1458.026643,-4523.076656,-5448.818856,-4170.209667,2962.902542,15503.035844,12642.817216,14676.244816,20124.951914,17372.446343,8569.502362,11076.876351,19.032000,-879.864014,-467.015991,280.000000,2100.000000,980.000000
-11323.527852,-440.217607,-1414.463093,-16280.116591,1455.523247,-4515.097083,-5466.700252,-4185.989998,2994.440853,15561.955042,12701.289380,14717.662599,20189.257883,17438.339286,8603.409958,11106.648875,20.007999,-875.960022,-467.992004,280.000000,1540.000000,980.000000
-11335.039000,-447.616034,-1409.590412,-16352.782113,1456.417317,-4509.710313,-5475.752708,-4193.969571,3013.819815,15625.679866,12767.808171,14767.127009,20262.057514,17515.743377,8664.139648,11148.223120,20.496000,-881.328003,-467.992004,420.000000,1260.000000,980.000000
-11338.950555,-447.638386,-1412.652601,-16407.901515,1454.092736,-4511.789025,-5483.978150,-4196.294152,3034.048144,15673.244378,12818.233707,14808.902420,20314.338245,17568.091162,8708.776082,11176.431021,20.984001,-879.864014,-470.432007,420.000000,700.000000,700.000000
-11330.255727,-432.550959,-1418.575814,-16409.287323,1455.098564,-4518.047514,-5481.228886,-4189.588629,3042.921787,15678.228817,12823.039332,14819.273629,20313.511230,17565.230139,8714.699294,11176.408670,23.424000,-877.911987,-470.432007,420.000000,-420.000000,420.000000
-11321.337381,-413.999011,-1427.471808,-16353.631479,1460.440631,-4522.786084,-5463.369842,-4174.367091,3021.240595,15630.440787,12774.558398,14786.349510,20258.749456,17507.249714,8683.429203,11146.502035,25.375999,-879.864014,-469.455994,560.000000,-1120.000000,140.000000
-11312.016703,-402.979601,-1432.500950,-16278.171990,1462.228771,-4527.435246,-5446.851903,-4162.721832,2996.877193,15563.586719,12706.385577,14735.901622,20182.999394,17429.197422,8630.477921,11106.090081,26.840000,-879.376038,-468.480011,560.000000,-1960.000000,-280.000000
-11302.941895,-401.146758,-1430.690459,-16223.141995,1459.993596,-4528.038744,-5441.509836,-4157.692690,2988.048254,15517.855050,12656.518836,14696.897828,20128.394083,17373.496875,8578.621874,11076.250503,26.352001,-881.816040,-466.528015,840.000000,-2660.000000,-560.000000
-11307.345189,-409.528662,-1425.057819,-16212.502564,1460.552390,-4522.607270,-5442.873292,-4163.615902,2983.354388,15506.120384,12645.074742,14682.592712,20120.325103,17366.612538,8564.316757,11071.936616,31.232000,-882.304016,-468.480011,1120.000000,-3220.000000,-980.000000
-11318.275192,-424.549034,-1415.893604,-16253.361553,1461.848791,-4514.851214,-5453.132743,-4178.233943,2992.071568,15540.095036,12680.502257,14702.977503,20163.598080,17413.350035,8594.581019,11093.081366,32.695999,-885.231995,-469.455994,1540.000000,-3500.000000,-1400.000000
-11330.389837,-436.663680,-1407.802273,-16325.669447,1461.222942,-4510.313810,-5468.019005,-4192.024969,3013.417484,15602.501107,12746.350497,14750.452608,20237.135319,17490.709423,8648.851055,11130.274669,34.647999,-884.255981,-466.528015,1680.000000,-4060.000000,-1680.000000
-11342.705648,-442.765706,-1406.952906,-16393.037604,1458.585436,-4509.509147,-5480.357168,-4198.216402,3030.382458,15658.089895,12806.052006,14797.257161,20301.955378,17558.971650,8702.048207,11167.803248,34.647999,-883.280029,-464.576019,2660.000000,-4060.000000,-1960.000000
-11340.045791,-433.892063,-1410.395075,-16408.482660,1462.876971,-4509.598554,-5475.797412,-4188.538097,3036.685650,15672.640881,12820.200660,14815.652647,20316.126384,17575.467238,8721.293059,11178.733251,35.624001,-882.791992,-465.552002,3500.000000,-4200.000000,-2380.000000
-11327.953497,-417.016496,-1417.569985,-16373.591587,1464.687462,-4517.756941,-5465.113278,-4177.071652,3034.964566,15644.388276,12789.243494,14797.771251,20279.938910,17535.211746,8700.841212,11156.895597,37.088001,-885.720032,-467.992004,3920.000000,-4620.000000,-2520.000000
-11313.849546,-397.682237,-1424.677840,-16298.690891,1467.257913,-4524.551871,-5448.438877,-4166.029890,3014.155092,15580.819914,12721.160081,14747.099846,20203.227723,17455.684239,8648.873407,11112.594439,34.647999,-883.768005,-468.968018,4620.000000,-4480.000000,-2940.000000
-11311.346151,-395.268249,-1430.310479,-16231.143919,1466.699119,-4527.390543,-5439.028792,-4162.654777,2983.108518,15516.648056,12654.238958,14695.847296,20132.998542,17384.583340,8592.502307,11076.183447,38.063999,-883.768005,-467.992004,4760.000000,-4060.000000,-3220.000000
-11321.247974,-414.446046,-1431.226901,-16210.937942,1460.261817,-4524.864796,-5440.951042,-4170.768460,2968.155201,15491.502344,12629.920260,14671.975633,20110.177411,17362.186892,8569.077679,11065.476962,38.063999,-883.280029,-464.576019,5180.000000,-3780.000000,-3220.000000
-11328.959325,-430.874578,-1424.722543,-16239.816396,1455.299730,-4517.756941,-5450.606996,-4180.335007,2981.923876,15517.162146,12654.484827,14685.386680,20138.161795,17393.300521,8586.288522,11081.190238,39.528000,-886.208008,-467.503998,5740.000000,-3500.000000,-3360.000000
-11333.809654,-441.178732,-1413.121988,-16306.916333,1454.986805,-4509.889127,-5466.052051,-4192.740225,3006.890775,15581.646929,12716.734435,14730.805425,20209.106232,17464.937862,8631.729619,11115.746035,41.480000,-881.816040,-466.040009,6160.000000,-3220.000000,-3360.000000
-11342.973869,-449.761802,-1409.188081,-16381.302939,1452.952797,-4508.749188,-5483.262895,-4199.132824,3029.913071,15648.702162,12786.226009,14783.510838,20283.448134,17539.369171,8685.619674,11154.168684,40.504002,-883.280029,-467.015991,6440.000000,-2800.000000,-3500.000000
-11337.810616,-438.988261,-1407.310534,-16415.165831,1458.808954,-4509.822072,-5485.654531,-4188.940428,3043.145304,15683.973215,12821.094730,14818.357208,20320.462623,17575.958976,8716.979172,11174.575826,41.968002,-879.864014,-467.503998,6720.000000,-2660.000000,-3360.000000
-11328.869918,-425.286642,-1413.211395,-16401.061881,1457.378442,-4517.578127,-5484.536944,-4179.284475,3043.279415,15674.630186,12811.729349,14817.887821,20306.649245,17557.317621,8706.183279,11165.568073,40.015999,-880.840027,-467.992004,6860.000000,-2240.000000,-3080.000000
-11318.968096,-410.802711,-1423.180273,-16341.986220,1455.903227,-4525.490645,-5473.115203,-4168.041547,3028.035525,15622.528270,12758.576901,14781.521533,20245.628982,17491.201161,8664.698442,11133.985059,40.015999,-881.328003,-467.015991,6580.000000,-1960.000000,-2800.000000
-11310.988523,-400.476205,-1428.857616,-16266.079696,1458.406622,-4527.479950,-5454.652662,-4155.055184,2999.291181,15553.573138,12686.760746,14726.044503,20168.493112,17413.819422,8612.417711,11093.371939,44.408001,-879.376038,-465.552002,6720.000000,-1680.000000,-2660.000000
-11311.703779,-401.973772,-1427.628270,-16219.588067,1460.418279,-4525.133017,-5445.264929,-4155.122239,2976.313588,15507.372082,12642.772513,14684.693776,20121.800318,17368.937119,8578.666577,11068.494447,42.944000,-881.328003,-464.576019,6440.000000,-1540.000000,-2520.000000
-11321.829119,-416.144778,-1423.672011,-16228.931097,1458.987768,-4518.874528,-5449.802333,-4163.973530,2970.725652,15511.618914,12647.824007,14680.424593,20131.568030,17381.163523,8579.225371,11073.210665,42.944000,-880.351990,-464.576019,6300.000000,-1400.000000,-2100.000000
-11337.542395,-440.262311,-1417.704096,-16288.945531,1456.551427,-4509.509147,-5462.408717,-4174.098870,2981.141565,15561.373897,12698.115432,14712.007607,20193.281197,17445.938879,8619.704380,11108.302904,41.480000,-880.351990,-466.528015,5880.000000,-1260.000000,-1680.000000
-11343.063276,-450.678223,-1410.529186,-16368.338927,1453.265721,-4506.178737,-5481.564162,-4184.380673,3015.227975,15632.787720,12771.518561,14767.819913,20273.948642,17527.768615,8673.795602,11149.564224,43.920002,-881.328003,-466.040009,5740.000000,-1400.000000,-1260.000000
-11344.091456,-447.526627,-1411.043276,-16425.604096,1449.980015,-4509.106816,-5494.930505,-4191.130899,3043.055897,15684.353195,12825.609782,14815.205612,20330.319742,17584.072660,8716.643896,11176.386318,43.431999,-877.911987,-467.503998,5320.000000,-1260.000000,-1120.000000
-11335.553090,-434.048526,-1415.312459,-16424.821785,1455.053861,-4511.587860,-5485.945104,-4181.519649,3046.408659,15687.504791,12829.074303,14823.028722,20329.828004,17584.095011,8727.149216,11177.347443,40.504002,-878.888000,-469.455994,4900.000000,-980.000000,-700.000000
-11324.265459,-417.240014,-1423.895529,-16372.317537,1458.585436,-4519.835653,-5470.187124,-4168.242713,3030.114237,15644.477683,12783.543799,14791.468059,20274.909767,17526.919249,8695.141518,11147.999602,40.015999,-878.400024,-468.968018,4760.000000,-980.000000,-280.000000
-11318.230488,-407.896985,-1431.673936,-16300.255513,1457.534904,-4527.435246,-5457.223112,-4159.033794,3003.716827,15578.115353,12716.801490,14741.288393,20201.484287,17448.129350,8639.418619,11108.504070,41.968002,-879.376038,-466.040009,4760.000000,-980.000000,0.000000
-11313.313104,-404.991258,-1431.606881,-16241.269260,1459.390099,-4527.055267,-5445.264929,-4155.613977,2981.029806,15526.616934,12661.950310,14695.892000,20143.749731,17388.450192,8595.050406,11079.066822,38.063999,-877.911987,-461.160004,4760.000000,-700.000000,140.000000
-11315.660037,-410.869767,-1425.124875,-16224.237230,1463.703986,-4520.729723,-5439.118199,-4159.033794,2969.384547,15510.836603,12644.560652,14677.742383,20128.662304,17377.989576,8585.305045,11073.590645,35.136002,-878.888000,-466.040009,4620.000000,-420.000000,420.000000
-11323.930183,-420.704534,-1412.831415,-16259.083600,1466.565009,-4510.894956,-5444.214397,-4170.410832,2974.324283,15540.005629,12675.115487,14698.127174,20166.816731,17422.089567,8611.657752,11094.578933,34.647999,-877.424011,-465.552002,4340.000000,-560.000000,560.000000
-11330.926279,-428.907624,-1404.114235,-16330.564479,1464.575704,-4504.636467,-5460.486467,-4183.263085,2999.090016,15604.512764,12741.299002,14748.552710,20239.884584,17497.236132,8661.725660,11131.347553,33.184002,-876.447998,-466.528015,4060.000000,-280.000000,560.000000
-11338.257651,-437.244825,-1403.734255,-16403.900552,1456.909055,-4505.597592,-5480.848906,-4193.343722,3027.499083,15669.802209,12811.885811,14802.353359,20312.505402,17566.370078,8707.882012,11169.636091,33.672001,-877.911987,-470.432007,3780.000000,-140.000000,560.000000
-11343.934994,-439.368241,-1414.418389,-16433.024875,1448.884779,-4513.241889,-5491.220116,-4193.321370,3036.328022,15692.556285,12838.752608,14825.465062,20336.198251,17588.341843,8722.924736,11184.611760,29.280001,-877.911987,-466.528015,2940.000000,-140.000000,700.000000
-11338.078837,-427.901796,-1425.035468,-16401.911247,1447.901302,-4520.662668,-5481.050072,-4181.340835,3026.962641,15664.571901,12808.443643,14809.282399,20301.709509,17552.735514,8703.501070,11170.753678,27.816000,-876.936035,-467.992004,2240.000000,140.000000,700.000000
-11323.371389,-412.076761,-1431.159846,-16328.195194,1453.265721,-4525.200072,-5459.234769,-4166.186353,3003.985048,15603.194011,12742.528348,14763.170751,20228.060511,17477.924225,8655.578930,11134.499149,29.280001,-878.888000,-468.968018,2240.000000,140.000000,560.000000
-11310.519136,-397.883403,-1430.958680,-16247.684210,1461.245294,-4524.775389,-5436.704211,-4152.976472,2976.000664,15533.210699,12670.846304,14707.827831,20150.008219,17399.089622,8604.482842,11092.120241,24.888000,-879.864014,-465.063995,2100.000000,-140.000000,420.000000
-11305.579401,-398.978639,-1424.275508,-16211.854364,1464.888628,-4519.790950,-5432.904414,-4155.926902,2961.784954,15502.186477,12637.206928,14679.239950,20116.771175,17367.104276,8575.917313,11069.455572,25.375999,-876.936035,-465.063995,2100.000000,-560.000000,280.000000
-11315.883555,-414.624860,-1418.799331,-16233.468501,1463.927503,-4514.985325,-5440.861635,-4169.472059,2961.494382,15517.430367,12651.467341,14683.665595,20138.318257,17392.473506,8588.300179,11079.737375,20.007999,-875.960022,-466.528015,1960.000000,-560.000000,280.000000
-11333.273212,-431.120447,-1411.400904,-16301.931894,1462.117012,-4508.503319,-5454.317385,-4183.754824,2978.548763,15576.729545,12712.733473,14725.955096,20207.385147,17466.234263,8637.183444,11117.601230,19.520000,-876.936035,-467.015991,1680.000000,-980.000000,140.000000
-11344.046753,-440.485828,-1408.562232,-16380.699442,1457.914884,-4507.519842,-5472.109374,-4192.561411,3006.868423,15646.712857,12785.823677,14781.834457,20285.012756,17543.973630,8691.945218,11159.309585,19.520000,-875.471985,-469.455994,1820.000000,-980.000000,-140.000000
-11345.656079,-438.630633,-1412.607898,-16424.218288,1453.310424,-4511.789025,-5482.435880,-4191.600286,3025.934461,15688.532971,12829.029599,14818.178394,20328.598658,17582.619796,8724.668172,11181.907199,21.960001,-875.471985,-471.408020,1960.000000,-700.000000,-140.000000
-11336.894195,-425.376049,-1420.051029,-16411.209573,1453.064555,-4517.332258,-5477.362034,-4183.196030,3026.672068,15679.726384,12820.312419,14816.256144,20314.405300,17564.537235,8718.208518,11174.665233,20.007999,-876.936035,-471.895996,1260.000000,-560.000000,-420.000000
-11317.626991,-405.371237,-1426.868311,-16346.970659,1453.712756,-4524.350706,-5463.861580,-4169.650873,3014.691533,15628.764406,12765.282424,14778.995786,20249.115854,17496.230304,8673.996767,11140.042381,18.056000,-874.496033,-467.503998,1120.000000,-840.000000,-560.000000
-11309.289790,-398.621011,-1432.500950,-16268.605443,1455.299730,-4528.485778,-5446.382516,-4161.201914,2986.774205,15559.406943,12694.092118,14722.490576,20170.683583,17415.495803,8619.525566,11098.423433,20.496000,-874.007996,-468.968018,1400.000000,-840.000000,-560.000000
-11305.713511,-396.855223,-1430.221072,-16217.084672,1460.261817,-4525.088313,-5433.105580,-4156.619806,2963.617797,15513.675274,12644.918280,14681.229255,20120.883896,17368.646546,8584.276865,11072.406003,17.568001,-875.960022,-470.920013,1260.000000,-840.000000,-840.000000
-11312.083758,-407.896985,-1423.940232,-16223.924306,1459.703023,-4518.583956,-5436.257176,-4160.687823,2959.885056,15516.782167,12649.187463,14677.004776,20129.958705,17379.621253,8585.662673,11077.703366,17.080000,-875.471985,-469.455994,1400.000000,-980.000000,-840.000000
-11324.600735,-422.246805,-1413.278450,-16278.686080,1460.820611,-4509.665610,-5446.673089,-4171.528419,2973.385510,15561.239786,12698.718929,14711.359407,20187.335633,17441.267364,8625.381723,11108.392311,20.984001,-876.447998,-467.015991,1400.000000,-1120.000000,-980.000000
-11337.788264,-435.903720,-1408.092845,-16353.966755,1460.105355,-4506.156386,-5463.347490,-4183.263085,2994.262039,15625.054017,12766.802343,14762.947233,20263.510378,17520.549002,8679.160020,11149.474817,17.080000,-878.400024,-468.968018,1400.000000,-1120.000000,-1120.000000
-11341.252785,-439.792924,-1411.333848,-16412.908305,1453.600997,-4510.738493,-5479.574857,-4189.499222,3017.910185,15678.944073,12823.732236,14806.354321,20320.775547,17574.148485,8716.554489,11177.325091,20.984001,-878.888000,-468.968018,1540.000000,-1120.000000,-1120.000000
-11338.257651,-434.942595,-1420.140436,-16422.318390,1448.147172,-4518.427493,-5481.117127,-4183.710120,3024.615708,15689.114116,12834.461073,14817.060806,20327.101091,17575.757811,8722.500053,11182.197771,19.520000,-876.447998,-469.944000,1540.000000,-1120.000000,-1260.000000
-11329.808692,-420.525720,-1432.389192,-16375.715003,1447.074288,-4528.105799,-5468.510743,-4170.410832,3012.970449,15647.741037,12790.629302,14788.785850,20277.904901,17522.739473,8692.615770,11159.466047,19.032000,-876.936035,-467.992004,1540.000000,-840.000000,-1400.000000
-11316.107072,-401.571441,-1437.664203,-16293.751156,1452.975148,-4531.838540,-5448.327118,-4157.335062,2988.897620,15575.701365,12714.901592,14736.013381,20195.337557,17440.619164,8641.877310,11117.154195,20.496000,-877.911987,-468.480011,1540.000000,-980.000000,-1400.000000
-11305.489994,-393.413054,-1436.121933,-16227.724102,1458.540733,-4531.302098,-5434.983127,-4153.177637,2966.836449,15515.441062,12654.887158,14689.030014,20131.366865,17376.313195,8595.385682,11082.330177,23.424000,-875.960022,-469.944000,1260.000000,-840.000000,-1540.000000
-11306.764043,-400.878537,-1428.589395,-16214.268352,1459.814782,-4526.764694,-5436.815970,-4161.939521,2959.214504,15502.253533,12642.481940,14676.736555,20119.252219,17366.657241,8581.572304,11074.372956,23.424000,-877.424011,-469.944000,840.000000,-700.000000,-1680.000000
-11316.576459,-416.256537,-1418.262889,-16257.764847,1457.892532,-4520.170929,-5447.813028,-4177.742204,2970.010396,15539.245670,12681.105755,14703.335131,20165.252109,17414.557030,8609.288467,11098.557544,24.400000,-879.376038,-472.384003,0.000000,-840.000000,-1820.000000
-11324.265459,-425.063124,-1407.578755,-16329.491595,1460.194762,-4513.241889,-5462.654586,-4193.567239,2992.563306,15603.395176,12746.886938,14754.855902,20239.705770,17492.542266,8657.791753,11136.443750,25.375999,-880.840027,-469.944000,280.000000,-700.000000,-1820.000000
-11332.803825,-432.930938,-1405.075360,-16396.949160,1459.255989,-4509.822072,-5475.037453,-4197.031760,3013.663353,15661.956747,12808.175422,14805.639065,20307.342149,17561.117418,8707.054997,11173.346481,32.208000,-877.911987,-474.824005,-140.000000,-560.000000,-1960.000000
-11335.508387,-430.919281,-1414.731314,-16418.742111,1455.657358,-4515.052380,-5478.233752,-4192.427301,3016.658487,15678.921721,12828.314343,14823.095777,20327.324608,17577.143619,8727.216271,11185.572885,27.328001,-881.328003,-473.360016,-560.000000,-560.000000,-1820.000000
-11332.692067,-420.168092,-1428.231767,-16386.019157,1455.009157,-4523.724857,-5468.041357,-4181.989036,3000.654638,15645.505863,12795.434927,14800.587571,20289.684271,17536.619906,8710.117186,11168.227931,29.768000,-880.351990,-473.360016,-1120.000000,-280.000000,-1960.000000
-11322.969058,-405.639458,-1436.323099,-16313.398339,1457.311387,-4528.932813,-5450.964624,-4165.001710,2977.609989,15578.964720,12728.334991,14752.330154,20215.677645,17460.579271,8661.479790,11131.168739,31.232000,-880.840027,-471.408020,-1540.000000,-280.000000,-1960.000000
-11310.250915,-398.755121,-1438.222997,-16241.649239,1457.870180,-4532.307927,-5437.598281,-4157.960911,2958.722765,15515.977504,12662.352641,14701.479936,20143.906193,17387.064384,8607.835604,11091.360282,31.232000,-880.351990,-471.895996,-1820.000000,-140.000000,-1960.000000
-11307.702816,-403.583098,-1433.327965,-16209.775652,1458.361919,-4530.788008,-5433.552615,-4162.475963,2950.184399,15487.993120,12632.446007,14674.031994,20113.686635,17357.515378,8584.053348,11074.529418,36.600002,-883.768005,-471.408020,-1960.000000,-280.000000,-1960.000000
-11312.240221,-411.897947,-1423.336735,-16230.160443,1459.948893,-4523.143711,-5439.833455,-4173.763594,2959.616835,15508.690835,12652.182597,14683.553837,20136.820690,17383.577512,8596.927952,11084.073613,33.184002,-879.376038,-471.408020,-1820.000000,-420.000000,-1960.000000
-11323.281982,-424.638441,-1413.390209,-16296.433365,1459.255989,-4515.991153,-5455.054993,-4187.845193,2980.068681,15568.772324,12715.818014,14727.318552,20206.312264,17455.147797,8642.726677,11116.505994,32.695999,-879.376038,-471.408020,-1680.000000,-560.000000,-1820.000000
-11335.776607,-436.753087,-1410.909165,-16372.742220,1456.104393,-4512.839557,-5472.623464,-4194.841289,3002.018094,15633.659438,12786.047195,14781.588588,20282.464657,17533.557717,8693.733358,11156.962652,35.624001,-878.888000,-471.895996,-1540.000000,-700.000000,-1820.000000
-11339.509349,-437.244825,-1414.552500,-16415.702273,1452.729279,-4515.566470,-5482.480583,-4192.941391,3015.026810,15670.986852,12828.716675,14814.646818,20322.898963,17573.790857,8722.522404,11180.901370,36.600002,-879.864014,-472.384003,-1820.000000,-700.000000,-1540.000000
-11331.306259,-425.599566,-1421.436837,-16402.514744,1454.584474,-4520.886185,-5476.155040,-4183.464251,3014.110388,15665.041288,12821.452358,14814.266838,20309.554971,17557.339973,8719.862547,11176.006338,36.600002,-881.816040,-472.872009,-1400.000000,-1260.000000,-1540.000000
-11319.795110,-411.428560,-1432.255081,-16337.381761,1457.423145,-4527.278784,-5460.844095,-4171.863696,2995.983123,15610.950066,12764.656575,14772.804352,20243.393808,17487.311958,8679.696462,11142.813998,32.695999,-877.424011,-470.920013,-1260.000000,-1260.000000,-1400.000000
-11309.669770,-399.246859,-1436.166636,-16259.128303,1460.798259,-4530.832712,-5444.259100,-4164.152344,2971.753832,15543.492501,12694.583856,14717.595544,20167.442580,17406.599809,8626.298145,11100.345683,35.136002,-878.400024,-472.384003,-840.000000,-1400.000000,-1400.000000
-11305.959380,-395.268249,-1431.539825,-16209.686245,1466.855582,-4528.642241,-5434.513740,-4164.621730,2953.984195,15498.833716,12650.260347,14679.664633,20120.995655,17359.974070,8588.948380,11073.277721,37.088001,-881.328003,-473.847992,-980.000000,-1400.000000,-1400.000000
-11313.223697,-405.348886,-1424.186101,-16214.894201,1467.637893,-4523.233118,-5437.911205,-4173.048338,2951.167876,15502.074719,12653.657812,14677.228293,20127.097681,17369.607671,8588.613103,11076.362261,39.040001,-879.376038,-471.895996,-980.000000,-1400.000000,-1400.000000
-11325.114825,-419.564595,-1414.887776,-16272.874626,1465.335663,-4515.812339,-5450.450534,-4186.526440,2969.988044,15553.394324,12704.418624,14712.968732,20184.228740,17432.773701,8627.773360,11106.939448,35.624001,-879.864014,-471.408020,-840.000000,-1820.000000,-1120.000000
-11336.558919,-432.282738,-1410.484482,-16352.066857,1461.133535,-4512.101950,-5467.303749,-4200.026894,2996.743083,15622.215345,12775.206599,14766.881140,20262.549253,17513.776423,8684.300921,11148.714858,35.624001,-882.791992,-468.968018,-1120.000000,-1820.000000,-980.000000
-11340.895157,-432.774476,-1411.378552,-16407.163907,1459.255989,-4514.515938,-5477.540848,-4204.966629,3016.479673,15670.718631,12826.548556,14810.824670,20315.299370,17568.247624,8727.551547,11178.912065,36.600002,-880.840027,-473.847992,-700.000000,-1960.000000,-1400.000000
-11339.352887,-425.241938,-1417.905261,-16412.505974,1458.473677,-4518.986287,-5474.836287,-4194.975399,3016.747894,15672.909102,12830.951849,14821.017065,20317.758062,17569.767543,8735.084085,11183.628283,35.624001,-878.888000,-471.895996,-280.000000,-2100.000000,-1260.000000
-11331.127445,-414.647211,-1429.148189,-16368.763610,1455.567951,-4525.982383,-5464.979168,-4179.172716,3002.487481,15633.570031,12792.193924,14794.709062,20270.998212,17520.481947,8702.025855,11160.874207,36.112000,-879.864014,-474.335999,-420.000000,-1960.000000,-1400.000000
-11320.309200,-404.544223,-1435.473732,-16295.136964,1457.534904,-4531.436209,-5448.081249,-4166.141649,2979.062853,15570.448705,12727.217403,14744.015306,20196.119868,17443.904870,8650.192159,11121.512785,31.720001,-879.864014,-473.847992,-560.000000,-2100.000000,-1400.000000
-11314.676561,-399.671543,-1434.669070,-16230.495719,1464.195724,-4529.782180,-5432.010345,-4159.436126,2953.961844,15510.702492,12666.621824,14697.188401,20132.372693,17381.878779,8605.287505,11088.365148,34.160000,-878.400024,-469.455994,-840.000000,-1820.000000,-1400.000000
-11315.324761,-405.594755,-1427.807084,-16213.933076,1467.727300,-4522.517863,-5430.490426,-4165.940483,2944.149428,15495.860934,12648.360449,14680.871627,20119.498088,17370.635852,8590.334188,11076.809296,33.672001,-882.304016,-471.408020,-700.000000,-2100.000000,-1260.000000
-11320.823290,-415.384819,-1416.944136,-16251.327545,1469.783660,-4515.097083,-5439.319365,-4178.815088,2957.225198,15532.987181,12684.838496,14703.737462,20162.011106,17414.422919,8617.223336,11094.757747,33.672001,-880.840027,-469.455994,-140.000000,-1960.000000,-1400.000000
-11335.374276,-432.640366,-1412.004401,-16328.709284,1464.665111,-4513.085426,-5459.055955,-4192.851984,2980.560420,15601.428223,12755.402953,14755.638213,20239.526956,17491.178810,8667.693575,11133.716838,30.256001,-879.864014,-468.480011,0.000000,-1820.000000,-1540.000000
-11340.872805,-437.736563,-1409.769226,-16399.609017,1459.524209,-4513.085426,-5475.439784,-4198.931658,3008.790673,15665.801247,12822.860518,14811.003484,20310.940780,17562.056191,8715.302791,11169.770201,30.256001,-880.840027,-471.408020,-140.000000,-1680.000000,-1540.000000
-11338.771741,-431.142799,-1416.631212,-16425.201765,1456.037337,-4518.159272,-5480.826554,-4193.880164,3023.028734,15689.114116,12846.843940,14836.953859,20333.627800,17582.798610,8733.072428,11183.605931,28.304001,-880.840027,-471.408020,-140.000000,-1680.000000,-1540.000000
-11328.333477,-413.730790,-1426.443628,-16391.137706,1457.467849,-4525.535348,-5471.639987,-4183.263085,3015.876176,15660.056849,12815.238573,14819.474795,20296.792125,17542.073732,8713.224079,11164.897521,28.304001,-881.816040,-467.503998,-420.000000,-1540.000000,-1540.000000
-11316.151776,-398.777473,-1433.573834,-16315.722920,1460.664148,-4529.446903,-5452.618653,-4168.868562,2990.171670,15594.253313,12746.752828,14768.423410,20220.930305,17463.261481,8663.826724,11124.731436,28.304001,-879.864014,-470.432007,-700.000000,-1400.000000,-1400.000000
-11310.697950,-397.190499,-1437.463038,-16247.348934,1460.664148,-4530.028049,-5439.274661,-4159.927864,2964.109536,15531.936649,12683.184467,14718.087282,20152.310449,17393.188762,8614.809348,11089.393328,25.864000,-881.816040,-470.432007,-840.000000,-1400.000000,-1400.000000
-11307.836927,-397.570479,-1429.192892,-16216.391768,1468.911942,-4523.680153,-5431.406847,-4160.419602,2955.638225,15505.181611,12654.417772,14695.579075,20124.370769,17370.121762,8593.910467,11073.702404,25.864000,-880.840027,-470.432007,-840.000000,-980.000000,-1260.000000
-11314.721264,-406.488825,-1419.603994,-16238.519995,1470.878896,-4517.734589,-5439.252310,-4172.489544,2962.008472,15525.432292,12673.796734,14707.917238,20148.533004,17398.396718,8604.482842,11084.654759,25.864000,-877.911987,-470.920013,-1260.000000,-980.000000,-1400.000000
-11329.115788,-421.308031,-1412.652601,-16306.022263,1469.247218,-4512.906613,-5455.524380,-4187.129937,2977.744100,15583.390365,12733.207671,14749.603242,20215.901162,17468.022402,8650.594491,11121.959820,21.472000,-877.911987,-467.503998,-1540.000000,-980.000000,-1400.000000
-11339.777570,-426.404229,-1409.590412,-16377.972529,1468.911942,-4509.375037,-5467.549618,-4193.053149,2999.112368,15645.416456,12798.273599,14801.481641,20287.538503,17541.805511,8706.809128,11161.991794,23.424000,-877.911987,-470.432007,-1680.000000,-840.000000,-1400.000000
-11339.934032,-421.822121,-1410.462130,-16418.183317,1468.196686,-4512.884261,-5474.612769,-4193.589591,3016.300859,15683.414421,12839.110236,14838.831406,20326.072911,17581.122229,8738.436847,11183.784745,19.520000,-878.888000,-467.015991,-1820.000000,-840.000000,-1260.000000
-11331.462721,-410.489787,-1416.452398,-16406.672169,1467.079099,-4519.634488,-5471.528229,-4184.671245,3022.492292,15677.245340,12834.282259,14841.021876,20314.137079,17564.738401,8733.340649,11178.397975,20.984001,-876.936035,-469.455994,-1680.000000,-1120.000000,-1260.000000
-11315.213003,-390.797900,-1424.700192,-16341.941517,1468.084928,-4527.189377,-5455.971415,-4166.678091,3013.641001,15623.511746,12778.827581,14805.169678,20249.406427,17495.224475,8689.777099,11144.669192,20.007999,-879.864014,-467.503998,-1680.000000,-1400.000000,-1120.000000
-11307.836927,-383.690045,-1430.556349,-16266.996117,1469.291922,-4530.899767,-5438.984089,-4157.402117,2986.617742,15555.048353,12708.821918,14751.503140,20174.148103,17416.367521,8638.368087,11106.291247,20.496000,-876.936035,-467.015991,-1540.000000,-1400.000000,-1260.000000
-11310.429729,-392.139005,-1431.696288,-16222.382036,1468.040224,-4530.028049,-5432.166807,-4157.737393,2964.936550,15512.669446,12664.565464,14712.387587,20130.249277,17371.038183,8602.359426,11082.486639,21.960001,-876.447998,-467.015991,-1400.000000,-1400.000000,-1120.000000
-11316.889383,-404.588926,-1424.521378,-16226.941791,1466.743823,-4524.037781,-5435.564272,-4164.733489,2962.679024,15515.038731,12667.158266,14709.683026,20136.820690,17381.543503,8601.286543,11083.805392,21.960001,-877.424011,-468.968018,-1260.000000,-1680.000000,-980.000000
-11329.227546,-421.576252,-1416.117122,-16285.123382,1463.279303,-4517.153444,-5451.612824,-4178.680978,2982.817946,15563.251443,12719.461348,14745.870500,20195.270502,17444.016629,8637.988107,11113.756730,20.496000,-878.888000,-469.455994,-1400.000000,-1820.000000,-1120.000000
-11340.626936,-434.428505,-1410.976220,-16363.622709,1458.138401,-4514.828863,-5470.947083,-4190.147423,3010.847033,15630.105511,12792.864477,14800.341702,20274.216863,17524.281743,8691.319369,11153.922815,20.984001,-879.376038,-464.576019,-1540.000000,-1820.000000,-1120.000000
-11347.153645,-439.502351,-1413.099636,-16420.642009,1454.405660,-4515.901746,-5482.190011,-4190.639161,3029.510740,15678.832314,12845.435780,14842.407685,20330.856184,17578.618834,8734.301774,11182.935379,20.496000,-881.328003,-467.992004,-1680.000000,-1820.000000,-980.000000
-11341.029267,-428.572348,-1418.575814,-16425.939372,1454.830343,-4519.701543,-5480.066595,-4181.117318,3035.880987,15686.543666,12850.889605,14852.913005,20334.924201,17580.898712,8744.762390,11186.690472,21.960001,-879.864014,-467.015991,-1680.000000,-1960.000000,-980.000000
-11332.267384,-416.412999,-1430.601052,-16381.794677,1453.265721,-4529.424552,-5470.321235,-4170.746108,3027.163807,15647.718686,12809.404768,14824.280420,20285.571550,17529.780272,8715.816881,11163.332899,24.888000,-876.936035,-466.040009,-1400.000000,-1960.000000,-980.000000
-11319.683351,-404.879499,-1437.083058,-16308.078624,1455.970282,-4534.073715,-5452.350432,-4159.302015,3008.835376,15582.764516,12739.577918,14774.324271,20209.441508,17453.292603,8663.893779,11125.558451,22.936001,-877.424011,-465.063995,-980.000000,-1960.000000,-980.000000
-11308.730997,-395.849394,-1435.406677,-16239.391713,1463.949855,-4531.793837,-5435.743086,-4154.764611,2987.712978,15523.063007,12676.210722,14725.441006,20142.766254,17387.891398,8617.290392,11088.052224,25.864000,-879.376038,-465.063995,-700.000000,-1820.000000,-980.000000
-11301.757252,-395.178842,-1425.348392,-16217.263486,1471.169468,-4524.574223,-5430.512778,-4162.833591,2980.806289,15507.372082,12656.541187,14707.023168,20125.130728,17371.976956,8603.566421,11074.797639,25.864000,-877.424011,-464.576019,-420.000000,-1680.000000,-980.000000
-11305.735863,-405.170072,-1413.412561,-16251.551062,1475.729224,-4512.616040,-5434.424333,-4172.735414,2990.395187,15540.430312,12690.091156,14728.570250,20164.380391,17415.249934,8629.919127,11096.232962,25.375999,-879.376038,-466.040009,140.000000,-1680.000000,-1260.000000
-11317.805805,-418.849339,-1406.774093,-16325.892964,1470.767137,-4505.910516,-5450.942272,-4187.129937,3012.366952,15604.311598,12759.068639,14778.213475,20238.923459,17491.111754,8681.372843,11135.929660,29.280001,-876.936035,-466.528015,280.000000,-1680.000000,-1120.000000
-11329.093436,-429.913453,-1406.215299,-16400.503087,1463.212247,-4506.692828,-5470.544752,-4198.819899,3034.651641,15668.662270,12827.867309,14830.851833,20312.684216,17561.653860,8728.199748,11173.055908,29.768000,-877.911987,-464.576019,420.000000,-980.000000,-1260.000000
-11331.038038,-430.204026,-1414.127816,-16430.677942,1457.847829,-4512.951316,-5477.764365,-4197.188222,3043.167656,15695.372605,12855.225844,14857.495112,20341.249745,17586.084317,8748.629242,11189.707957,28.792000,-877.911987,-465.552002,420.000000,-840.000000,-1400.000000
-11323.416093,-419.251671,-1423.493197,-16400.771308,1458.138401,-4520.930889,-5467.147287,-4185.431204,3033.891682,15668.125828,12826.749721,14843.301754,20308.191515,17552.221424,8736.536948,11177.168629,30.743999,-877.911987,-466.040009,560.000000,-560.000000,-1540.000000
-11305.735863,-394.932973,-1427.203587,-16321.154394,1468.375500,-4523.858967,-5443.275624,-4168.890914,3013.886871,15600.802374,12754.955918,14795.938408,20229.289857,17473.878559,8691.297017,11137.337820,34.160000,-878.888000,-467.015991,560.000000,-280.000000,-1540.000000
-11292.369520,-383.913563,-1428.857616,-16247.170120,1472.778794,-4523.724857,-5425.461283,-4158.922036,2995.759606,15538.910394,12689.152383,14745.781093,20156.780798,17400.229561,8638.748066,11101.060939,35.136002,-877.424011,-466.040009,420.000000,-140.000000,-1680.000000
-11289.732014,-386.327551,-1424.744895,-16211.407329,1476.176259,-4521.690848,-5415.738275,-4161.917169,2983.644960,15504.779280,12653.724868,14714.041616,20121.286228,17367.484256,8613.110615,11083.671282,32.695999,-877.911987,-470.920013,280.000000,280.000000,-1820.000000
-11294.716453,-395.581173,-1414.328982,-16230.227498,1477.226791,-4514.940621,-5420.946231,-4172.802469,2989.948152,15520.961943,12669.348737,14723.742273,20143.973248,17392.629968,8624.845281,11092.254352,34.647999,-879.376038,-469.944000,140.000000,560.000000,-1820.000000
-11309.155680,-410.646249,-1406.908203,-16300.434327,1472.287056,-4508.793892,-5438.939385,-4189.141594,3012.389304,15582.496295,12731.620697,14769.540998,20214.604761,17464.267309,8669.928750,11127.011314,36.600002,-878.888000,-467.992004,140.000000,980.000000,-1960.000000
-11319.482186,-419.229319,-1401.789654,-16376.251444,1469.828364,-4504.792929,-5453.847999,-4196.383559,3036.328022,15650.780875,12803.325093,14823.699275,20291.137134,17540.374999,8724.981096,11169.680794,38.552002,-877.911987,-465.552002,280.000000,980.000000,-2100.000000
-11321.650305,-417.351772,-1404.449511,-16419.278552,1467.123803,-4505.150557,-5461.291130,-4192.717873,3052.108354,15690.544628,12845.346373,14859.797342,20333.337228,17581.077526,8758.776934,11196.681702,37.576000,-877.911987,-472.872009,280.000000,1400.000000,-1960.000000
-11321.225622,-414.088418,-1417.033543,-16411.522497,1459.770079,-4513.845386,-5460.620577,-4184.201859,3049.962586,15680.486343,12838.216166,14857.070429,20321.781376,17565.543063,8752.831370,11191.272580,37.088001,-876.936035,-471.895996,140.000000,1400.000000,-1820.000000
-11312.709607,-401.437330,-1428.701154,-16347.752970,1461.289997,-4522.383752,-5445.801371,-4171.394309,3027.610842,15620.784834,12779.006395,14815.384426,20255.620212,17496.230304,8709.647800,11156.001527,38.063999,-877.911987,-467.992004,0.000000,1120.000000,-1680.000000
-11300.416148,-387.780415,-1431.986860,-16269.477161,1467.369672,-4524.976555,-5428.367010,-4161.827762,3000.185251,15551.583833,12707.838441,14763.260157,20178.171417,17416.881611,8652.427334,11113.577916,38.552002,-876.447998,-469.455994,0.000000,1260.000000,-1540.000000
-11294.403529,-387.489842,-1430.310479,-16220.526841,1468.107279,-4524.194243,-5422.063818,-4161.984225,2982.683835,15508.444966,12661.726792,14727.296201,20130.182222,17369.406506,8612.440063,11087.001692,37.576000,-876.447998,-470.432007,280.000000,980.000000,-1400.000000
-11302.539563,-404.879499,-1425.348392,-16228.282896,1462.988730,-4520.774427,-5429.886929,-4172.958931,2978.459356,15514.859917,12666.264196,14724.859861,20137.714760,17379.665956,8611.300124,11090.265046,37.088001,-877.911987,-472.384003,0.000000,980.000000,-1400.000000
-11318.409302,-425.174883,-1417.547633,-16285.928045,1460.060651,-4515.298249,-5444.124990,-4188.068710,2989.568173,15563.318499,12716.376807,14756.912262,20195.046985,17441.133254,8649.946290,11120.082273,37.576000,-877.911987,-471.895996,-280.000000,980.000000,-1260.000000
-11330.523948,-435.188465,-1410.998572,-16364.092095,1458.831305,-4509.330333,-5459.726508,-4198.663437,3013.305725,15631.871299,12787.969445,14811.428167,20273.836884,17522.225383,8703.791643,11161.589463,36.600002,-877.911987,-474.335999,-280.000000,1120.000000,-1260.000000
-11334.480206,-433.981470,-1412.138511,-16421.133747,1456.864352,-4509.397389,-5469.047185,-4197.232926,3031.812970,15683.861456,12839.579623,14857.539816,20329.760948,17578.931758,8747.422248,11191.831373,38.063999,-877.911987,-470.920013,-420.000000,700.000000,-840.000000
-11326.657096,-422.291508,-1418.799331,-16422.564259,1457.691366,-4515.544118,-5465.493258,-4186.571143,3033.042316,15687.638901,12842.619460,14865.854665,20328.777472,17576.651880,8756.877036,11193.261885,36.600002,-876.447998,-475.800018,-700.000000,560.000000,-840.000000
-11311.726130,-403.806615,-1426.287165,-16367.802485,1462.117012,-4522.450807,-5447.924787,-4170.410832,3018.916013,15643.225985,12795.434927,14832.617621,20273.009869,17520.861926,8727.037457,11167.266806,36.112000,-874.984009,-472.384003,-700.000000,420.000000,-700.000000
-11299.522078,-390.395569,-1431.182197,-16288.811420,1467.280265,-4525.133017,-5424.477807,-4155.010480,2994.060873,15573.555597,12725.049284,14778.615806,20195.181095,17441.423826,8679.249427,11130.520538,36.600002,-875.471985,-472.384003,-560.000000,700.000000,-840.000000
-11294.649398,-388.786243,-1431.182197,-16227.902916,1469.649550,-4524.574223,-5412.609030,-4148.126143,2973.810193,15520.649018,12670.309862,14732.325343,20134.920792,17380.671785,8634.031848,11100.658608,35.136002,-874.984009,-472.384003,-560.000000,700.000000,-840.000000
-11296.079909,-396.296429,-1425.460151,-16216.280009,1468.934294,-4522.361400,-5417.526414,-4160.307844,2968.937513,15512.088300,12659.804542,14719.651904,20125.242487,17369.562968,8615.770473,11091.852020,36.112000,-875.960022,-467.992004,-280.000000,700.000000,-700.000000
-11304.528869,-410.132159,-1418.419351,-16256.893129,1467.906114,-4517.712238,-5431.026868,-4177.831611,2976.715920,15548.186368,12695.634388,14741.891890,20167.084952,17413.484146,8639.329212,11112.370922,37.088001,-876.936035,-471.408020,-280.000000,560.000000,-700.000000
-11318.766930,-424.593738,-1412.205566,-16331.145624,1466.587361,-4510.805549,-5446.538978,-4188.359283,2995.647847,15611.218287,12763.829561,14788.316463,20242.142110,17491.491734,8693.062805,11156.560320,34.160000,-878.400024,-473.360016,-560.000000,700.000000,-700.000000
-11327.238241,-431.209854,-1411.155034,-16402.604151,1463.636930,-4509.889127,-5460.844095,-4193.455481,3020.100656,15672.998509,12829.633096,14839.367847,20311.656035,17562.123246,8742.571919,11196.569943,32.208000,-875.960022,-474.335999,-700.000000,560.000000,-840.000000
-11323.259631,-422.515025,-1414.843072,-16421.536079,1464.352186,-4515.767636,-5462.431069,-4189.365112,3030.628327,15693.249189,12849.548501,14860.803170,20330.096225,17578.887055,8759.223969,11203.722501,33.672001,-877.424011,-472.872009,-560.000000,700.000000,-700.000000
-11313.514270,-408.254612,-1421.950927,-16386.153267,1467.123803,-4522.517863,-5451.635176,-4175.641140,3021.195891,15663.878997,12819.373646,14842.810016,20294.579303,17540.822034,8737.654535,11184.544705,30.256001,-876.447998,-471.408020,-840.000000,560.000000,-980.000000
-11308.976866,-401.370275,-1434.490256,-16317.868688,1465.067442,-4529.491607,-5437.665336,-4162.140687,2993.636190,15597.784888,12750.820845,14791.401004,20221.645560,17466.793056,8687.474869,11150.570053,27.816000,-877.911987,-472.384003,-700.000000,840.000000,-840.000000
-11305.847622,-400.252688,-1440.547578,-16248.019486,1463.480468,-4533.134941,-5424.634269,-4156.888027,2967.618760,15530.349675,12681.463382,14736.371009,20149.784702,17392.652320,8632.176653,11114.024951,27.816000,-873.520020,-469.944000,-840.000000,560.000000,-980.000000
-11299.231505,-396.631705,-1431.450418,-16207.853402,1473.091718,-4526.675287,-5414.844205,-4158.586759,2959.505076,15496.777355,12645.812350,14707.626666,20114.021911,17360.845788,8604.840470,11095.025968,27.816000,-877.424011,-472.872009,-840.000000,700.000000,-840.000000
-11302.494860,-403.069008,-1419.983974,-16223.700788,1476.422128,-4518.047514,-5421.594432,-4171.081385,2967.685815,15512.155355,12660.117466,14713.952209,20133.914963,17384.516285,8612.529470,11102.983189,27.816000,-877.424011,-470.432007,-840.000000,840.000000,-980.000000
-11310.765005,-410.959174,-1407.958735,-16285.682176,1478.098509,-4508.995057,-5432.479731,-4184.157155,2987.422405,15569.644042,12716.108586,14756.085248,20199.070299,17452.890271,8658.976395,11136.890785,28.304001,-876.447998,-472.384003,-700.000000,840.000000,-980.000000
-11322.320857,-422.515025,-1404.181290,-16363.980337,1472.912904,-4507.095159,-5447.522455,-4190.996789,3013.484539,15639.560299,12788.371776,14810.735263,20277.234349,17531.009618,8715.794529,11179.761431,24.400000,-878.400024,-469.455994,-420.000000,840.000000,-980.000000
-11332.133273,-429.421714,-1413.010229,-16413.467099,1462.675805,-4513.063075,-5462.341662,-4189.409815,3032.528225,15680.106363,12833.723466,14845.335763,20323.211887,17572.293290,8747.601062,11204.817737,24.888000,-876.936035,-468.968018,-560.000000,840.000000,-1120.000000
-11330.523948,-424.549034,-1423.381439,-16404.928733,1457.512552,-4518.762770,-5461.469944,-4180.916152,3031.097714,15671.635052,12827.330867,14843.100589,20313.399471,17557.049400,8741.186111,11198.961580,29.280001,-877.424011,-473.847992,-420.000000,840.000000,-1120.000000
-11321.113863,-412.546147,-1434.490256,-16346.367162,1455.389137,-4526.541177,-5447.991842,-4168.756803,3013.596298,15619.533136,12776.547703,14805.795527,20253.161520,17493.034004,8700.930619,11168.652614,24.888000,-875.471985,-471.408020,-840.000000,980.000000,-980.000000
-11314.654209,-408.053447,-1441.419296,-16273.612234,1456.171448,-4531.637374,-5433.217339,-4161.023100,2985.790728,15552.097923,12708.039607,14753.425390,20177.903197,17416.523983,8648.091095,11130.855814,24.400000,-879.376038,-471.408020,-980.000000,840.000000,-1260.000000
-11308.798052,-406.287659,-1436.747782,-16218.291666,1463.145192,-4528.239909,-5420.253327,-4157.938559,2964.869495,15504.376948,12654.730696,14711.359407,20124.124899,17366.634889,8610.428406,11101.977360,24.888000,-878.400024,-469.455994,-280.000000,420.000000,-1120.000000
-11307.881630,-405.572403,-1425.594261,-16212.971951,1467.593189,-4521.221461,-5418.934574,-4163.526495,2962.187286,15501.493573,12648.829836,14703.759814,20122.225001,17367.841884,8607.030941,11096.590590,20.496000,-876.936035,-472.872009,-420.000000,560.000000,-1260.000000
-11319.683351,-419.385781,-1417.122950,-16266.079696,1464.687462,-4514.806511,-5432.233862,-4177.764556,2973.340806,15547.314650,12695.187354,14734.582869,20176.942072,17424.928239,8641.318517,11123.144462,23.912001,-877.424011,-471.408020,-420.000000,700.000000,-1400.000000
-11330.970982,-432.439200,-1411.043276,-16345.473092,1460.552390,-4508.995057,-5452.059859,-4187.196992,2998.374760,15616.336836,12768.836351,14789.791678,20257.095427,17507.629693,8695.677959,11166.283329,26.352001,-876.936035,-471.408020,-280.000000,560.000000,-1400.000000
-11337.989430,-439.591758,-1414.284279,-16412.707140,1452.371651,-4510.246755,-5468.108412,-4187.644027,3026.515606,15675.501904,12832.114140,14838.786702,20320.976713,17570.460447,8741.342573,11202.180231,23.424000,-877.424011,-470.920013,140.000000,980.000000,-1540.000000
-11336.178939,-434.607319,-1425.236633,-16424.553564,1448.884779,-4518.092217,-5471.304711,-4180.312655,3035.948042,15684.979044,12843.871158,14850.901348,20328.755120,17574.863741,8751.400858,11206.762338,22.448000,-876.447998,-473.847992,420.000000,1120.000000,-1680.000000
-11328.780511,-421.240976,-1435.876064,-16377.525494,1447.610730,-4528.150502,-5463.861580,-4168.175658,3022.134664,15641.750770,12800.151145,14820.860603,20278.798971,17519.498470,8720.600154,11178.934417,27.328001,-876.936035,-470.432007,420.000000,980.000000,-1820.000000
-11317.917564,-407.315839,-1439.787619,-16298.310911,1453.377480,-4532.777313,-5444.214397,-4154.764611,2995.781958,15574.494371,12724.579897,14767.372878,20198.332691,17438.473396,8667.023023,11136.555509,22.936001,-878.888000,-470.432007,140.000000,1260.000000,-2100.000000
-11307.412244,-395.804691,-1436.926596,-16228.081730,1462.496991,-4530.743305,-5425.193062,-4148.014384,2975.128946,15515.843393,12661.279757,14719.517794,20130.741016,17373.318061,8618.855014,11100.010407,24.400000,-877.911987,-470.920013,140.000000,1260.000000,-2100.000000
-11309.803880,-403.873671,-1430.265776,-16214.268352,1462.787564,-4525.825921,-5427.070609,-4153.401155,2971.686777,15502.253533,12649.031001,14706.017340,20119.721606,17361.695154,8602.582944,11090.510916,24.400000,-880.351990,-473.847992,-280.000000,1680.000000,-2240.000000
-11314.475395,-413.887252,-1417.681744,-16250.589937,1465.425070,-4516.751113,-5436.257176,-4164.800544,2985.298989,15535.624687,12683.340929,14728.682009,20160.357077,17405.281056,8627.616898,11109.755768,25.864000,-879.864014,-472.872009,-280.000000,1820.000000,-2100.000000
-11325.785378,-424.593738,-1409.031619,-16323.300162,1464.866276,-4510.984362,-5450.830513,-4178.077481,3006.756664,15598.500144,12748.630375,14778.101716,20233.313171,17483.579216,8680.679939,11149.251300,26.352001,-876.936035,-469.944000,-420.000000,1540.000000,-2380.000000
-11336.380105,-430.941633,-1407.288183,-16393.708157,1460.932369,-4509.777368,-5465.716775,-4184.201859,3029.600147,15659.721572,12813.226916,14829.063693,20302.849448,17553.361363,8731.217233,11186.377548,24.400000,-875.960022,-469.944000,-420.000000,1680.000000,-2520.000000
-11336.313049,-424.884310,-1413.010229,-16417.177488,1459.434802,-4512.794854,-5469.605979,-4177.786908,3038.183217,15681.536875,12835.601012,14850.633127,20326.341131,17574.170837,8750.417382,11198.067510,29.280001,-877.424011,-475.312012,-700.000000,1960.000000,-2660.000000
-11328.802863,-410.266269,-1419.827511,-16385.281549,1461.804087,-4516.460540,-5457.603092,-4162.252445,3026.448551,15653.708953,12808.197773,14836.260955,20295.585131,17540.285592,8733.050076,11182.443641,24.888000,-877.424011,-469.944000,-840.000000,1820.000000,-2660.000000
-11316.263535,-394.776511,-1427.605918,-16314.694740,1466.073271,-4521.355572,-5439.900510,-4146.695631,3001.794577,15590.162944,12744.182377,14792.853867,20224.238363,17467.195388,8686.826669,11147.284346,28.792000,-876.447998,-472.872009,-840.000000,1960.000000,-2660.000000
-11304.260648,-385.388778,-1430.712811,-16243.459731,1467.190858,-4525.065961,-5426.936499,-4138.939576,2975.888905,15526.885155,12680.725775,14744.037657,20151.192862,17395.379233,8633.473055,11107.610000,30.256001,-878.888000,-473.360016,-1120.000000,2100.000000,-2800.000000
-11303.925372,-391.088473,-1428.008250,-16213.530745,1466.229733,-4521.333220,-5426.355353,-4143.700498,2961.628492,15499.347806,12653.926033,14717.752006,20122.873202,17367.774828,8607.455624,11089.393328,30.743999,-875.471985,-471.408020,-1120.000000,2380.000000,-2800.000000
-11313.894250,-406.242955,-1421.123912,-16237.111835,1462.564047,-4515.566470,-5436.883025,-4156.217474,2962.813135,15517.787995,12674.199065,14727.989105,20147.326010,17395.200419,8618.586793,11100.166869,32.695999,-877.424011,-470.920013,-1260.000000,2380.000000,-2940.000000
-11331.373314,-428.013555,-1416.094770,-16311.945476,1455.836172,-4510.403217,-5457.424278,-4172.266027,2980.538068,15580.641100,12738.817959,14774.190161,20220.550325,17469.721135,8665.190180,11139.170663,31.720001,-874.984009,-473.360016,-980.000000,2520.000000,-2800.000000
-11341.409247,-439.301186,-1414.619555,-16389.595436,1452.483410,-4509.710313,-5473.361072,-4182.167850,3002.599240,15649.417418,12811.438776,14828.549603,20297.462678,17545.426493,8721.740093,11180.856667,31.232000,-876.447998,-472.384003,-980.000000,2380.000000,-2800.000000
-11343.219738,-436.618976,-1417.771151,-16428.778044,1452.483410,-4513.711275,-5479.463098,-4178.032777,3017.686667,15685.090802,12849.682611,14860.959633,20336.332361,17582.105706,8754.217178,11201.152051,32.208000,-875.960022,-471.408020,-980.000000,2520.000000,-2940.000000
-11334.860186,-418.826988,-1423.582604,-16412.371863,1457.356090,-4519.992115,-5470.947083,-4166.298111,3017.127874,15673.892578,12836.606841,14857.785685,20318.786242,17563.441999,8749.232739,11193.485402,33.672001,-875.960022,-469.944000,-840.000000,2240.000000,-2800.000000
-11317.492881,-395.938801,-1429.036430,-16343.506139,1465.872105,-4523.814264,-5448.215359,-4149.668413,2996.988952,15616.783871,12775.787744,14818.267801,20249.987572,17495.492696,8709.312524,11159.689565,33.184002,-876.936035,-468.480011,-700.000000,2100.000000,-2800.000000
-11307.211078,-385.165260,-1434.847884,-16266.638490,1467.682596,-4526.988212,-5430.982164,-4138.872521,2967.574056,15547.448760,12703.926886,14763.841303,20172.561130,17416.948666,8655.020136,11119.679942,35.136002,-874.496033,-472.384003,-1120.000000,1960.000000,-2800.000000
-11304.551220,-388.272153,-1433.819703,-16217.755224,1467.526134,-4525.445941,-5425.573042,-4137.956099,2946.697527,15500.800669,12657.144684,14723.563459,20125.086024,17367.998346,8615.055217,11091.986131,34.160000,-875.471985,-472.384003,-1400.000000,1960.000000,-2800.000000
-11308.798052,-398.062217,-1424.946061,-16219.565716,1471.147117,-4519.098046,-5429.596356,-4147.857922,2940.327280,15501.270056,12656.340022,14719.495442,20129.936353,17374.592110,8611.300124,11091.002654,33.672001,-875.960022,-470.432007,-1260.000000,1820.000000,-2660.000000
-11324.712494,-416.323592,-1417.480578,-16277.523789,1468.353149,-4512.057246,-5444.952005,-4163.235922,2952.598387,15548.409885,12707.257296,14754.811198,20190.777801,17437.802844,8648.024040,11122.183337,34.647999,-874.496033,-471.408020,-1400.000000,1680.000000,-2660.000000
-11334.569613,-425.957194,-1410.842110,-16354.078514,1466.073271,-4506.804586,-5458.944197,-4174.568257,2980.180440,15615.353360,12778.715823,14809.908248,20268.852445,17519.386711,8705.512727,11164.316376,34.160000,-876.447998,-469.944000,-1260.000000,1540.000000,-2520.000000
-11338.861148,-427.275947,-1410.082151,-16412.260105,1463.703986,-4506.290496,-5468.980130,-4178.703329,3005.393208,15669.154009,12833.432893,14854.365868,20326.966980,17577.277729,8749.612719,11195.318245,36.600002,-875.471985,-473.360016,-1400.000000,1260.000000,-2380.000000
-11336.089532,-420.279851,-1417.905261,-16424.486509,1458.764250,-4514.314772,-5473.428127,-4176.959893,3016.725542,15684.017919,12849.414390,14868.134542,20337.002914,17582.239816,8757.033498,11200.369740,37.576000,-876.447998,-473.847992,-1120.000000,1120.000000,-2240.000000
-11324.980715,-406.220604,-1427.292994,-16379.894779,1460.083003,-4522.316697,-5462.185200,-4167.639216,3007.382513,15648.456293,12810.455300,14844.307583,20289.997195,17532.842461,8727.126864,11175.939283,35.624001,-876.447998,-470.432007,-1120.000000,1120.000000,-2100.000000
-11312.821366,-392.027246,-1434.222035,-16302.758909,1463.815744,-4528.150502,-5443.141513,-4156.597454,2984.516678,15582.093964,12740.181415,14792.630350,20212.615456,17454.857225,8675.404927,11134.163872,35.136002,-876.936035,-473.847992,-840.000000,980.000000,-2100.000000
-11304.283000,-383.891211,-1432.322136,-16235.211937,1472.152945,-4528.888110,-5426.467112,-4150.137800,2962.656672,15524.493518,12678.490600,14744.618803,20145.359057,17390.014814,8630.008534,11098.646951,34.647999,-876.936035,-472.384003,-980.000000,700.000000,-1960.000000
-11305.869973,-389.389740,-1423.761418,-16218.045797,1477.293846,-4523.456636,-5424.410751,-4154.205817,2956.264073,15509.562553,12661.212702,14730.291334,20130.584554,17378.905997,8614.228203,11089.706253,37.576000,-879.376038,-470.920013,-700.000000,700.000000,-1540.000000
-11313.894250,-403.024304,-1413.121988,-16255.641431,1480.087814,-4515.253546,-5435.385458,-4169.203838,2967.685815,15541.838472,12695.120298,14749.893814,20170.795342,17421.910753,8638.926880,11110.001637,34.160000,-878.888000,-471.895996,-140.000000,420.000000,-1400.000000
-11320.867994,-411.294450,-1403.287220,-16325.535336,1482.993541,-4508.771540,-5447.433048,-4184.112452,2995.156109,15604.043377,12762.711974,14796.743071,20244.712561,17496.207952,8695.633256,11147.217291,35.624001,-879.864014,-474.335999,140.000000,700.000000,-1540.000000
-11320.331552,-407.740522,-1395.732331,-16390.467154,1484.893439,-4505.910516,-5457.647795,-4189.700388,3028.236691,15668.662270,12827.420274,14848.062676,20313.600637,17564.403124,8748.830408,11180.186114,34.647999,-882.304016,-474.335999,280.000000,420.000000,-1260.000000
-11308.462776,-390.909659,-1392.558383,-16406.001616,1490.347265,-4506.826938,-5454.920883,-4183.888934,3043.212359,15693.338596,12849.235576,14872.135505,20332.465509,17583.402107,8767.874094,11188.053928,35.624001,-883.768005,-477.264008,280.000000,700.000000,-1260.000000
-11289.776717,-367.015644,-1395.240592,-16365.969642,1496.963381,-4511.945487,-5438.648813,-4172.221324,3035.769228,15666.449447,12820.759454,14853.784723,20294.020509,17543.973630,8749.076277,11166.953882,34.160000,-886.208008,-474.335999,-140.000000,420.000000,-1400.000000
-11274.085793,-350.788277,-1402.437854,-16293.706452,1498.863280,-4517.086389,-5419.918051,-4158.922036,3014.535071,15605.317426,12758.509846,14804.543830,20219.700959,17467.865940,8699.231887,11128.441826,35.624001,-884.744019,-475.312012,-140.000000,280.000000,-1400.000000
-11258.484275,-333.868007,-1400.537956,-16211.407329,1509.100379,-4513.912441,-5393.520641,-4143.275814,2988.405882,15534.216527,12681.128106,14748.105675,20139.391141,17390.461849,8648.761648,11088.611017,33.184002,-882.791992,-475.800018,-140.000000,140.000000,-1260.000000
-11252.695173,-328.168312,-1391.507851,-16167.039116,1519.538643,-4505.932868,-5376.689777,-4138.626652,2972.647902,15494.832754,12638.369219,14714.287485,20098.219228,17355.548424,8622.855976,11070.416697,36.600002,-883.280029,-471.895996,-140.000000,0.000000,-1260.000000
-11257.299633,-336.952548,-1381.851897,-16182.752393,1523.181978,-4498.377979,-5379.819021,-4146.762687,2978.146431,15508.668483,12651.668507,14721.194174,20117.106452,17379.017756,8633.204834,11079.893837,34.160000,-885.231995,-473.847992,-140.000000,-140.000000,-1260.000000
-11268.944892,-353.515190,-1372.844144,-16249.874681,1521.393838,-4489.370226,-5396.113443,-4159.346719,2998.508870,15566.112467,12711.682941,14764.176579,20187.201522,17450.297469,8677.684805,11115.544869,32.695999,-884.744019,-474.335999,280.000000,-280.000000,-1260.000000
-11284.479354,-371.798917,-1373.715862,-16332.352618,1510.821463,-4487.693845,-5418.621650,-4171.863696,3023.006382,15634.151177,12787.455355,14817.261972,20268.405410,17529.869679,8729.652611,11157.722611,31.720001,-884.744019,-471.408020,280.000000,-420.000000,-1260.000000
-11295.476412,-380.203173,-1383.818851,-16384.186314,1498.639762,-4493.639409,-5435.988955,-4175.507030,3038.697307,15675.233683,12834.975163,14850.588423,20313.779451,17572.382697,8758.128733,11180.968425,30.743999,-885.231995,-474.335999,700.000000,-560.000000,-1120.000000
-11299.410319,-380.985484,-1397.743988,-16384.521590,1489.073216,-4504.681171,-5439.900510,-4170.813164,3037.222092,15671.299776,12835.980992,14850.163740,20307.364500,17559.351630,8753.233701,11180.141411,31.232000,-884.255981,-472.384003,700.000000,-840.000000,-1260.000000
-11294.157659,-375.464603,-1414.261927,-16331.771473,1481.451271,-4518.002810,-5435.631327,-4163.839419,3020.391228,15621.008351,12785.086070,14813.350417,20251.149863,17494.308054,8709.133710,11147.641974,28.792000,-884.255981,-472.384003,980.000000,-840.000000,-1120.000000
-11290.916656,-374.324664,-1425.013116,-16264.760943,1477.427957,-4525.580052,-5427.338830,-4158.743222,2995.491385,15554.646022,12715.415682,14762.366088,20179.825447,17419.206192,8653.276700,11109.800471,30.256001,-882.304016,-471.895996,840.000000,-700.000000,-1260.000000
-11291.475450,-378.839717,-1424.342564,-16217.710521,1477.807936,-4524.417761,-5420.096865,-4157.089193,2973.765489,15508.757890,12668.253501,14722.557631,20131.858603,17372.580453,8616.530432,11084.543000,28.792000,-881.328003,-471.895996,840.000000,-840.000000,-1260.000000
-11302.740729,-393.636572,-1420.699229,-16222.314980,1475.930390,-4519.656839,-5424.790731,-4164.867600,2966.434117,15508.020283,12665.906568,14716.567363,20135.658400,17378.771887,8614.295258,11086.040567,26.352001,-879.376038,-469.455994,1120.000000,-980.000000,-1260.000000
-11317.001142,-413.194348,-1413.256098,-16281.100068,1471.594151,-4513.800682,-5442.940348,-4181.966684,2980.918048,15559.652812,12715.616848,14750.430256,20195.650482,17439.613335,8648.560482,11114.494337,29.280001,-880.840027,-465.552002,1400.000000,-980.000000,-1120.000000
-11332.267384,-430.651060,-1410.484482,-16362.616880,1467.570837,-4510.738493,-5463.034566,-4191.443824,3003.694475,15628.943220,12786.248360,14803.470946,20275.647375,17522.247734,8702.495241,11156.448562,31.232000,-881.328003,-467.992004,1680.000000,-1120.000000,-1120.000000
-11337.765913,-433.623842,-1411.937345,-16416.864564,1467.034396,-4511.677267,-5469.717737,-4192.382597,3018.066647,15676.574788,12835.511605,14842.765313,20329.157451,17576.048383,8745.902329,11185.662292,30.256001,-879.864014,-467.503998,1820.000000,-840.000000,-1120.000000
-11329.853395,-422.649136,-1416.810026,-16420.977285,1466.565009,-4516.974630,-5468.264874,-4189.186298,3024.392191,15683.637939,12844.273489,14851.750714,20332.286696,17576.584825,8751.736134,11186.623417,30.256001,-878.888000,-470.432007,1820.000000,-980.000000,-1120.000000
-11313.737787,-403.314877,-1422.710886,-16371.669337,1469.493087,-4524.238947,-5455.032641,-4179.396233,3014.780940,15642.846005,12802.833355,14824.034551,20282.643471,17523.901763,8718.812015,11160.695393,29.768000,-878.400024,-467.992004,2100.000000,-980.000000,-1260.000000
-11299.902058,-389.613258,-1427.091828,-16295.606350,1473.985788,-4529.558662,-5435.743086,-4167.460402,2990.976333,15577.668318,12734.213499,14774.525437,20207.049871,17445.178919,8668.051203,11121.848061,29.768000,-877.911987,-467.015991,2100.000000,-840.000000,-1400.000000
-11291.229581,-383.198307,-1427.963546,-16228.819338,1477.427957,-4530.206863,-5421.907356,-4162.006576,2968.132850,15520.336094,12673.059127,14727.430311,20140.151100,17379.889474,8621.984258,11085.995863,29.768000,-878.400024,-467.992004,2380.000000,-700.000000,-1260.000000
-11293.732976,-392.317819,-1420.408657,-16212.211992,1477.517364,-4524.373057,-5422.041466,-4169.315597,2958.521600,15506.880344,12659.893949,14711.113538,20127.991751,17368.758305,8608.908487,11076.026985,30.743999,-877.911987,-467.992004,2520.000000,-560.000000,-1260.000000
-11310.340322,-414.557804,-1415.066590,-16257.742495,1470.543619,-4519.209804,-5437.307708,-4186.705254,2966.612931,15540.117388,12698.897743,14733.085302,20172.806999,17414.691140,8633.450703,11097.216439,29.768000,-880.840027,-466.040009,2240.000000,-560.000000,-1120.000000
-11326.768854,-432.774476,-1412.742008,-16336.487691,1463.324006,-4514.828863,-5457.200761,-4199.311638,2985.678969,15603.976322,12765.707107,14782.616768,20248.244136,17493.481039,8684.591494,11138.187187,29.280001,-878.888000,-469.944000,2240.000000,-560.000000,-1260.000000
-11335.418980,-438.228302,-1412.049104,-16403.811145,1461.155887,-4513.375999,-5469.807144,-4200.697446,3004.543841,15663.499017,12824.268678,14831.678847,20312.885381,17561.184473,8735.531120,11174.844047,30.256001,-878.888000,-471.408020,2100.000000,-700.000000,-1120.000000
-11335.329573,-430.829874,-1417.301764,-16424.151233,1461.737032,-4517.823996,-5470.790621,-4192.427301,3012.903394,15683.459125,12843.334716,14853.516502,20331.169108,17578.440020,8753.256053,11184.343539,31.232000,-878.400024,-470.432007,2380.000000,-280.000000,-980.000000
-11322.857299,-413.507272,-1422.621479,-16388.924883,1465.939160,-4523.009601,-5459.123011,-4179.351530,3004.677952,15657.665212,12814.769186,14837.244432,20297.149753,17541.850214,8732.580689,11165.545722,34.160000,-879.864014,-469.944000,2380.000000,-140.000000,-980.000000
-11308.127500,-396.251726,-1427.628270,-16314.448871,1470.387157,-4527.591709,-5441.621595,-4166.588684,2980.426309,15593.649816,12747.624546,14789.054071,20221.824374,17464.714344,8680.992863,11125.737265,32.208000,-879.376038,-469.455994,2520.000000,280.000000,-980.000000
-11299.298561,-391.401397,-1430.601052,-16241.470425,1471.080061,-4528.463427,-5428.098789,-4158.743222,2957.426364,15529.008571,12684.123240,14737.488596,20150.946993,17389.970111,8628.354505,11087.269913,30.743999,-878.400024,-472.384003,2940.000000,560.000000,-980.000000
-11301.734901,-397.771644,-1429.952852,-16211.139108,1467.123803,-4526.340011,-5427.562347,-4164.532323,2948.463315,15499.750137,12655.468304,14707.604314,20120.190992,17358.811779,8600.794804,11068.896779,31.232000,-878.888000,-470.920013,2800.000000,420.000000,-980.000000
-11309.379197,-404.253650,-1422.308555,-16231.903879,1468.084928,-4521.243813,-5436.435990,-4174.881181,2954.230065,15516.290428,12670.734545,14715.628590,20141.827481,17384.091602,8611.076607,11078.105697,32.208000,-877.911987,-468.968018,2940.000000,1120.000000,-980.000000
-11319.906869,-412.792017,-1411.467959,-16296.880400,1470.185992,-4513.241889,-5449.891740,-4183.866582,2974.972484,15572.728583,12728.290287,14758.119256,20209.441508,17456.399495,8657.098848,11114.673151,32.208000,-878.400024,-470.920013,2800.000000,1400.000000,-980.000000
-11331.485073,-419.743409,-1406.125892,-16366.707249,1470.275399,-4508.972705,-5461.291130,-4190.102719,2994.150280,15633.234755,12791.255151,14805.616713,20279.089544,17529.556755,8711.950029,11153.431076,31.232000,-879.376038,-472.872009,3080.000000,1680.000000,-840.000000
-11338.414113,-421.308031,-1411.602069,-16410.203744,1466.140326,-4509.553851,-5467.169639,-4189.856850,3005.773187,15667.544683,12829.074303,14839.501958,20319.903829,17569.387563,8746.639937,11177.638015,30.743999,-881.816040,-473.360016,2800.000000,1820.000000,-980.000000
-11336.223642,-416.614165,-1423.001459,-16406.158078,1459.703023,-4516.795816,-5467.370804,-4181.832574,3009.438873,15662.604947,12825.632134,14842.497092,20311.007835,17557.250566,8742.326050,11176.296911,30.743999,-877.911987,-470.920013,2520.000000,2100.000000,-980.000000
-11321.538546,-398.173976,-1431.226901,-16344.489615,1462.787564,-4522.964898,-5452.976281,-4166.901608,2997.748911,15610.637142,12770.959767,14807.606018,20248.869985,17491.536437,8700.416529,11143.462198,31.232000,-878.400024,-471.408020,2660.000000,2240.000000,-980.000000
-11309.669770,-384.829984,-1435.138456,-16264.492722,1468.330797,-4526.652935,-5435.318403,-4158.296187,2974.480745,15540.832644,12697.869563,14753.961832,20169.141313,17410.287846,8643.777209,11098.512840,34.647999,-876.936035,-472.384003,2800.000000,2380.000000,-980.000000
-11308.775700,-388.965057,-1434.087924,-16214.067187,1469.023701,-4524.976555,-5426.690629,-4161.716004,2952.553684,15494.050442,12649.366277,14711.001779,20117.598190,17361.181064,8605.712188,11069.790848,31.232000,-878.400024,-473.360016,2520.000000,1960.000000,-980.000000
-11311.077930,-399.604487,-1426.845959,-16218.470480,1467.727300,-4521.310868,-5431.071571,-4174.992940,2955.370004,15498.453736,12654.194254,14708.699549,20124.080196,17368.266567,8602.046502,11068.695613,34.647999,-881.816040,-473.360016,2380.000000,1820.000000,-1120.000000
-11319.057503,-413.730790,-1415.558328,-16273.165199,1467.593189,-4515.231194,-5444.080287,-4189.588629,2973.698434,15547.560519,12704.798604,14743.098884,20183.669947,17428.437463,8638.748066,11096.389424,36.600002,-877.911987,-472.384003,2520.000000,1540.000000,-980.000000
-11327.998200,-424.727848,-1408.294011,-16349.585813,1467.257913,-4510.738493,-5459.905322,-4198.439920,2999.134719,15616.560354,12778.447602,14795.379614,20262.638660,17508.367301,8694.582724,11138.745980,36.600002,-876.447998,-471.408020,2240.000000,1120.000000,-840.000000
-11332.870881,-426.963023,-1410.484482,-16409.577895,1463.949855,-4512.437226,-5472.712871,-4201.390350,3019.117179,15668.550511,12833.946983,14839.904289,20320.552030,17566.548892,8739.263861,11170.910140,36.600002,-875.960022,-472.384003,2100.000000,700.000000,-980.000000
-11330.367485,-419.631650,-1418.799331,-16417.445709,1462.832268,-4519.388618,-5472.087022,-4193.097853,3021.933499,15674.496075,12840.943079,14849.716705,20324.195364,17570.303985,8748.875111,11176.185152,34.160000,-874.496033,-474.824005,2240.000000,280.000000,-840.000000
-11318.722226,-404.186595,-1427.807084,-16370.417639,1462.854619,-4528.262261,-5460.687633,-4180.357358,3011.562289,15635.760502,12800.084090,14823.855737,20276.005003,17517.307999,8717.806186,11151.709992,37.576000,-872.544006,-474.824005,2380.000000,-280.000000,-980.000000
-11308.127500,-395.871746,-1435.451381,-16298.445022,1462.228771,-4533.984308,-5447.678917,-4171.640178,2989.076434,15571.163961,12734.593479,14773.161980,20202.601874,17439.792149,8662.820895,11113.913192,33.184002,-874.984009,-471.408020,2520.000000,-840.000000,-980.000000
-11300.974941,-393.345999,-1437.485389,-16235.994248,1464.396890,-4533.559624,-5435.407810,-4166.476925,2968.311664,15512.758853,12675.316653,14725.195137,20139.838176,17376.357898,8615.457549,11081.816087,32.695999,-874.984009,-472.872009,2520.000000,-980.000000,-980.000000
-11305.177069,-399.023342,-1431.495122,-16216.816451,1467.704948,-4529.223386,-5431.295089,-4170.455536,2957.895751,15491.927027,12653.613109,14704.385663,20121.353283,17361.270471,8599.744272,11071.735450,35.136002,-874.007996,-470.432007,2660.000000,-1820.000000,-1120.000000
-11316.151776,-411.965002,-1423.068514,-16254.099161,1467.280265,-4523.009601,-5441.420429,-4183.061920,2965.495344,15524.694684,12686.760746,14724.189308,20159.463007,17402.889419,8622.207775,11089.505087,31.720001,-877.424011,-472.872009,2520.000000,-1820.000000,-1120.000000
-11329.562823,-428.617052,-1416.675915,-16330.162147,1463.882800,-4516.862871,-5460.955854,-4198.439920,2989.411710,15591.347586,12755.917043,14773.787829,20236.174194,17481.455801,8672.722718,11126.206651,33.184002,-880.840027,-469.944000,2240.000000,-1960.000000,-1120.000000
-11338.727038,-436.574273,-1414.865424,-16404.213477,1459.278340,-4515.365304,-5479.239581,-4207.470025,3016.792597,15657.821674,12824.112216,14826.426187,20310.381986,17554.367191,8721.449521,11163.109382,35.624001,-881.328003,-468.968018,1820.000000,-2240.000000,-980.000000
-11338.525872,-429.756991,-1419.447532,-16429.336837,1458.585436,-4518.785121,-5481.206534,-4202.172661,3026.180330,15680.732212,12848.252100,14849.560243,20334.767739,17577.657709,8745.589405,11177.906236,31.232000,-883.280029,-467.503998,1820.000000,-1960.000000,-1120.000000
-11331.149796,-413.708438,-1427.874139,-16398.312616,1462.228771,-4524.976555,-5469.114240,-4186.794661,3016.814949,15652.166683,12820.558288,14834.294001,20302.625931,17543.526595,8733.810035,11163.332899,33.184002,-883.768005,-467.992004,1680.000000,-1960.000000,-1120.000000
-11317.582288,-395.782339,-1433.395020,-16325.982371,1469.314274,-4527.502302,-5449.154133,-4170.679053,2994.552612,15589.894723,12756.229968,14789.501105,20232.933191,17469.207045,8688.324235,11125.491396,33.672001,-885.231995,-466.040009,2240.000000,-1820.000000,-1120.000000
-11306.853450,-388.629781,-1433.797352,-16251.372248,1475.528058,-4527.323488,-5430.780999,-4161.246617,2968.825754,15525.633457,12688.794755,14736.549823,20160.893519,17395.714509,8638.099866,11086.197029,33.184002,-888.648010,-468.968018,2100.000000,-1960.000000,-980.000000
-11304.350055,-391.826080,-1427.650622,-16216.838803,1478.880820,-4522.406104,-5422.846129,-4161.581893,2954.878265,15495.749175,12656.809408,14708.051349,20128.215269,17365.539654,8611.881269,11070.751973,33.184002,-888.160034,-468.480011,2380.000000,-1820.000000,-1120.000000
-11314.251878,-404.767740,-1420.967450,-16240.576356,1474.902210,-4516.929927,-5434.737257,-4175.730547,2965.316530,15516.111614,12677.820048,14720.970657,20152.221042,17391.467678,8619.503214,11080.966721,36.112000,-888.648010,-470.432007,2520.000000,-1680.000000,-980.000000
-11328.221718,-421.822121,-1414.843072,-16314.359464,1466.944989,-4513.398351,-5457.737202,-4194.684827,2992.719769,15582.384537,12746.350497,14771.440896,20226.093558,17465.250786,8662.843247,11114.606096,33.672001,-886.208008,-468.968018,2800.000000,-1820.000000,-980.000000
-11338.794093,-431.254558,-1411.937345,-16390.690671,1462.653454,-4512.414874,-5476.222095,-4207.581783,3016.926708,15648.143369,12816.289105,14824.816862,20300.770736,17540.084426,8714.833404,11151.531178,32.208000,-885.231995,-467.992004,3220.000000,-1680.000000,-1120.000000
-11344.113808,-430.226377,-1416.251232,-16433.695428,1458.384270,-4516.996982,-5486.503897,-4213.683809,3030.404810,15686.074279,12856.276376,14858.836217,20340.199213,17579.892883,8747.086972,11173.122963,33.672001,-885.720032,-469.455994,3500.000000,-1820.000000,-980.000000
-11337.944727,-419.296374,-1423.672011,-16422.519555,1456.752593,-4523.054304,-5481.161831,-4204.027856,3026.448551,15678.362927,12847.290975,14857.495112,20327.816347,17563.419648,8743.801265,11168.540855,32.695999,-883.768005,-470.432007,3780.000000,-1820.000000,-980.000000
-11327.774683,-406.980563,-1433.462075,-16362.818046,1459.635968,-4530.184511,-5464.755650,-4185.989998,3008.433045,15626.082197,12792.104517,14819.228926,20266.952546,17499.247789,8704.797471,11138.477759,33.672001,-883.280029,-470.432007,3500.000000,-1960.000000,-980.000000
-11317.738750,-397.659886,-1438.133590,-16288.386737,1464.151021,-4534.587805,-5447.701269,-4175.842306,2983.823774,15558.825798,12723.238793,14766.411753,20191.694223,17422.536602,8653.053183,11098.848116,31.720001,-882.791992,-469.944000,3640.000000,-1820.000000,-980.000000
-11316.710569,-400.520909,-1438.379459,-16238.452940,1465.805050,-4534.699563,-5438.335888,-4177.317521,2963.461335,15509.897829,12674.981377,14725.239840,20140.776949,17373.005137,8616.441025,11071.578988,29.768000,-884.255981,-470.432007,3360.000000,-1680.000000,-840.000000
-11325.204232,-412.523796,-1432.389192,-16238.028257,1466.699119,-4529.223386,-5437.978260,-4183.263085,2959.572132,15504.600466,12669.929882,14718.377855,20139.391141,17377.207265,8616.686894,11073.411831,31.720001,-883.280029,-470.432007,3500.000000,-2100.000000,-700.000000
-11329.965154,-421.084514,-1419.894567,-16288.096164,1470.722433,-4519.120397,-5448.237711,-4194.908344,2981.052158,15551.092094,12715.661551,14752.956003,20193.124735,17437.176995,8650.236863,11099.831593,32.208000,-879.376038,-471.895996,3780.000000,-1960.000000,-700.000000
-11342.102151,-435.657851,-1416.787674,-16366.953119,1464.978035,-4516.684057,-5471.260008,-4208.632315,3006.041408,15619.242563,12788.528238,14806.644893,20272.428724,17516.101005,8697.399044,11137.941317,31.720001,-877.424011,-467.992004,3640.000000,-2240.000000,-560.000000
-11347.824198,-438.675337,-1418.575814,-16426.945201,1460.753555,-4518.315735,-5484.738110,-4213.013257,3025.621536,15674.451372,12842.574756,14854.075295,20332.219640,17573.522636,8739.085047,11168.630262,31.232000,-875.960022,-470.920013,3220.000000,-2520.000000,-280.000000
-11340.492826,-425.197235,-1422.777942,-16431.460253,1461.088832,-4522.495511,-5482.681749,-4206.531251,3030.784789,15683.570884,12847.693306,14866.212292,20337.874632,17576.204845,8749.433905,11170.753678,32.695999,-873.031982,-469.455994,3780.000000,-2520.000000,-140.000000
-11328.020552,-404.231298,-1429.237596,-16380.811200,1466.162678,-4528.843406,-5466.968473,-4188.538097,3016.949060,15644.120055,12804.152108,14839.345496,20285.817419,17523.365322,8721.963611,11144.423323,32.695999,-872.544006,-468.480011,3500.000000,-2800.000000,140.000000
-11314.207174,-383.824156,-1431.539825,-16298.042691,1476.399777,-4531.078581,-5443.566196,-4169.762632,2988.718806,15574.896702,12730.368999,14785.164867,20204.814697,17442.653172,8671.828648,11102.357340,28.304001,-872.056030,-473.360016,3780.000000,-2380.000000,280.000000
-11309.267439,-379.063234,-1430.757514,-16228.685227,1481.473622,-4528.552834,-5429.819874,-4160.911341,2961.404975,15512.468280,12666.979452,14730.760721,20136.999504,17376.626119,8622.587755,11066.371032,26.352001,-869.616028,-475.800018,3500.000000,-2240.000000,840.000000
-11312.419035,-386.461662,-1426.734200,-16212.815489,1478.903172,-4524.842444,-5431.138626,-4167.035719,2956.085259,15496.755004,12651.489693,14711.113538,20120.146289,17362.142189,8605.041636,11056.558616,23.424000,-869.127991,-474.824005,2800.000000,-2240.000000,1260.000000
-11321.627953,-402.018476,-1418.195834,-16253.160388,1474.075195,-4518.248679,-5444.683784,-4181.407890,2970.949170,15531.355504,12689.599417,14733.845262,20163.285156,17406.465698,8627.326325,11075.132915,23.424000,-869.127991,-478.239990,2380.000000,-1820.000000,1680.000000
-11339.554052,-421.889177,-1413.926651,-16330.005685,1467.883762,-4512.906613,-5462.900455,-4194.841289,2990.305780,15592.487525,12755.693526,14780.560408,20239.683418,17485.121487,8677.640102,11116.327180,20.496000,-866.687988,-476.287994,1680.000000,-1400.000000,2240.000000
-11350.685221,-431.589834,-1414.552500,-16398.871410,1463.435765,-4514.381828,-5477.160868,-4199.132824,3010.265888,15648.657459,12817.071416,14826.493243,20304.302311,17553.897804,8727.395085,11154.213387,21.960001,-868.640015,-481.167999,1260.000000,-840.000000,2940.000000
-11346.594852,-421.799770,-1417.815854,-16418.831518,1465.290960,-4519.142749,-5476.982054,-4192.539059,3019.608917,15668.416401,12837.858538,14847.101551,20321.736672,17570.728668,8748.226911,11166.216274,18.056000,-866.687988,-478.727997,420.000000,-140.000000,3500.000000
-11338.391762,-408.388723,-1426.086000,-16387.315558,1465.134497,-4526.384714,-5467.974301,-4182.011388,3010.578812,15640.476720,12808.086015,14831.008295,20288.432573,17534.965877,8730.077294,11150.011259,16.592001,-868.152039,-480.192017,0.000000,280.000000,3780.000000
-11327.819386,-395.737636,-1435.361974,-16317.980447,1465.089794,-4533.269052,-5456.083173,-4172.489544,2990.685760,15578.562388,12745.121151,14786.774193,20217.018749,17460.780437,8680.657587,11111.968590,14.640000,-870.104004,-483.119995,-420.000000,840.000000,4060.000000
-11317.716398,-388.272153,-1438.647680,-16245.091408,1467.012044,-4536.264185,-5443.253272,-4168.019196,2967.305835,15514.792861,12679.071746,14735.767512,20144.576746,17386.662052,8626.208738,11073.545942,14.640000,-873.520020,-478.727997,-700.000000,1260.000000,4340.000000
-11317.045846,-392.921316,-1434.222035,-16213.217820,1468.129631,-4531.480912,-5439.520531,-4171.059033,2955.526466,15485.713242,12649.366277,14709.124232,20114.625408,17357.314212,8597.464394,11057.430334,13.664001,-872.544006,-483.119995,-980.000000,1540.000000,4480.000000
-11332.267384,-414.691915,-1429.505817,-16240.196376,1464.151021,-4527.368191,-5451.545769,-4182.234905,2958.767469,15505.650998,12670.600435,14719.003703,20140.911059,17384.650395,8606.963886,11071.355471,12.688000,-872.544006,-482.144012,-1260.000000,1680.000000,4620.000000
-11344.717305,-432.170979,-1421.369782,-16306.245781,1463.122840,-4520.282688,-5470.008310,-4194.282495,2978.839335,15561.820932,12733.833520,14760.466189,20208.972121,17455.706591,8649.208683,11104.704273,13.176001,-875.960022,-481.167999,-1260.000000,1820.000000,4620.000000
-11353.255672,-440.619938,-1417.927613,-16383.381651,1459.099526,-4516.929927,-5489.610790,-4205.637181,3007.807196,15628.987924,12807.348407,14814.065673,20286.309157,17532.976572,8701.779986,11143.797474,14.640000,-874.496033,-481.656006,-1540.000000,1680.000000,4480.000000
-11353.814465,-434.652023,-1418.419351,-16425.782910,1458.451326,-4517.868700,-5494.796395,-4205.078388,3026.157978,15668.148180,12847.738009,14849.448484,20328.330437,17573.097953,8736.581652,11165.746887,19.032000,-880.840027,-479.216003,-1120.000000,1260.000000,4060.000000
-11344.762009,-421.822121,-1424.007288,-16413.377692,1460.619445,-4523.300174,-5487.375616,-4192.896687,3026.984993,15661.397953,12838.216166,14847.012144,20314.695873,17558.502264,8733.832387,11159.644861,16.104000,-881.816040,-476.287994,-980.000000,980.000000,3640.000000
-11328.758160,-403.292525,-1431.718639,-16347.372991,1464.441593,-4530.720953,-5470.835325,-4177.451632,3009.975315,15606.859697,12779.364023,14806.197859,20247.975915,17490.798830,8690.984093,11124.865547,21.472000,-880.840027,-477.264008,-840.000000,140.000000,3220.000000
-11314.385988,-388.607429,-1433.797352,-16268.694850,1469.358977,-4534.185473,-5452.417487,-4164.487620,2990.328132,15539.782112,12708.665455,14753.715963,20168.515464,17411.785413,8635.440008,11084.520648,24.888000,-882.304016,-475.312012,0.000000,-840.000000,2520.000000
-11307.054616,-386.931048,-1430.332831,-16214.469518,1474.410471,-4532.062058,-5439.386420,-4159.950216,2976.112422,15492.508172,12657.636423,14712.544049,20116.391196,17359.772904,8597.352636,11056.826837,30.743999,-885.231995,-472.384003,560.000000,-1540.000000,1960.000000
-11306.384064,-391.356694,-1418.665221,-16208.255733,1480.065463,-4522.629621,-5435.251347,-4163.034757,2971.731481,15488.328396,12652.339059,14705.905581,20116.212382,17361.873968,8594.715130,11054.368145,29.280001,-883.768005,-473.847992,1260.000000,-2520.000000,1540.000000
-11319.079854,-404.454816,-1408.651639,-16256.781370,1481.428919,-4514.024200,-5442.694478,-4175.127050,2978.548763,15529.366199,12694.114470,14733.666448,20167.934319,17417.909791,8630.768494,11081.816087,35.136002,-882.304016,-475.800018,1680.000000,-2940.000000,1120.000000
-11340.023439,-425.845435,-1409.925688,-16339.281659,1471.929428,-4513.018371,-5462.811048,-4186.839364,2994.977295,15595.125031,12763.270767,14782.683823,20246.500700,17497.370243,8686.223171,11125.849024,36.112000,-882.304016,-473.360016,2100.000000,-3920.000000,560.000000
-11346.930128,-434.763781,-1413.010229,-16403.028834,1464.687462,-4513.264240,-5475.931522,-4185.766481,3013.953926,15650.579709,12820.960620,14829.890708,20308.526791,17556.781180,8731.239585,11158.996661,39.528000,-879.376038,-470.432007,2660.000000,-4340.000000,-140.000000
-11338.123541,-424.213758,-1417.234709,-16411.746015,1461.535866,-4517.086389,-5476.780889,-4179.083309,3023.632231,15663.610776,12832.985858,14845.626336,20318.540373,17561.944432,8738.548605,11162.215312,41.968002,-882.304016,-471.408020,3220.000000,-4760.000000,-560.000000
-11323.080817,-405.438293,-1423.716715,-16366.483732,1462.005253,-4522.786084,-5465.582665,-4168.175658,3017.016115,15629.122034,12795.144355,14821.709969,20273.345145,17512.055339,8708.396102,11138.231890,41.968002,-881.328003,-470.432007,3640.000000,-5180.000000,-840.000000
-11310.206212,-389.859127,-1430.757514,-16290.867781,1465.335663,-4527.658764,-5451.076383,-4159.749050,2997.771263,15564.190217,12727.418569,14770.077440,20196.611607,17432.952515,8655.400116,11098.557544,43.431999,-879.864014,-470.432007,3780.000000,-5320.000000,-1260.000000
-11305.825270,-386.618124,-1433.551482,-16224.706617,1468.643721,-4529.022220,-5439.945214,-4158.966739,2973.273751,15502.678216,12666.130086,14717.930820,20128.997580,17365.919634,8606.159223,11061.341889,42.456001,-879.376038,-472.384003,4200.000000,-5320.000000,-1400.000000
-11308.775700,-392.429577,-1426.398924,-16203.047777,1472.443518,-4523.344877,-5436.503045,-4167.750975,2961.516733,15484.729765,12645.745295,14695.020282,20109.149231,17349.133474,8589.954208,11048.713153,42.944000,-878.400024,-472.384003,3920.000000,-5180.000000,-1680.000000
-11318.632819,-405.594755,-1416.877081,-16238.341181,1470.968303,-4516.818168,-5446.628385,-4180.558524,2969.071623,15516.335132,12677.820048,14710.912372,20145.560222,17388.584302,8609.869612,11065.745183,44.408001,-877.424011,-472.384003,4060.000000,-4900.000000,-1680.000000
-11330.389837,-418.670525,-1409.724523,-16312.258400,1467.503782,-4514.158310,-5462.811048,-4194.282495,2993.479728,15580.752859,12744.562357,14759.147437,20218.717482,17463.842626,8659.602244,11102.737320,46.848000,-877.424011,-473.360016,3640.000000,-4620.000000,-1820.000000
-11338.347058,-428.617052,-1408.428122,-16384.387479,1462.139364,-4514.359476,-5478.725490,-4199.870431,3018.580737,15643.762427,12810.991742,14811.428167,20290.265416,17535.412912,8709.603096,11141.070562,43.920002,-876.936035,-472.872009,3640.000000,-4200.000000,-1820.000000
-11339.978735,-428.304127,-1416.072418,-16414.428224,1457.356090,-4517.712238,-5484.872220,-4193.567239,3031.522397,15668.528160,12838.707905,14837.155025,20317.758062,17560.782142,8732.401876,11158.840198,43.920002,-874.007996,-476.287994,3360.000000,-4200.000000,-1540.000000
-11332.043866,-414.937784,-1423.940232,-16386.756764,1459.144230,-4522.249642,-5472.422298,-4178.099832,3026.783827,15643.851834,12813.696303,14823.095777,20289.080773,17529.824976,8718.499090,11149.117190,43.431999,-876.447998,-476.287994,3080.000000,-3360.000000,-1540.000000
-11319.415131,-398.978639,-1431.495122,-16316.125252,1463.391061,-4527.770523,-5452.015156,-4160.218437,3006.868423,15582.429240,12749.390334,14776.626501,20218.449261,17456.578309,8671.515724,11116.550698,42.944000,-871.567993,-472.872009,2660.000000,-2940.000000,-1260.000000
-11310.005046,-387.869822,-1434.289090,-16242.386847,1466.095622,-4531.391505,-5435.363106,-4154.094059,2982.370911,15516.960981,12682.893894,14723.116424,20144.666153,17382.079945,8619.123235,11076.295206,40.504002,-873.031982,-477.264008,1960.000000,-2380.000000,-980.000000
-11306.607581,-388.160394,-1428.857616,-16203.584218,1469.716605,-4527.882281,-5429.194025,-4157.156248,2967.216428,15482.561646,12647.198158,14688.739441,20108.948065,17348.038238,8588.210772,11053.719944,40.504002,-866.687988,-476.287994,1680.000000,-1960.000000,-700.000000
-11312.195517,-399.403322,-1418.352296,-16221.376207,1469.627198,-4519.723895,-5436.883025,-4166.901608,2970.859763,15497.425556,12662.844379,14693.545067,20130.182222,17371.529921,8593.709301,11064.046450,38.063999,-871.080017,-473.847992,1820.000000,-1400.000000,-140.000000
-11322.164395,-411.585022,-1407.444645,-16285.056327,1469.984826,-4510.850252,-5450.718755,-4181.184373,2991.982161,15553.215510,12722.300020,14736.259250,20196.231627,17441.870861,8637.630479,11097.708177,35.136002,-866.687988,-476.287994,1540.000000,-1260.000000,280.000000
-11333.496730,-420.481017,-1403.801311,-16359.554691,1469.984826,-4508.212746,-5463.369842,-4190.862678,3015.160920,15618.683770,12790.852820,14788.785850,20269.992384,17517.822089,8695.342683,11138.097780,35.624001,-868.152039,-476.776001,1680.000000,-840.000000,560.000000
-11339.554052,-423.118523,-1410.037447,-16409.510840,1462.832268,-4512.548985,-5477.607903,-4196.852946,3032.572929,15664.571901,12838.529091,14826.157966,20317.489841,17562.458523,8728.378562,11161.768277,39.040001,-869.127991,-474.824005,1120.000000,-420.000000,980.000000
-11333.161453,-414.960136,-1419.559290,-16406.001616,1458.093698,-4521.109703,-5479.619560,-4191.555582,3039.434915,15664.348383,12836.673896,14831.678847,20310.806669,17552.467293,8724.154082,11159.063716,38.063999,-871.080017,-475.312012,1120.000000,-420.000000,1540.000000
-11314.274229,-396.721112,-1426.018945,-16343.193214,1464.285131,-4526.407066,-5461.961682,-4175.730547,3025.934461,15613.565220,12780.615721,14796.810126,20249.361724,17487.803696,8685.664378,11127.234832,34.160000,-873.031982,-476.776001,1260.000000,-140.000000,1960.000000
-11299.455023,-379.510269,-1427.404753,-16262.816341,1473.404643,-4528.441075,-5439.900510,-4160.464306,2999.939382,15546.040600,12707.145537,14745.937556,20171.108266,17408.924390,8633.987145,11086.599360,35.624001,-871.080017,-475.800018,1120.000000,140.000000,2240.000000
-11294.559991,-372.871801,-1424.208453,-16204.746509,1481.674788,-4526.317659,-5422.756722,-4158.922036,2972.938475,15496.687948,12650.372106,14701.815212,20115.407719,17354.296727,8597.866726,11056.826837,33.672001,-873.520020,-475.800018,840.000000,280.000000,2660.000000
-11304.752386,-387.713359,-1419.648697,-16206.333483,1479.797242,-4520.930889,-5426.243594,-4169.583818,2964.645978,15496.397376,12649.031001,14690.505229,20117.486431,17358.230634,8593.172859,11055.597491,33.672001,-874.984009,-473.847992,700.000000,560.000000,2800.000000
-11318.141081,-404.857147,-1411.087979,-16260.804684,1478.433785,-4514.135958,-5439.207606,-4184.403024,2979.331074,15543.738370,12695.902609,14721.060064,20172.225853,17417.507460,8627.013400,11083.626578,29.280001,-874.984009,-475.312012,700.000000,560.000000,3080.000000
-11330.479244,-419.788113,-1406.058837,-16340.063970,1473.896381,-4511.900784,-5458.228941,-4198.194051,3007.226051,15612.447633,12769.372793,14774.659547,20249.764055,17497.929036,8677.573046,11124.977306,30.256001,-876.936035,-474.824005,420.000000,420.000000,3220.000000
-11333.139102,-422.224453,-1406.394113,-16402.581799,1467.146154,-4514.135958,-5474.366900,-4204.541946,3035.545711,15669.265767,12829.297820,14821.397045,20311.209000,17558.412857,8718.141463,11156.046230,26.840000,-874.496033,-475.800018,420.000000,700.000000,3220.000000
-11332.133273,-415.563633,-1414.619555,-16412.975361,1465.805050,-4520.282688,-5474.992749,-4194.975399,3039.323156,15676.530084,12839.266698,14834.182243,20319.054463,17563.531406,8729.227928,11161.321242,25.375999,-874.007996,-472.384003,420.000000,700.000000,3360.000000
-11323.013761,-401.012647,-1424.633136,-16367.891892,1467.816707,-4528.172854,-5462.878104,-4174.501201,3027.208510,15636.028723,12799.279427,14809.617675,20271.735820,17513.284685,8703.054035,11135.102646,25.375999,-874.496033,-475.312012,420.000000,560.000000,3360.000000
-11310.966171,-386.729883,-1430.221072,-16293.751156,1470.990654,-4533.537273,-5446.293109,-4162.073632,3004.342676,15572.728583,12732.425360,14759.594471,20197.170400,17436.461739,8653.500218,11094.489526,25.375999,-874.007996,-474.824005,560.000000,560.000000,3080.000000
-11304.573572,-380.091414,-1429.729334,-16228.059379,1472.845849,-4535.034840,-5433.910243,-4158.229131,2979.085204,15515.217544,12672.925016,14713.438119,20133.982019,17370.367631,8605.600429,11058.503218,25.864000,-874.496033,-473.360016,840.000000,560.000000,2660.000000
-11308.328665,-389.859127,-1424.163750,-16213.418986,1471.415337,-4530.452732,-5435.586624,-4166.365166,2971.485611,15499.750137,12657.770533,14696.897828,20121.062710,17357.023639,8588.389586,11050.680107,24.888000,-874.984009,-475.800018,1120.000000,280.000000,2520.000000
-11317.403474,-400.856185,-1415.334811,-16246.208995,1474.164602,-4521.802607,-5441.956871,-4177.183411,2980.962751,15528.293315,12685.754917,14714.622762,20156.110246,17396.250951,8609.064950,11068.896779,24.888000,-874.984009,-475.312012,1400.000000,420.000000,2240.000000
-11330.032209,-412.300278,-1406.192947,-16314.135947,1473.605808,-4514.135958,-5455.993766,-4186.839364,3000.229955,15589.045356,12747.669249,14760.645003,20227.479366,17470.369335,8659.222264,11104.793680,20.984001,-874.496033,-474.824005,1540.000000,280.000000,1960.000000
-11342.817407,-420.391610,-1404.136587,-16383.225189,1470.275399,-4510.514976,-5468.264874,-4193.433129,3020.838263,15649.372715,12810.768224,14810.042359,20296.613311,17541.067903,8712.933506,11143.663364,24.400000,-873.031982,-477.264008,1540.000000,280.000000,1680.000000
-11343.219738,-418.514063,-1411.199738,-16412.327160,1467.928465,-4513.420703,-5473.428127,-4189.141594,3033.019964,15675.524256,12836.226861,14835.255126,20323.010722,17566.168912,8733.854739,11161.880036,25.864000,-872.056030,-477.264008,1960.000000,0.000000,1260.000000
-11329.741636,-402.398455,-1417.167654,-16383.515761,1473.002311,-4517.220499,-5462.676938,-4176.892838,3026.493254,15653.798360,12812.377550,14821.844080,20295.026338,17534.496490,8719.393160,11149.608928,21.960001,-871.567993,-481.167999,2240.000000,-140.000000,700.000000
-11310.474433,-377.453909,-1421.213319,-16306.022263,1480.534849,-4522.406104,-5440.749877,-4164.197047,3004.409731,15589.425336,12745.478779,14774.212512,20218.739834,17455.907757,8675.114355,11109.532250,25.864000,-871.567993,-481.656006,2660.000000,-140.000000,560.000000
-11294.627046,-364.758118,-1423.940232,-16232.037989,1481.093643,-4526.787046,-5428.769342,-4160.866637,2985.947190,15526.952210,12678.334138,14724.524584,20143.973248,17379.464791,8619.950249,11067.488619,23.424000,-870.591980,-476.287994,2660.000000,-420.000000,140.000000
-11297.309255,-374.861106,-1423.292032,-16200.365567,1479.037282,-4526.138845,-5427.115312,-4166.007539,2969.675120,15494.564533,12645.253556,14696.517849,20111.093832,17347.926479,8591.585885,11050.076610,25.864000,-868.152039,-478.239990,2800.000000,-560.000000,-140.000000
-11309.222735,-394.240069,-1417.793503,-16220.571544,1476.064500,-4521.355572,-5438.715868,-4180.871449,2967.507001,15509.093166,12661.547978,14702.105785,20130.830423,17368.847712,8599.185479,11057.318575,25.864000,-870.104004,-479.216003,2800.000000,-560.000000,-560.000000
-11322.186747,-407.941688,-1407.690514,-16280.809496,1478.813765,-4513.420703,-5450.517589,-4192.628466,2981.119213,15561.642118,12717.136767,14740.528433,20194.667005,17434.606544,8643.956023,11087.784003,26.352001,-870.591980,-480.679993,2940.000000,-700.000000,-700.000000
-11336.111884,-419.385781,-1403.622497,-16356.984241,1475.863335,-4510.917307,-5466.476734,-4200.809205,3005.504966,15627.780930,12787.030671,14792.630350,20272.026392,17511.541249,8696.795547,11129.179433,28.304001,-873.031982,-478.239990,2940.000000,-980.000000,-980.000000
-11342.683297,-422.582081,-1408.428122,-16404.436994,1473.292884,-4513.957144,-5474.143383,-4197.232926,3020.592394,15665.577729,12829.253117,14828.415493,20316.014626,17555.775351,8734.122960,11155.554492,30.256001,-871.567993,-479.704010,2940.000000,-980.000000,-1260.000000
-11334.569613,-410.758008,-1416.139473,-16397.060918,1473.337588,-4520.506206,-5470.164772,-4186.369978,3023.721638,15660.548587,12822.435835,14830.494205,20308.772660,17544.286554,8731.105474,11153.207559,30.256001,-870.104004,-480.192017,2800.000000,-1260.000000,-1400.000000
-11320.510366,-394.463586,-1424.633136,-16339.236956,1473.605808,-4528.597537,-5458.385403,-4174.657664,3011.875214,15612.917019,12770.982119,14796.586608,20248.758226,17481.254635,8687.519573,11123.189166,29.768000,-870.104004,-475.312012,2800.000000,-1400.000000,-1540.000000
-11309.356846,-384.785281,-1429.461113,-16262.145789,1477.070329,-4532.978479,-5441.979223,-4164.822896,2989.411710,15544.744199,12700.909400,14742.517739,20170.795342,17402.911771,8634.523587,11084.811221,31.720001,-870.591980,-476.776001,2520.000000,-1400.000000,-1540.000000
-11303.098357,-381.946609,-1425.348392,-16204.701806,1483.239410,-4530.363325,-5428.367010,-4160.129030,2972.357329,15494.922160,12648.740429,14698.373043,20116.704120,17350.675744,8596.324455,11057.609148,34.160000,-870.104004,-479.704010,2520.000000,-1540.000000,-1680.000000
-11307.613409,-393.480109,-1418.575814,-16206.713463,1480.333684,-4524.976555,-5432.233862,-4167.527457,2975.643036,15496.263265,12648.047524,14693.366253,20120.727434,17355.749590,8593.821060,11058.614976,32.695999,-872.056030,-477.752014,2660.000000,-1680.000000,-1400.000000
-11316.934087,-406.734694,-1409.098674,-16260.983498,1476.466832,-4518.047514,-5446.650737,-4181.631408,2998.151243,15545.906490,12698.942447,14729.263154,20177.120886,17414.266457,8629.226223,11086.353491,35.136002,-873.031982,-475.800018,2800.000000,-1540.000000,-1400.000000
-11330.568651,-418.670525,-1404.002476,-16337.694685,1473.315236,-4514.180662,-5462.229903,-4193.567239,3020.972374,15611.374749,12769.417497,14782.750879,20253.608555,17494.397461,8683.406852,11127.391294,34.160000,-874.007996,-476.776001,2940.000000,-1540.000000,-1260.000000
-11337.274174,-420.637479,-1405.120063,-16398.267913,1471.057710,-4515.857043,-5472.332892,-4196.875298,3038.920824,15662.560244,12824.045160,14829.398969,20313.332416,17555.305964,8730.010239,11161.991794,36.112000,-873.520020,-475.800018,2940.000000,-1540.000000,-980.000000
-11335.843663,-413.194348,-1413.211395,-16408.974398,1469.426032,-4521.467331,-5472.064671,-4189.722739,3043.413525,15671.277424,12834.684591,14841.558318,20321.736672,17560.670383,8741.789608,11169.032594,38.063999,-875.960022,-476.776001,3220.000000,-1540.000000,-840.000000
-11320.085683,-391.021418,-1418.508758,-16356.760723,1473.851678,-4525.803569,-5456.932540,-4174.612960,3030.225996,15627.713874,12790.070509,14814.490356,20269.120666,17506.065071,8711.950029,11141.316431,34.647999,-874.984009,-477.752014,3220.000000,-1540.000000,-700.000000
-11303.545392,-373.385891,-1420.945099,-16278.641376,1476.086852,-4529.111627,-5439.140551,-4162.990053,3010.355295,15564.905472,12721.338895,14766.635271,20193.415307,17426.492861,8657.344718,11099.943352,35.136002,-874.984009,-476.287994,2800.000000,-1400.000000,-560.000000
-11298.471546,-371.575400,-1423.403790,-16216.101195,1475.081024,-4531.525616,-5428.277603,-4159.704347,2989.948152,15510.568382,12664.409001,14717.953171,20130.673961,17362.075134,8608.684970,11066.438087,34.647999,-876.936035,-474.824005,2520.000000,-1400.000000,-280.000000
-11305.042959,-382.371292,-1420.207491,-16198.040986,1473.784622,-4526.921156,-5425.617746,-4167.192181,2974.860725,15486.294387,12643.063085,14694.014453,20111.652626,17346.026581,8591.831755,11056.916244,36.600002,-877.424011,-473.847992,2380.000000,-1540.000000,-140.000000
-11317.403474,-397.861051,-1413.479616,-16234.116701,1471.571800,-4520.372095,-5434.804313,-4181.318484,2983.421443,15513.518812,12671.270987,14710.420634,20147.907156,17386.259721,8613.334133,11077.681014,35.624001,-876.936035,-472.384003,2240.000000,-1400.000000,0.000000
-11331.909756,-414.110770,-1409.366895,-16309.151508,1466.319140,-4515.946450,-5454.362089,-4195.422434,3009.327115,15577.578911,12738.214462,14757.292242,20223.478404,17462.725039,8662.507971,11118.450596,35.624001,-877.911987,-474.335999,2380.000000,-1540.000000,140.000000
-11339.710515,-423.967889,-1409.098674,-16381.705270,1462.094660,-4515.320601,-5471.975264,-4202.597344,3033.489350,15640.633183,12804.465032,14808.053053,20294.579303,17534.921173,8712.173547,11156.336803,34.647999,-878.888000,-469.455994,2520.000000,-1680.000000,560.000000
-11337.765913,-418.357601,-1414.083113,-16407.342721,1462.362881,-4517.935755,-5472.645816,-4196.070635,3043.212359,15663.186093,12828.090826,14832.863490,20317.467489,17558.994002,8735.531120,11172.363004,33.672001,-878.400024,-474.824005,2660.000000,-1540.000000,420.000000
-11328.266421,-402.644325,-1420.721581,-16377.659604,1467.101451,-4522.942546,-5459.525342,-4182.860754,3035.948042,15637.570994,12802.721596,14820.815899,20286.376212,17527.522746,8723.036495,11157.633204,33.184002,-875.471985,-472.384003,2800.000000,-1680.000000,560.000000
-11314.944782,-384.897040,-1427.069476,-16304.368234,1472.823497,-4528.396371,-5439.252310,-4168.287416,3011.361123,15575.366089,12737.834482,14774.257216,20214.135374,17453.203196,8678.265950,11120.015218,32.695999,-876.447998,-474.335999,3220.000000,-1820.000000,840.000000
-11304.886497,-376.984522,-1429.416410,-16229.333428,1473.359939,-4533.336107,-5423.561385,-4162.945350,2983.756719,15510.903658,12669.661661,14719.540145,20139.726417,17375.262663,8624.375895,11077.032814,32.695999,-876.447998,-473.847992,3360.000000,-1680.000000,840.000000
-11302.584267,-381.119595,-1424.789599,-16192.698919,1475.282189,-4530.564491,-5417.772283,-4165.962835,2968.401071,15480.594692,12635.776417,14690.751098,20104.723585,17342.562061,8594.513964,11057.989127,32.208000,-875.960022,-474.824005,3500.000000,-1820.000000,840.000000
-11306.831098,-388.182746,-1414.351334,-16204.545343,1480.020759,-4521.355572,-5419.806292,-4175.976417,2968.266960,15491.837620,12644.538301,14695.109689,20119.252219,17362.946852,8602.024150,11063.755877,29.280001,-874.984009,-474.335999,3780.000000,-1820.000000,980.000000
-11320.197442,-401.750255,-1405.120063,-16270.818266,1478.411434,-4512.973668,-5434.469036,-4189.610981,2988.964676,15549.348658,12705.133880,14736.438064,20187.179171,17432.751350,8647.577005,11098.289323,30.256001,-874.984009,-473.847992,4060.000000,-1820.000000,840.000000
-11328.177014,-408.925165,-1399.979162,-16345.875424,1476.846811,-4509.509147,-5448.908263,-4197.925830,3017.552557,15616.247429,12775.363061,14791.244542,20263.309212,17510.714234,8701.087082,11138.455407,24.888000,-873.031982,-471.895996,3920.000000,-1820.000000,840.000000
-11331.820349,-408.053447,-1404.851843,-16392.970549,1473.561105,-4512.236060,-5458.385403,-4198.238754,3035.791580,15656.502921,12817.585506,14826.582650,20306.895114,17555.238909,8733.742980,11164.070507,26.352001,-871.567993,-469.944000,4620.000000,-2100.000000,560.000000
-11327.282945,-398.799825,-1413.613726,-16384.923921,1471.504744,-4518.494549,-5455.144400,-4190.527402,3034.852807,15650.378543,12809.538878,14825.174490,20296.121573,17542.297249,8729.786721,11160.471876,24.400000,-871.567993,-473.847992,4900.000000,-2520.000000,560.000000
-11317.314067,-386.931048,-1424.789599,-16327.792862,1470.789489,-4527.368191,-5442.560368,-4178.613922,3019.452455,15598.902476,12755.715877,14790.618693,20235.861270,17478.125391,8689.978265,11130.788759,24.400000,-872.056030,-476.776001,4620.000000,-2660.000000,280.000000
-11305.266476,-376.604542,-1429.550520,-16253.227443,1473.628160,-4534.632508,-5426.981202,-4169.494411,3000.565231,15533.881251,12686.403118,14741.646021,20160.602946,17398.799050,8635.194139,11090.332102,26.840000,-868.640015,-477.264008,4060.000000,-2520.000000,140.000000
-11300.058520,-375.844583,-1428.343526,-16199.583256,1476.511535,-4532.732610,-5417.437007,-4165.426393,2981.946228,15486.808477,12636.022286,14699.714148,20108.165754,17347.166520,8595.229220,11062.414773,29.768000,-871.080017,-477.264008,3780.000000,-2100.000000,-140.000000
-11307.233430,-389.680313,-1422.867349,-16201.326692,1476.042149,-4524.864796,-5418.353429,-4168.779155,2977.900562,15486.115573,12633.407132,14691.913389,20109.685672,17353.737933,8593.441080,11066.594549,31.720001,-870.104004,-473.360016,3220.000000,-1960.000000,-560.000000
-11322.253802,-410.176862,-1416.228880,-16260.223539,1471.527096,-4518.248679,-5433.306746,-4182.994864,2994.329094,15534.328286,12682.692728,14722.982314,20166.660269,17414.065291,8631.975488,11100.055110,31.232000,-873.031982,-473.847992,3080.000000,-1960.000000,-1120.000000
-11334.703724,-426.068953,-1411.937345,-16339.482825,1466.319140,-4515.030028,-5453.289205,-4194.573068,3019.743028,15601.808202,12755.000622,14774.503085,20246.724218,17494.151592,8684.457384,11142.523425,32.208000,-873.031982,-477.752014,3220.000000,-1680.000000,-1540.000000
-11342.660945,-433.065049,-1413.725485,-16404.034663,1460.194762,-4518.002810,-5468.846019,-4199.155176,3042.452400,15656.972308,12815.864422,14823.073426,20310.292579,17555.350668,8726.746884,11174.821696,30.743999,-874.007996,-478.239990,2940.000000,-1680.000000,-1820.000000
-11346.594852,-430.695764,-1424.297860,-16418.406834,1456.059689,-4525.825921,-5472.645816,-4192.673170,3045.156961,15665.287157,12829.543689,14834.897498,20320.663788,17562.167950,8736.849873,11180.454335,29.768000,-875.960022,-476.287994,2940.000000,-1820.000000,-2100.000000
-11339.911680,-418.067028,-1434.914939,-16376.586721,1456.417317,-4533.671383,-5462.945159,-4177.652797,3034.495179,15626.864508,12791.523372,14809.058882,20277.636680,17514.134051,8710.541869,11158.974309,29.280001,-879.864014,-475.312012,2520.000000,-2100.000000,-2380.000000
-11325.763026,-405.103017,-1440.815799,-16303.116537,1458.876009,-4538.164084,-5446.762496,-4167.795678,3014.892699,15565.218397,12725.719836,14761.606128,20204.814697,17437.199347,8660.093982,11120.730474,31.232000,-875.471985,-476.287994,2380.000000,-2240.000000,-2380.000000
-11316.285886,-401.660848,-1442.872160,-16238.944678,1459.703023,-4538.633470,-5436.413638,-4165.493448,2994.977295,15510.411919,12666.979452,14713.706340,20141.469853,17372.178122,8610.830737,11084.677110,28.792000,-878.888000,-479.704010,2520.000000,-2240.000000,-2520.000000
-11315.324761,-406.421769,-1433.976166,-16216.391768,1464.531000,-4532.442037,-5431.876234,-4168.980321,2987.265943,15491.971730,12648.092228,14693.947398,20122.873202,17356.040163,8594.782185,11070.550808,30.256001,-880.351990,-477.752014,2240.000000,-2240.000000,-2660.000000
-11327.193538,-421.732714,-1424.744895,-16249.986440,1464.687462,-4524.753037,-5440.727525,-4180.290303,2992.540955,15518.279733,12676.747164,14710.778262,20160.915871,17395.558047,8615.345790,11085.772346,28.304001,-880.351990,-474.824005,2380.000000,-2100.000000,-2660.000000
-11342.437427,-439.278834,-1420.140436,-16326.384702,1458.250160,-4521.847310,-5464.174505,-4198.417568,3016.837301,15582.339833,12744.830578,14757.918091,20237.247078,17472.135123,8660.697479,11121.244564,28.792000,-880.840027,-474.824005,2520.000000,-1960.000000,-2660.000000
-11345.097285,-437.691860,-1415.401866,-16392.814087,1459.747727,-4520.886185,-5475.372729,-4204.184318,3045.291072,15642.108398,12808.175422,14809.863545,20302.044785,17540.531461,8711.838271,11155.822713,28.304001,-882.791992,-477.264008,2380.000000,-1960.000000,-2520.000000
-11343.890291,-429.578177,-1419.380476,-16419.837346,1459.993596,-4525.870624,-5478.949008,-4198.037588,3059.797354,15666.427096,12834.438721,14835.970382,20325.648227,17563.956089,8733.765332,11169.345518,27.816000,-881.328003,-474.335999,2660.000000,-1960.000000,-2660.000000
-11340.179901,-419.564595,-1429.952852,-16397.396195,1459.211285,-4532.754962,-5473.852810,-4183.173678,3056.064612,15644.835311,12813.539840,14824.861565,20301.396585,17534.116511,8719.661381,11157.387335,27.328001,-882.791992,-474.824005,2660.000000,-1820.000000,-2520.000000
-11331.038038,-404.991258,-1440.547578,-16329.044560,1460.261817,-4538.544063,-5457.178409,-4165.448745,3031.812970,15580.417583,12747.378677,14777.207646,20230.809776,17460.713382,8672.789773,11120.506957,28.304001,-882.791992,-477.752014,2940.000000,-1820.000000,-2520.000000
-11325.204232,-401.526737,-1446.180218,-16260.961146,1459.881837,-4542.142694,-5443.253272,-4155.099887,3009.572984,15517.430367,12681.664548,14726.916221,20162.167568,17390.774773,8622.587755,11084.855924,30.743999,-883.768005,-474.335999,2940.000000,-1540.000000,-2520.000000
-11322.097340,-403.471339,-1441.307538,-16222.069111,1465.134497,-4540.511017,-5435.988955,-4156.284530,2999.268830,15484.126268,12645.007687,14697.188401,20124.728397,17355.637831,8594.111633,11063.688822,31.232000,-882.304016,-474.335999,3500.000000,-1540.000000,-2380.000000
-11325.405398,-410.646249,-1430.377535,-16236.173062,1467.816707,-4533.358459,-5443.342679,-4168.846210,3003.739179,15497.939646,12658.865769,14704.072738,20141.536908,17376.313195,8600.437176,11069.008537,31.232000,-879.376038,-474.824005,3920.000000,-1400.000000,-2520.000000
-11340.291660,-427.722982,-1423.292032,-16304.658807,1462.049957,-4527.368191,-5463.593359,-4185.766481,3021.039429,15555.182464,12721.607115,14746.809274,20211.028482,17447.302335,8642.078476,11105.263067,30.256001,-880.351990,-476.287994,4060.000000,-1260.000000,-2240.000000
-11357.122523,-445.224398,-1422.979107,-16385.840343,1453.377480,-4526.317659,-5483.061729,-4198.574030,3041.603034,15621.611848,12794.876134,14800.520516,20290.086602,17527.545098,8695.074462,11149.787742,33.672001,-882.304016,-476.287994,4200.000000,-1120.000000,-2240.000000
-11363.157494,-448.063069,-1427.270642,-16435.885899,1446.806067,-4529.446903,-5493.678807,-4200.943315,3059.372671,15663.655479,12841.971259,14837.736170,20337.874632,17571.578034,8729.697314,11177.682719,31.720001,-881.816040,-473.847992,4620.000000,-1120.000000,-2100.000000
-11358.530683,-434.540264,-1433.685593,-16426.676980,1448.661262,-4533.425514,-5487.330912,-4192.427301,3057.740993,15656.525273,12835.288088,14838.026743,20327.123443,17558.703430,8726.165739,11174.441716,31.720001,-882.304016,-475.800018,4620.000000,-840.000000,-1960.000000
-11345.164340,-416.502406,-1441.039317,-16364.717944,1455.098564,-4538.611119,-5466.432031,-4174.791774,3037.780885,15603.953970,12779.855762,14803.314484,20264.873834,17495.827972,8690.000616,11145.026820,35.624001,-882.304016,-471.895996,4620.000000,-840.000000,-2100.000000
-11330.389837,-400.699723,-1442.514532,-16284.005795,1462.832268,-4539.773409,-5443.856769,-4160.486658,3012.702228,15535.602335,12704.910362,14751.614899,20185.703955,17418.781509,8640.759723,11105.486584,33.672001,-880.351990,-475.800018,4760.000000,-700.000000,-1960.000000
-11320.800939,-395.648229,-1438.267700,-16227.791158,1469.448384,-4533.336107,-5429.283432,-4152.976472,2992.116272,15488.082527,12653.143722,14710.308875,20132.797376,17368.110105,8606.069816,11078.575084,32.208000,-880.351990,-477.752014,4620.000000,-560.000000,-1960.000000
-11314.564802,-394.217717,-1425.795427,-16215.922381,1477.182088,-4524.060133,-5423.449626,-4156.888027,2990.685760,15482.963977,12645.365315,14699.222410,20127.544716,17364.846750,8603.365255,11070.506104,34.160000,-880.351990,-477.264008,4480.000000,-700.000000,-1960.000000
