7.04838,2.22007,0.284653,-2.58405,-3.6144,-1.92986,-2.94283,-3.3605,9.39679,2.00266,-0.0770381,-0.724841,1.95239,-2.657,-0.67715,-0.942227,-115.168,-934.52,-330.864,1260,2240,2660
0.534051,-0.909765,-1.0747,0.901213,-0.518567,-2.23098,-2.14961,-3.29066,-1.50201,-1.49286,3.89938,-0.691798,1.60982,-1.09136,2.52202,-1.022,-112.728,-934.52,-330.864,1400,2240,1960
1.12565,2.32336,0.157012,2.13509,0.0415265,-1.27867,-2.05202,-1.61951,0.354327,-1.26251,-8.08768,0.170305,1.84661,-0.11665,0.0425024,-1.29375,-110.288,-935.984,-336.232,1540,1960,1540
-2.02673,-4.38468,-0.277389,-4.81774,-3.86064,-1.43472,-6.46266,-2.2933,-2.84599,-1.42677,1.63296,-2.85437,2.38789,-1.40748,-7.92885,-4.03247,-109.312,-935.496,-326.96,1400,1260,980
-2.6228,-5.89526,-1.15049,-6.93539,-1.67997,-1.99711,-6.63008,-0.549919,-3.49327,-1.61106,-3.27566,-1.05921,0.510765,-1.26372,-10.8958,-3.07382,-104.432,-937.936,-335.744,700,560,420
-2.503,-4.00348,-2.1414,-4.41377,-0.917458,-0.336975,-3.82285,1.20774,-4.95779,-1.02068,-3.51675,-0.751721,-0.042016,-0.555626,-9.67615,-2.09248,-103.944,-938.424,-332.816,840,-280,140
-3.71765,-4.86094,-2.4545,-2.48654,-0.148768,-2.36468,-1.19429,-1.09732,-7.98859,-0.593044,1.82362,0.752282,-0.817103,-0.72679,-6.01974,-2.4046,-101.016,-931.592,-331.352,980,-1120,-420
-0.833324,-4.7949,0.221505,-1.23411,0.0799184,-2.12205,1.62152,-0.543685,-3.09045,1.6842,-7.65477,1.92346,-1.59197,0.757137,-0.426332,-0.778176,-101.992,-926.712,-335.744,1120,-1260,-840
-2.78779,-6.10963,0.490718,0.102714,-1.89861,-0.621412,2.01449,0.669691,-7.43663,0.856357,3.53116,-2.92323,-5.86518,0.256718,3.51062,-0.0919815,-97.6,-932.568,-325.984,2100,-2100,-1260
0.653662,2.86626,2.98415,4.66139,0.55132,1.66545,3.14693,2.4716,1.0977,1.60523,-0.626964,0.312914,-7.16022,1.62181,8.48296,0.757016,-97.112,-935.984,-331.84,2660,-1540,-1120
3.93204,7.31745,4.63701,5.66464,3.342,3.79555,5.03019,4.57909,8.94505,3.62113,-0.188201,2.39568,-5.85117,3.27753,8.9987,2.55225,-92.72,-940.376,-323.056,2940,-1400,-980
1.15021,-0.22243,-1.13577,0.241755,-0.586108,0.975187,3.34273,2.0831,3.32226,1.72948,6.35909,-2.4267,-7.25269,-0.0666895,6.57032,1.84633,-95.648,-934.52,-318.664,3920,-3780,-560
7.80253,2.62346,0.526727,-3.40537,-2.46047,0.852207,0.0492715,0.379639,11.4932,5.99085,0.61957,-0.560206,-2.59658,-1.07603,0.548972,0.322592,-93.696,-935.008,-323.056,3920,-3360,-280
10.9903,10.3337,4.09306,1.36287,1.91203,1.87641,1.5696,1.01809,15.9783,9.0105,12.104,5.48549,3.54371,1.22433,0.773657,1.57827,-97.6,-936.96,-333.304,2800,-2800,0
3.31825,10.6006,2.47184,6.76037,6.45131,2.46938,3.18614,-0.302042,6.2596,4.21968,1.01627,7.64284,6.97021,4.26263,4.29207,2.54846,-95.16,-941.84,-333.792,1120,-3500,560
-5.07699,1.3359,-1.86704,1.15077,1.12201,1.18057,-2.13424,-2.15579,-7.49287,-1.25177,-4.24783,1.05015,6.62446,0.874816,-2.91907,-1.43776,-96.136,-939.4,-340.136,0,-3080,700
-7.30577,-2.84779,-4.51051,2.83779,1.95629,1.84615,1.84789,1.75969,-11.9908,-5.67165,1.84422,-1.74367,4.60192,1.03542,2.18487,1.96616,-97.6,-941.352,-338.184,280,-1960,1540
-4.9745,-5.60687,-5.42923,-0.615019,-1.23338,0.695473,2.067,2.62309,-7.10916,-5.92842,-6.81539,-5.09181,0.760987,-1.2043,1.9303,2.9095,-97.112,-941.84,-336.72,700,-840,1680
-7.60093,-7.89005,-4.60635,-4.19074,-4.15049,-1.67678,-2.99663,-1.50827,-10.4846,-7.61385,2.18033,-5.19572,-2.11686,-3.77414,-5.01232,-0.958745,-97.112,-939.4,-339.648,1120,700,2240
-8.72634,-11.5884,-2.20659,-8.18025,-3.63378,-1.30636,-4.07329,-1.36005,-14.5202,-7.35949,-2.09679,-2.93604,-0.0233856,-1.88436,-7.03704,-1.78843,-96.136,-940.864,-332.328,1820,1540,2940
-2.9803,0.384561,5.23426,3.11549,8.65039,4.10905,3.326,2.47985,-5.03742,-4.23149,-1.06953,7.78627,3.95872,7.14393,0.291218,2.59895,-94.672,-940.376,-329.4,2240,1820,3220
1.2597,11.1827,6.07195,8.65633,11.7509,3.59392,4.84598,0.934562,4.97072,-2.47975,2.67341,12.0229,3.93998,7.32618,0.689309,3.12221,-95.648,-940.864,-337.208,1960,2800,3360
6.41237,5.74095,4.12529,-2.70125,-0.524369,-1.66442,-1.96009,-2.97568,11.949,2.71184,-6.23931,4.35883,2.68145,-1.43843,-5.35472,-1.96131,-98.088,-944.768,-335.744,2380,3500,3500
3.38066,-0.394166,1.06775,1.37219,1.04886,-1.38011,4.10588,-0.31258,4.53666,0.7032,1.76353,0.303619,-0.930009,-0.0452339,6.29186,1.96261,-97.6,-940.376,-336.232,3360,3500,3360
2.46073,2.1072,-0.970054,5.91788,1.46374,-1.65359,3.81178,-0.809786,4.4143,-0.519214,-4.3749,-0.279754,-2.2379,0.823919,9.16716,1.89946,-98.088,-941.352,-331.84,3780,3920,3080
4.37289,4.32659,0.00779598,4.8104,-0.666156,-2.95289,-0.864783,-2.30823,6.04692,2.86335,-2.54409,-0.132,0.666052,-1.5165,1.55452,-1.40668,-95.648,-940.864,-333.304,3780,3780,3080
0.672481,-3.62997,-3.48085,-6.06001,-8.53263,-5.83204,-6.54964,-3.49974,1.09166,1.95295,4.38367,-6.42478,-0.747576,-6.16057,-8.4589,-4.39221,-99.064,-940.376,-325.984,4060,3500,2940
2.59022,-4.69454,-1.53401,-8.27191,-7.82225,-4.91125,-6.62443,-2.53073,3.8541,4.20497,-3.12149,-5.79264,-0.619621,-5.2147,-8.68935,-5.14705,-98.576,-936.96,-327.936,4340,2800,3080
-5.08827,-10.7761,-3.96932,-6.70747,-7.15135,-3.13156,-0.0797988,1.16421,-8.65856,-0.115949,3.46013,-9.55747,-4.14732,-4.66218,0.999157,-1.64707,-97.112,-937.936,-325.008,3920,2660,2940
-8.10178,-12.1898,-6.04949,-10.0966,-9.67216,-3.00791,-0.562207,1.77316,-10.2798,-3.92991,-4.1585,-12.4676,-7.36425,-5.65778,-0.326046,-0.935915,-99.064,-939.4,-326.96,3780,2380,2800
1.73187,6.18656,-0.080754,-0.788526,-2.52493,-0.358681,-2.06316,1.81598,6.73568,0.693191,-0.861671,-1.17754,-3.54987,-2.32697,-7.8052,-1.02332,-101.992,-941.352,-326.472,3640,1960,2520
6.48268,11.0723,4.05203,-0.89729,-1.39362,0.653001,-7.0969,-0.970802,10.2481,3.9265,7.54353,4.53778,1.62377,-0.915499,-16.5547,-4.76031,-100.04,-940.864,-324.032,3500,1820,2380
0.984453,3.65769,5.62152,6.87909,6.39195,4.69423,2.50826,3.55844,-4.04733,2.61368,-2.5319,5.59863,4.31293,4.61509,3.93639,0.815041,-106.384,-939.888,-329.4,3360,980,2240
-0.0504663,7.02311,5.35798,13.7566,11.9966,6.99496,8.20589,4.66829,-5.32466,1.45195,5.05181,8.56692,5.05241,8.45141,14.3143,5.60705,-101.992,-940.864,-320.616,3500,420,1960
-4.12488,-8.8277,-3.47761,-3.30288,-0.731802,1.3235,-1.36758,-0.713666,-10.9193,-0.909956,-2.21048,-2.89647,0.00124281,-0.313752,-0.258059,1.02088,-105.408,-945.256,-329.888,3640,420,1680
0.0339231,-8.24806,-1.70398,-3.77112,-0.22764,2.65517,-0.719956,-0.359507,-2.29241,1.85613,1.63111,-1.33055,-1.29386,0.709141,-1.18247,1.60883,-104.432,-944.28,-322.568,3920,0,1260
-4.33134,-8.33456,-3.0555,-3.82992,-2.10127,3.58096,2.02584,0.949063,-3.88984,-2.05141,6.47381,-5.74942,-1.6573,2.21927,7.67794,3.10604,-104.432,-942.328,-327.936,4060,-280,700
1.91161,11.7794,3.67349,14.1806,10.5104,5.63151,9.97625,1.94988,6.35861,-0.82125,-4.97057,6.70295,1.44,8.01697,17.157,6.15301,-106.872,-944.768,-325.496,4480,-560,560
2.97675,-1.05481,2.12756,-0.434156,1.51188,1.35525,-0.0489491,-2.42931,4.79225,0.124673,2.01196,3.10779,0.00358697,1.19044,6.7424,-2.02385,-106.384,-943.792,-328.912,4900,-700,140
3.71729,-4.80089,-0.987018,-4.23186,-2.34491,-1.75276,-3.53301,-2.96845,7.03148,0.330418,-4.22871,0.29402,-2.9099,-2.59067,7.60549,-4.78027,-104.432,-948.184,-325.496,5460,-840,-280
1.33028,1.95115,-0.452677,4.04636,2.65623,0.365679,3.06591,0.989978,1.70176,-2.01141,-4.16347,1.96402,-1.96755,1.155,13.2164,1.48147,-105.896,-943.792,-330.376,6020,-840,-700
-3.27457,3.23086,-1.75135,2.23983,0.163979,-0.994525,-3.26619,-1.36492,-4.68403,-5.18737,0.9174,0.356693,-1.62345,0.227374,0.0201539,-1.2182,-105.896,-942.816,-332.816,6160,-700,-980
2.9127,4.24314,-0.410491,-8.0863,-3.70955,-2.8351,-11.5099,-3.2433,7.38835,-0.259554,-6.6041,1.50846,0.580229,-1.63617,-24.5929,-5.524,-106.384,-942.328,-332.816,6300,-840,-1120
1.42157,8.3385,-1.26338,-0.5826,-2.7709,-3.80787,-5.98502,-2.59008,5.75309,1.00407,4.31961,-0.487174,0.496326,-3.27881,-18.0065,-2.93693,-103.456,-941.84,-321.592,6580,-980,-1400
10.6116,21.7643,5.77592,7.76686,5.1108,-1.98783,-4.34187,-3.02032,16.7969,7.18706,1.6048,10.3909,4.5223,-0.270584,-19.8139,-2.42854,-104.92,-941.84,-333.304,6300,-840,-1400
0.576595,-9.95815,-1.18221,-18.1105,-7.35767,-2.89903,-6.94348,0.558603,-0.756687,2.91335,2.41478,-3.70779,1.46456,-6.27635,-19.3476,-1.51799,-106.384,-942.816,-329.888,6440,-980,-1400
-11.4597,-13.5679,-4.75184,0.0969768,1.40535,-0.346915,11.4483,5.52116,-18.3754,-4.77992,3.47336,-6.57183,-1.6557,-1.11261,19.057,8.27324,-102.968,-944.28,-322.08,6720,-1260,-1540
-7.22476,0.178881,0.137071,17.4795,7.04015,0.75723,17.2423,5.0979,-11.95,-3.17241,-5.70819,-0.81765,0.543925,2.98177,30.5764,8.50986,-104.432,-946.72,-321.592,6160,-1400,-1680
9.9221,32.5973,10.5626,28.3526,11.2825,1.12572,5.49942,-2.19225,14.9219,6.97699,8.57394,15.6773,7.2098,5.46651,7.5516,-0.819046,-102.48,-945.744,-319.152,5880,-1960,-1540
-13.1562,-29.7627,-5.8432,-19.2293,-12.8468,-3.27083,-7.55094,-1.3049,-26.2788,-3.19284,-2.89977,-13.038,-2.48571,-5.99967,-16.2192,-5.40806,-102.48,-947.696,-317.2,5880,-2800,-1540
-15.2107,-44.8664,-11.8331,-32.7718,-19.0855,-4.47108,-4.61244,0.657325,-21.9034,-6.78066,-3.20641,-21.9583,-8.23589,-9.78849,-6.1457,-2.91871,-103.456,-948.672,-328.912,5600,-2660,-1540
4.50459,6.01231,-1.48189,-1.21866,-2.32167,-1.07068,1.02147,-0.725614,15.8106,0.528178,5.20241,0.00501713,-1.50923,-1.79158,3.39726,-0.625019,-101.016,-947.208,-319.152,6300,-3360,-1540
2.69238,-2.41877,-0.698405,-7.3922,-2.55877,-0.73401,-0.868362,0.0446474,6.1965,-0.316097,-5.59233,-0.743163,0.0549034,-1.05424,-3.06659,-0.52533,-101.992,-949.648,-325.984,6300,-3500,-1400
9.90693,10.9858,3.16555,0.367968,3.76865,0.460217,-2.57601,-2.84797,17.8938,3.92176,5.22793,7.63212,2.25013,2.50118,-7.72419,-1.41885,-102.968,-948.672,-332.328,6580,-3360,-1120
7.25783,25.5409,5.34332,14.8551,9.75851,2.27082,1.82841,-2.29252,10.5909,3.4791,-1.15553,12.2277,4.3701,6.71766,-2.41634,0.904734,-101.504,-945.744,-329.4,7560,-3500,-1260
-10.6223,7.15653,2.2816,23.1983,11.8015,3.50728,11.487,0.874342,-26.7216,-5.46559,-6.91359,3.15413,2.16363,7.6687,14.7001,6.15185,-104.432,-942.816,-333.304,7840,-3220,-1120
3.96671,8.46012,1.3022,9.98161,6.21314,-0.0921962,0.927928,-2.56522,4.78527,-0.382201,1.74759,4.8791,-0.643756,3.06585,-1.93206,-0.132668,-103.456,-941.84,-329.4,8400,-2520,-980
10.7738,0.0599084,-1.46586,-10.8204,-6.17669,-1.6393,-2.50369,1.09893,20.8597,2.60015,-5.71098,-2.18077,-2.25443,-3.13057,-2.50285,0.186302,-103.944,-940.864,-336.232,8820,-2380,-560
-4.45336,-11.7984,-3.75742,-3.78297,-5.12528,1.98016,7.80036,7.57566,-8.08714,-2.53053,2.62256,-9.55017,-3.67163,-1.52434,22.1897,7.75146,-104.432,-939.4,-334.768,8960,-2240,-700
-8.09186,-6.17822,0.770986,5.08924,3.94417,4.74122,7.38947,5.77584,-16.9068,-3.65112,-3.03903,-2.26007,-0.43226,4.64925,19.6875,6.93953,-108.824,-940.376,-327.448,8540,-2520,-700
1.66075,-6.41916,1.89686,-9.00218,-2.24797,2.07069,-4.77686,0.598933,5.06598,1.81024,1.04509,-1.28525,0.982563,1.02113,-2.22942,-2.20729,-105.408,-944.28,-325.008,8260,-3080,-560
13.1541,15.6103,6.78155,-3.16521,-1.70816,0.213011,-14.0166,-6.34268,27.7478,6.84876,7.98788,8.02495,3.45744,0.867128,-17.9654,-9.96355,-105.408,-944.28,-334.768,8120,-3220,-700
1.58299,-0.653434,5.43363,4.07268,3.1935,3.79128,-5.69155,-1.66611,-3.63662,1.16354,-5.46436,4.34719,2.34833,3.83687,-8.67012,-3.27221,-108.824,-946.72,-328.424,8120,-4060,-700
-5.1841,-9.89766,-1.52992,-4.32978,0.91669,2.3746,-3.28585,1.65869,-13.0152,-1.96734,3.7793,-2.75215,-0.936652,0.206822,-7.88349,-0.471959,-109.312,-949.648,-322.08,8120,-4620,-980
-23.0591,-31.2943,-11.5466,-9.09345,-6.05546,-1.46293,5.2923,5.4875,-40.4706,-11.3436,-7.58502,-17.7196,-6.45535,-5.63013,13.2802,4.47049,-109.312,-947.208,-327.448,7980,-4900,-1540
3.11272,-9.0177,-4.51903,-14.1942,-13.8468,-6.23919,-10.1494,-2.36057,5.78573,2.63845,1.04349,-8.66799,-1.94188,-10.6852,-13.9723,-6.77012,-109.8,-946.232,-327.936,8120,-5320,-1960
36.0214,55.1847,12.0633,5.15438,-1.65957,-5.21882,-24.3145,-12.6144,66.3732,19.1941,14.9716,22.1579,9.07881,-4.33343,-48.7895,-17.0027,-111.752,-947.696,-323.544,8120,-6020,-2380
13.6606,10.9682,5.46446,-9.31662,-2.28198,-2.13111,-13.9684,-5.84548,20.6054,10.0022,0.504409,9.52868,6.08131,-2.77462,-31.1743,-9.29217,-109.8,-946.232,-322.568,8120,-5880,-2800
-2.78268,-14.6334,-1.57785,-12.3265,-2.13079,-0.215999,0.573921,0.62084,-4.32138,-0.18757,4.92613,-2.47446,-1.0219,-1.61077,-0.141019,0.511408,-113.704,-946.232,-330.864,8120,-6300,-3640
-3.98522,22.1648,6.57542,40.8864,27.0109,9.78896,34.2711,11.3678,-8.76597,-3.59987,-5.30398,15.4213,2.89095,16.0495,55.4126,22.5711,-114.192,-944.28,-330.376,8680,-6860,-4480
-30.3708,-15.6801,-5.15418,26.3182,15.7556,8.768,30.2526,13.1986,-56.8543,-16.9038,-10.2634,-4.84686,-2.57094,10.27,50.4344,21.8562,-111.752,-944.768,-326.472,9240,-7000,-4900
-28.6559,-27.746,-10.3207,2.94293,1.00071,0.905652,9.39352,3.11174,-49.4377,-16.499,-3.89761,-13.2918,-7.598,-0.324555,17.42,6.82733,-110.776,-945.256,-330.376,9240,-7140,-5460
-4.07022,-6.10028,-3.06159,-7.98376,-3.65487,-5.39612,-8.51195,-7.10081,-9.77949,-2.77297,-4.79132,-0.643588,-4.07861,-5.00699,-16.9445,-7.07186,-109.8,-945.256,-331.84,9660,-7000,-5880
0.948527,-18.9811,-6.29843,-26.8952,-15.6057,-8.31319,-13.4894,-6.13346,4.01984,0.371983,7.16092,-10.1831,-5.75453,-10.0766,-20.0636,-11.0206,-108.824,-949.16,-331.84,10360,-6720,-6580
9.28658,-1.71537,-2.06803,-3.88261,-4.61676,-3.56174,3.08794,1.42907,23.3042,4.70527,2.18156,-4.01998,-1.44493,-1.0743,13.7316,-0.79797,-107.848,-949.648,-329.888,10920,-5740,-7140
18.1631,13.6877,2.39955,-1.05393,-3.64886,-2.07975,-1.34018,-0.404988,38.2472,10.9301,4.93825,1.5356,2.14438,-0.786949,4.53217,-3.49576,-104.92,-948.184,-332.816,11760,-5460,-7420
13.8086,20.9562,3.08206,7.49931,1.79282,-0.0714195,2.6197,0.298561,30.7042,6.42213,5.78859,3.0212,1.52508,1.12013,8.08045,0.574694,-105.408,-947.696,-331.84,12600,-4760,-7840
7.11154,9.69278,3.03846,2.74496,0.958242,1.04597,0.55827,0.471519,13.4235,3.50786,-5.67789,1.76889,1.88307,1.71348,-1.75248,0.553437,-105.896,-948.184,-331.84,13020,-3780,-7980
3.1171,-2.24022,2.30509,-3.24262,-0.557664,1.49287,1.50054,0.747103,3.15668,2.28308,4.66318,-0.475785,1.60142,1.73426,-1.02716,0.0873003,-103.944,-943.792,-332.328,14560,-2800,-8400
0.54189,10.1652,2.20555,11.2371,5.49324,2.25224,6.41038,1.56084,1.0033,-0.213455,-2.26341,4.05027,0.944516,4.15143,9.43595,2.74797,-101.504,-940.376,-328.912,15260,-2100,-8540
0.892474,7.33587,0.860197,4.65846,1.0582,1.51263,0.849705,1.23982,0.295144,0.857715,-2.16084,1.89219,0.56411,0.846896,-3.51645,0.905952,-103.456,-939.888,-326.96,15540,-1400,-8680
0.0194139,15.1974,0.908207,6.77961,0.121155,-1.84232,-4.69398,-4.43456,-1.24638,-0.623227,1.8244,4.06763,0.338615,-1.81657,-14.8002,-2.33309,-106.384,-940.864,-325.496,15680,-1260,-8820
-10.1377,-0.0714155,-1.37069,-1.1853,-1.71893,-2.67875,-9.61253,-6.71411,-20.1551,-6.08373,-10.7449,1.17134,0.410501,-2.41402,-21.9111,-4.26206,-101.504,-937.448,-322.08,15820,-1120,-8820
-12.0875,-8.78543,-2.34372,-1.81756,1.37004,-0.179678,-4.14428,-3.0444,-20.3958,-7.30219,-0.232446,-0.0376252,0.806303,1.32486,-12.0902,-0.59761,-99.552,-935.496,-320.128,15120,-1260,-8820
-8.23192,-17.8871,-4.87636,-14.9227,-9.93487,-2.7561,-9.12797,-4.76485,-9.79025,-4.06648,-3.89881,-9.0917,-1.03637,-5.40587,-11.9794,-5.96576,-101.504,-936.96,-317.2,14420,-1680,-8540
-8.84264,-13.3696,-1.1599,-3.65147,-1.95253,0.754002,-3.41068,-0.478471,-15.9146,-4.40306,-2.85637,-3.33271,-0.848016,-0.897467,-2.15444,-2.18458,-101.016,-936.96,-312.808,13580,-2380,-8400
-5.21394,-15.0296,-1.65956,-11.1191,-2.98091,-0.155454,-6.03327,0.0446349,-13.717,-2.2195,2.9715,-1.76601,-0.961371,-1.22026,-10.2602,-1.52779,-100.528,-939.4,-312.32,12460,-2940,-8400
-3.67553,-20.3311,-1.17483,-10.7378,-0.488813,2.86546,0.738728,3.10462,-9.87655,-1.06941,-4.79996,-2.33706,0.450128,0.789306,3.44757,0.145232,-101.992,-939.4,-311.344,12040,-3640,-8400
7.4135,7.97617,2.21643,1.67851,1.29741,1.24195,2.26032,0.308856,17.5797,3.20863,7.14767,3.48588,1.00221,0.00361923,9.73862,-2.67872,-103.944,-937.448,-309.88,11620,-4480,-8540
5.301,-0.450311,-3.03072,-11.5991,-10.2638,-4.44505,-5.3719,-0.582436,13.3622,1.5925,-0.408435,-5.81757,-2.81833,-8.28297,-4.18642,-5.27519,-107.36,-938.912,-312.32,11200,-4900,-8960
1.50876,-0.610472,1.65867,4.07597,3.12423,2.89953,7.59692,6.96272,-1.62933,0.702529,0.414108,0.789775,0.217873,2.15037,11.7056,6.9244,-105.896,-941.352,-319.64,11060,-5040,-9100
-0.232716,-2.5315,2.05807,0.209748,4.25882,2.61609,1.77137,3.04106,-6.36514,0.113305,5.82114,1.01255,1.5949,4.003,0.473043,5.13698,-108.336,-940.864,-316.712,11060,-5180,-9520
7.51705,4.16361,4.96058,-1.33515,1.59402,1.69256,-2.04404,1.45353,6.3976,5.39265,0.938949,1.77165,4.59102,3.70697,-6.83181,1.67748,-106.872,-941.352,-317.2,11340,-4900,-9800
8.32667,1.73644,3.11633,-1.00996,-1.02525,-0.109713,0.718479,1.07797,11.1604,6.51528,10.4766,-1.79332,1.70363,1.67815,1.33953,2.56399,-107.36,-939.888,-325.984,12320,-4200,-10220
5.34001,5.93148,0.866457,6.58128,2.05075,0.866969,4.04432,1.36192,8.92377,2.47664,-1.27218,-0.229027,-1.05468,2.5403,8.76363,4.59682,-108.824,-939.4,-324.52,13020,-3220,-10780
3.63777,17.9873,3.46885,20.2447,13.3208,6.52472,11.8067,4.87612,6.20867,0.803674,-2.90168,9.48344,1.3198,9.51692,16.4269,10.3363,-104.432,-936.96,-323.056,13860,-2520,-11060
0.437598,10.1865,0.802206,12.3299,9.42381,1.65939,5.85593,1.21498,3.25276,0.152298,1.04638,6.38868,0.111014,3.03428,5.81134,4.28065,-103.944,-938.912,-323.544,14980,-1680,-11200
5.70342,9.8644,4.39062,7.84521,4.92099,-0.466021,3.08953,-1.21558,13.0617,3.72266,-6.07514,5.86285,3.06531,-0.857047,5.76341,-2.03527,-104.92,-938.912,-322.08,15680,-1120,-11480
6.86386,18.3213,5.42228,15.0075,6.40133,0.0348281,4.48481,-2.76491,11.8747,3.28503,4.2399,10.003,4.71082,0.847401,8.74456,-4.4484,-102.48,-933.056,-327.936,16660,-420,-11200
-7.1946,-2.17539,-3.05745,7.84457,-0.658002,-3.52615,5.85965,-2.08646,-14.5006,-3.24638,-5.81631,-1.98129,-2.3272,-4.54267,15.5924,-4.12253,-102.48,-935.984,-323.544,17080,140,-11060
2.32099,-0.0188513,0.634828,0.34833,0.837518,-3.64323,3.0443,0.968019,1.81179,1.87589,-3.21231,4.34818,-4.65584,-2.52738,9.6878,-0.832999,-99.064,-935.008,-318.664,17360,420,-10780
12.9826,10.4372,-2.0055,-2.80653,-2.4916,-3.57333,-2.68941,0.192544,19.8698,3.64395,5.60648,6.05806,-2.20019,-3.73692,-1.30587,-0.670023,-95.648,-935.008,-317.688,17500,700,-10360
0.923059,-3.21701,-5.50366,-6.3319,-3.52821,1.87459,-1.3226,2.67188,2.34406,-1.14123,-1.81658,-3.74634,1.01441,-0.205078,-3.80243,3.0044,-94.672,-936.96,-318.176,17220,840,-9800
-2.10968,0.914126,-2.253,-7.35354,-5.16677,2.32129,-7.36734,-2.37007,5.18688,1.03566,10.3122,-8.50102,2.25444,0.537549,-15.0147,-1.18461,-93.696,-936.472,-315.736,16940,420,-9380
-1.54137,1.1874,-1.58878,-10.5116,-9.28787,-4.94153,-12.4222,-10.7593,10.0626,1.88485,1.2681,-8.13253,-0.50623,-8.42933,-21.609,-10.2531,-92.72,-934.032,-312.808,16100,420,-8820
-7.78348,-11.6557,-1.58271,-8.43126,-7.77981,-7.11573,-7.58814,-6.64562,-9.88412,-1.99851,-2.72444,-5.60033,-3.98765,-8.90895,-10.8084,-6.22588,-91.744,-937.448,-313.784,15120,-140,-8120
-28.6866,-33.0075,-8.12859,-1.80039,-3.44851,-2.76926,2.47269,3.32244,-54.0145,-14.8869,-3.58781,-12.9709,-8.16508,0.108754,10.9348,5.30921,-93.208,-936.472,-310.856,14280,-560,-7140
-16.4627,-13.2025,-2.59009,2.35525,3.66684,4.10499,4.95718,7.86583,-35.5315,-11.6914,-12.0408,-0.503322,-5.92061,7.68737,5.6917,9.53565,-91.744,-938.912,-308.416,13160,-1260,-6720
-2.11935,1.77977,-1.80598,-2.34292,3.85901,5.75495,2.2047,4.43066,-4.82124,-6.95445,-1.54861,5.10868,-3.33081,8.01699,-6.64889,6.42935,-91.744,-940.376,-311.832,12180,-1680,-6160
-5.52308,-8.26733,-1.49159,-14.2132,-2.41939,3.89521,-8.32976,-1.17003,-4.00565,-4.58796,-7.78418,-1.20137,1.33941,4.31014,-20.8727,-2.75881,-90.768,-943.304,-307.44,11340,-2380,-5880
-7.25432,-10.9215,3.16342,-11.4584,-0.819111,5.0804,-5.26739,1.8567,-8.23797,0.185598,-1.72896,-5.72012,4.30596,4.87329,-14.2045,-0.746417,-94.184,-947.208,-312.32,10360,-2660,-5320
-2.45691,-4.77791,-3.76262,-2.4583,-5.13628,-1.67689,-0.636102,-2.29434,2.69897,-1.19097,3.8298,-8.24677,-2.21386,-8.33345,2.49173,-7.16823,-93.696,-948.184,-311.344,9520,-2940,-5180
4.67136,-2.13362,-10.2776,-1.37915,-14.9922,-15.9537,-8.4018,-14.317,11.1726,-1.74685,-5.69163,-8.55389,-7.87969,-29.1435,4.5112,-25.2744,-95.16,-945.256,-307.44,9240,-2660,-5180
11.4673,6.59865,-3.43781,3.16108,-12.0453,-15.9464,-6.43223,-9.93603,17.9504,5.17724,8.44687,-3.43717,-3.68505,-17.0229,7.55124,-13.9108,-96.624,-945.744,-311.832,8540,-2660,-4760
17.1927,17.8419,8.57498,10.8047,0.778548,-0.570598,2.88066,3.29744,22.3058,13.0167,8.50746,8.15339,7.55323,7.16146,11.7942,7.29793,-97.112,-947.208,-309.88,8260,-2380,-4900
17.0082,14.8227,12.8252,5.46308,9.37339,11.0798,8.41507,10.5287,19.6408,14.6076,10.9261,11.6138,13.0276,17.0902,3.16441,15.2465,-101.016,-942.816,-306.464,7560,-2240,-4620
9.92706,10.3373,9.66759,4.73782,13.6222,13.3683,12.3316,10.3132,13.8333,8.78128,12.2674,9.92542,10.2832,18.3624,2.26438,15.276,-98.088,-944.768,-307.928,6860,-2380,-4480
1.74817,3.90318,8.19128,9.23352,17.0271,14.17,16.3617,11.1768,-0.505661,2.67206,-3.82629,7.0702,7.19791,18.0069,10.0302,15.343,-97.6,-939.4,-309.88,6300,-2520,-4200
-1.80482,-1.25994,5.74304,6.55242,12.5622,9.64839,10.7981,6.46264,-10.5919,-1.93545,-3.10859,7.81084,-0.187393,10.7818,8.31652,9.32811,-99.064,-941.352,-308.416,5180,-2520,-3780
-6.90402,-15.0439,-5.57792,-11.1822,-3.19175,-2.19483,-5.29776,-4.92552,-16.9789,-8.19443,-13.6745,0.992164,-3.21897,-2.18626,-10.6304,-3.59835,-100.528,-940.864,-306.952,4900,-2660,-3500
-10.6364,-16.656,-6.63773,-17.1684,-10.9432,-4.39096,-11.6892,-7.1837,-15.4016,-7.44876,-5.71733,-10.0854,2.5119,-3.44584,-21.4226,-5.06646,-99.552,-936.472,-306.952,3920,-2660,-3220
-11.8429,-9.05357,0.160088,-14.1145,-9.13637,-3.28882,-12.654,-7.7537,-9.03433,-0.640196,7.12156,-13.8739,7.36034,-3.02762,-19.9695,-8.48076,-101.016,-935.984,-309.88,2940,-2940,-2800
-12.731,-13.1352,4.44332,-13.308,-3.35629,2.84509,-10.5469,-2.1977,-10.3593,1.615,0.290883,-9.78131,6.9817,2.7,-16.1736,-5.21749,-98.576,-935.984,-307.928,2240,-3360,-2520
-2.55397,2.11946,11.1564,9.20906,16.5131,11.7759,4.91885,5.41717,-2.94694,3.74559,8.37723,9.95034,7.19005,16.612,3.5916,8.74515,-99.064,-934.52,-309.392,980,-3500,-2240
11.7033,13.179,11.4123,13.4812,18.6864,13.5341,9.70799,7.00688,11.9543,4.6934,-3.00893,18.3098,0.367836,18.0601,10.6494,13.2715,-96.624,-933.056,-310.856,700,-3500,-1960
14.7235,18.5689,4.45993,15.9127,17.4719,16.0313,15.2557,11.5299,15.4036,1.68319,-5.44399,18.6828,-5.93741,14.6387,14.6869,14.221,-99.552,-931.592,-308.416,-280,-3500,-1820
1.64801,5.52411,-14.5767,4.36077,0.168121,4.32884,7.82169,5.60039,2.26653,-9.43874,-8.14218,1.07712,-11.0219,-5.52549,10.1356,1.8801,-96.136,-931.592,-310.856,-420,-3080,-1680
-11.0191,-2.50668,-30.0049,0.0601681,-23.4838,-28.0198,-13.0385,-20.1345,-8.32266,-20.8562,-22.9338,-19.0394,-24.515,-49.1672,4.11423,-36.5304,-101.504,-933.056,-312.32,-840,-2940,-1400
-2.09853,8.31828,-32.8958,8.43414,-35.8305,-71.3253,-27.6968,-40.6729,1.02008,-15.807,-13.4934,-18.5487,-45.3976,-90.818,6.33821,-62.9152,-100.528,-930.616,-312.32,-1540,-3080,-1260
20.7564,20.6511,-14.9913,17.4232,-25.721,-61.2884,-18.2803,-23.9775,21.5065,2.17457,-2.86888,3.72008,-30.2524,-55.8521,22.8379,-30.6873,-96.136,-933.544,-308.904,-1540,-3080,-1120
34.954,37.921,9.17657,23.2669,-1.25095,-5.11057,5.03717,8.79228,44.2365,19.6583,27.2877,20.4694,17.8266,13.5279,28.085,16.9043,-96.136,-932.08,-309.392,-2240,-3220,-840
14.3032,22.9848,20.927,2.41951,11.5118,27.9831,15.6635,21.8387,30.6867,24.1442,39.0804,4.92935,35.4627,40.6236,7.68751,35.0342,-97.6,-932.08,-306.464,-2660,-3220,-700
-6.25813,-0.0137227,24.5479,-11.3446,18.2321,35.1228,18.7107,20.3844,6.62426,18.8967,16.9922,-5.70239,30.7943,42.6166,-6.46677,32.3944,-95.16,-930.616,-306.952,-3360,-3220,-700
-16.2658,-24.6772,17.3189,-12.0263,17.1133,29.8773,14.9535,15.3485,-24.295,1.21658,4.61334,-3.48095,12.0021,33.7616,-7.88775,23.8834,-96.136,-934.032,-309.392,-3640,-2940,-560
-9.63842,-20.4738,6.30803,-4.20247,12.7621,19.9298,4.61652,6.50642,-24.5469,-7.16586,-14.6498,7.4212,-0.888893,19.5728,-12.1515,9.50673,-95.16,-933.544,-306.464,-4060,-3220,-420
-4.70431,-9.29,-5.00203,-0.345932,5.45577,9.91344,-1.87582,2.54513,-13.7321,-6.03523,-12.6873,6.14701,-2.60481,3.64412,-13.6573,-0.33587,-91.744,-932.08,-307.44,-4200,-3080,-280
-15.5082,-15.3712,-10.0041,-9.54776,-6.94686,1.34493,-6.28405,-0.718765,-20.0021,-10.3162,-6.56015,-12.4588,-2.80562,-3.91997,-10.4136,-2.49366,-91.744,-929.64,-310.856,-4340,-2940,-140
-9.82551,-11.0737,-7.45935,-12.163,-10.9444,-1.81063,-6.30556,-2.47973,-7.93296,-6.18107,-8.36878,-16.4542,-0.250811,-4.07779,-9.43651,-3.48338,-93.208,-929.64,-307.44,-4200,-2660,0
-10.6682,-22.9284,-3.46746,-16.2701,-9.88425,-2.49209,-6.01022,-3.44653,-15.6109,-3.7235,3.77665,-14.7562,-0.868624,-5.71908,-11.7614,-6.34121,-92.72,-926.224,-306.952,-4480,-2660,140
-15.9455,-26.4515,-3.59627,-11.8441,-4.54414,-0.333941,-4.74603,-2.30449,-25.9576,-8.61351,-7.71898,-9.60977,-3.09357,-2.74466,-9.41833,-5.37437,-91.256,-923.296,-306.952,-4480,-2940,420
-5.95981,-12.8128,-1.22294,-4.79874,-0.568237,4.12393,-1.92398,2.22411,-11.1138,-5.04311,-5.34748,-0.66638,-2.05196,2.1701,-6.06079,-0.294128,-93.696,-922.808,-307.928,-5320,-2940,840
4.26504,2.46046,1.67474,-0.435238,1.00638,4.93553,1.36589,3.71669,4.48155,-0.203665,3.0568,4.69742,0.451516,4.7844,-0.698126,3.97648,-94.184,-927.2,-309.392,-5740,-3080,1120
3.88441,11.206,6.87781,12.3897,15.2633,5.73063,12.5719,2.45189,4.13605,2.42529,-4.27942,12.8718,5.75895,12.5279,10.4518,8.58791,-95.16,-924.272,-306.464,-6160,-3360,1400
4.67263,10.0916,7.19856,9.37317,10.9894,-0.232635,6.78972,-4.64288,7.36932,4.87154,6.40034,9.6404,5.82048,7.74385,7.53393,0.973958,-97.112,-923.296,-307.928,-6440,-3360,1820
4.84972,3.42605,0.305391,0.0828871,-0.620153,-4.33773,-1.05999,-4.80657,7.45868,4.50194,-0.813724,1.36245,0.796789,-2.17266,3.22743,-7.0636,-96.136,-924.272,-304.512,-6860,-3640,1820
2.44728,0.114856,-2.11313,-3.34242,-4.4145,-2.71836,-3.38069,-0.796988,4.7524,-0.68792,-2.64497,0.237639,-5.39413,-5.28326,-0.843322,-7.50393,-96.136,-921.832,-302.072,-7980,-4060,2240
1.20534,1.06593,-9.10436,-7.41337,-11.846,-9.60914,-11.5158,-6.86547,3.16956,-8.0626,-5.58038,-2.46692,-14.9395,-16.0822,-8.91214,-13.3363,-97.6,-923.296,-304.024,-9240,-4620,2660
2.50664,7.52149,-12.8181,-1.35978,-12.005,-16.376,-11.9079,-13.1655,6.89316,-7.00937,-10.6186,-2.2634,-10.7832,-24.1724,-4.04421,-19.3833,-97.112,-921.832,-307.44,-10220,-5320,2660
4.03955,17.1138,-3.44033,9.6602,-5.98981,-12.4521,-5.67352,-8.83923,12.6051,2.66191,10.1883,-1.61324,-1.04384,-11.4303,8.39236,-10.1792,-96.136,-925.248,-307.44,-11340,-6020,2800
2.18284,10.391,8.11005,10.1481,-0.32953,-3.96607,-2.83662,-3.16173,1.65266,11.7215,8.72285,0.961835,6.71016,1.0523,10.0698,0.501485,-97.6,-928.176,-308.416,-12040,-6860,2800
7.0954,13.5638,13.4045,18.0371,12.9996,7.40789,9.28104,5.89912,7.53961,13.2174,7.33802,11.3448,10.4995,12.0447,17.1768,13.9897,-97.112,-934.52,-310.856,-13020,-7980,2660
10.5452,12.8237,7.61421,9.51487,11.582,8.363,10.9561,9.68609,16.8387,4.54971,3.17794,9.6049,4.35756,11.5651,10.1162,16.4509,-99.552,-940.864,-311.344,-13580,-8820,2240
8.41699,5.78704,3.88469,-3.04825,5.84603,8.29286,4.23769,8.51977,12.9041,-2.6898,-6.35743,5.94161,1.37681,10.5979,-7.64456,12.8346,-96.624,-948.184,-314.76,-13580,-9100,1960
-0.567971,-4.1926,-0.464174,-10.4942,-0.444788,6.19446,-2.26996,6.07804,-0.153885,-2.64604,4.42633,0.661058,1.57968,5.70133,-16.7642,6.81683,-98.088,-949.648,-316.224,-13300,-9660,1400
-13.5753,-16.3029,-8.33846,-15.0919,-8.58572,-3.15981,-9.25207,-1.55506,-17.9916,-6.31681,-4.57414,-9.83766,-3.57253,-7.60491,-17.3835,-6.81969,-96.624,-953.064,-322.08,-12320,-9940,1120
-12.7175,-15.2972,-9.82153,-9.94552,-9.73146,-6.30398,-5.82905,-2.17529,-14.8608,-5.29299,-3.5034,-13.6381,-6.06492,-12.563,-5.78699,-8.06065,-96.136,-956.48,-323.544,-10500,-9940,560
-4.25841,-8.00744,-7.04172,-1.13597,-8.7887,-9.65696,-3.44046,-4.54536,-7.33531,-1.60815,3.84592,-8.20443,-4.50599,-13.8571,7.40714,-8.73829,-95.648,-961.36,-318.176,-9240,-8960,140
1.88441,-9.7609,-1.94534,-3.56243,-9.10052,-10.6139,-3.65435,-7.28774,-4.98838,3.77917,-2.4535,-4.25358,-1.35687,-9.25938,6.07954,-9.2061,-94.672,-958.92,-323.056,-7560,-7980,-140
1.93129,-12.2052,-0.102091,-10.9099,-9.16153,-8.5752,-7.1264,-7.36674,-5.8523,6.57017,9.39966,-4.08583,1.88231,-6.68468,-4.80846,-9.13962,-93.208,-957.944,-323.056,-5880,-6720,-280
-2.38868,-4.86279,-1.10134,-10.7392,-8.50865,-5.48501,-7.59237,-5.28249,-5.91755,2.27665,0.748586,-7.70374,0.251981,-5.66939,-11.9397,-6.64615,-90.28,-956.968,-324.032,-4900,-6160,-280
5.14303,1.74529,6.0899,-0.186119,3.61006,5.2145,3.38968,3.26378,1.36269,3.88121,4.38605,2.0123,3.88679,6.61601,-3.07946,6.26455,-90.28,-958.432,-319.64,-3780,-5040,0
8.11087,6.84677,7.98334,9.31376,10.347,8.61918,10.4363,4.37872,4.11108,2.54871,10.7332,7.8285,8.162,11.2526,8.04816,9.55979,-88.328,-956.48,-323.056,-2940,-3640,700
3.32645,15.0399,6.83867,18.2836,15.9806,8.83915,14.3926,5.67009,7.33165,-0.549849,-2.90881,10.2365,6.2874,10.9357,11.6662,8.02021,-88.816,-954.528,-318.176,-2520,-2940,980
-7.02794,16.6403,1.66607,26.3713,21.7703,8.71646,19.3396,9.67035,1.25107,-10.2887,-5.67959,10.2911,-5.62546,12.5717,21.1175,11.2469,-90.28,-952.088,-315.248,-2100,-2240,1820
3.26288,14.2202,0.312594,18.0134,14.7306,6.3431,15.2771,7.88611,6.1478,-7.26128,-15.1322,12.3477,-9.45514,9.9631,20.8906,9.00759,-88.816,-949.648,-317.2,-2100,-1820,2240
18.5851,19.9812,3.27487,16.2123,16.3607,8.21383,13.966,9.3846,20.9002,2.8083,-4.57904,18.5801,-0.613148,11.6907,15.7161,11.9558,-90.768,-949.16,-315.736,-1820,-1120,2800
8.31622,9.85466,-1.25676,1.50829,4.73094,6.0866,2.12568,5.19194,15.2651,1.43826,2.12963,4.31705,4.11431,6.16512,-1.22973,6.512,-94.184,-948.672,-316.712,-1960,-280,3360
-6.7984,-9.73227,0.479498,-9.81345,-4.68223,3.73655,-6.58353,-0.276155,-3.36591,0.556894,-4.47308,-10.0171,6.75674,-1.2939,-10.3865,-3.60537,-97.6,-947.208,-317.2,-1400,560,3500
-14.7982,-17.4986,0.0336985,-8.66219,-8.52284,1.93683,-5.85539,0.690662,-14.8583,1.94033,9.61637,-16.9023,5.42931,-1.82452,-3.43719,0.0264103,-95.16,-947.696,-318.664,-1400,1260,3780
5.7497,-7.31009,6.88779,-3.90098,-1.70622,6.677,0.173545,3.07683,1.98743,11.4538,3.47842,-0.351614,2.93707,6.25758,-0.156741,8.67519,-97.6,-946.232,-319.64,-1120,1960,3920
24.8453,12.8024,11.3668,6.8955,10.9487,12.3063,10.6108,8.29321,22.4271,10.2828,0.130194,20.8556,1.34403,13.0443,3.01324,13.9288,-99.552,-948.672,-323.056,-420,2520,3780
15.6059,21.0899,3.07991,10.7716,12.4997,9.59062,9.06531,5.43778,21.736,1.10311,3.03341,18.8758,8.74328,11.8989,3.51942,11.0687,-100.528,-944.768,-323.056,0,2940,3640
-4.63453,9.75857,-2.42913,4.67936,5.16005,0.855548,1.1629,-2.99911,4.48908,-4.89072,-7.87053,-1.65396,1.24804,-1.64884,-2.78921,-1.35635,-103.456,-943.304,-323.056,1120,3080,3500
-18.458,-10.6549,-7.50737,-6.41478,-11.1857,-14.4518,-13.6149,-14.8919,-17.6815,-11.1484,-6.37572,-11.5771,-16.405,-20.3356,-10.2397,-21.8741,-102.48,-941.84,-325.984,1820,3080,3220
-20.9712,-25.6342,-18.665,-15.8219,-26.0229,-21.3313,-19.6663,-15.4081,-26.4962,-12.7973,-11.6147,-16.5349,-16.2752,-27.4896,-4.79348,-28.5312,-101.504,-943.304,-322.568,2380,2940,3080
-16.8756,-26.2674,-17.1616,-26.506,-31.465,-17.3724,-24.404,-11.9645,-24.6227,-4.77707,2.23352,-22.4845,-4.79897,-20.695,-15.1249,-22.6587,-101.504,-939.4,-322.568,2520,2800,2660
-10.1372,-14.1721,-3.6351,-23.6185,-18.563,-11.3873,-19.4408,-5.00573,-18.6775,-1.68621,6.51701,-13.4183,-9.48366,-9.51736,-24.8398,-8.06867,-104.432,-938.912,-321.104,2380,2660,2800
0.79837,-1.11679,-7.61551,-7.85769,-7.09532,-13.0543,-5.75667,-1.02458,1.01971,-2.48797,-5.51957,-0.823265,-15.1566,-11.9374,-11.9538,-1.83934,-100.04,-939.888,-319.152,1960,2100,2520
-4.20959,1.20514,-19.1566,4.75868,-4.18221,-22.4571,2.02887,-9.08407,2.82343,-5.06701,5.43947,-6.95799,-6.88541,-19.4407,5.36491,-5.65873,-103.456,-938.912,-315.248,1540,1540,2520
-10.6141,-4.46521,-7.95268,-0.369438,-11.1138,-11.5581,-1.2498,-10.0477,-6.37908,-2.72692,2.05364,-21.573,2.93299,-9.58078,9.39288,-8.36738,-101.016,-941.352,-316.224,840,1400,2380
-12.6671,-14.7636,7.25017,-13.2688,-15.7918,4.9714,-16.1022,-8.51288,-14.6632,2.30299,7.41837,-19.8796,13.8219,3.70477,-7.72398,-12.4556,-101.992,-945.256,-312.32,420,1260,2380
-18.1099,-33.3584,11.4615,-28.4275,-10.0577,18.4694,-19.6449,4.07619,-28.8249,-1.40751,4.13268,-12.9295,13.3785,15.6636,-29.5697,-2.72245,-103.944,-939.4,-313.784,-140,1260,2380
-18.1632,-41.4259,4.80251,-32.9063,-1.77236,11.3067,-15.0429,3.89445,-37.7253,-11.8946,-20.0618,-4.72795,-0.258233,3.02493,-39.3193,-2.32909,-104.92,-940.864,-313.784,-560,700,2380
-12.1409,-14.62,-11.9702,-5.9428,4.62139,-13.9142,-3.61653,-6.71915,-22.3123,-20.1436,-11.1898,2.52099,-10.8035,-14.8092,-14.5279,-5.55863,-104.432,-942.328,-310.856,-1540,420,2100
-4.00328,5.90539,-10.8256,9.00878,-4.47618,-10.0142,2.17675,-8.3525,2.30092,-8.60251,-3.15861,-4.53511,-0.304105,-9.90853,10.208,-6.93041,-103.456,-942.816,-313.784,-1540,560,2240
11.6964,23.606,15.8913,19.9816,9.47325,18.7594,13.0429,7.89397,22.3668,18.8376,20.7375,7.24274,26.0999,20.0571,22.2548,9.46026,-102.968,-944.768,-318.176,-1260,980,2100
11.884,6.70507,31.0013,-0.0304137,14.377,29.3037,8.90924,16.0204,10.0994,26.3995,26.0388,11.6016,31.2139,36.5606,3.76263,19.8775,-105.408,-943.304,-320.128,-1260,1120,1960
19.5336,-3.23882,39.7262,-11.891,21.0496,32.1616,5.6276,18.3777,4.83921,23.904,5.08181,24.0094,16.9154,45.4571,-15.8446,25.3169,-105.896,-945.744,-325.496,-700,1120,1960
49.971,33.6867,34.5402,27.5341,49.6334,22.8908,32.0352,19.4084,38.3977,20.3118,5.25708,60.5528,-5.98585,38.0491,13.2773,32.7614,-104.92,-941.84,-322.568,-420,840,1680
52.3256,62.9751,-3.05034,63.2422,54.9313,-5.36562,51.6423,14.9752,56.9979,4.19286,-14.4289,63.0349,-25.0299,3.46047,51.9648,27.2321,-101.016,-944.768,-323.544,-420,700,1960
16.9479,53.7059,-30.0591,50.4767,18.6364,-1.48725,31.981,12.6949,42.6917,-2.19615,-1.81843,9.0014,-1.47239,-3.12589,49.3905,19.8404,-98.576,-945.744,-321.104,0,1120,2240
-2.44081,29.0109,-10.8067,27.1076,-9.34916,1.02683,13.6042,6.14407,21.6179,3.30026,4.94065,-28.2252,-2.50697,-7.22684,36.7208,5.75885,-99.552,-942.816,-316.224,280,840,2520
15.8408,15.8787,3.31631,22.9843,-0.852496,-8.64984,17.0638,2.20821,21.541,3.06486,-13.9491,-1.22431,-14.1958,-14.9069,33.4532,4.05081,-96.136,-946.72,-313.784,-140,1120,2800
5.19914,-7.87733,-21.1495,-0.242419,-23.752,-37.6718,-6.34163,-33.2389,7.15897,-13.2974,-0.707247,-3.1091,-9.80079,-55.1222,11.0816,-36.11,-95.648,-947.696,-313.296,-140,1120,3220
-4.42181,18.0637,-13.4098,8.41907,-29.7222,-51.8761,-18.7702,-39.827,21.0886,-10.0043,-1.49674,-13.4438,-16.9894,-49.7532,15.6548,-47.2084,-92.232,-950.624,-310.368,-560,840,3500
3.42039,30.2876,14.7087,19.9333,4.33668,-3.76966,-2.37168,3.10523,23.9112,11.8935,14.3945,11.1925,2.85385,14.7075,25.6306,7.31074,-90.768,-952.088,-312.808,-1400,840,4060
-0.795027,-6.17011,8.63106,-7.23377,10.4239,23.3241,-2.43274,19.3936,-11.3149,13.0451,17.8763,15.1081,16.7912,24.7651,-12.8316,17.141,-90.768,-953.064,-310.856,-1820,700,4340
-7.44418,-20.9498,-1.70294,-23.6489,1.83022,25.4117,-5.89449,16.4046,-23.5425,-2.24078,-9.47346,-4.47445,4.05122,19.1261,-36.0365,12.8146,-93.208,-954.528,-308.416,-2380,140,4760
-3.73895,-15.0126,-9.92108,-26.8863,-9.54298,14.1394,-13.7662,3.95839,-7.63127,-9.78651,-10.092,-13.5406,-5.11342,6.68315,-33.5839,2.7588,-89.792,-953.552,-310.368,-2660,-140,5320
-25.602,-33.3569,-22.7573,-37.9374,-24.3665,-1.78473,-28.5535,-8.34702,-24.4376,-21.636,-21.0794,-31.9815,-0.834195,-15.3513,-43.0693,-14.3356,-94.184,-955.504,-312.808,-3080,-840,5600
-40.3308,-44.3487,0.222623,-35.3481,-12.1615,13.9478,-18.862,3.7999,-46.4946,-9.73232,-5.9304,-32.9907,18.5741,8.01919,-37.9855,-0.793737,-89.304,-960.384,-309.392,-3360,-1820,5880
-28.1887,-35.9368,23.2819,-22.5175,4.50214,28.4033,0.48179,15.6509,-39.1874,6.88325,7.04558,-15.0089,25.4419,38.2882,-15.8021,18.1814,-94.672,-959.896,-312.32,-3360,-2520,6020
-28.4981,-45.3345,6.90712,-21.9053,2.41667,7.94118,0.517529,0.196528,-53.0238,-12.2012,-17.2673,-7.10892,-3.29474,9.53436,-14.3909,1.59801,-95.16,-955.504,-309.88,-3220,-3220,6300
-22.4049,-33.5533,-14.6721,-18.68,-12.7357,-20.4999,-14.3465,-21.1694,-41.8789,-18.9823,-6.61789,-7.53625,-18.8947,-31.9814,-18.8112,-29.0927,-97.112,-958.432,-313.296,-3080,-3500,6300
4.50621,14.0584,-7.51137,15.6571,-2.69986,-20.1354,-2.12926,-13.9392,8.30329,-0.0453202,6.33369,4.94952,-7.52726,-18.5044,16.4968,-16.3944,-95.648,-954.528,-312.32,-2380,-3500,6160
18.8028,26.0647,4.31373,15.7622,3.8242,-6.66931,2.57707,-0.441584,28.0848,12.8954,17.3598,10.1396,5.1753,5.03924,18.7781,1.41019,-96.624,-959.896,-313.296,-1540,-3080,6160
-1.00442,-3.78107,-5.14528,-9.24167,-9.26045,-16.3331,-5.10692,-8.28784,-1.2595,2.16606,11.6991,-9.05552,-3.93961,-14.949,-3.0094,-9.04648,-96.624,-957.456,-317.688,-420,-2380,6020
-9.80152,-20.5238,-12.9412,-13.4614,-17.4173,-28.5211,-9.33006,-16.6888,-19.5863,-7.6701,-9.56601,-14.6907,-20.6324,-36.596,-8.29541,-24.2239,-95.16,-953.552,-318.176,980,-1960,5740
6.1971,0.524616,-3.56467,2.4346,-16.5785,-14.2262,-9.79527,-13.0079,2.19677,0.877174,9.76257,2.09782,-2.90008,-20.4073,2.30188,-18.9378,-96.624,-953.064,-316.224,2100,-1260,5600
16.1857,19.2688,11.485,11.9222,-3.37057,-4.28183,-5.84961,-7.18783,16.8031,6.29167,1.37095,16.8136,2.55549,-3.2901,6.45122,-10.7808,-94.184,-952.576,-318.664,2800,-840,5600
19.3989,17.8313,14.5125,3.60849,9.14812,3.95033,-3.35576,4.41402,20.7346,4.21501,-6.24256,22.8487,-5.54384,13.6335,-3.75066,3.89609,-93.696,-949.16,-317.2,3500,-700,5740
22.6876,25.0492,-4.33443,8.13762,13.6797,11.1664,5.91246,13.7895,35.9414,2.27712,1.07398,19.0626,-2.3347,20.8808,-0.131988,19.0181,-94.184,-949.648,-316.712,3920,-700,6020
8.60044,22.3955,-9.26181,12.4533,12.8255,13.9949,14.0514,16.3601,26.4804,0.409213,-1.90004,-1.09854,-0.0145381,15.3023,3.8416,21.7472,-94.672,-948.672,-318.664,3780,-280,6160
-5.43954,2.71804,-2.36257,2.85957,3.83721,10.4461,9.78511,10.1293,2.53421,3.41997,11.4155,-17.8065,4.20322,9.93145,-2.0075,15.6305,-94.184,-947.208,-315.248,4200,0,6580
-13.8287,-22.123,5.80602,-6.6212,-1.66316,6.65519,2.03817,0.565601,-22.8961,3.15607,-0.308381,-13.3785,6.46669,6.1471,-5.2172,4.04816,-94.672,-946.232,-316.224,4340,420,6580
0.773749,-14.769,8.06641,-0.664307,2.03644,-3.15187,3.35428,-1.47749,-11.5036,4.52166,-3.54436,3.1348,-4.44717,-5.18838,1.37877,-1.60914,-99.064,-948.672,-322.08,4340,980,6860
14.6284,5.1526,-1.46659,2.30939,0.653491,-18.9418,0.149093,-5.74987,10.1694,0.948227,-5.5608,12.4712,-15.6618,-21.4717,-3.00149,-6.36329,-105.408,-954.04,-317.688,4900,1260,6860
18.5415,22.7374,-0.494471,12.441,4.19254,-2.5451,3.99887,1.71271,24.2415,-0.985344,-8.66007,16.3167,0.718736,3.9783,5.73872,3.55071,-98.576,-951.6,-320.128,5880,420,6720
3.6929,17.7132,3.27134,14.4478,7.61374,25.3952,13.1459,15.3846,9.18243,5.3191,11.623,5.2007,19.8422,26.2969,21.4212,19.5007,-101.504,-943.304,-322.08,6160,1680,6580
-23.954,-9.9504,4.22128,-0.102222,7.40289,19.9617,12.4182,8.8428,-26.4616,-0.855029,-0.775458,-12.5742,15.9616,14.7486,15.467,11.3483,-98.576,-947.208,-328.912,4620,2800,6160
-26.1113,-30.4315,-5.01899,-18.2785,-3.18464,10.6054,-0.698775,1.11346,-29.6123,-10.9151,-4.94226,-24.2351,6.57206,8.3705,-2.76648,0.847893,-102.48,-948.672,-323.544,6020,3080,6020
-13.3975,-18.3534,-0.709043,-11.6827,-3.07761,9.33386,-4.17551,1.58779,-12.926,-4.47811,-0.882107,-10.1382,5.55797,11.751,-5.09937,4.59282,-99.064,-950.136,-328.424,6300,2520,5880
11.6956,19.407,9.65902,15.6318,16.3688,19.1604,12.6063,10.4102,24.6089,8.01224,-2.87334,10.4302,11.2584,22.9743,13.8838,15.5626,-96.624,-953.064,-319.64,7000,3500,5600
20.5811,29.7601,13.4679,21.6591,24.4745,22.9342,20.2459,16.2071,30.5202,7.08628,8.24002,21.5575,10.2219,24.921,17.1584,19.1667,-95.648,-950.624,-323.056,7420,3500,5180
14.9958,18.1505,15.5922,17.304,26.2012,25.7845,20.2086,19.3083,13.5169,0.231512,-6.28725,26.2442,5.39494,30.1991,10.613,22.8396,-101.016,-948.184,-323.056,7840,3360,4900
-5.52394,-7.10415,-19.9006,0.913787,-5.97641,-22.7423,-1.33606,-18.8177,-8.80418,-16.9366,-16.1766,0.74075,-25.9539,-40.845,-0.111338,-22.5778,-103.456,-944.768,-321.592,9660,3780,4900
-13.5921,-5.27944,-46.2067,0.147212,-36.8077,-84.3928,-26.5956,-50.7287,-8.64566,-24.7814,-11.8555,-18.8691,-47.2432,-97.4924,-2.90107,-65.2341,-105.896,-938.424,-323.056,10500,4200,4480
16.3494,30.9155,0.772989,22.186,-7.98478,-32.5368,-5.04996,-6.96428,28.2013,12.7386,14.9856,5.10706,0.00234291,-17.6626,24.548,-6.22727,-108.336,-938.912,-325.984,10920,5040,4060
30.2462,25.2541,38.1176,9.72567,13.2374,37.9408,11.2694,30.9293,32.6867,39.1783,40.354,21.2807,35.6516,46.8566,14.7766,35.6403,-106.384,-935.984,-326.96,10780,5740,3780
5.33237,-11.5695,18.7131,-9.82695,10.3751,27.9288,4.29091,11.4204,-6.456,14.8315,4.18147,6.40308,15.5168,24.8055,-10.4339,11.5231,-111.752,-933.056,-327.936,10220,5880,3640
-16.8077,-34.8632,-10.1476,-27.8699,-14.1495,-15.1811,-20.4328,-21.5212,-33.8587,-10.0098,-16.4225,-13.4476,-11.1735,-26.288,-28.6066,-31.2836,-108.336,-935.984,-333.304,9100,5460,3220
-22.1391,-35.1734,-16.91,-32.0576,-33.1981,-34.708,-39.1677,-34.7914,-36.169,-15.7316,-11.2136,-20.6031,-15.2162,-37.4287,-36.9997,-42.3568,-108.336,-937.936,-330.864,8400,5040,2800
-13.872,-8.3884,-19.3847,-11.1706,-27.6536,-50.4608,-31.0095,-39.8837,-8.81935,-15.2087,-14.0451,-16.1118,-19.273,-48.0828,-17.89,-42.1603,-106.872,-940.376,-327.448,7420,3360,2100
0.168851,9.26467,-6.56939,2.96748,-20.063,-19.6837,-15.9627,-10.2092,9.5883,1.46923,11.5319,-9.1695,-4.10323,-17.8627,5.74664,-15.6191,-103.944,-943.304,-328.424,7140,1540,1400
5.32911,10.9174,5.29222,3.21362,-3.12312,-3.63541,-7.25996,4.6297,8.50663,10.9591,10.1384,1.44103,4.176,3.53463,5.37061,11.4504,-99.064,-947.696,-325.984,6160,560,700
8.48654,4.73728,10.5228,-0.7654,13.1149,17.6854,11.2402,22.6774,4.1267,12.3105,14.1646,7.66272,10.0506,21.5638,-1.54962,27.6363,-100.528,-948.184,-321.104,6020,-980,0
-1.72369,-8.96087,19.3715,-4.99037,15.7806,43.7155,21.4049,33.723,-14.3112,9.84271,14.7147,6.41444,23.3565,44.7632,-1.71746,39.0008,-94.184,-952.088,-318.664,6440,-1540,-420
-6.88611,-7.67568,8.5844,-2.84078,20.4304,34.7004,23.1775,24.555,-10.5187,-5.53455,-13.3566,3.29204,10.4019,33.8936,1.05644,29.979,-93.696,-951.112,-319.152,6720,-2520,-700
-13.6352,-17.0764,-5.1148,-8.03789,11.9912,21.944,18.3919,15.2528,-15.6393,-16.5043,-12.4552,-6.0216,-3.32299,20.5053,-2.24831,19.4815,-93.696,-950.624,-317.688,7140,-3080,-980
-8.71576,-12.9255,-9.03109,-5.64142,2.08744,6.80527,3.12036,2.2132,-8.49686,-13.6826,-18.1164,-7.58899,-10.6769,3.8612,-7.8843,3.96851,-93.208,-952.088,-322.08,7700,-3500,-1120
4.22755,6.88951,-0.105025,9.99548,6.06183,7.42747,6.55059,3.05561,3.81155,-2.32462,-6.51723,4.32037,-5.51337,5.89143,6.07322,3.58996,-91.744,-948.672,-320.616,9100,-3780,-1120
-1.69694,3.95323,-6.27884,2.4006,-1.362,-3.60787,-2.27205,-6.37346,0.271542,-4.55564,-0.493942,0.511367,-4.34865,-6.16769,-2.66029,-7.31818,-92.72,-949.648,-322.08,9800,-3360,-980
2.53685,15.4731,-10.6915,9.36116,-3.61937,-10.689,-3.23886,-9.87785,16.214,-3.18684,-5.85694,-3.04516,-5.96697,-15.4227,1.08114,-13.4325,-93.208,-946.72,-324.52,10780,-2800,-840
-2.49431,8.41427,-5.60353,5.17354,-6.06137,-11.4241,-5.59985,-7.43202,6.65565,-1.9951,3.72895,-6.0689,-4.61304,-10.4924,-1.43227,-10.3862,-94.184,-947.208,-325.496,10640,-1820,-420
-2.1822,-5.16931,1.45355,-6.28007,-4.78055,-6.20186,-9.5305,-3.50204,-2.69278,-0.724245,-4.53564,-2.46324,0.762799,-0.489772,-14.063,-6.44897,-96.136,-946.72,-324.52,11760,-1120,140
6.46229,-0.955358,9.52753,-4.68134,1.94522,1.03811,-3.07153,0.474725,3.88113,7.51637,6.73732,8.0476,8.24274,4.04135,-12.8187,-3.29307,-98.576,-950.624,-327.448,12040,-700,700
9.65303,1.69571,8.61334,-3.78801,2.31945,4.16133,-0.625404,0.910142,9.51391,10.9823,13.368,8.1018,7.78909,5.39702,-7.89513,-1.65873,-96.136,-950.136,-324.032,12180,-280,980
10.7726,9.03706,5.32011,7.23717,5.67748,-0.118177,7.15455,-0.117436,14.1789,9.07281,2.03825,9.04431,2.82031,1.64014,9.82702,-0.797074,-97.6,-950.624,-322.08,12320,280,1540
7.64172,11.7128,4.17476,16.6374,8.45828,1.90188,14.4266,2.08549,11.7031,5.94528,10.0056,7.67807,2.82192,2.92512,29.2496,0.834072,-101.504,-952.576,-319.152,12320,700,2240
3.54649,9.1691,1.22587,14.5251,4.65146,1.35304,13.079,1.40454,6.48255,1.90659,0.395066,2.72519,0.588621,1.53783,28.2661,3.76075,-98.088,-950.624,-321.104,12600,1260,2520
-4.14459,0.124161,-0.0882637,4.93486,1.6655,1.40176,6.12946,2.57624,-5.71751,-2.17849,-2.61504,-1.85679,-1.98429,3.27538,12.3249,5.14095,-99.064,-951.6,-316.712,12740,1820,2800
-4.35495,-2.63631,0.912654,0.981684,1.47401,2.85709,4.21463,1.94212,-5.50613,-1.24461,0.104944,-1.55161,-1.1616,4.3085,6.8076,4.40724,-97.6,-949.648,-322.08,12320,2240,3080
-5.22317,-10.9487,-8.11375,-7.02367,-7.8052,-8.45414,-5.63199,-6.02938,-8.33633,-4.4643,-8.04771,-8.44993,-7.81813,-12.9247,-3.89825,-7.52081,-103.456,-945.256,-325.008,12180,2380,3360
-4.28186,-12.8088,-11.4273,-11.6826,-15.4868,-16.4711,-13.0977,-10.0136,-7.12335,-5.26635,1.22652,-12.0983,-10.8433,-20.5255,-8.74757,-12.4426,-103.944,-943.304,-326.96,11900,2240,3500
-5.69888,-7.87148,-3.24497,-6.48649,-7.81896,-6.005,-10.8237,-2.53333,-11.2388,-4.41783,-5.94797,-4.9313,-2.52972,-7.40211,-5.63067,-1.96695,-106.384,-941.352,-327.936,11060,2380,3640
0.461631,3.6427,5.04663,3.83917,1.45059,1.0408,-6.74574,0.694989,-3.8144,1.46911,1.29358,4.69061,5.30296,0.938354,4.59771,1.44135,-106.384,-939.4,-330.376,9940,1820,3220
9.58205,12.2143,3.0015,7.20929,5.10831,-0.735212,-4.08034,-1.93059,12.0809,5.58706,7.56693,7.64098,4.29,0.487347,7.91481,0.851613,-103.456,-937.936,-333.792,9520,1400,2940
8.98853,11.8787,0.480971,7.96691,6.70932,0.601573,-2.07158,-0.911379,12.6151,2.84233,-4.65731,6.73196,1.44598,1.89178,2.93274,1.85347,-105.896,-940.376,-335.256,8820,1260,2660
3.21915,5.72715,0.937272,2.44023,3.99225,2.16581,-1.01485,0.095107,5.29798,-0.263526,3.33589,3.03468,1.3901,4.21477,-1.75769,2.65063,-106.384,-935.008,-333.304,8540,840,1960
-8.95947,-20.9273,-1.32352,-22.0419,-7.86988,3.48895,-9.61362,1.37127,-17.498,-4.85223,-6.06406,-10.0678,2.27093,2.09889,-22.6591,0.645058,-108.336,-935.984,-338.672,8400,700,1680
-8.38737,-20.8522,-2.18772,-21.0101,-8.16627,3.19527,-8.92502,0.849048,-15.906,-5.92111,-4.21359,-9.80351,0.693387,-0.470379,-25.0731,-0.374228,-107.36,-935.008,-333.792,8540,420,1400
-3.13622,-7.85226,-2.02266,-7.91868,-3.78759,-1.44559,-5.82413,-4.27232,-5.44929,-4.67393,-0.679275,-2.03429,-1.0181,-3.0261,-13.5529,-4.18787,-105.896,-932.568,-329.888,8260,280,1120
4.38521,8.36315,0.971349,5.19938,0.616498,-2.19421,2.45669,-0.226149,7.39542,1.90114,-1.71418,4.5388,0.470627,-1.63106,1.97122,-2.16646,-107.36,-934.032,-327.936,8400,0,980
5.47709,13.3158,-2.62342,10.8766,-0.126547,-1.44763,6.73953,2.81123,10.3043,2.83424,9.23956,1.87242,-1.31898,-2.08827,13.7613,-0.0315462,-107.848,-934.032,-325.984,8120,140,1120
6.79729,13.8752,-2.30708,13.3654,3.42628,0.82549,11.2206,4.374,12.2328,1.80293,-1.8006,3.14439,-1.79049,-1.01512,16.767,3.36956,-105.896,-935.008,-321.104,7980,280,1120
-6.56717,-2.0084,2.42316,0.970001,1.6439,4.58529,7.29577,4.65819,-7.5421,0.377044,2.12853,0.301915,2.43891,2.99349,4.51233,3.23552,-108.336,-936.96,-321.592,7700,840,1400
-14.1293,-16.5411,-1.22776,-14.949,-5.0284,2.47074,-1.55551,2.26311,-16.3238,-4.07602,1.55027,-5.80276,0.51422,2.12871,-11.742,0.248532,-108.336,-936.472,-322.08,7980,1540,1400
6.41695,5.21061,0.451675,1.71396,5.31647,6.24449,7.60868,6.96568,11.1176,1.43606,-4.48579,3.22823,0.133571,7.44567,-1.66985,8.10523,-110.776,-938.912,-321.104,8400,2380,1680
8.47968,7.45823,4.75825,7.70864,7.92041,6.61507,12.1467,5.69639,10.9665,6.04963,8.34404,4.90848,2.53546,8.1202,7.40613,9.904,-110.288,-936.96,-320.616,8960,3220,1820
-4.26127,3.69888,4.05874,9.39717,8.81265,1.75614,11.4867,-0.892532,-3.60103,-1.19228,-4.88397,3.90124,0.853458,5.61009,9.48648,5.63581,-112.24,-940.376,-322.08,10220,4480,1820
-7.19112,1.9541,-1.27053,7.95667,1.92003,-4.96998,3.5816,-5.26632,-6.48128,-4.75095,-3.33383,-0.904092,-3.59237,-3.22061,7.08975,-2.15056,-111.264,-940.864,-321.592,11340,5040,1680
2.58151,3.78005,-0.256082,2.75207,-4.13191,-6.15246,-4.05812,-5.26152,4.56663,2.98832,3.66128,-0.257846,-1.47689,-5.75215,-1.2784,-6.1651,-113.216,-936.96,-327.936,12460,5600,1680
-1.94198,-2.82656,0.761326,-6.90056,-5.77095,-4.98853,-11.3676,-3.58703,-1.90173,1.69807,-3.27788,-1.14158,-0.539891,-5.05973,-16.1843,-8.47778,-113.704,-939.4,-326.472,13440,6580,1680
-4.87711,-7.26417,-2.556,-12.1546,-9.31595,-5.16334,-13.6554,-3.61617,-4.1013,-0.483095,4.27455,-6.54251,-1.98263,-5.24514,-17.7506,-7.41107,-109.8,-938.424,-326.96,14420,6860,1540
-9.85298,-10.7975,0.255664,-9.20547,-5.5513,-3.0971,-10.4185,-6.62212,-14.8024,-1.84596,-4.48384,-5.9154,0.323075,-1.25374,-9.47789,-7.04985,-106.872,-941.84,-327.448,15680,6580,1540
-6.48768,-9.69412,2.20746,-6.55684,2.01224,2.80316,0.379938,1.50066,-13.3292,-0.476526,1.59893,-2.19411,0.65214,5.26772,-1.14332,1.90257,-106.384,-938.912,-328.424,15960,7280,1400
-0.741448,-3.44235,2.78078,-0.333014,6.33746,6.70368,1.56604,3.62945,-9.45693,1.65252,1.98039,2.47983,2.98093,8.63458,3.58391,3.09197,-105.896,-940.376,-330.376,16100,7840,1120
5.94984,1.64707,-0.042403,4.07861,6.70903,4.91321,2.84974,4.50078,3.81896,2.0135,-11.4609,3.6067,1.87078,4.76857,5.99664,3.04561,-103.944,-941.84,-326.96,16660,8400,840
4.19435,1.36453,-2.38259,3.02854,1.59209,-0.872108,1.2717,0.0728142,6.26165,-0.986002,-0.23935,0.621898,-0.845282,-1.7787,4.34679,-0.104049,-103.944,-943.792,-325.008,17920,8680,980
1.8957,4.8267,-2.26969,8.96422,1.18353,-3.58779,0.681885,-3.17887,6.6016,-3.72149,-2.04335,1.11796,-1.56815,-4.58867,12.1063,-2.14263,-102.968,-943.304,-326.96,18620,8820,980
12.7187,13.2249,0.767743,11.056,0.79821,-2.02201,3.8547,1.50412,25.0711,1.11245,3.43161,3.37705,-0.0508874,-3.45432,16.6476,1.87598,-101.504,-941.352,-327.448,19180,8680,980
10.4096,10.7441,3.39639,5.36161,0.445768,2.44425,1.82646,5.92315,19.4034,2.16272,6.55088,3.44712,1.99475,0.331869,4.84095,5.76618,-100.04,-945.256,-325.008,19320,9100,700
16.6744,20.1933,10.9618,10.2028,8.32595,7.00859,7.87339,5.72275,22.0232,11.7007,5.8241,12.8155,7.33357,7.36474,2.23289,11.1781,-100.528,-944.768,-329.4,19740,9240,560
14.0292,6.18562,7.43541,-3.45926,-0.384559,-2.39346,-2.19077,-10.1331,11.2093,14.2944,18.4428,6.14207,5.11894,-3.95315,-10.3827,-5.07382,-98.088,-944.768,-324.52,19880,9240,560
-0.109312,-5.58107,-1.18654,-7.36003,-4.07988,-5.13849,-0.99017,-8.4781,-3.39999,3.27642,0.646284,-2.44635,-2.11583,-7.9517,-4.3385,-7.60651,-101.016,-943.304,-327.448,20160,9240,560
-13.7022,-8.83907,-2.45774,-1.21864,-1.69384,2.09831,2.16376,1.14815,-18.9659,-7.24637,-3.98249,-5.02802,-3.59793,1.29236,6.32346,-1.17569,-104.432,-945.256,-321.104,20300,8960,280
-9.07714,-11.6748,-7.42932,-7.36513,-6.25461,1.14951,-5.58438,2.27062,-14.226,-8.10056,-1.53796,-7.61133,-5.95645,-0.612448,-2.93158,-1.63618,-106.872,-944.28,-320.616,20300,8820,0
-0.289239,-3.64365,-5.76235,-2.82534,-2.30302,0.0302846,-2.5174,2.84187,1.59041,-5.75689,-10.5412,-2.84325,-6.71366,-1.39751,-1.87377,-0.601316,-109.8,-942.328,-321.104,20300,8540,-560
4.69458,5.64583,-3.70996,3.56937,0.257743,0.198709,1.15702,2.62971,12.3396,-2.74351,0.472779,1.16657,-4.22737,-0.489176,3.6049,1.11389,-108.824,-942.816,-322.08,20300,8260,-980
1.82073,7.93589,-0.965757,7.92583,0.952091,-0.440049,0.522567,-0.176617,5.1651,0.937617,-3.03442,4.09422,-0.508011,-0.558263,3.53681,0.445308,-112.728,-945.256,-326.472,19880,7560,-1400
-0.127511,0.54997,-0.603995,-0.205072,-2.18739,-0.722128,-3.73873,-0.520282,-3.75985,1.08166,1.27536,0.579927,1.49564,-1.47093,-6.22814,-2.28111,-115.168,-943.792,-322.568,20020,7000,-1820
-4.8821,-3.04503,-1.53145,-2.93836,2.19509,0.645928,0.428246,3.86634,-10.6278,-1.80655,0.879189,0.577734,1.80245,2.87015,-6.87421,3.34719,-121.024,-944.28,-325.984,20020,6580,-2240
-15.1174,-16.3021,-0.301281,-7.48885,3.02351,4.37092,3.0025,5.27948,-24.6151,-6.09185,-10.029,-3.1573,3.46961,6.98687,-5.12083,5.08737,-121.024,-944.768,-325.496,19880,6020,-2520
-15.1788,-13.8098,-2.11048,-4.79894,0.438216,3.89824,4.14042,2.35976,-20.1862,-7.50921,-0.145507,-6.78394,2.60374,6.23004,5.90888,3.3164,-120.048,-940.376,-327.448,19460,5180,-2660
-2.78554,5.95232,-4.54453,8.67973,2.60505,-1.48728,5.57445,-1.51861,0.468458,-4.31142,-8.33981,-2.10838,-1.67326,1.43713,13.3809,-0.222534,-119.072,-944.28,-324.52,18900,4760,-2660
1.77915,2.1477,-2.44011,-1.52342,-3.21807,-6.41653,-3.04631,-4.07071,3.82497,-2.36332,-5.62651,-0.947089,-1.14204,-4.22666,-1.66132,-6.65465,-121.024,-940.864,-324.52,18340,4340,-2800
0.695461,-4.91952,-5.13793,-6.68294,-7.7796,-9.03374,-5.01799,-4.2146,2.42519,-1.14592,-0.209676,-5.44085,-2.69341,-8.51743,-3.44953,-6.17048,-120.048,-942.816,-323.544,17920,3920,-2940
-3.85476,-10.2375,-2.04952,-9.09001,-8.36221,-5.47584,-5.40328,-1.93277,-6.49328,1.12847,-1.95946,-6.47143,0.225415,-7.21994,-7.00644,-3.12633,-120.536,-941.84,-326.96,17500,4200,-2660
-2.52525,-6.04207,3.03417,-11.2866,-6.93324,-2.9798,-8.55903,-2.94753,-3.3834,1.19802,8.72249,-1.7114,2.00332,-3.24872,-15.9769,-3.68312,-117.12,-944.28,-324.52,16800,4200,-2380
-1.7401,-2.38006,4.55333,-5.58663,-1.12603,0.763086,-0.954284,-0.720618,-3.20412,1.50677,0.275285,0.311692,2.78382,1.41241,-6.47482,0.893384,-113.216,-942.328,-326.96,16520,4480,-1820
-19.3719,-9.76573,5.73473,2.50206,5.28153,4.70172,4.62366,1.12118,-28.055,-3.7734,2.05011,-2.25758,3.75653,6.58267,6.48549,3.74671,-114.192,-941.84,-325.496,15960,5040,-1260
1.50977,13.3784,2.49852,13.9714,7.93447,3.84829,3.4374,-0.176984,6.52609,0.58113,4.22205,4.63136,-0.503729,6.06035,7.98431,2.09987,-111.752,-941.84,-325.984,15820,5320,-700
17.7916,16.1386,1.03222,6.36255,2.09064,2.0571,-2.44513,1.08845,26.217,8.1085,0.339211,5.61387,-2.05885,0.449296,-3.44065,-0.453697,-109.8,-943.304,-327.448,15120,6020,0
7.6846,-0.708165,-0.550704,-4.85039,-2.3093,-0.199408,-3.17466,-1.33451,8.41206,3.23109,7.65846,-0.271966,-1.92078,-4.45122,-7.64023,-2.43334,-113.704,-942.328,-325.496,15120,6720,420
3.52897,-2.15337,-0.00807185,-0.774621,0.580078,-0.661893,2.38805,-3.54537,2.00466,0.517468,-3.51872,0.0774153,-1.44766,-3.17859,2.32106,-1.1955,-106.384,-947.696,-329.888,15260,7280,980
7.43501,9.47873,1.52009,8.95207,2.29551,-0.548869,4.30295,-1.86873,8.99571,3.92803,2.63581,2.43127,-0.355662,-2.27589,7.04309,0.655259,-107.848,-948.672,-327.936,15540,7700,1680
8.09174,6.48454,-0.465807,1.58441,-2.54557,-1.96284,-4.32535,-2.67989,8.93593,5.61352,7.368,0.260292,0.297595,-4.41135,-4.13476,-1.68303,-105.408,-950.136,-324.52,15540,7840,2100
1.89995,-4.22786,-2.09149,-6.28657,-5.02155,-0.911077,-5.71678,1.15943,2.00222,1.5043,-3.74256,-3.80967,-2.20134,-2.59952,-7.82838,0.899363,-105.896,-952.088,-324.032,15960,8260,2380
2.46824,7.52953,4.82624,7.8053,9.82446,5.3527,7.27946,5.10245,3.38006,0.120021,2.83337,7.50277,1.62086,9.3482,5.5537,9.73817,-105.896,-952.088,-324.032,15820,8260,2800
4.63944,4.84573,5.54919,2.5052,9.06486,7.40814,7.46542,6.5481,5.39334,2.72259,-5.36322,6.99222,3.96047,9.94544,3.76075,9.5859,-101.992,-952.576,-317.688,15540,7840,2940
-3.9533,-5.13822,6.79738,-3.64739,7.38979,7.82766,4.9895,4.639,-6.45718,-0.0764945,-1.03871,4.78183,4.90492,8.9363,0.30492,6.07,-102.48,-952.088,-317.2,15400,7700,3220
3.45953,13.7257,8.49644,12.6892,12.7347,3.14533,4.65195,-4.55615,6.07978,2.96791,2.93625,13.8999,5.46639,7.77682,9.69105,-2.33056,-103.456,-954.528,-318.176,15260,7420,3220
7.89056,12.0414,-0.0356348,10.697,2.15854,-2.6864,3.63416,-3.18024,11.894,3.4899,-3.39783,4.94177,-0.472548,-3.13735,13.0492,-4.16084,-102.968,-952.088,-316.712,15120,7000,3360
-2.53184,-11.2122,-10.0594,-8.5202,-13.1178,-6.76541,-5.27217,-0.884943,-0.326422,-2.58639,4.69134,-11.6162,-6.88277,-12.8104,1.6294,-6.05402,-101.504,-952.088,-315.248,15260,7000,3360
2.74112,-4.04136,-9.15461,-9.00736,-14.0166,-6.01261,-7.62639,0.922134,14.5433,-1.40573,-2.5299,-9.98214,-7.04128,-10.6423,-1.30615,-5.22748,-101.504,-950.136,-313.784,15400,7140,3220
0.0873238,-0.607528,-4.63636,-5.86949,-8.94368,-1.29275,-5.4031,4.49419,6.19885,-1.39823,1.16274,-5.89539,-4.57505,-4.25776,-3.77571,-0.538074,-101.504,-952.088,-313.784,15260,7000,3220
-14.7498,-14.7017,-6.63817,-5.39308,-5.00973,1.07717,-0.250432,7.46523,-18.7846,-9.14182,-1.71901,-10.7604,-4.89857,-0.468833,-1.50167,4.52132,-101.016,-949.648,-313.296,15120,6720,3220
-2.8182,-1.40297,1.89741,4.20291,6.6113,4.09434,4.46956,5.77617,-4.78954,-2.54974,-7.62351,2.73289,1.0176,6.72348,-2.58861,6.37834,-102.968,-946.72,-311.832,14560,6720,3080
-4.807,-2.49818,5.03831,-0.455423,4.83005,5.27123,-1.95143,3.4992,-13.5444,-3.24523,0.476247,4.49282,4.12083,6.37132,-15.191,3.22079,-103.944,-948.672,-310.368,14420,6440,3220
-9.48182,-20.9356,-0.682279,-17.943,-7.05483,-0.693336,-9.14472,-0.190408,-22.6006,-4.90917,-7.51904,-5.48256,1.8404,-2.83378,-22.0355,-1.7678,-100.04,-947.208,-313.296,13860,5880,3080
6.36948,4.98502,0.00471888,1.80697,0.103955,-4.22731,2.09736,-2.49958,5.91217,2.90122,2.71625,3.28191,1.41527,-2.60672,1.74797,-0.669502,-99.064,-949.648,-305.976,13440,5320,3220
8.78222,16.0821,1.29615,21.9836,9.56812,-3.36591,16.8297,-1.84437,6.58409,4.37976,6.46529,8.0916,1.21082,1.78327,30.2934,4.29294,-99.064,-949.16,-309.88,12880,4760,2940
8.44246,18.3581,6.11473,26.2648,14.4247,-0.302768,18.6846,-5.30289,5.8924,4.57819,-0.0197153,11.9632,5.53007,6.12376,34.4072,2.79364,-101.016,-951.6,-303.536,12460,4480,2800
-2.31354,-2.57169,2.79506,10.4553,5.67884,-3.31527,7.18628,-11.9617,-6.03233,1.36409,9.32964,2.21758,5.00726,2.20766,21.4174,-5.58865,-101.992,-950.136,-308.416,12180,4200,2660
-6.5759,-9.96082,2.60821,-12.4489,-8.16374,-6.12557,-18.5753,-16.4478,-7.22338,1.70493,1.62481,-2.98507,6.52478,-4.14584,-11.8603,-19.9085,-102.48,-951.6,-308.416,11620,3780,2660
-7.28691,1.38227,1.84509,-12.9241,-8.08744,-0.520175,-22.572,-6.7306,-3.90852,-2.45255,3.32958,-3.18241,5.55925,-1.17864,-26.8124,-16.1118,-103.456,-951.6,-310.368,11480,3220,2520
-2.46208,-9.08317,-4.07215,-17.1567,-10.9384,-2.15487,-14.6454,-2.39337,-4.45183,1.53809,6.49937,-8.37428,-1.0164,-4.76298,-24.354,-7.44175,-99.552,-952.088,-309.88,11480,2800,2240
-5.39095,-17.0987,-4.06929,-19.0368,-6.91621,0.497638,-6.05962,1.91843,-8.2969,0.194246,-7.25183,-8.44165,-3.63264,-2.82983,-14.6177,-1.39115,-101.016,-950.624,-307.44,10780,2660,2240
-6.1945,-6.67028,-7.99749,-2.17783,-1.31168,-0.0142768,3.83099,5.18713,-7.42701,-2.71845,-2.78928,-7.38992,-8.86096,-3.1879,6.17313,3.80618,-106.384,-950.136,-314.76,11480,3080,2240
-13.0042,-9.11426,-7.03744,-7.16545,-8.25539,-3.76048,-5.07102,-0.912472,-16.0318,-7.16179,-9.44133,-9.26805,-5.7688,-5.85622,-6.42178,-2.18263,-113.216,-946.72,-316.712,11200,3640,1960
-4.83039,-0.195741,-4.24456,-5.83028,-5.10068,-0.894711,-1.58941,2.20537,-0.785981,-6.96907,-3.78953,-4.26479,-4.32765,-2.90817,-10.5186,0.910439,-110.288,-944.768,-320.616,11620,4480,1820
6.36739,13.9179,1.493,18.1848,12.8872,7.68259,21.2269,13.9454,12.488,-2.78612,-1.44845,9.06183,-1.95784,8.13735,24.7827,17.6969,-112.728,-941.84,-318.664,11620,5320,1820
11.6112,21.6603,6.75585,20.3373,15.9653,10.7581,20.5291,16.5884,23.6873,0.188734,-9.26569,13.941,2.30717,12.522,22.8549,20.7695,-113.704,-939.888,-323.544,11900,6020,1540
23.2384,38.2755,5.7062,17.6644,10.9778,6.61975,11.5295,10.3472,43.8589,6.97013,5.51747,15.2957,1.31828,7.79435,2.98648,15.3255,-113.704,-942.816,-323.056,12040,7140,1540
14.7231,11.3647,2.61412,3.58511,4.72711,6.01458,6.13668,7.74406,24.3036,5.33863,-4.8856,6.56743,-0.0397688,5.10672,-3.13878,10.4282,-110.776,-940.376,-318.664,11620,7840,1820
16.2714,6.79638,3.43496,-1.34519,-1.67188,1.01916,-7.13774,-0.407762,25.1335,8.89381,4.52117,4.66585,0.082704,-1.25481,-15.0754,-1.59918,-110.288,-939.4,-317.2,11200,8260,1960
6.91067,6.29498,0.246977,-3.69557,-8.41718,-4.48671,-15.0728,-6.94851,10.8358,4.93369,8.66587,-0.671803,-1.78738,-6.84623,-22.6213,-9.86303,-111.264,-936.96,-317.2,10640,9100,1960
-7.28793,-8.41867,-4.87699,-1.86508,-5.23459,-4.34635,-4.02965,-4.64889,-16.2526,-1.70944,-2.06583,-6.35859,-5.97568,-7.47379,-3.24065,-5.44917,-108.336,-939.888,-316.224,10080,9940,2240
-15.1345,-24.766,-11.305,-12.1193,-8.32955,-6.37961,-0.0442314,-2.95948,-28.2081,-5.66547,5.37119,-14.3969,-10.5993,-11.1711,8.69608,-4.56111,-109.312,-943.792,-312.808,9380,10360,2240
-50.6977,-55.9109,-8.51107,-23.4647,-9.30571,-1.91764,0.857449,-0.556246,-88.3791,-16.8329,-9.78669,-26.8603,-5.52238,-4.24992,3.44884,-0.178946,-109.312,-943.304,-309.392,8540,11200,2380
-42.8695,-64.2081,2.74144,-31.0304,-5.23783,-0.908084,-4.51188,-13.3677,-81.2495,-8.49758,-1.30972,-20.0267,7.52669,2.5483,-7.77781,-8.72066,-112.24,-948.672,-307.44,8400,11760,2380
24.5703,8.03242,6.38206,5.51887,6.06413,-4.76768,-0.5499,-14.9085,32.8326,15.9584,12.7629,7.85231,6.34456,1.75031,15.0284,-13.0745,-111.752,-951.6,-314.76,8960,13300,2240
31.1905,25.6056,8.74783,13.6404,2.79893,-4.91071,-13.55,-7.91095,44.1745,16.601,6.12015,12.8945,5.81965,-0.324614,1.47788,-15.9108,-111.752,-951.6,-314.76,8260,14140,2100
18.6295,21.5698,6.69358,-3.9186,-7.33015,-4.25001,-29.6336,-7.59815,31.1874,5.53953,9.50549,8.63116,6.98889,-2.88399,-37.2837,-17.4964,-106.384,-949.648,-316.712,8400,14140,1960
5.76823,14.394,-1.87424,11.1116,4.11865,0.505552,7.3331,6.5395,7.04902,-7.41694,-8.54856,5.1642,0.692266,1.8826,10.5299,8.96822,-109.312,-945.256,-314.272,8960,13720,2100
-6.59971,11.3895,-2.94737,35.1509,18.4951,5.93731,37.1474,12.0176,-10.4045,-14.0637,-8.5052,7.41434,-0.728955,7.61323,60.5244,22.8241,-106.872,-939.4,-315.248,8820,13300,2240
-13.6774,9.40874,1.77475,26.8947,18.5523,8.60293,21.5239,9.31357,-14.2594,-12.5384,-9.17272,12.9563,4.0414,10.3834,25.3094,15.972,-107.848,-943.792,-318.664,8400,12880,2660
-7.90323,-5.32994,1.69499,-6.2305,0.578133,3.21797,-5.31965,4.45433,-4.20092,-3.62454,-13.9976,5.23517,5.50561,2.8472,-19.0939,3.16087,-106.872,-948.184,-317.688,7980,13440,2520
20.2189,22.3078,2.16067,1.85913,-3.60729,-1.88581,-9.20702,-0.053798,39.2987,11.08,6.73829,9.50527,3.22399,-2.81566,-13.7537,-1.3842,-104.92,-949.648,-322.568,8540,14280,2240
21.909,19.9982,2.87058,-4.74623,-3.85056,1.27662,-8.89051,1.41891,38.9211,11.3688,0.335296,8.34967,1.31752,0.172782,-20.5723,2.90964,-100.528,-946.72,-324.032,9380,15260,1820
12.3902,25.2319,6.42549,-0.0796911,4.5652,8.40062,-0.884356,6.10093,20.5097,5.79921,2.54613,9.37072,1.83084,9.73825,-22.2975,11.0806,-100.528,-944.28,-323.544,9660,15540,1540
-1.04752,-4.43853,-0.931168,-4.45177,2.77024,6.03603,19.9719,9.70873,-6.44694,1.0493,5.28051,-3.92089,-2.41177,6.90074,24.5532,17.391,-98.088,-945.256,-322.08,10220,14840,1400
8.52843,-10.4324,-2.94989,10.6856,4.5302,3.132,33.3199,5.77534,5.8503,7.37059,5.89865,-7.68139,-5.72037,2.288,68.7981,14.3061,-97.112,-945.744,-319.64,10080,14420,1820
14.0009,-7.15484,1.29509,-1.53628,-5.26532,-2.88187,-3.79954,-7.18894,26.0583,7.86305,12.1846,-5.02954,-3.15125,-5.46854,12.7684,-11.0889,-96.624,-947.208,-321.592,10080,14560,1820
-23.2211,-33.885,-1.41757,-50.4892,-29.3136,-11.3348,-48.028,-18.9274,-22.4046,-6.43514,-5.89507,-20.0223,-1.94236,-16.6045,-76.5877,-33.8242,-95.16,-949.16,-325.008,10220,14980,1400
-52.9638,-55.9024,-4.31661,-47.836,-23.8834,-9.11338,-32.8052,-17.0087,-87.8115,-16.5588,-2.77673,-28.9249,-1.52424,-11.9711,-65.0378,-26.2563,-95.648,-948.672,-324.52,10220,15120,1540
-26.0653,-15.1848,-4.60731,-2.68807,-0.410814,-3.60192,-1.20014,-9.29552,-42.4483,-13.761,2.24441,-12.0557,-1.38767,-2.25071,-7.49962,-13.1283,-98.576,-950.136,-318.176,11200,15260,1260
10.6373,58.0128,-2.45975,52.7013,18.0274,-1.88184,16.8845,-1.88227,28.9929,-0.984274,0.737081,10.5511,-1.67835,1.38506,41.03,-5.65156,-94.672,-945.744,-319.152,11900,16660,1260
7.54173,35.7506,-6.951,29.3071,2.84458,-5.28811,-0.222505,0.839503,14.8537,2.15699,8.73988,3.33073,-3.94252,-6.64321,21.3679,-5.08561,-98.576,-946.72,-320.616,12320,17360,1400
-4.72046,-13.7004,-9.65199,-5.7036,-8.33619,-1.06905,-8.23757,12.0271,-18.6086,-0.968133,-4.27861,-10.0165,-4.91656,-5.89003,-7.39937,4.03484,-94.672,-946.232,-315.736,12180,17360,1820
-6.70214,-31.7408,-4.34141,-13.4186,-4.22766,5.5078,4.00539,19.391,-30.871,0.609789,0.380367,-9.0214,-1.92265,3.28584,-9.27634,17.4979,-97.112,-945.744,-317.688,11620,16940,2100
0.795596,-43.8983,-1.29457,-40.3997,-7.26141,2.04698,1.84737,8.91562,-13.2805,5.54433,2.6652,-2.23342,-1.63568,1.46797,-28.7334,11.897,-100.528,-948.672,-311.344,10360,16660,2800
34.9075,30.525,9.13774,7.75835,16.508,4.44967,21.3873,6.77247,62.5326,11.7625,-5.66023,25.3152,2.21004,9.04472,10.256,16.4471,-104.92,-948.672,-311.344,9660,16240,3360
23.4926,47.9503,11.1324,41.9023,24.7545,4.18177,25.137,5.07069,44.9297,2.20965,-0.857593,27.8156,4.57132,10.9654,38.3431,15.0361,-104.92,-949.16,-309.88,9380,15260,3500
4.21953,9.46217,2.60858,-7.38046,-4.23859,-3.78935,-9.91284,-4.37381,28.6417,-0.90001,-5.49154,5.98993,1.88906,-3.67697,-11.8403,-6.53461,-104.432,-949.16,-306.464,8120,13860,3780
13.4521,15.0838,1.07046,-22.0579,-9.19136,0.777537,-14.6302,2.1937,42.6167,4.19223,-1.42694,3.13202,0.982226,-2.66177,-32.1461,-1.66349,-104.432,-948.672,-301.584,7000,12740,4060
10.7202,-2.37913,4.84794,1.51195,4.55877,5.35909,12.2297,5.8834,21.4177,5.23106,0.663918,3.59287,5.63262,5.71486,24.3107,13.3274,-104.432,-945.744,-301.096,4900,11200,4340
0.0344074,11.6756,8.63521,31.7133,14.4094,3.21111,21.6347,-8.09304,-2.89637,5.645,0.403118,6.22734,9.75208,9.87144,53.4839,6.36272,-100.04,-951.6,-299.632,2380,9660,4760
-5.6291,31.4078,11.4045,81.6493,35.2441,4.01559,39.4697,-13.2748,-30.9871,9.52404,16.3602,15.571,10.2097,16.4778,93.3025,3.8773,-107.848,-948.672,-302.072,700,8400,4900
-4.2198,24.692,11.8026,53.6616,26.1686,3.35137,-2.35416,-10.129,-37.6059,4.31551,-1.88289,22.1529,9.79124,10.0834,13.1131,-14.1076,-103.456,-954.528,-309.88,-840,7420,5180
-15.3438,-31.3425,-11.178,-36.2211,-25.2381,-5.13226,-55.4417,1.83904,-49.9461,-11.4171,-8.93443,-9.49155,-5.66371,-18.2889,-87.0624,-28.558,-108.824,-950.624,-318.176,-1960,6580,5180
-34.7703,-105.531,-29.7557,-104.931,-64.801,-13.1722,-57.08,-0.239362,-57.9534,-19.0989,-10.6542,-53.5638,-18.5723,-36.5259,-89.0725,-24.4046,-107.36,-948.184,-321.104,-3360,5880,5460
-51.1493,-97.6203,-24.3708,-88.5017,-42.3429,-4.1398,-20.697,-0.176859,-74.1554,-25.0794,-24.0918,-52.3,-16.9431,-19.3419,-46.988,-2.50772,-107.36,-945.256,-321.104,-5320,3640,6160
-24.5863,-50.5707,-9.83244,-40.5921,-12.784,-0.102766,3.44286,-4.21917,-31.946,-10.2803,-2.68378,-25.9406,-8.02546,-2.14541,-7.11978,7.70179,-105.408,-948.184,-313.296,-7560,1540,7000
7.09494,27.556,7.08698,36.6445,16.5629,0.76902,15.4487,-10.6539,17.3,2.8974,0.454698,10.3649,2.30304,11.1914,38.1463,1.37613,-108.336,-951.112,-308.416,-11060,-280,7840
15.1717,66.9683,10.6168,85.6136,36.0894,5.0587,30.597,-4.30547,21.9348,0.764028,7.8033,27.4945,4.2459,16.5856,72.5938,8.9105,-105.408,-956.48,-301.096,-12460,-1820,8260
-6.06758,-14.9831,-4.65209,-34.0978,-17.7025,-3.30956,-29.1828,-11.8014,9.31941,-14.583,-3.92703,-9.04018,-4.91434,-6.58257,-51.207,-12.3153,-105.408,-964.288,-293.288,-14420,-3360,8960
-1.19255,-4.53149,-4.75625,-40.9819,-13.0948,1.01373,-17.7063,0.531962,33.8162,-19.0876,-18.3648,-5.86144,-7.64854,-2.69182,-49.6983,-2.73305,-106.872,-969.656,-288.408,-16660,-5880,9380
29.5971,35.3227,1.5362,18.0366,14.7387,-0.805603,18.9016,8.99869,57.7716,5.78577,8.16231,16.7774,-3.10503,4.74609,17.3448,11.4008,-109.312,-970.632,-277.184,-18060,-7980,9800
65.0659,71.9492,18.9192,31.9518,22.3987,-0.256796,17.7477,8.0216,97.1386,35.6314,19.2873,39.0877,9.90195,9.37634,16.1357,8.65049,-107.36,-968.192,-277.672,-19740,-10780,9660
76.1685,102.246,26.0998,52.4309,27.5566,1.65844,21.1447,8.35692,123.194,39.0235,28.8363,47.0332,16.2617,10.7964,35.7402,9.32547,-114.192,-964.776,-269.864,-20860,-13440,9660
13.4109,52.9086,8.9186,63.4112,26.9669,1.57692,31.6166,9.66198,21.788,10.421,16.4023,18.2806,7.35959,8.63168,62.1305,14.2536,-113.704,-957.456,-271.328,-21700,-17500,9520
-52.0526,-53.8835,-5.01973,14.2759,15.5688,9.36342,26.1793,16.8978,-117.65,-14.0095,-7.93984,-16.4354,0.270052,11.0519,28.2041,19.353,-110.776,-959.408,-266.936,-23940,-20860,9240
-32.367,-90.0567,-7.23297,-53.0691,-20.4518,-0.0603168,-8.75713,4.07957,-72.8101,-2.25798,6.43794,-30.5387,-1.0633,-5.16569,-15.0028,-2.07919,-110.776,-957.944,-278.648,-24780,-23800,9100
2.47536,7.90313,-1.00897,0.665932,-6.65939,1.82382,5.69791,2.00164,30.5592,2.29169,-1.5744,-9.03045,0.400136,0.925962,33.5944,1.10539,-109.8,-952.576,-284.992,-29960,-31220,8960
25.6889,59.9571,2.38574,7.58661,-8.25,-0.440195,-10.9017,-4.57512,65.4517,13.4711,5.083,5.783,2.09329,-3.20631,-10.6701,-9.03955,-110.776,-954.528,-271.816,-35140,-37520,8960
-11.7517,-14.099,-0.280727,-34.0372,-18.4223,-2.35364,-23.6464,-13.0283,-31.2787,3.79791,-1.49399,-9.8348,0.651928,-7.41472,-52.7948,-15.8094,-116.144,-957.456,-290.36,-40740,-44240,9100
-44.8986,-61.8685,-1.49339,-12.5996,0.561795,3.69549,8.19221,-4.40322,-106.369,-13.7671,-17.6504,-13.4328,0.243739,3.32789,4.66032,3.38646,-113.704,-966.24,-278.648,-44940,-49420,8120
-6.56629,-1.18774,2.77596,0.326161,7.52372,1.78492,-4.42748,-3.18651,-16.0424,-6.77633,0.655055,11.3909,2.23977,3.1384,-21.3735,-0.419582,-115.168,-956.968,-291.336,-45080,-53760,7420
0.514942,38.4126,6.72964,14.6619,10.6911,0.757559,-13.4479,-3.05638,8.09655,-3.3465,-4.84807,21.4901,5.27014,4.06663,-32.3169,-5.09405,-110.776,-970.632,-304.512,-46620,-60340,6720
-2.14901,22.3109,15.0254,-6.18195,0.217761,-2.48368,-28.1606,-9.47542,-12.3683,7.2216,3.76589,18.8012,12.3418,1.5526,-61.3608,-14.2627,-109.312,-981.856,-268.4,-46060,-68180,5740
-23.204,-18.2852,-3.72897,-18.7014,-6.32936,-0.348999,-13.0571,0.952424,-40.0664,-11.1412,-3.30356,-8.16576,1.61503,0.404274,-38.6321,-1.3295,-110.288,-948.672,-306.952,-48300,-77420,4060
-2.81373,-16.3945,-19.4209,3.22089,-7.06517,-1.37326,24.1421,14.2123,13.3499,-7.1737,-9.15023,-22.9066,-10.6985,-6.69113,49.0065,16.8871,-100.04,-953.064,-295.24,-49840,-85680,3360
42.8427,45.3458,-1.06992,15.7252,2.08976,-2.6287,6.98571,1.9,102.344,14.5821,11.8821,12.6231,-1.68229,-3.16534,28.4138,0.171375,-93.208,-961.36,-270.352,-48440,-88200,2940
34.3642,29.6526,8.14696,10.9177,6.73876,0.489582,2.06516,-1.45331,65.3829,12.9838,0.901596,19.71,3.31241,2.73366,10.9021,-3.21781,-77.104,-953.064,-293.776,-38640,-86240,2100
-17.8371,-10.5545,-8.93727,20.8153,6.71069,1.35241,14.2923,5.07877,-39.343,-16.9542,-12.2865,-7.58938,-9.16092,0.0996575,25.2631,5.23,-95.16,-943.304,-320.616,-38780,-85680,1120
-60.3004,-94.5825,-34.5861,-25.8895,-29.5743,-8.53022,1.75039,3.70359,-114.827,-33.1296,-18.6742,-57.3291,-22.917,-21.3892,32.0057,-1.67729,-89.792,-928.176,-292.8,-41580,-87080,1960
-61.0778,-166.973,-36.5302,-107.709,-67.4541,-14.1793,-29.1735,-1.81977,-108.705,-25.4884,-18.2176,-83.1584,-23.4033,-35.7552,-13.3334,-16.071,-76.616,-928.176,-284.016,-42000,-84980,3500
12.7084,-26.5337,-9.61294,-38.4826,-29.3841,-8.45634,-20.2323,-4.12248,30.1192,6.03929,9.12188,-21.794,-8.35205,-17.9917,-13.9203,-12.3955,-81.496,-938.424,-276.208,-47320,-81480,4340
25.3061,-9.71247,-9.00403,-19.3653,-20.9444,-5.84821,-3.70331,1.60421,46.7271,10.701,5.55427,-18.2428,-6.59805,-13.8602,2.48432,0.443296,-87.352,-938.424,-264.984,-46760,-76020,6020
-0.411251,-27.1266,3.78424,-29.0339,-5.77619,4.71289,-4.32314,5.80668,-15.5109,1.87292,7.24181,-7.14051,2.02582,3.37685,-37.8015,6.38544,-89.304,-938.424,-278.16,-43960,-70840,7280
2.96252,-17.1944,10.9497,-10.1092,12.3786,8.50785,7.39341,8.50314,-12.9261,-0.781661,6.0366,11.5166,5.19872,13.9288,-13.3814,9.91524,-80.52,-920.856,-253.76,-44380,-68600,9100
33.1049,62.0161,16.855,63.6668,39.9333,6.8634,27.2519,5.36662,64.6062,6.93284,0.830364,41.5332,4.8706,18.2312,57.1618,11.5131,-78.08,-917.44,-254.736,-44660,-68600,11480
58.2754,136.428,23.7836,88.3285,47.6994,1.26675,14.9056,-7.00204,125.667,24.7828,13.3273,64.6858,10.0419,14.3084,35.3239,0.0247579,-88.816,-916.464,-234.24,-50680,-68880,13720
50.8306,102.152,22.7607,29.4002,19.5453,-10.1327,-34.2254,-28.7893,90.3294,29.5784,7.64438,54.3076,12.548,-0.633709,-56.3555,-34.5507,-92.232,-914.512,-216.672,-55580,-68740,16800
24.6192,96.3955,27.7034,68.4882,36.8415,-1.34671,-19.9184,-24.857,16.5497,19.7671,8.44006,57.3074,17.9271,13.3089,-37.8009,-25.5214,-99.552,-919.392,-216.672,-60060,-69300,19460
-34.5657,-0.0760719,3.29908,40.7291,20.8196,8.86347,15.1013,0.967234,-66.1353,-16.347,-9.22619,7.17702,7.70398,14.5682,25.3658,9.84157,-80.032,-920.368,-200.08,-67900,-68740,21420
-31.6399,-19.8493,-4.16318,8.78692,12.3849,13.1875,27.6211,12.6945,-37.254,-17.4673,-15.522,-7.21684,4.2815,13.7249,41.2422,26.9321,-103.944,-941.352,-233.264,-77980,-65800,22680
-10.2246,7.8537,8.14447,4.49535,14.7127,11.1894,8.88582,2.16457,-14.6664,-1.08365,5.54025,9.68805,11.9068,15.737,-10.7712,14.3284,-124.928,-924.76,-264.008,-82040,-66640,22680
-24.0639,-52.6921,6.45897,-45.9638,-2.92367,8.08245,-2.68891,-0.280087,-73.826,-5.11004,-6.87024,-5.57501,9.63367,11.0797,-49.2609,8.25936,-130.784,-931.104,-277.672,-84000,-69020,22540
-48.8702,-83.0534,-8.29477,-37.7949,-6.12063,9.40309,18.4213,8.85194,-111.697,-19.1244,-9.52495,-28.3812,-2.3581,8.91498,3.53342,20.9053,-152.256,-924.272,-284.016,-83300,-67900,21420
-29.3282,-46.1845,-14.0947,-31.6421,-23.9281,-4.17934,0.198665,-3.63163,-53.6573,-9.62702,-1.63156,-30.8958,-8.40215,-11.1134,9.69542,2.02271,-147.376,-915.488,-289.872,-82460,-68040,20160
-15.0293,-52.4467,-28.3179,-59.675,-48.8617,-16.0804,-16.7299,-6.66363,1.77442,-11.3482,-4.49767,-48.4916,-19.9444,-32.4938,-1.15085,-12.1407,-132.248,-912.072,-281.088,-82740,-68040,19180
21.669,22.0476,-11.2239,6.61647,-14.3622,-11.1762,2.42805,-3.76524,65.9961,2.17823,14.3117,-12.3072,-12.59,-17.2618,33.0064,-9.75488,-127.856,-920.368,-281.088,-83020,-67340,18620
49.567,56.2792,-0.475882,32.5255,-5.58502,-8.31279,4.38178,-0.527173,106.123,17.5945,12.4512,2.98298,-5.11617,-11.691,50.4564,-12.4043,-119.072,-922.32,-263.032,-87220,-68320,17780
49.2705,64.1561,12.9116,32.2141,4.60739,-3.54892,-9.20076,2.89208,92.7848,23.1109,19.5284,23.2916,4.14735,-2.00065,6.83741,-15.0817,-113.216,-928.664,-287.432,-88060,-66080,17360
29.555,53.7,22.1187,41.0974,25.996,8.26769,10.7092,14.0211,40.8969,14.1618,11.387,35.7289,12.8807,17.408,4.50339,8.16612,-115.168,-901.336,-283.04,-96180,-65940,16660
-2.70262,12.8362,17.0712,31.3005,28.0691,14.9881,19.8913,18.1357,-16.9641,-4.40107,-8.39949,20.7325,12.6671,24.5858,5.00856,20.8829,-104.92,-890.6,-290.36,-100660,-66500,16660
-16.921,33.8407,16.3841,53.8611,43.823,15.0726,19.3723,13.6494,-34.2998,-10.9671,-4.27563,30.573,12.3625,30.7377,4.27855,20.5572,-106.384,-970.144,-214.232,-99820,-62720,16660
-17.1527,-11.0204,-6.22826,-8.38438,1.69493,3.16917,0.586713,8.41062,-17.7723,-8.77593,-14.0319,-7.61804,-1.61288,5.86818,-11.6021,10.3398,-121.024,-984.784,-244.488,-97860,-55580,16520
-12.0916,-71.1215,-14.7754,-75.0154,-36.1882,-7.30889,-19.9239,-0.77531,-27.5452,1.58966,-3.47326,-34.6038,-7.93882,-16.0559,-39.8958,-4.25285,-99.552,-915.488,-320.616,-96460,-53060,16240
-6.28908,-46.9504,-4.7011,-55.1041,-29.6884,-10.897,-29.0955,-10.6059,-29.5132,6.82448,1.74685,-17.7158,-2.36965,-16.5898,-45.8794,-16.7577,-105.896,-930.616,-277.184,-98560,-49980,15400
2.29613,-14.0486,-0.638578,-34.0101,-16.4033,-8.5729,-25.9334,-10.5657,-8.78701,6.40052,-3.6909,-6.60703,-0.0578096,-10.2879,-55.6247,-18.1231,-121.512,-937.936,-307.928,-95760,-45500,15260
-9.85186,-48.4752,-21.3966,-35.1186,-26.7523,-7.42251,-3.53913,-0.436316,-12.4263,-5.88926,1.21045,-37.9542,-13.9935,-15.4946,6.3856,-6.61347,-110.776,-932.568,-266.936,-95760,-38500,14840
-8.73929,-37.847,-26.5807,-14.1762,-26.7689,-6.66038,8.93421,3.25088,2.25208,-5.27313,-7.38265,-43.299,-20.9876,-19.9827,53.1416,-1.32661,-93.696,-938.424,-279.136,-91140,-31360,15540
8.09757,-17.4466,-11.8619,-21.1184,-17.1456,-0.725211,1.64984,2.36034,26.7307,3.22138,1.20151,-19.3794,-11.1354,-12.3858,15.826,0.426655,-100.04,-945.744,-256.688,-91000,-26320,15400
12.5413,3.10138,10.05,-14.0716,-1.17473,9.21645,-3.6225,0.732046,14.7236,11.6103,8.33241,6.66633,7.65386,6.18052,-17.6458,3.90876,-104.432,-935.496,-263.032,-88760,-20580,15120
-16.6682,-32.1628,9.73488,-34.2537,2.0573,17.0999,-4.76086,6.31023,-38.5919,-5.40497,-7.64837,2.27384,9.19685,15.6026,-39.1051,9.75666,-87.352,-943.304,-287.92,-88340,-17500,15540
-17.017,-3.04706,1.28313,-6.42389,12.1595,5.59197,-11.7901,-3.34449,-25.0756,-16.6184,-4.07899,17.6384,0.254041,5.66339,-38.2393,-2.84116,-101.504,-944.768,-271.816,-91140,-11760,14840
-21.4983,49.543,1.22226,78.9032,46.4817,5.31852,25.2873,-2.59334,-33.2351,-19.021,-13.5208,34.6439,-0.13141,14.151,36.7803,8.5997,-117.12,-939.4,-287.92,-87640,-7420,14700
-23.8941,11.2105,-13.1321,32.7973,8.68243,-9.16653,12.7805,-7.15747,-30.2356,-14.3351,-5.09149,-2.91652,-9.46028,-9.02272,33.9606,-0.385375,-109.312,-928.664,-320.128,-83580,-5180,15260
-23.5848,2.3791,-21.8713,-0.40939,-18.4565,-34.7577,-22.2052,-23.0268,-29.9161,-11.0613,-2.4207,-12.6711,-21.1654,-42.1501,-20.4451,-25.3959,-107.848,-929.152,-326.472,-87640,-3080,15120
-16.744,4.86915,-2.65436,12.3457,-3.96277,-18.08,-11.7114,-13.9705,-38.5257,-6.0692,-9.8957,6.66934,-4.43765,-12.418,-10.6517,-11.8535,-103.944,-948.672,-286.456,-91560,-700,14840
22.7698,37.1353,10.464,30.3151,2.78071,-2.78493,3.99346,-8.92773,33.4838,9.34214,8.99638,13.4171,9.29857,5.99519,38.3877,-6.3794,-104.432,-948.672,-310.368,-83160,6300,14560
73.4401,99.4667,25.0908,50.197,15.9429,0.473034,-0.447269,-13.3766,141.139,30.8868,13.4991,37.2633,18.9958,7.9806,39.2646,-14.977,-115.656,-952.088,-306.952,-80640,15400,13160
41.3296,64.8296,19.2215,29.2366,9.19133,11.4641,-3.81299,3.57771,83.7086,18.1902,15.8642,21.5987,15.9899,15.102,16.8537,1.91713,-125.904,-944.28,-315.248,-77140,19040,12320
-8.34111,-27.3972,10.9661,-21.0113,2.31809,14.1682,-6.30858,9.50982,-42.2254,2.79574,5.31759,3.33597,8.12925,16.0074,-26.3356,11.0134,-127.368,-945.744,-301.096,-71260,23940,11060
4.31891,-26.1314,3.53843,-8.56302,8.47438,7.57669,15.0537,9.10359,-23.2544,4.60078,-1.76728,4.28873,2.341,8.10635,8.273,13.845,-117.608,-954.528,-324.032,-64400,27300,9940
-1.04265,8.48698,-16.7962,29.0023,9.31863,-0.240423,43.1583,15.4135,24.9579,-14.4378,-4.05117,-13.0167,-13.5287,-5.54381,69.2718,22.2458,-128.344,-952.088,-330.376,-62580,30940,7560
-2.33945,-13.0251,-12.8183,-13.6414,-15.2901,-10.29,8.03964,5.72885,20.8427,-6.9262,-10.2282,-22.8684,-9.25991,-12.5032,9.91369,5.40297,-127.856,-955.504,-329.4,-61320,31920,5460
-38.7498,-82.1637,-3.85683,-56.4001,-16.0093,0.298408,-8.45573,9.80521,-79.4689,-12.4888,-4.23056,-25.1989,-0.128081,3.76727,-44.7834,6.13295,-122.488,-949.648,-331.84,-56000,33740,3920
-18.2555,-54.49,14.7205,-41.9675,-1.59691,9.70558,-19.4896,3.24519,-60.4334,5.22253,9.10536,2.12085,13.8642,15.4614,-61.653,-2.36578,-111.752,-946.232,-327.448,-48160,41580,1820
13.604,7.66938,17.8878,9.0635,15.9892,12.8285,3.82152,5.64996,14.3497,15.7632,8.34736,16.6128,13.5817,16.9422,-12.3245,4.74403,-102.968,-902.312,-352.824,-41720,60620,0
31.1881,40.6433,15.2387,37.3521,22.1021,16.987,21.3158,12.4473,69.2726,18.7158,17.7571,16.7475,12.4181,23.319,27.8486,14.3999,-158.112,-925.248,-351.848,-29260,78120,-2660
31.8101,32.4994,9.68747,22.2745,12.0654,11.4097,12.3662,6.67067,64.868,16.0786,0.751206,14.3419,5.57588,11.0367,17.7863,4.97036,-174.704,-948.672,-438.224,-37940,35420,-3500
30.2788,24.3771,0.692744,6.08227,4.16765,-0.263167,3.9125,-3.99843,49.6868,10.2495,-0.015447,15.7985,-0.113106,-4.67901,-4.1375,-5.33496,-163.968,-911.584,-418.704,-29680,14280,-4760
22.6804,1.43666,-1.49031,-12.2919,-13.8033,-7.98395,-10.4441,-8.64373,26.9628,12.5904,7.82667,1.39436,0.908012,-11.3147,-11.7367,-11.6563,-168.36,-913.048,-359.656,-21140,6860,-7840
-16.9953,-39.0354,8.19235,-24.3512,-4.68215,2.83476,-6.29297,-1.7992,-51.662,5.05519,0.86517,-7.97104,10.166,5.96943,-12.096,-3.03871,-159.088,-929.64,-430.904,-24780,-5600,-7000
-34.3569,-19.4548,6.50905,-4.8261,7.24106,5.61104,-5.72555,-1.92215,-66.2063,-9.31414,1.82863,-0.258971,9.28138,10.112,-11.4214,-1.77401,-146.888,-909.632,-409.432,-14980,-15540,-7560
-34.5027,-0.762821,-22.3863,-0.345665,-3.15542,-15.7128,-9.66698,-10.6089,-18.5095,-29.6557,-20.3026,-14.8391,-15.4576,-21.9647,-10.677,-11.7605,-143.472,-902.8,-409.432,-8540,-10920,-9100
-13.8767,-2.63455,-33.9698,-5.21238,-29.5188,-28.0669,-16.6931,-15.9457,6.52046,-19.3144,-9.60201,-33.2568,-27.3589,-42.2305,12.1425,-22.6469,-143.472,-892.552,-406.504,-7140,-9800,-9800
-28.2219,-32.6729,-2.38244,-16.3615,-17.7052,4.55743,-14.2119,-0.38206,-57.5254,-14.0067,-4.09809,-16.7534,-0.128225,4.84035,-8.29059,-3.41275,-142.984,-894.504,-408.944,-6020,-11480,-9660
-25.3883,-2.61124,2.9763,2.29254,13.5159,9.84913,5.95048,5.33742,-38.0756,-16.2973,-14.6495,-0.599591,-0.991224,11.6098,-4.40942,10.3223,-138.104,-895.48,-408.456,-5320,-13720,-9660
-30.9758,-1.9551,-29.0238,16.1275,4.41081,-16.3733,19.2523,-1.40455,-32.1943,-29.2586,-14.3256,-16.1308,-26.4213,-23.0086,37.0231,6.91538,-142.984,-902.312,-406.016,-4340,-16660,-9240
-12.3604,-17.102,-11.8145,-22.2398,-25.9233,-11.7745,-22.0857,-8.07388,-31.9725,-6.53021,-6.52805,-18.6572,-6.18815,-8.94663,-23.6273,-7.82166,-162.016,-929.64,-456.28,-980,-15680,-9660
10.3307,8.82936,31.4577,-12.3311,4.67946,28.7037,-16.2261,10.4987,-11.6861,20.3571,18.0187,9.13787,26.3808,38.7589,-36.7483,10.9192,-142.008,-901.336,-450.424,3640,-15400,-10500
47.3312,24.3411,30.6153,-5.60316,22.7437,37.3381,9.95887,25.776,50.9663,29.2867,15.9437,30.576,4.19126,36.7541,-3.29463,24.6967,-136.152,-893.04,-420.656,7140,-19880,-9660
55.106,12.5894,-13.1622,-4.4279,14.6711,0.580494,15.6329,14.1127,59.4572,-0.948421,-17.418,42.9911,-40.6903,-3.66502,17.2259,12.4167,-144.936,-887.672,-429.44,6580,-21700,-8820
8.22535,2.90671,-32.8397,5.05639,5.66229,-13.9833,9.62292,-4.55788,11.4053,-22.542,-5.5809,10.8145,-11.052,-10.6814,11.0058,1.17241,-142.008,-896.944,-424.56,5600,-22960,-7560
-0.917304,43.3538,-26.6908,35.2884,-0.219529,-24.5264,12.9673,-15.9426,30.6823,-25.2508,-21.1683,-10.1457,-25.5705,-32.4378,20.7776,-14.5694,-133.224,-897.92,-415.776,4900,-23240,-6580
-16.2536,22.0162,-77.292,33.8607,-49.7539,-97.5671,-24.1235,-60.7971,5.90619,-31.6019,-25.714,-28.7632,-62.2383,-140.986,31.6095,-80.4581,-139.568,-888.648,-424.56,4760,-23380,-6020
-20.8548,26.5597,-37.5169,23.2963,-84.3474,-97.6831,-56.4885,-60.1875,13.9305,12.7469,12.4198,-64.6481,-24.463,-116.877,11.6523,-83.148,-135.664,-898.896,-393.328,1820,-22680,-5040
11.2693,37.8519,64.8247,10.9023,-12.7396,27.4104,-8.67411,20.9884,36.0519,57.2273,44.6981,-10.5422,57.2188,64.5242,-4.18385,26.1438,-137.128,-904.752,-401.136,-1120,-22540,-4200
31.6247,-32.2275,86.74,-59.6054,37.5944,105.658,23.04,65.808,17.1042,68.164,61.1102,29.0915,98.4664,132.246,-30.8047,79.1149,-138.104,-910.608,-378.688,-1680,-24220,-3360
5.15365,-51.079,66.3686,-37.0136,58.1065,96.1238,41.2258,51.0028,-18.4927,36.4044,25.0695,18.3216,79.5662,99.4123,-20.4333,63.6136,-142.496,-907.192,-383.568,-3780,-26180,-2380
-11.4157,-35.0172,14.6006,4.18933,23.065,9.26366,14.1719,-10.2958,-32.7144,-3.1503,-11.5929,6.52994,4.77726,-2.92146,0.737878,-3.68183,-140.544,-911.584,-383.08,-5320,-28280,-1820
11.197,9.95001,9.13582,37.1098,27.5679,-1.60435,25.5945,-3.94434,3.72963,-10.7192,-12.2476,38.0937,-5.68968,24.7917,36.5195,12.0061,-131.272,-921.832,-362.584,-7980,-31500,-560
-20.8129,-40.1735,20.9111,-24.666,27.3073,35.3829,18.5002,25.4349,-56.3209,2.68223,-0.0263759,9.73017,37.1198,69.6633,-6.37173,42.4321,-132.736,-925.736,-357.216,-9100,-33320,0
-25.2034,-77.5255,20.4761,-72.8173,11.5147,21.7613,-5.8132,11.6335,-71.4527,-11.1015,-17.6434,-6.90359,-8.12703,24.0925,-64.4533,13.1636,-129.32,-925.248,-357.216,-9660,-34580,280
23.8596,23.3257,-30.7021,25.9767,2.47142,-1.84663,-11.9687,-8.1555,30.4371,-34.518,-33.4604,32.4188,-32.2274,-20.7877,-11.1266,-22.9279,-124.928,-924.272,-348.92,-11060,-35700,980
-12.0673,34.5811,-41.4999,39.8277,-15.9739,-16.565,-24.2724,-20.5882,17.0721,-41.6512,-15.0177,-14.2856,-29.3062,-35.3032,23.9368,-40.1086,-128.344,-933.544,-351.36,-12040,-36400,1400
-47.2482,-13.2664,-44.5258,-13.566,-28.5291,-35.9139,-18.835,-25.643,-19.3709,-38.2472,-6.52855,-54.3391,-21.9368,-50.6176,-4.26823,-29.9048,-128.832,-948.184,-352.824,-11340,-37660,1820
-27.9067,-3.09942,-33.9719,-6.55159,-22.8148,-27.4859,-6.03085,-5.80059,-1.16074,-17.8329,-10.8054,-27.4811,-20.4149,-18.7889,-9.73298,4.44266,-133.224,-954.04,-364.536,-8260,-37660,1260
7.46376,13.1659,25.2671,8.27404,20.4695,28.166,24.5015,28.8919,1.24499,25.754,21.5385,0.339878,25.4575,53.539,7.56489,45.5678,-139.568,-951.112,-392.352,-2940,-37800,0
36.7981,16.617,58.0059,19.0971,26.169,25.1721,27.0872,5.56193,5.27067,61.1439,30.2136,8.19477,49.4391,15.7233,14.7761,13.4037,-139.08,-958.92,-399.672,3640,-39060,-1400
52.3516,27.9716,4.26798,59.6793,-0.957463,-59.1964,0.167682,-42.9492,22.5174,25.0281,-6.74262,48.9567,-51.325,-104.957,38.9451,-62.7292,-132.248,-918.904,-340.624,11760,-41860,-2800
37.1428,23.9139,-90.2784,26.5834,-93.2256,-150.214,-72.2574,-85.3002,36.9703,-2.29771,-11.4808,15.12,-97.4156,-201.046,16.2374,-122.863,-126.392,-899.872,-369.904,15400,-39620,-4060
59.0372,59.5403,-6.59249,-7.8808,-52.2152,-54.773,-35.5702,-19.071,79.7867,24.2904,28.5196,19.4795,-17.7321,-18.6024,-4.30476,-20.3892,-130.784,-884.744,-367.952,13580,-41440,-3080
12.2192,25.146,53.0545,-40.3955,49.0113,85.4493,36.2505,64.6085,33.912,2.39324,34.5372,36.4614,64.6434,132.332,-1.13068,83.0649,-120.048,-898.408,-332.816,8260,-44520,-1260
-52.8236,7.29998,22.8349,3.20617,67.548,82.96,43.9771,55.4632,-5.29071,-23.4437,-21.7995,-12.5173,30.7608,87.3097,20.4527,63.014,-126.392,-907.192,-338.672,6300,-41300,-560
-19.4308,24.0742,-46.5179,61.0007,38.3374,-0.592203,24.4946,9.46434,0.953709,-54.1718,-72.8412,7.82631,-87.6536,-15.6585,28.9566,10.4877,-133.224,-923.784,-341.6,5600,-39760,-420
20.6276,27.7729,-65.0467,46.4889,9.18439,-10.4338,16.847,0.935196,18.9051,-60.4368,-49.462,39.9132,-52.8143,-6.73944,17.0048,12.3043,-132.736,-908.656,-325.496,9240,-39620,-980
-7.91033,48.08,-18.7095,21.0836,-0.551864,33.7324,24.8114,31.2275,52.0096,-16.137,7.82769,-34.9277,33.9226,36.4813,25.195,28.8687,-143.96,-917.928,-374.784,9940,-35840,-1400
-94.8374,-71.4638,-0.125965,-90.0719,-63.9335,-1.41776,-48.1171,-1.65881,-46.1656,9.92511,30.497,-129.499,35.3272,-30.1085,-54.7699,-28.098,-143.96,-896.456,-364.048,11900,-36260,-840
-71.9302,-94.5975,39.8158,-59.486,-26.81,2.68311,-30.2359,-7.39766,-79.1001,27.1535,20.9582,-51.2828,43.9909,14.3382,-49.2362,-4.35899,-141.52,-896.944,-358.68,12180,-32340,-280
-31.3571,-95.4118,36.9258,-37.5239,11.6028,10.0697,1.68998,-9.06647,-103.356,22.717,17.9525,12.0007,36.3285,21.3642,-25.8024,4.05552,-146.888,-899.384,-380.152,12880,-28560,420
-8.61642,-83.4624,33.9753,-38.6142,11.8715,20.3604,5.75537,2.58329,-104.528,15.2807,9.54542,19.8563,24.5478,22.8207,-21.8834,5.55328,-145.424,-898.896,-366.488,15400,-23240,1260
61.7358,29.1764,40.2581,15.6071,20.4924,29.5111,8.10688,11.6697,31.9721,27.3056,9.4111,57.2624,21.1763,40.1006,3.63323,15.18,-148.84,-902.8,-389.424,17500,-18200,1680
56.1419,45.0469,12.5174,10.1613,18.3875,6.31475,2.84284,-2.46836,57.0691,13.6179,13.2012,40.6185,12.6797,15.7383,2.21506,3.29863,-149.328,-896.456,-379.176,20440,-15120,2660
17.8044,48.155,-19.4614,36.0686,6.30471,-32.8006,6.51339,-24.254,48.9416,-2.89271,-9.58571,-3.76551,-14.0625,-45.3311,35.7499,-28.1691,-163.968,-899.384,-411.872,22680,-10640,3780
-15.2264,-2.84553,-34.5972,8.76649,-35.1192,-60.978,-28.2779,-46.9055,-12.6402,-16.1055,-15.7677,-28.6044,-42.7811,-81.2691,-8.42927,-60.6673,-176.656,-876.448,-408.944,27580,-8680,3500
-21.1702,-3.13156,-31.7946,-6.31419,-43.0504,-37.3567,-34.0839,-25.445,-16.8851,-18.4719,-7.19271,-21.4122,-32.0648,-34.6326,-16.0767,-30.8276,-177.144,-883.28,-417.24,30940,-6020,3920
2.0019,10.9298,-1.94525,-13.3682,-21.916,7.80309,-16.1336,6.5055,7.89625,9.23368,11.487,-20.5305,6.61085,10.0055,-3.70532,0.203719,-169.824,-888.16,-403.088,32340,-3360,3080
-5.65358,-51.6222,3.81885,-48.0753,-13.2743,19.4242,-6.29778,20.8236,-37.5883,4.94201,14.4388,-28.4182,6.01309,14.3541,-26.299,12.486,-161.04,-914.512,-390.4,33040,980,1960
17.9541,-16.7431,-5.46356,-6.72747,6.94853,-11.5854,6.76699,-0.731478,-1.14645,3.19216,-3.45367,12.3775,-15.652,-13.4717,-9.12946,-1.72523,-157.136,-938.912,-389.424,34300,6440,140
35.1983,36.8512,-2.39003,32.4967,15.011,-12.1495,16.8227,1.30196,34.3853,1.04194,0.792092,26.4046,-12.2746,-3.20188,16.3654,5.93221,-184.464,-878.888,-402.6,39900,5460,-1120
7.35128,12.0581,6.34543,3.2783,9.35422,13.5407,16.198,13.7021,17.1047,-11.8436,-3.59675,5.65352,7.29453,24.2488,6.91006,24.1822,-197.64,-779.824,-443.592,39620,-3220,-840
-4.56664,37.9213,6.99575,23.4259,22.2192,22.7064,22.1951,14.4753,27.6528,-9.51423,-13.6392,5.94766,6.84061,22.7824,15.7142,21.7447,-126.88,-819.84,-366.488,26180,-11480,1260
6.07029,39.932,3.84124,28.5363,16.2066,16.069,12.9163,10.1734,37.8899,-2.74068,-6.07976,8.45165,-3.34506,12.9288,17.1047,13.2248,-109.8,-907.192,-360.632,17080,1400,140
5.64762,4.17417,11.7749,14.0046,32.407,22.6315,24.5031,18.0934,-9.93562,-4.80123,-17.6548,29.5572,4.4088,30.7199,3.69086,28.259,-164.944,-901.336,-450.424,17920,12460,-420
5.88241,-9.38777,20.0992,9.03376,37.3778,33.6969,36.6032,21.9456,-17.4322,8.86641,4.54799,20.2044,32.0425,43.3923,17.8976,36.6136,-152.256,-890.6,-455.304,20300,5880,1680
10.9879,-13.9575,30.8693,-2.8284,22.1649,30.2528,20.244,13.1653,-4.78285,23.5126,14.5429,10.3007,32.5299,33.5915,18.7178,23.1137,-129.32,-894.016,-412.848,21560,140,4200
15.9743,-12.3742,20.7095,-15.3314,0.682927,9.65524,-17.4539,-5.67448,-0.207669,28.8937,8.04504,17.8821,21.2755,7.51163,-19.4516,-8.2936,-127.368,-906.704,-390.888,21420,1680,4060
-21.1776,-47.9291,-4.77794,-30.2536,-21.9423,-5.2596,-30.1703,-11.959,-50.5465,8.25244,7.35496,-15.3549,5.19433,-13.9382,-30.469,-20.1471,-134.688,-901.336,-406.992,20440,-560,2940
-14.172,-18.0453,-14.7899,-15.0619,-32.162,-10.2231,-24.3709,-11.2386,-4.17366,-0.572611,-2.7645,-34.8743,-6.41208,-19.6169,5.2652,-19.8825,-149.816,-889.136,-412.36,17920,-3640,2660
14.6593,-6.20046,17.7407,-31.42,-14.9896,11.6073,-19.6688,-1.43797,40.8492,21.6431,22.1953,-14.776,19.4041,16.6016,-12.047,-3.66752,-138.104,-898.408,-396.256,12460,-9100,3360
13.6296,6.90468,24.5024,-7.62478,10.785,22.8501,-5.06156,2.59532,21.8046,13.1511,15.431,12.8186,14.6262,28.2299,-16.0437,9.09559,-124.44,-908.656,-382.592,7140,-10640,3640
-9.71049,10.2432,-21.9433,29.4348,6.72911,-19.0976,0.801067,-28.5836,-0.285406,-18.0778,-15.0873,10.0068,-23.0393,-30.728,11.642,-23.9251,-119.072,-935.496,-368.928,3360,-9100,3360
-49.0899,-0.590514,-75.3049,20.9821,-37.4654,-80.04,-34.6453,-50.8808,-42.886,-61.5581,-35.8439,-24.9555,-87.0344,-104.557,1.89601,-70.7474,-126.88,-930.616,-384.056,1120,-7560,2800
-36.4643,30.2283,-57.3871,18.9342,-43.3365,-61.3525,-43.5233,-22.4572,-16.5822,-58.7651,-34.1832,-19.3429,-69.7555,-71.5401,-16.0709,-48.1172,-126.88,-927.688,-388.448,-280,-7980,2940
-16.7356,40.8152,-13.4248,16.2358,-10.5387,10.1996,-1.01982,29.9537,23.9289,-18.8981,9.15097,-3.3391,5.99023,13.1269,1.70064,17.9789,-126.392,-926.224,-374.296,-1960,-10220,3080
-15.4662,18.5735,-7.31905,-5.25371,-7.91379,5.99743,6.55052,23.3603,32.3074,-3.00172,5.17317,-32.5628,7.64155,-3.09456,0.908289,21.3532,-129.32,-919.88,-381.128,-4340,-14000,3780
-30.7372,-16.492,-39.8071,-1.47958,3.14921,-70.8725,8.1028,-28.4879,-40.2184,-26.1728,-37.2571,-8.17412,-65.81,-79.8966,-15.5866,-14.9358,-127.856,-921.344,-370.88,-8120,-17920,4480
3.56044,5.61937,-24.1239,44.7278,0.576261,-56.62,30.9074,-18.8079,-34.3791,5.68039,5.23056,29.305,-27.7537,-51.5999,36.8383,-5.75405,-122.976,-923.784,-368.44,-12600,-21420,5460
60.0831,25.2589,68.4112,28.5655,9.23676,39.2767,49.9839,26.9007,39.7162,71.5478,57.9418,20.9032,88.2792,63.6071,71.5166,43.0632,-120.536,-939.4,-364.536,-14840,-23240,6020
55.024,27.7639,87.7682,-8.01266,26.659,62.5713,28.9599,27.9059,74.1045,76.9007,63.6533,15.3248,99.0685,81.4453,42.9868,38.4974,-123.464,-940.864,-366.488,-15120,-24360,6720
64.4155,13.09,68.2531,-22.613,35.1848,37.3188,5.45075,15.2635,70.9401,37.7199,7.04819,52.35,14.8311,58.226,-16.4113,21.2691,-120.536,-942.328,-364.536,-14980,-24920,7280
99.0435,55.2381,-30.3485,41.9915,68.9415,-35.0613,26.1207,-19.2826,70.9701,-29.8493,-55.8828,137.901,-90.6055,-10.1018,4.27851,-8.5897,-123.952,-943.304,-360.144,-14560,-25200,7980
0.138876,49.7121,-98.4987,46.464,-5.43732,-35.8274,-0.0839154,-15.0113,18.4071,-50.2666,-24.6563,-22.6247,-35.3178,-45.6863,32.6143,-23.8381,-125.904,-940.376,-357.216,-13720,-23940,8680
-124.459,-84.5378,-29.3764,-88.4759,-100.865,23.5687,-62.7697,10.241,-82.4248,-32.1592,-7.19674,-198.137,34.1171,-7.23757,-59.6746,-15.4885,-133.712,-935.008,-350.872,-12880,-23240,9380
-112.046,-161.04,29.5163,-119.29,-54.1055,64.5723,-26.6051,37.4638,-104.739,2.41112,17.5865,-110.215,60.222,38.0883,-55.6669,19.174,-139.08,-932.568,-343.064,-12320,-22260,10080
-22.3315,-105.679,75.6319,-42.5075,36.2198,80.7952,31.5943,48.232,-102.119,39.3249,22.0293,16.6991,65.9632,83.744,-12.7041,52.2317,-140.056,-933.056,-348.92,-12740,-21140,10920
26.4858,-0.0035052,53.1606,25.9704,56.7451,23.4947,13.1832,-1.9506,-48.7748,19.652,-2.83798,72.8349,24.6718,50.7173,-19.1691,10.2993,-147.376,-928.176,-348.432,-12600,-20720,11340
30.053,10.1745,2.52223,-2.82264,7.26523,-17.2728,-28.0116,-21.4262,10.9619,-8.21923,-7.10286,40.6757,-24.1851,-4.64551,-37.8126,-25.0931,-151.28,-920.856,-352.336,-12460,-20440,12040
46.4034,64.9758,-21.3946,30.1673,25.6066,-7.59729,3.28006,5.90154,59.4262,-29.7608,-35.8669,71.3785,-68.4084,-7.98423,-6.69456,2.89191,-155.672,-922.808,-357.216,-13160,-20440,12460
19.8949,59.4138,-54.2455,43.2374,21.365,4.15512,30.7977,14.3141,43.9708,-28.9524,-17.661,29.4926,-26.2739,0.832548,32.5458,23.8178,-159.088,-918.416,-361.12,-13160,-19180,12460
-24.7078,36.6841,-28.5517,21.0468,-2.44372,6.57714,19.6579,0.412564,24.0775,-13.9259,-0.0768854,-58.7756,11.234,2.39339,25.8555,12.6675,-157.136,-918.904,-357.216,-12880,-18340,12180
-57.9271,-35.4637,0.932407,-7.46538,-12.8136,-3.91654,-1.80873,-17.3852,-46.6173,-9.49525,-1.52231,-62.3476,14.1577,-8.4777,20.3071,-12.1978,-160.552,-923.296,-356.728,-13440,-18200,12180
-40.1804,-71.8397,-0.490785,-3.78881,-14.5975,-33.1044,-14.9534,-45.4351,-91.973,4.84942,11.496,-24.2891,-1.97627,-43.036,16.6242,-40.9801,-159.576,-925.736,-358.68,-13020,-18480,11760
34.4742,46.0228,-4.53199,41.5862,-25.8232,-67.5045,-38.4007,-60.6357,37.8531,24.1873,11.5209,24.5558,-17.6214,-75.6199,-1.03482,-67.4413,-157.136,-918.904,-367.952,-11900,-18620,11060
53.1317,52.5002,12.4664,-7.81778,-39.6489,-38.7263,-53.8887,-20.5483,80.9404,39.6771,31.4801,18.32,3.37745,-34.0434,-40.55,-39.6562,-159.088,-915,-365.512,-11900,-18900,10220
9.62777,22.0008,25.0992,-18.3271,-2.24791,20.4885,-2.89858,27.0152,22.0023,19.9143,22.3702,9.14224,18.5549,21.4353,-19.6119,22.0555,-157.136,-915.488,-367.464,-13440,-20020,9800
-3.92902,-13.5922,3.51464,-11.575,13.548,18.3922,27.9557,21.8085,-5.08313,-3.28867,-10.4148,4.11962,2.88362,19.2804,14.4944,26.9013,-153.72,-916.464,-363.56,-15260,-20860,9660
-9.58667,-31.7025,-11.0315,-26.081,-7.79488,2.70063,-0.313789,5.56717,-13.322,-10.1488,-7.89109,-12.5349,-5.33014,-3.49192,-8.49135,1.29948,-148.84,-916.464,-361.608,-17220,-21420,9660
-9.03508,-31.9964,0.256647,-28.5512,-24.1459,6.47934,-18.4186,10.0761,-19.7358,1.01263,-5.07856,-16.2912,3.61323,-6.99981,-14.0292,-6.3139,-148.352,-922.808,-366.488,-18060,-21280,9520
4.58474,10.8674,9.01297,2.78177,4.79937,0.190526,2.09438,2.16836,15.4763,1.5806,5.28962,12.5184,3.13928,-0.461311,3.64538,-0.0182834,-147.376,-927.688,-374.784,-18200,-21280,9520
5.47177,25.0326,-7.05275,10.8062,9.06137,-15.8034,10.5587,-11.0928,35.5238,-7.72656,-0.766141,9.26245,-11.1438,-9.45003,7.27707,-0.568938,-146.888,-932.08,-375.272,-17780,-21700,9380
-10.3611,-7.97428,-1.82606,7.6207,8.59975,-3.01961,10.1281,1.28775,-26.577,-6.19863,-9.99935,3.9269,-7.80375,5.11379,2.24912,8.39609,-145.912,-949.648,-376.248,-17080,-21840,9380
-10.9259,-14.1561,-9.2217,19.3126,10.2756,-9.95223,10.4098,-3.38835,-54.677,-16.9077,-9.65404,10.6064,-21.066,-13.2371,9.71013,0.595516,-140.544,-935.008,-375.76,-15120,-23240,8820
20.172,36.1282,-19.3691,35.3126,3.07882,-17.4513,11.018,-3.22892,31.4267,-17.4045,-16.9797,17.6,-30.0558,-16.464,36.2066,1.88033,-132.736,-935.984,-367.464,-13160,-23940,8120
23.1126,50.3653,-16.5168,10.4664,-9.16759,-2.06573,-6.43199,2.75266,69.3646,-1.27707,5.70029,3.58315,-7.14608,-0.446926,9.63031,3.53086,-122.488,-923.296,-349.896,-12040,-24780,7840
-5.66053,7.6853,-1.81904,2.27564,6.95945,13.2858,8.07717,9.33238,6.30838,7.96477,10.2421,-23.4509,12.0724,13.973,7.04476,13.6231,-124.928,-914.024,-354.776,-12320,-23940,8260
-0.965389,-10.0372,26.06,6.74252,26.1709,29.0824,24.5721,16.5729,-9.91243,18.4096,8.76961,-3.63969,26.7788,38.3033,7.59857,27.9139,-126.88,-914.512,-356.728,-13440,-23940,8540
26.715,3.07446,23.372,5.96165,27.0297,21.0042,22.7671,11.8771,28.3152,23.5812,17.8152,23.8514,18.2308,32.128,4.72517,24.5088,-131.76,-916.464,-363.56,-15120,-24080,8820
5.15343,-19.4308,18.0961,-3.57701,12.065,23.6875,8.7059,14.1835,-19.8695,14.9276,6.51098,12.2349,23.4827,28.6026,1.67727,16.8992,-136.64,-915.488,-364.536,-16660,-24080,8960
-4.3101,-15.6949,4.65433,-17.2054,-12.8243,17.6684,-8.37508,11.4085,-6.79067,2.57653,5.60544,-16.392,14.5687,12.6512,-5.75762,3.81634,-131.272,-919.392,-366.976,-19180,-24360,8820
-18.8028,-16.7447,-7.86084,-19.4096,-10.8821,5.98502,-0.503187,4.00364,-0.540277,-16.4243,-10.886,-21.0021,-4.3152,1.19993,-2.82239,1.4347,-134.2,-927.2,-370.88,-20440,-24220,8260
-21.459,-40.0356,-13.3529,-25.6693,-13.1251,-1.98525,-4.36056,3.48153,-30.5729,-27.0916,-30.1739,-12.4695,-25.5182,-9.55308,-9.58413,-5.78964,-137.616,-922.32,-371.856,-20020,-23100,7560
-5.39466,-18.3554,-14.1323,-19.9088,-5.87559,12.1388,-10.9445,11.6631,-18.7663,-27.627,-11.5738,6.2846,-4.44578,13.8187,-27.0278,1.40602,-137.128,-924.272,-369.904,-17640,-22680,6300
-18.9387,0.4012,1.39941,-9.09332,13.4949,22.4766,0.0887503,12.0771,-24.745,-9.60742,-9.57922,-7.82947,20.6567,27.7185,-26.3233,11.9001,-145.912,-909.632,-379.176,-15540,-22400,5880
-24.7453,12.7864,30.4982,5.04338,18.4955,27.5468,1.50068,7.09272,-13.1327,13.5108,8.92745,-12.034,39.0228,35.1685,-15.1161,8.81963,-150.304,-901.336,-382.104,-14840,-21840,5320
-37.1498,-48.3714,15.9357,-3.34567,4.80926,-4.20136,-14.5658,-23.8863,-83.5523,8.65398,2.8728,-11.5696,18.4696,-0.304294,-5.68525,-25.777,-153.232,-902.8,-375.272,-15820,-21420,5460
-22.682,-52.7685,-24.3414,-8.9383,-19.5335,-54.357,-35.7992,-49.0146,-74.6054,-5.0309,-13.4074,-12.7025,-30.9003,-64.5868,-14.7148,-58.2648,-153.72,-901.824,-382.592,-14700,-20860,5740
52.3569,55.6954,-7.81537,26.508,-21.1486,-48.8497,-29.3581,-32.5319,84.1403,15.9649,14.6754,23.3333,-23.5381,-51.7396,-6.60722,-41.8988,-152.256,-900.36,-375.272,-15680,-19880,6020
36.6577,43.943,3.66999,13.1024,-8.93013,-17.8943,-6.82479,-7.51629,64.579,8.70198,10.7211,26.2094,1.90655,-14.906,1.89183,-6.44982,-156.648,-905.24,-377.224,-15960,-18760,6160
-11.1291,3.97488,-12.941,-9.96639,-10.1694,-25.0091,-0.100117,-6.70676,11.3154,-22.5201,-8.43905,6.61143,-28.7306,-42.0382,-10.554,-9.76349,-160.552,-905.728,-376.248,-15960,-17080,6580
18.9621,50.1877,-59.398,46.9242,-16.6642,-102.552,6.83192,-39.3215,26.4281,-16.3727,-36.2122,19.8273,-104.64,-126.854,38.2552,-43.1608,-160.552,-904.752,-366.976,-16100,-16240,6720
64.0939,58.8369,-38.5346,36.3742,-46.6292,-55.7695,-7.65271,-12.9012,59.6504,17.9583,10.0937,10.8854,-34.076,-54.9424,45.3808,-18.403,-158.112,-907.68,-354.776,-16660,-15820,7280
42.7159,43.4869,11.2343,-3.3161,-22.6633,54.6955,19.4518,46.9306,89.7451,13.0233,46.3241,-21.1667,39.2485,61.3865,57.5786,51.9074,-158.112,-914.512,-349.896,-18200,-14980,7700
-43.9393,-21.0584,14.6293,-55.1349,15.9269,90.5085,33.5519,61.6531,13.7313,-14.0069,8.48733,-45.0982,48.7909,90.4787,7.15907,72.5074,-161.528,-918.904,-352.824,-18620,-14280,7700
-80.4726,-84.001,37.5455,-60.9582,32.5579,70.6911,20.7444,32.7248,-95.7467,-3.30801,1.76322,-59.0912,45.698,75.7624,-46.2813,46.9011,-160.552,-931.104,-359.656,-18340,-14140,7560
-26.428,-65.4527,24.3714,17.8201,44.9222,-8.60876,27.4528,-23.1591,-94.9807,11.4635,-6.5338,14.5927,-5.18648,5.57582,-1.91309,-0.863467,-160.064,-933.544,-364.536,-17220,-14140,6860
64.5649,53.814,18.1342,77.7049,33.7032,-16.9903,11.1091,-21.3343,50.8413,32.2413,4.88461,79.8091,4.26641,-0.494377,32.4299,-20.3599,-160.552,-930.128,-369.416,-14700,-14140,6440
48.0148,76.7914,23.2463,37.054,10.6025,21.5142,-13.5353,2.73562,60.0226,27.9396,19.616,39.3806,38.2289,24.878,8.20717,-0.67152,-162.992,-928.176,-377.224,-12880,-13720,5740
-28.6204,-2.77464,6.42775,-25.77,-1.46855,8.6392,-21.5924,-11.8611,-8.06959,-11.0563,-11.9604,-18.962,18.1063,11.8905,-42.294,-12.0472,-162.016,-922.808,-383.568,-11340,-13440,5040
-52.0429,-38.7354,-0.0389385,-11.6269,13.2815,2.43406,-7.72117,-10.4,-48.3851,-34.2692,-15.2536,-6.44219,-3.48971,0.810335,-16.479,-16.859,-162.992,-923.296,-380.64,-10220,-13440,4200
8.53689,0.584682,15.5163,26.0149,13.7501,22.5018,6.10042,15.7996,-5.26013,6.04379,8.55267,29.3859,5.55376,22.973,26.2135,9.85867,-162.016,-918.904,-382.592,-9520,-13720,3780
-5.94063,-39.5396,-14.8002,-44.2291,-25.3304,-14.283,-34.1912,-2.3592,-48.2885,7.62916,-3.37844,-11.0496,-13.1235,-24.5447,-62.8923,-11.6116,-158.112,-919.392,-375.272,-9100,-14700,3500
-18.0807,-48.3342,-62.9879,-43.9502,-44.8068,-81.1893,-30.5584,-33.5482,-40.2374,-21.1324,-17.5853,-38.8864,-71.7442,-104.558,-47.3217,-38.6512,-153.72,-922.808,-376.736,-9380,-15400,2800
20.0155,14.1599,-23.4767,15.1635,-24.707,-24.8297,19.0888,6.21555,36.5917,4.61833,-1.1094,-12.7551,-16.4543,-21.7257,43.062,13.532,-156.16,-923.296,-380.152,-8960,-15400,2240
26.8579,18.2885,42.6585,-1.18702,5.99654,51.9925,34.3661,36.9982,40.145,28.2409,22.1434,-1.22816,44.7482,56.9212,48.1573,45.9646,-155.672,-922.32,-384.056,-7980,-15680,1680
15.1309,6.07328,29.434,1.79196,29.5676,39.1048,22.1496,12.547,30.9982,-2.82603,-10.3907,24.4309,9.08735,46.9728,37.9869,15.2668,-152.744,-923.296,-380.152,-6580,-14840,700
8.5507,-0.983007,-5.03044,8.94278,23.3549,28.013,-4.0173,2.38214,-0.651656,-7.28574,-5.85961,25.1105,24.5817,29.9042,5.22561,-4.07561,-150.304,-923.296,-383.568,-5040,-14140,0
9.61911,33.5403,13.9726,10.4781,2.64662,20.1611,-18.2354,5.22794,28.7734,20.6023,24.8831,-23.7503,36.3807,22.5144,-25.3119,2.10077,-154.208,-918.904,-381.616,-3500,-14000,-980
-27.0607,-22.8684,9.537,-26.9089,-11.5008,-10.4889,-14.7086,-7.14307,-14.4026,1.67705,-2.03134,-33.2848,10.4921,-6.88566,-42.6045,-8.20568,-151.28,-917.928,-387.472,-2520,-13720,-1400
-28.164,-58.0875,0.0661669,-13.7197,-4.92081,-28.9203,1.33668,-19.5631,-76.1964,-3.01358,-2.19358,-3.12352,-7.2875,-33.8001,-10.1397,-23.8346,-150.304,-915.976,-382.104,-1680,-12880,-2100
21.1505,-12.2959,15.7715,3.67228,1.0267,-12.6138,3.10745,3.82159,-28.8363,-3.3718,-16.6723,44.065,-38.9847,-1.9406,-1.10524,-2.677,-151.768,-913.048,-385.032,-1120,-11900,-2520
100.035,127.964,-0.80106,75.896,55.4368,23.7618,44.3403,40.1614,122.266,-15.8967,-22.8701,123.29,-39.1526,43.9906,46.3597,42.2885,-153.232,-915.976,-385.52,-1120,-11060,-2660
18.2001,124.38,-52.9491,61.9268,36.0135,25.4161,33.818,31.8881,92.036,-42.8571,-8.01673,25.3384,-1.90029,25.0799,32.4739,35.3256,-153.72,-914.512,-384.056,-140,-8680,-3080
-100.617,-44.996,-48.1697,-45.3417,-44.3404,-5.58036,-15.11,-2.22209,-48.8713,-45.364,-14.8587,-142.664,-2.67492,-21.628,-24.5957,-2.75895,-155.184,-915.488,-386.984,840,-7140,-3360
-93.725,-113.929,-21.1559,-62.477,-55.1195,-22.3546,-30.0534,-25.8261,-96.5908,-18.4584,3.93712,-109.279,-1.77207,-36.9997,-26.3528,-26.5489,-157.136,-912.56,-381.128,1820,-4760,-3920
-31.6137,-89.5501,-0.626445,-27.6566,-24.6997,-46.1174,-20.9497,-43.4443,-87.6264,8.97138,3.22424,-25.2621,-7.95762,-49.6214,-6.96085,-40.592,-160.064,-913.536,-381.616,1680,-2100,-4060
6.68054,-66.233,13.0716,-32.0614,-23.6142,-33.6479,-30.0237,-28.5419,-84.0708,18.9537,-5.51615,17.5978,-11.1428,-38.0051,-42.8917,-32.0599,-160.552,-914.024,-379.176,1820,-420,-4200
33.9675,-3.63726,4.92105,-30.2346,-29.224,-10.5224,-33.4225,-4.7867,3.65313,17.602,14.4836,27.5955,-0.531217,-19.9507,-49.6582,-11.0933,-164.944,-915.488,-377.712,2240,2240,-4480
26.9089,44.8237,2.99842,12.0628,2.24559,9.89947,8.10821,11.2715,65.0401,6.66403,6.40343,4.70413,6.10984,6.38321,8.69559,14.5341,-167.872,-913.048,-376.736,2520,3500,-4340
3.43023,41.1824,-0.187692,24.2936,7.15873,10.4106,17.9732,7.49314,53.8438,3.57506,1.82655,-5.58378,0.326759,4.76861,30.2774,9.78232,-166.896,-913.536,-372.832,2380,5040,-4340
5.54531,21.1558,-8.25586,14.0233,1.6607,-21.8536,-0.645847,-20.7922,40.6446,3.04494,-4.30685,1.25795,-18.6429,-18.377,23.2055,-17.2615,-170.312,-915,-374.296,2100,6160,-4760
-1.13689,-4.14325,13.6177,10.1,6.54088,11.2994,-1.52011,1.70118,-17.9375,8.01078,7.92839,13.266,12.6245,15.4333,10.7954,-1.1252,-168.848,-913.536,-371.368,1820,7560,-5040
12.8701,23.2747,18.705,7.67596,9.40258,3.89331,-9.4862,-2.62788,8.57781,21.7247,22.806,18.5676,16.8701,4.42247,-9.8019,-3.67024,-164.456,-912.56,-372.832,1820,8820,-5740
-10.6054,-11.6824,-1.7591,-4.97057,2.20281,-17.4975,-6.62317,-14.2314,-9.79748,5.52197,-1.56641,-1.04339,-4.07633,-21.8002,-5.33743,-14.7826,-161.528,-913.536,-368.928,1260,9520,-6160
-2.29334,-4.23024,20.8909,12.2137,4.59697,21.0475,10.8681,12.6084,1.33517,12.9311,14.3421,13.5808,19.1986,28.5895,26.8426,15.6001,-160.552,-916.464,-365.024,420,10640,-6440
-21.6519,-43.46,9.38014,-52.3025,-14.3401,17.1081,-17.4762,9.33848,-32.6492,2.10891,4.45297,-6.4863,13.1518,18.925,-34.2443,5.09886,-156.16,-921.344,-361.608,-560,11060,-7000
-19.3519,-20.7808,-4.422,-37.7223,-4.1794,-0.541173,-19.8731,-5.31175,-17.4524,-7.86177,-7.37477,-3.83382,-3.68469,-2.38275,-37.2012,-12.4235,-146.888,-919.392,-362.096,-1540,12040,-7280
3.13067,46.9508,-7.23804,24.9759,13.5318,3.61848,2.74551,2.7385,51.6013,-5.91581,0.907315,14.6063,-4.10379,5.58502,-3.79349,4.63865,-146.888,-922.32,-359.656,-2240,12040,-7420
9.21364,56.6562,20.4644,65.6561,41.1211,35.3756,43.8492,28.9879,23.375,7.39197,-3.45381,23.3259,17.7754,45.0526,50.3115,41.1983,-145.424,-920.368,-357.704,-2660,12320,-7560
35.1568,38.5466,37.1261,59.8465,54.1895,43.1472,62.5899,32.1853,18.1113,28.6266,13.5105,37.4611,32.1286,59.8777,78.8834,51.1282,-142.984,-922.808,-358.192,-2380,13580,-7980
39.9965,-8.28905,31.3532,8.94919,38.7782,24.807,40.4481,17.8091,14.9149,27.632,8.93499,31.6946,24.0321,41.1274,38.3891,31.2958,-145.912,-924.272,-361.608,-2100,14700,-8400
39.8187,32.3442,16.8698,29.14,29.6973,6.3547,17.8916,3.05649,48.9376,13.3489,-3.40859,35.7804,3.42892,14.1844,28.4991,3.69463,-145.424,-920.856,-362.096,-700,16660,-8960
13.9,47.3988,-15.4753,33.9598,7.71545,-9.14359,-0.117384,-3.75829,40.2701,-15.8938,-6.71937,15.1888,-13.5433,-13.343,12.6641,-9.61531,-142.008,-921.344,-366.488,0,17920,-9240
-41.9717,34.4059,-48.3147,29.6933,-8.57896,-37.7558,-11.5795,-18.3539,-21.3178,-54.4492,-37.6913,-19.9372,-37.3455,-48.4673,-10.3528,-27.4117,-142.008,-916.952,-367.952,840,19040,-9800
-46.5129,-33.7633,-62.1616,-25.7318,-47.778,-63.4273,-32.455,-30.8067,-51.3888,-56.6929,-40.8231,-61.8363,-62.6629,-78.3463,-39.8124,-43.6905,-144.448,-918.904,-374.784,2380,20720,-10360
18.965,-39.4781,-37.4925,-41.8332,-55.7506,-47.1389,-29.4679,-28.467,-5.42025,-15.5774,-10.7531,-31.0025,-34.4909,-62.1502,-26.529,-32.354,-140.544,-915,-372.832,3500,22120,-10920
42.7116,7.85207,-6.98233,6.2627,-28.8472,-24.8129,-1.99782,-11.0329,33.4423,22.5714,23.2569,-3.37756,6.38002,-34.8343,21.0757,-14.0471,-145.912,-915.488,-380.152,5320,24080,-11480
30.7166,15.1763,34.4539,-8.51543,-3.89184,23.7314,7.04101,24.9036,41.2178,41.3365,48.4588,-3.6023,36.3307,34.2327,15.3683,21.5163,-145.912,-913.536,-382.592,7280,25480,-12180
1.7289,-20.9769,22.4413,-34.1979,5.86547,27.6413,-2.07248,20.9393,-6.28736,16.956,14.2462,-5.4231,18.8784,36.3386,-15.7542,20.205,-143.96,-914.024,-382.104,8820,26600,-12880
-16.7443,-56.5883,-5.4905,-40.8829,0.202871,2.80091,-12.6825,-1.00755,-45.6755,-9.12877,-8.64948,-10.7686,-5.06795,5.16733,-46.6727,-0.185602,-146.4,-910.608,-384.544,10500,27160,-13720
-28.7917,-64.7474,-8.59571,-42.5409,-14.8954,4.88282,-16.7993,-2.53085,-66.9383,-16.0443,-12.8707,-18.3433,-3.70782,-1.8434,-44.6899,-5.33935,-146.888,-911.096,-380.152,11340,28000,-14420
-16.1842,-37.9679,4.84221,-7.7119,-2.52491,12.3449,1.58753,0.917722,-52.1689,-2.13357,-3.65611,-6.11999,5.52412,10.0736,3.71867,2.31163,-146.888,-909.144,-381.128,12320,29260,-15260
-4.16331,14.4171,11.0015,21.2295,17.5938,17.4882,11.3919,2.59618,-10.06,0.577091,6.31865,12.8553,9.69657,20.6809,11.8577,9.31113,-146.4,-908.656,-385.52,13440,30240,-16380
-3.9473,26.3274,3.96202,15.9779,10.5065,8.5286,0.591813,-0.184522,12.9682,-3.25027,-6.51205,7.29058,5.50826,10.6633,-1.53094,4.62327,-145.912,-901.824,-381.128,14280,30380,-16660
-16.752,20.2813,1.39222,4.85509,3.6654,12.2333,-2.13652,5.72472,8.48877,-9.23334,0.531693,-2.50326,5.27464,10.3931,-5.85238,7.40999,-145.912,-903.776,-381.616,13720,29820,-17220
-22.1183,-5.04722,-0.654494,-4.79291,-1.7656,11.2772,-2.08018,5.76966,-19.0393,-7.47874,-3.09623,-11.1195,4.95309,7.72835,-5.20051,7.49026,-154.208,-905.24,-378.2,13440,29400,-17780
9.54021,-11.2493,10.6422,-25.4039,-4.83927,17.3074,-8.04074,7.59713,4.26101,9.99688,-5.52603,0.941823,11.7682,18.7014,-24.5579,7.98116,-150.304,-911.096,-383.568,13580,28840,-18480
16.4748,-28.3341,11.3992,-26.9788,-2.21286,13.0673,-6.65049,4.14268,-2.64047,8.90114,6.14556,1.60825,8.775,14.2365,-10.4378,3.09663,-142.008,-915.488,-387.96,14140,28280,-20440
-11.0158,-17.9247,-0.366951,-15.6836,-1.49202,7.23121,-6.63902,3.31164,-7.19922,-3.76197,-6.25215,-4.21338,-2.05787,0.842315,-13.4977,-2.64856,-149.328,-908.656,-387.472,14980,27720,-21560
-36.8869,-39.5059,-12.0603,-44.1967,-22.7183,-4.75849,-22.4014,-5.52138,-41.6791,-17.1283,-11.7813,-24.8008,-11.7473,-10.4746,-53.3753,-14.3677,-149.816,-907.192,-391.376,16380,27860,-22260
-28.0077,-72.5073,-13.5422,-52.6814,-29.1925,-3.53486,-19.3068,-6.42385,-45.8426,-11.3973,-8.77497,-34.9032,-8.69658,-6.10125,-21.7382,-17.5543,-145.912,-901.336,-390.4,16940,27160,-22680
8.89065,2.38436,16.2632,-1.35209,4.3368,14.0461,-4.5463,3.5603,11.9815,13.265,4.296,6.59785,15.921,19.7232,-5.76567,-1.7511,-138.104,-905.728,-378.2,16800,26880,-22960
14.3096,45.5066,23.605,51.7338,39.3209,8.63272,17.9331,-8.5202,23.1377,21.2944,18.7535,36.3282,22.5971,18.1077,37.0111,-1.72262,-135.176,-911.096,-373.808,15400,27160,-22820
10.2709,47.1947,-0.208565,69.3395,43.2102,-43.405,26.0252,-38.1448,22.8884,4.64749,-7.68782,33.3173,-14.4611,-27.4542,58.4691,-18.0046,-132.736,-914.512,-370.88,15120,27860,-22540
24.4147,66.5476,-29.1692,65.7671,9.77326,-97.6609,-2.91689,-56.4853,55.157,-14.7361,-16.9661,36.683,-64.7705,-105.443,27.6676,-50.674,-134.2,-915.488,-372.832,15540,28700,-22400
22.9388,101.372,-66.6283,78.7596,-40.8843,-83.5111,-13.7611,-26.3074,88.2558,-25.8864,-13.3524,32.0631,-83.4782,-114.573,49.563,-44.9215,-136.64,-915.488,-371.368,15680,28980,-22260
7.78182,71.1822,-27.2107,50.6629,-41.765,-3.96017,16.6747,29.8861,51.5218,7.59647,26.4898,-15.5031,9.68389,0.923007,79.5684,26.4348,-143.472,-925.736,-374.296,14980,29260,-22120
2.85046,8.93362,44.6882,-25.3099,4.92184,42.6498,22.9119,34.4834,26.8122,48.6208,58.5494,-41.5676,68.7957,54.4664,32.3244,44.4205,-141.032,-927.688,-372.344,15540,29120,-22260
-7.33714,-30.3107,31.2952,-44.1662,13.7121,-0.899278,-5.05117,-4.51124,-11.1896,33.7997,10.5671,-11.8703,28.7789,4.64293,-52.6591,6.59683,-144.448,-930.616,-379.176,16800,28840,-22540
-3.51799,-44.5774,49.1976,-22.5456,-1.28107,53.6861,-6.23443,25.889,-40.1536,24.597,9.07013,3.90701,50.9862,59.5324,-45.6767,23.3173,-149.816,-936.472,-390.4,19880,29120,-23660
-5.63553,-84.7388,53.1475,-79.81,-9.91121,85.953,-13.2715,41.0409,-46.1735,21.2996,14.4279,-9.14769,63.9596,83.2903,-50.2425,33.2638,-159.088,-886.208,-409.432,24360,29680,-25060
-21.7078,-85.9075,37.7629,-78.8319,23.5269,72.0008,2.83326,40.8673,-57.1555,-8.93932,-20.149,9.75053,15.6473,71.3975,-58.4631,38.9205,-126.88,-908.656,-349.896,22260,26180,-24920
-5.28805,-16.6296,-53.455,11.8918,44.0723,-28.2723,23.6919,-6.42866,-44.6393,-70.7811,-66.5155,68.4777,-102.009,-28.307,-9.44372,3.00697,-139.08,-901.336,-391.864,19040,29400,-25480
-22.6588,66.7641,-131.436,88.9563,12.676,-115.32,37.0522,-48.2982,21.8768,-84.1592,-56.2453,7.02843,-106.86,-118.348,72.2566,-38.8192,-136.152,-896.944,-394.792,19040,29400,-25480
-27.4809,113.596,-38.2801,96.4428,-9.70741,-42.0962,31.4238,-14.2957,62.1241,-25.3975,11.9389,-59.1365,-27.1133,-41.4304,98.5014,-7.78514,-134.2,-892.552,-387.96,19460,25900,-25060
-9.60502,16.6111,-3.54872,24.5922,-16.9013,-0.14313,4.95341,3.75569,-1.44926,10.7137,12.4486,-15.8318,-15.0109,-2.1192,39.5488,3.61308,-130.784,-889.136,-386.984,19460,25900,-25060
30.3441,-18.3176,18.0328,-20.4105,-7.27638,33.0943,-14.2062,14.8067,13.5357,37.3988,18.8031,-6.03189,38.5713,36.1341,-21.9282,2.71778,-119.072,-889.136,-380.64,12880,26740,-24640
33.6849,-1.78519,44.5704,-31.7521,3.88232,36.5891,-19.0512,2.61039,40.5614,39.4529,37.3443,-9.27121,63.9859,33.72,-29.1072,-1.56012,-117.608,-895.48,-373.808,12880,26740,-24640
17.2292,16.8763,56.4191,31.388,41.2072,42.6403,21.5547,10.9097,9.79479,20.3199,7.48357,36.3029,40.1713,56.7249,30.1818,17.2409,-116.632,-909.632,-374.296,7560,24920,-24500
57.8498,30.0811,22.7794,28.8726,36.8094,13.0791,4.39007,-1.92559,14.6451,2.4212,-6.6815,68.7455,3.72072,32.2795,10.9111,0.501074,-117.12,-912.072,-376.248,7560,25060,-24500
40.5418,-3.173,-25.5035,-43.162,-25.9568,-26.7475,-53.3628,-26.353,17.6014,-12.5303,-13.5968,-3.91306,-5.95149,-37.1287,-75.3336,-40.7786,-116.144,-916.464,-381.128,6440,26180,-24500
-24.7546,-49.4763,-18.6112,-57.6161,-49.6596,-15.8829,-49.8017,-15.0821,-37.5001,-14.0656,-13.9008,-69.1536,3.09245,-32.3156,-79.896,-27.3054,-111.264,-922.808,-382.104,6300,27440,-24640
-15.289,-37.2881,8.79704,-20.3432,-18.1441,9.53345,0.0451764,11.2308,-42.8702,5.21495,1.17342,-33.068,9.01739,4.48037,-13.4742,12.4013,-114.192,-924.76,-386.008,8260,30800,-24220
-4.58118,-55.6101,7.91891,-22.9342,-4.31274,13.2033,13.8109,16.0128,-67.428,-2.65464,-8.2648,-11.9623,4.25127,10.7757,7.08436,19.5389,-118.584,-920.856,-390.4,11620,35560,-23660
11.9942,-50.5255,3.80887,-31.028,-7.90913,11.4219,3.39794,7.8378,-26.0542,0.895394,13.089,-2.79109,3.40933,5.77454,4.47756,9.20059,-118.584,-908.656,-381.128,14700,39340,-23380
19.6419,5.31771,14.0987,8.18046,14.2284,11.8048,15.6149,4.59825,12.5255,14.3797,16.7819,18.8329,4.87423,15.3833,22.2438,13.0102,-119.072,-913.536,-379.664,17360,43120,-22960
-1.09851,-6.91487,-5.35653,-0.939942,3.37731,-15.4265,2.65842,-11.5166,-0.769251,5.59624,0.720664,3.80138,-10.1113,-7.61932,5.55546,-3.77586,-125.416,-918.416,-395.28,17220,45500,-22400
-8.73401,-0.306227,-11.4008,-5.28716,-9.79335,-24.6807,-12.8951,-14.134,8.68948,-0.629367,3.75038,-4.45839,-11.6643,-22.2192,-15.773,-15.2551,-131.272,-920.368,-406.016,18060,47040,-21560
-20.5624,10.998,-8.84758,-6.36732,-17.0174,-13.0908,-17.4883,-3.64672,7.48947,-1.98698,-3.61438,-6.20744,-4.92109,-22.9439,-26.2865,-15.1482,-136.64,-912.56,-415.288,20720,47320,-21560
-20.0158,18.3989,2.33732,4.39779,-11.4859,0.0726754,-8.83199,2.00611,-3.00642,4.20015,7.07875,-1.84289,2.21086,-2.33295,-12.733,-4.64623,-138.592,-909.632,-414.8,24500,46760,-21700
-12.2439,12.1249,1.73276,12.1429,3.84595,-1.35709,-1.57874,-2.14767,-10.9636,3.06676,-0.301378,8.82545,-1.67718,2.17338,-4.04548,-2.23779,-134.688,-906.704,-411.384,27440,45780,-22260
-8.05762,-21.2842,-7.97685,-36.6602,-15.1295,-11.3251,-23.0633,-7.68271,1.1573,-0.717479,-11.8404,-1.74159,-9.30851,-15.8518,-46.1481,-15.4397,-138.104,-906.216,-414.8,28980,45080,-23100
-25.6448,-14.2514,-8.63798,-14.2494,-6.26507,-3.36605,1.56356,2.37897,-8.34363,-18.6034,-12.0476,-0.0949954,-10.6248,-6.3559,6.18595,2.55008,-134.2,-899.872,-412.36,31080,43820,-24360
-13.3566,33.3126,-1.86107,31.8161,15.0218,6.55488,26.0688,8.69594,31.8027,-11.9031,-14.5887,13.1683,-4.63969,9.94933,51.5912,16.8515,-124.928,-911.096,-383.08,32060,40740,-25200
-6.29259,47.661,7.18903,53.9742,33.8858,6.39215,29.7762,4.64821,17.1814,2.37597,4.13519,24.2473,6.71001,14.6185,49.6921,14.884,-122.488,-921.344,-378.2,31220,38780,-25760
-17.8607,22.047,2.258,46.5203,26.6987,3.06512,27.7982,3.40305,-16.8634,-2.66089,2.11893,6.6377,3.52816,7.83994,46.8678,13.3413,-125.904,-932.568,-389.912,30520,39340,-26880
-15.7089,-23.0894,-9.86239,-2.0997,-6.90124,-5.80013,4.64886,-2.04354,-11.8245,-2.0557,-2.44413,-20.5277,-7.57794,-9.62597,17.4415,-1.25088,-129.808,-929.152,-397.232,32340,39060,-28280
7.69494,-0.871185,-0.710683,-2.23195,-2.47718,2.22353,3.51314,1.33373,19.3263,3.26212,7.23077,-6.35011,-5.43657,0.382183,7.84843,1.61939,-128.832,-926.712,-393.816,35980,36820,-29960
14.9739,11.0495,0.596677,-6.51064,-2.14935,3.2453,-7.89542,-0.380108,14.6071,-0.00266824,-1.51746,4.20576,-1.91689,1.08732,-19.0264,-1.99223,-122.976,-928.664,-397.72,38080,36120,-31360
0.164268,-17.2087,-16.3876,-35.6321,-25.1848,-9.94483,-26.5105,-7.92518,3.76577,-4.84783,9.4592,-20.6008,-8.93231,-17.0446,-41.6139,-15.787,-122.976,-929.152,-401.624,40040,35980,-32480
-7.99088,-4.12852,-8.17551,-25.5997,-15.5626,-6.21645,-15.2745,-4.58361,12.5343,0.602436,10.5139,-19.1594,-1.73448,-8.30608,-31.8918,-8.13429,-117.12,-927.688,-409.432,42840,36120,-33880
5.66407,1.34386,20.6685,2.5516,10.8965,10.7721,4.84663,5.03138,7.60994,16.7786,8.90521,9.54471,16.0888,17.1151,-0.882455,5.29067,-110.288,-939.4,-407.48,45220,36820,-34860
17.1842,2.92348,20.9095,19.1606,25.2981,12.9187,21.444,8.93037,9.15812,13.8546,10.3901,24.8467,15.9026,22.3417,24.5346,14.905,-111.264,-931.104,-427,49000,38360,-35980
25.2619,20.0855,6.64606,21.8449,15.76,-0.872818,12.9667,-0.0502188,26.5493,6.42181,-8.01194,19.5058,4.70906,4.04129,23.1711,3.8931,-117.12,-900.36,-438.224,53760,41160,-36820
5.11419,25.0924,-6.25503,30.0888,8.33163,-11.6963,7.58704,-7.69518,1.98847,-10.612,-7.66636,8.78018,-7.27643,-7.60473,21.4866,-2.77764,-116.632,-894.992,-425.536,59500,40180,-37240
-11.3489,15.8113,-4.34268,25.7037,6.2865,1.80866,9.36303,3.43365,-13.0521,-15.6555,-5.81719,3.92002,2.75323,7.56091,24.4002,6.47313,-105.896,-901.824,-408.456,60620,35560,-35840
-20.9966,-34.5273,0.718851,-24.3922,-14.5343,12.7459,-12.3038,8.94525,-38.5713,-7.47309,-4.93874,-18.3262,9.78703,10.6356,-10.4143,4.76113,-105.896,-910.608,-409.92,59640,32760,-34300
-2.30327,-18.108,11.6303,-12.9645,3.49203,10.3563,-7.71512,-0.442975,-27.7041,0.929548,1.64998,0.407115,4.88061,9.67222,-18.6295,-0.0161775,-109.8,-919.392,-399.184,58520,30940,-32760
36.1547,22.0582,11.7522,9.4169,16.1974,2.4512,-1.60266,-6.37495,20.9557,4.79015,-15.759,31.8001,-6.22967,4.24727,-14.3368,-6.98118,-124.928,-925.736,-406.504,58660,30100,-31500
12.724,4.77575,-19.6973,2.96566,-4.05919,-8.27823,-8.96299,-4.63856,6.28165,-15.9574,-10.629,5.74633,-14.5931,-19.1718,-10.2216,-13.0854,-126.392,-932.08,-424.072,59640,29960,-30800
-22.7156,-9.06346,-42.0239,-16.6434,-38.1266,-37.7092,-26.4723,-16.1595,6.34725,-22.1168,-11.8739,-45.8027,-33.5795,-62.4502,-14.7434,-30.7994,-122.976,-943.792,-414.312,60340,29820,-29540
-24.4995,2.08043,-26.0056,-0.575081,-34.1177,-41.0687,-10.6217,-14.392,5.13089,-5.06177,-5.18179,-38.3955,-26.9063,-50.4874,7.47926,-19.8289,-133.224,-948.184,-388.448,62580,29680,-28420
11.9025,-11.1599,16.724,-5.60911,-10.5352,6.32673,10.9417,9.58518,-6.65996,24.628,21.5247,-4.71352,15.0999,13.8722,19.947,13.1452,-132.736,-951.6,-397.72,68040,32200,-27300
27.5579,-12.8508,28.7472,-18.5998,3.97257,32.4365,4.93212,16.8772,-1.98392,26.0767,12.7517,7.89406,28.9964,35.8761,-2.18701,18.3095,-135.176,-961.848,-408.944,75460,34860,-26320
25.3687,-1.92755,18.4951,-10.7661,16.3124,23.0163,-2.90073,8.01585,2.6811,16.9997,18.974,15.362,17.9605,26.3833,-23.9257,7.51257,-135.176,-959.896,-423.584,83440,39620,-25900
23.165,4.23099,18.6716,9.06865,31.575,15.5889,12.2937,5.82438,-4.82926,18.3612,6.98711,29.0153,13.4366,25.1327,-11.2033,14.2854,-145.424,-955.992,-430.416,89040,43260,-25760
