-31870.681866,-22570.568034,-33581.842015,32238.971560,-30650.477785,-4794.650351,-17876.522884,-29002.081335,-13589.972388,-29140.550392,-13079.369137,-28183.627508,50395.226526,-8411.453177,-12663.783153,-11286.491011,-10.736000,-916.463989,-380.152008,7980.000000,-140.000000,-1260.000000
74618.862524,-183236.672966,55789.998864,64333.394388,166973.476645,29227.029291,-54312.526204,-179077.169785,-5973.213133,121530.949656,81921.155086,-166795.355594,77603.848589,-1514.330687,-57173.013052,-170288.106237,-14.640000,-913.536011,-383.567993,7840.000000,140.000000,-2520.000000
-32227.281598,-23205.089355,-33488.478778,31463.410731,-31071.986982,-5043.268805,-18472.465095,-29226.314035,-14124.492004,-29309.551932,-13210.819746,-28118.829801,50238.518445,-8113.772644,-13085.493515,-11361.324651,-11.224000,-951.112000,-301.096008,3080.000000,-1120.000000,2660.000000
-32222.677138,-23200.976634,-33486.377714,31464.863594,-31069.863566,-5043.648785,-18470.878121,-29226.515201,-14115.998342,-29305.483914,-13207.601095,-28114.001824,50240.038364,-8115.270211,-13082.006643,-11357.927186,-7.320000,-945.255981,-298.656006,3360.000000,-1400.000000,2380.000000
-32191.451751,-23167.113741,-33458.594496,31487.528263,-31035.553638,-5008.914174,-18439.764492,-29192.540549,-14082.895408,-29280.338202,-13182.544790,-28085.883330,50269.140335,-8105.837775,-13065.756925,-11330.412189,-5.368000,-946.231995,-297.679993,2520.000000,-1680.000000,1960.000000
-32190.535330,-23168.566605,-33457.588668,31484.846054,-31036.470060,-5006.723703,-18439.719789,-29186.326764,-14083.990644,-29283.087466,-13182.589493,-28090.018402,50268.983873,-8104.809595,-13066.650995,-11331.976811,-8.296000,-951.600037,-296.216003,1960.000000,-2100.000000,1960.000000
-32224.197057,-23207.749213,-33487.964688,31458.985085,-31074.155101,-5047.537988,-18471.168693,-29222.089556,-14120.871022,-29315.765717,-13212.429072,-28125.960007,50234.271614,-8117.728903,-13081.514905,-11361.190541,-6.832000,-953.552002,-294.752014,980.000000,-2380.000000,1960.000000
-32231.304912,-23216.399338,-33498.268842,31452.681893,-31086.359154,-5061.329014,-18479.014156,-29235.299436,-14127.688304,-29323.611179,-13220.498052,-28131.883220,50222.983983,-8128.077761,-13087.371062,-11371.271178,-1.952000,-959.408020,-296.216003,0.000000,-2380.000000,1960.000000
-32205.354536,-23188.794933,-33477.884052,31470.920917,-31057.234831,-5026.370886,-18452.929670,-29207.560922,-14101.961446,-29303.852237,-13197.743976,-28106.022251,50249.247283,-8124.099150,-13080.620835,-11352.003974,-0.976000,-962.335999,-297.679993,-140.000000,-3080.000000,2100.000000
-32196.078562,-23180.413029,-33472.944316,31476.598260,-31045.768386,-5014.435055,-18445.598298,-29197.167360,-14095.255923,-29299.426591,-13194.927656,-28100.210798,50258.635015,-8120.746389,-13080.844352,-11348.830026,-1.464000,-960.872009,-299.631989,280.000000,-3500.000000,2520.000000
-32222.855952,-23207.525695,-33499.051154,31460.482652,-31074.982116,-5051.740116,-18471.414563,-29227.945713,-14122.256830,-29325.846353,-13223.448482,-28126.921132,50229.465989,-8127.273098,-13088.153373,-11373.416945,-1.464000,-959.895996,-301.584015,560.000000,-4200.000000,3080.000000
-32235.261170,-23214.991178,-33505.868436,31457.152242,-31086.202691,-5067.676910,-18477.784810,-29240.932076,-14131.264583,-29334.697644,-13235.183148,-28134.476022,50217.574861,-8129.776493,-13084.241818,-11379.943655,-3.904000,-957.455994,-302.559998,980.000000,-4620.000000,3500.000000
-32203.544045,-23184.168122,-33476.319429,31476.106522,-31054.530269,-5032.987002,-18449.934536,-29210.734869,-14097.111117,-29307.294405,-13208.249296,-28105.239940,50248.755544,-8123.048618,-13074.697623,-11353.032154,-4.392000,-958.432007,-298.656006,980.000000,-4900.000000,3920.000000
-32185.193263,-23169.818302,-33462.818976,31485.404847,-31039.465194,-5012.132825,-18438.445740,-29191.691183,-14079.676757,-29294.173931,-13192.088985,-28092.834722,50265.385242,-8117.974772,-13075.032899,-11344.203215,-2.440000,-957.455994,-295.727997,1260.000000,-4480.000000,4200.000000
-32212.350632,-23198.383832,-33485.304831,31466.025885,-31070.601174,-5042.553549,-18466.944214,-29218.915608,-14109.583391,-29319.967844,-13214.194860,-28118.382766,50238.764315,-8124.367371,-13085.493515,-11368.298396,-8.784000,-953.064026,-298.167999,980.000000,-3640.000000,4340.000000
-32235.931723,-23221.383777,-33508.483590,31449.820870,-31097.646785,-5070.292064,-18490.592359,-29249.224573,-14132.203356,-29340.687912,-13234.669058,-28138.298170,50211.428131,-8136.169092,-13089.539181,-11384.592817,-11.224000,-952.575989,-293.776001,700.000000,-3080.000000,4620.000000
-32213.982310,-23201.714242,-33493.329107,31461.689646,-31076.479683,-5047.158008,-18474.655566,-29232.013730,-14108.331693,-29323.834696,-13219.067540,-28118.248656,50227.968422,-8133.173958,-13083.683024,-11366.174980,-14.640000,-945.255981,-301.584015,420.000000,-1960.000000,4900.000000
-32194.558644,-23180.278919,-33473.927793,31479.213414,-31048.450595,-5020.224156,-18447.766417,-29205.728079,-14088.684510,-29310.848333,-13206.997598,-28099.964929,50246.252149,-8120.209947,-13073.624739,-11346.728962,-18.544001,-945.255981,-300.608002,-1120.000000,-700.000000,4900.000000
-32211.948301,-23196.103954,-33489.529310,31468.216356,-31066.510804,-5042.151218,-18460.618670,-29228.951541,-14107.772900,-29329.512039,-13225.102511,-28118.919208,50228.035477,-8124.277964,-13076.195189,-11364.342137,-20.984001,-943.304016,-299.144012,-2800.000000,420.000000,4760.000000
-32235.730557,-23217.181649,-33508.796514,31450.133795,-31096.283328,-5072.035500,-18483.484505,-29255.997152,-14128.492967,-29351.148528,-13243.542700,-28140.131013,50203.649724,-8135.230319,-13081.984291,-11384.101079,-14.640000,-953.552002,-302.559998,-4060.000000,3920.000000,3500.000000
-32216.150429,-23196.886265,-33493.351459,31461.063798,-31080.033610,-5053.148276,-18469.291147,-29239.233344,-14104.017807,-29331.769566,-13224.610773,-28123.613074,50220.301774,-8131.944612,-13074.563512,-11368.007823,-23.912001,-947.695984,-305.976013,-700.000000,1820.000000,2800.000000
-32185.975574,-23167.851349,-33469.278630,31482.119141,-31049.635237,-5018.883052,-18442.714923,-29206.398631,-14075.944015,-29304.053402,-13196.514630,-28100.635481,50249.224931,-8126.893118,-13064.460524,-11345.298451,-21.472000,-952.575989,-304.024017,-5040.000000,1680.000000,2660.000000
-32199.118400,-23179.608366,-33480.298040,31474.676010,-31062.800415,-5032.338802,-18454.963679,-29217.395689,-14090.226780,-29314.223446,-13207.221115,-28115.164115,50236.864416,-8129.374162,-13068.305024,-11358.061297,-17.568001,-952.575989,-302.559998,-4480.000000,1540.000000,420.000000
-32228.399185,-23208.732689,-33506.538988,31454.112405,-31095.813941,-5068.570980,-18486.077307,-29253.113777,-14119.954600,-29338.519792,-13230.131654,-28141.382711,50207.293058,-8138.851302,-13078.430364,-11385.129259,-16.104000,-950.624023,-307.440002,-4340.000000,280.000000,-840.000000
-32217.089202,-23199.479067,-33501.778066,31459.722693,-31087.432037,-5061.820753,-18480.042336,-29250.252754,-14106.387091,-29331.255475,-13221.816805,-28130.139784,50215.071465,-8142.919319,-13075.546989,-11379.630730,-9.272000,-954.040039,-309.880005,-4200.000000,-700.000000,-2100.000000
-32185.796760,-23172.075829,-33477.369961,31479.392228,-31055.603153,-5027.510825,-18453.153187,-29220.122602,-14075.474629,-29304.746307,-13196.291112,-28101.998937,50246.565073,-8138.516025,-13068.595596,-11360.318823,-3.416000,-954.528015,-308.416016,-2660.000000,-1960.000000,-3500.000000
-32193.642222,-23180.189512,-33483.829616,31478.475807,-31060.051150,-5031.400029,-18453.622574,-29223.140088,-14085.778783,-29310.982443,-13202.996636,-28110.894932,50242.675870,-8137.756066,-13066.606291,-11366.845532,-1.952000,-953.064026,-304.024017,-1400.000000,-4060.000000,-4480.000000
-32229.829696,-23211.213733,-33513.691546,31462.449606,-31091.969441,-5068.749794,-18479.617653,-29256.399483,-14121.139243,-29340.665560,-13233.976154,-28140.220420,50210.332896,-8146.897930,-13069.109687,-11390.247809,1.952000,-953.552002,-307.928009,0.000000,-5740.000000,-5040.000000
-32230.120269,-23208.464469,-33516.194942,31462.226088,-31091.701220,-5070.068547,-18482.478676,-29262.054475,-14118.613496,-29339.749138,-13234.602002,-28135.235981,50209.416474,-8147.747296,-13071.613082,-11390.560733,5.368000,-950.624023,-305.976013,1540.000000,-6720.000000,-5040.000000
-32191.004716,-23173.282823,-33487.808226,31481.739161,-31058.620639,-5032.428209,-18454.136664,-29227.342215,-14077.039251,-29307.428516,-13206.192935,-28101.931882,50243.145256,-8141.891139,-13062.292404,-11365.772649,2.440000,-949.160034,-309.391998,1960.000000,-6860.000000,-5040.000000
-32185.327373,-23168.074866,-33485.237775,31485.471903,-31053.904421,-5027.220252,-18449.554557,-29220.346119,-14073.038289,-29303.785181,-13205.656493,-28099.294376,50249.157876,-8141.935842,-13057.531483,-11368.320747,4.880000,-949.648010,-309.391998,2660.000000,-6720.000000,-4760.000000
-32215.926911,-23196.908617,-33511.746944,31465.377684,-31087.834369,-5064.659424,-18478.097734,-29253.985495,-14102.117908,-29330.540220,-13234.847872,-28126.116470,50216.569032,-8149.535435,-13065.399297,-11397.623884,1.464000,-947.695984,-311.832001,3080.000000,-6160.000000,-4340.000000
-32223.571208,-23200.462544,-33518.921854,31461.957867,-31093.869340,-5073.600122,-18483.439801,-29263.283821,-14106.387091,-29336.128156,-13240.994601,-28128.083423,50204.767311,-8151.390630,-13063.901730,-11401.557791,0.976000,-944.280029,-313.295990,3360.000000,-5600.000000,-3080.000000
-32190.825902,-23169.348916,-33492.278575,31482.432065,-31059.917040,-5038.284366,-18455.813045,-29232.170192,-14075.318167,-29308.009661,-13215.178337,-28097.617995,50232.461123,-8144.618052,-13056.011564,-11378.244922,1.464000,-943.304016,-316.712006,4060.000000,-4900.000000,-1820.000000
-32178.599498,-23162.017544,-33484.500168,31488.422333,-31048.919982,-5026.415590,-18446.313554,-29218.848553,-14068.165608,-29297.303176,-13208.249296,-28092.454742,50242.742925,-8143.031078,-13054.402239,-11373.394593,-1.952000,-943.791992,-312.320007,4620.000000,-4340.000000,0.000000
-32209.735478,-23197.802686,-33512.573959,31466.964658,-31082.984040,-5062.983044,-18472.800371,-29248.822242,-14101.045025,-29321.554818,-13234.646706,-28124.775365,50213.328029,-8153.849322,-13062.135942,-11398.607361,-4.880000,-944.768005,-312.320007,5040.000000,-4200.000000,1540.000000
-32225.269941,-23212.420727,-33527.415517,31456.749911,-31099.971366,-5084.708939,-18488.178371,-29264.803739,-14113.271429,-29333.043615,-13247.141331,-28136.040644,50195.513689,-8163.617034,-13058.358497,-11411.034931,-5.856000,-944.768005,-309.880005,4760.000000,-3500.000000,3080.000000
-32191.764676,-23178.110800,-33501.912177,31477.089998,-31068.410703,-5050.510770,-18465.066667,-29237.892239,-14077.195713,-29308.009661,-13222.532060,-28105.530513,50222.045210,-8157.693822,-13046.512073,-11390.828954,-6.832000,-944.768005,-310.856018,3780.000000,-2660.000000,4060.000000
-32169.368228,-23156.161387,-33483.114360,31491.596281,-31044.203764,-5022.705200,-18446.201795,-29214.177038,-14057.883806,-29294.553911,-13206.259990,-28086.509178,50242.675870,-8146.026212,-13038.867776,-11375.853285,-8.296000,-944.768005,-311.832001,3080.000000,-840.000000,4620.000000
-32197.397315,-23183.810494,-33506.181360,31474.631306,-31073.596307,-5051.695413,-18469.961699,-29237.154631,-14087.343405,-29321.487763,-13228.030590,-28113.688900,50218.066599,-8151.278871,-13045.550948,-11397.601533,-11.224000,-942.816040,-308.416016,2520.000000,-140.000000,4760.000000
-32218.653824,-23202.563608,-33523.883942,31461.980219,-31098.183226,-5077.802250,-18491.128801,-29260.467501,-14106.789423,-29338.944476,-13243.676811,-28131.212667,50196.608924,-8160.107811,-13048.031991,-11414.678265,-11.712000,-948.671997,-310.856018,1820.000000,1120.000000,4060.000000
-32193.753981,-23177.462599,-33503.320337,31476.978240,-31073.305735,-5050.309604,-18469.738182,-29237.154631,-14080.839048,-29316.637435,-13224.655476,-28105.463458,50218.804207,-8154.765744,-13039.203052,-11395.388710,-22.936001,-942.328003,-310.368011,2100.000000,3080.000000,2940.000000
-32165.993114,-23150.104064,-33480.566261,31494.010269,-31045.455461,-5019.218328,-18444.726580,-29206.935073,-14056.050963,-29295.023298,-13205.745900,-28082.888196,50243.972271,-8147.233206,-13029.323581,-11374.512181,-16.104000,-944.280029,-310.856018,560.000000,-560.000000,2940.000000
-32187.450789,-23171.315869,-33498.827636,31483.303783,-31066.108473,-5041.637128,-18459.322269,-29221.798983,-14079.676757,-29316.637435,-13227.158872,-28106.066955,50222.939279,-8154.989261,-13033.458654,-11387.252675,-17.568001,-943.791992,-312.808014,-840.000000,-1680.000000,1540.000000
-32214.742269,-23198.786163,-33524.532142,31463.678952,-31098.339689,-5078.763375,-18486.993729,-29251.504451,-14105.247152,-29339.659731,-13250.717610,-28131.167964,50193.345570,-8169.182619,-13042.511111,-11409.582068,-20.007999,-937.936035,-312.808014,-1540.000000,-1820.000000,140.000000
-32198.336088,-23183.095239,-33513.468029,31471.256193,-31084.749828,-5063.631244,-18474.543807,-29237.847535,-14087.566923,-29325.689891,-13232.702104,-28115.812315,50207.740093,-8168.869694,-13039.650087,-11398.719120,-17.568001,-939.400024,-312.320007,-2240.000000,-1680.000000,-1120.000000
-32166.440149,-23151.176947,-33485.461293,31491.551577,-31052.295095,-5027.443770,-18446.738237,-29204.766954,-14056.118018,-29299.985385,-13205.008293,-28089.705478,50238.496094,-8158.967872,-13030.888203,-11376.434431,-17.080000,-940.376038,-314.272003,-2100.000000,-1820.000000,-2800.000000
-32177.548966,-23161.503453,-33492.747962,31486.544786,-31063.426264,-5038.776104,-18452.750856,-29214.646425,-14068.500885,-29310.311891,-13215.714778,-28102.602434,50229.041306,-8158.565540,-13033.168081,-11385.576294,-15.128000,-940.864014,-315.735992,-1680.000000,-1820.000000,-4060.000000
-32208.059097,-23189.912521,-33516.977253,31467.366990,-31093.891691,-5074.449488,-18478.455362,-29246.810585,-14096.485269,-29336.977522,-13240.435808,-28129.536287,50199.760520,-8167.595645,-13042.287593,-11408.352722,-13.664001,-941.351990,-310.856018,-1540.000000,-2100.000000,-5460.000000
-32198.425495,-23176.747343,-33506.427229,31472.574946,-31084.459255,-5065.218218,-18474.946138,-29241.602628,-14082.113097,-29327.813307,-13231.673924,-28116.773440,50208.120073,-8168.556770,-13040.566509,-11401.758957,-12.688000,-941.351990,-317.200012,-1260.000000,-1960.000000,-6020.000000
-32172.028085,-23146.438378,-33479.180453,31493.898510,-31050.842232,-5027.443770,-18447.207623,-29207.002128,-14055.067486,-29304.947472,-13208.629275,-28089.079629,50238.741963,-8159.638424,-13031.111721,-11375.249788,-8.784000,-944.768005,-314.272003,-1260.000000,-1820.000000,-6300.000000
-32175.269088,-23153.009791,-33485.058962,31489.674031,-31057.480700,-5029.500130,-18452.795560,-29211.092497,-14060.722478,-29310.378946,-13213.770177,-28097.170961,50233.288137,-8164.533456,-13036.587898,-11381.664739,-8.296000,-944.768005,-313.295990,-1120.000000,-1820.000000,-6300.000000
-32204.169894,-23183.586977,-33515.032651,31465.891774,-31092.997622,-5066.648730,-18482.970415,-29245.692998,-14089.310359,-29336.195211,-13238.871186,-28127.390519,50200.587535,-8182.213686,-13050.445980,-11405.335236,-5.856000,-944.768005,-312.808014,-1120.000000,-1540.000000,-5740.000000
-32203.856969,-23178.826055,-33513.132753,31469.333943,-31088.191997,-5066.693433,-18476.577816,-29247.212916,-14087.455164,-29336.351673,-13238.848834,-28122.920170,50200.296962,-8185.432337,-13042.444055,-11397.892105,-5.856000,-948.184021,-309.391998,-840.000000,-1400.000000,-5040.000000
-32172.676286,-23150.014657,-33486.243604,31490.121065,-31055.871374,-5030.260090,-18446.201795,-29216.278102,-14057.928509,-29312.077679,-13212.317313,-28094.019365,50229.465989,-8177.810392,-13028.720084,-11373.171076,-2.928000,-944.280029,-311.832001,-700.000000,-1260.000000,-4060.000000
-32167.915364,-23144.918459,-33482.264993,31492.177426,-31049.635237,-5024.023953,-18443.005495,-29215.115811,-14055.715687,-29310.200132,-13208.897496,-28091.046583,50232.125846,-8170.657834,-13027.513090,-11372.388765,-2.440000,-947.695984,-310.856018,-840.000000,-1260.000000,-3220.000000
-32199.520731,-23174.042782,-33510.227026,31471.949097,-31080.502997,-5060.166724,-18469.939347,-29247.950524,-14086.963426,-29336.955170,-13235.965459,-28119.478002,50201.213384,-8178.883276,-13033.972744,-11396.640408,-3.904000,-946.720032,-307.928009,-840.000000,-1680.000000,-2100.000000
-32202.359402,-23178.423724,-33515.636148,31466.942306,-31086.336802,-5068.772145,-18475.259063,-29254.119605,-14089.422117,-29339.570324,-13240.592270,-28123.098984,50195.267820,-8182.973645,-13034.732704,-11401.133108,-4.880000,-948.184021,-307.440002,-840.000000,-1960.000000,-1120.000000
-32172.162196,-23149.388808,-33490.110456,31485.874234,-31053.815014,-5033.366982,-18445.553594,-29219.541457,-14058.330841,-29310.602464,-13214.351322,-28096.075725,50225.286213,-8175.306997,-13025.344971,-11378.759012,-3.904000,-946.720032,-312.808014,-420.000000,-2100.000000,140.000000
-32164.652010,-23140.738683,-33480.543909,31493.965565,-31041.566258,-5021.051171,-18435.025923,-29206.555093,-14052.608794,-29300.298309,-13208.249296,-28089.481960,50236.618547,-8172.513029,-13024.808529,-11373.573407,-2.440000,-941.840027,-312.320007,0.000000,-2520.000000,840.000000
-32192.904615,-23168.007811,-33504.035593,31476.710019,-31070.288249,-5056.210465,-18461.780961,-29237.914591,-14080.950806,-29323.789993,-13235.205500,-28114.471211,50208.790625,-8182.101927,-13031.044666,-11398.517954,-5.856000,-944.280029,-313.295990,420.000000,-2940.000000,1400.000000
-32205.265129,-23181.776486,-33518.720689,31466.495272,-31085.398029,-5074.002454,-18473.761496,-29255.728931,-14089.466821,-29335.703473,-13247.901290,-28125.334159,50194.105529,-8188.248657,-13032.564584,-11407.726873,-6.344000,-945.255981,-311.343994,700.000000,-2940.000000,1960.000000
-32174.844405,-23156.228442,-33497.866511,31482.767341,-31056.229002,-5042.374735,-18448.995763,-29225.241151,-14061.683603,-29313.105859,-13222.174433,-28098.176789,50220.927622,-8182.459555,-13025.970820,-11386.492716,-6.344000,-945.255981,-310.856018,980.000000,-2800.000000,1960.000000
-32157.477100,-23143.487947,-33484.522520,31492.825626,-31037.520592,-5021.453502,-18434.623591,-29201.682413,-14049.725419,-29302.712298,-13209.344531,-28085.659812,50238.406687,-8178.592703,-13024.249735,-11376.389727,-9.272000,-945.744019,-315.735992,1400.000000,-2800.000000,2100.000000
-32181.393466,-23166.934927,-33507.321299,31477.693495,-31062.554546,-5048.789686,-18456.863577,-29226.224628,-14074.222931,-29326.561609,-13233.551470,-28108.503295,50212.188090,-8181.744299,-13031.402294,-11399.792004,-11.224000,-946.231995,-315.248016,1680.000000,-2660.000000,1960.000000
-32202.538216,-23185.173951,-33528.756622,31465.869423,-31083.364020,-5075.544724,-18473.694441,-29249.626905,-14092.685472,-29346.164089,-13251.388163,-28126.339987,50188.472889,-8185.208820,-13033.928041,-11413.895954,-10.736000,-946.231995,-312.808014,2100.000000,-2380.000000,1680.000000
-32180.298231,-23168.320735,-33513.177456,31476.866481,-31064.767368,-5053.014166,-18454.583699,-29229.622093,-14070.534893,-29326.293388,-13228.947011,-28108.257426,50208.656515,-8179.822049,-13029.815320,-11397.020387,-11.224000,-944.768005,-309.391998,2660.000000,-2380.000000,1400.000000
-32151.442129,-23143.420892,-33488.858758,31493.719696,-31037.878220,-5021.498206,-18428.074530,-29202.889407,-14045.299774,-29305.685080,-13206.014121,-28084.564577,50234.115152,-8170.389613,-13020.896974,-11378.937826,-13.664001,-945.255981,-313.295990,2660.000000,-2380.000000,1540.000000
-32165.031989,-23157.658953,-33502.023936,31483.974336,-31055.446691,-5041.033630,-18442.223184,-29220.256712,-14060.610719,-29321.443060,-13222.576764,-28100.501370,50217.418399,-8171.440145,-13026.887241,-11393.645274,-14.152000,-942.816040,-314.272003,2520.000000,-2380.000000,1540.000000
-32190.960013,-23183.050535,-33527.415517,31466.517623,-31085.934470,-5073.421308,-18468.397077,-29246.765881,-14083.320091,-29342.185478,-13242.939203,-28124.775365,50190.864526,-8182.347796,-13034.889166,-11411.593725,-14.152000,-945.255981,-314.272003,2800.000000,-2520.000000,1680.000000
-32177.951298,-23166.666706,-33515.367927,31477.179405,-31067.293116,-5053.617663,-18452.527339,-29229.152707,-14069.484361,-29328.796784,-13227.829424,-28108.503295,50205.683733,-8179.866753,-13026.239041,-11393.466460,-14.640000,-947.695984,-314.760010,2940.000000,-2240.000000,1820.000000
-32145.943599,-23134.256677,-33488.210557,31497.698307,-31032.960836,-5019.575956,-18424.364141,-29195.379221,-14036.984925,-29303.047574,-13201.744938,-28079.848359,50234.003393,-8172.267159,-13014.996113,-11367.113753,-14.152000,-947.695984,-310.856018,3640.000000,-2240.000000,1960.000000
-32156.739492,-23146.259564,-33499.185264,31492.780923,-31045.343702,-5032.517616,-18432.500176,-29205.169285,-14048.563129,-29314.558722,-13212.138499,-28093.795847,50220.771160,-8175.932846,-13014.839651,-11377.574370,-17.080000,-951.112000,-308.416016,4340.000000,-2520.000000,1820.000000
-32188.143693,-23174.534520,-33526.923779,31474.027809,-31077.060828,-5070.470878,-18459.568138,-29237.400500,-14079.430888,-29341.671388,-13240.033476,-28122.316673,50189.478718,-8184.068881,-13023.735645,-11402.988303,-13.176001,-951.600037,-303.048004,3920.000000,-2940.000000,1120.000000
-32180.231175,-23165.929099,-33521.805229,31478.207586,-31070.645877,-5063.474782,-18456.327135,-29230.449108,-14071.808943,-29336.597542,-13231.271593,-28113.375975,50196.966552,-8182.392500,-13024.115625,-11399.076748,-13.664001,-950.135986,-307.928009,3220.000000,-3080.000000,560.000000
-32151.017445,-23138.391750,-33499.475837,31497.474789,-31041.365092,-5030.036572,-18429.683856,-29196.228587,-14043.802207,-29314.514019,-13206.483508,-28088.945519,50225.777951,-8174.524686,-13016.471328,-11377.775535,-10.736000,-953.064026,-307.440002,2100.000000,-3220.000000,-140.000000
-32151.933867,-23143.800872,-33501.554549,31494.412600,-31047.154194,-5034.976308,-18434.400074,-29198.821390,-14048.317259,-29319.744327,-13211.535002,-28096.075725,50222.559300,-8171.484848,-13020.874622,-11385.665701,-10.248000,-953.064026,-312.320007,1120.000000,-2800.000000,-560.000000
-32180.521748,-23172.813436,-33525.336805,31474.988934,-31079.787741,-5071.499058,-18462.607975,-29232.438413,-14076.458106,-29346.477013,-13238.625316,-28122.584894,50192.496203,-8180.738471,-13030.754093,-11409.135033,-4.880000,-952.088013,-315.248016,1120.000000,-2660.000000,-560.000000
-32180.007658,-23170.399448,-33525.761488,31476.866481,-31079.452465,-5073.443660,-18457.757647,-29234.159498,-14072.859475,-29345.024150,-13237.820654,-28119.947388,50191.155099,-8186.482869,-13024.540308,-11400.864887,-4.880000,-950.624023,-317.688019,1400.000000,-2800.000000,-420.000000
-32144.982474,-23137.743549,-33498.358249,31498.212397,-31045.544868,-5036.652689,-18428.029827,-29201.414192,-14036.292021,-29314.446964,-13209.858621,-28089.526664,50222.022858,-8178.570351,-13012.917401,-11375.316843,-3.416000,-946.720032,-314.760010,1820.000000,-3920.000000,-280.000000
-32142.009692,-23135.106043,-33494.737267,31501.699269,-31039.241676,-5029.857758,-18421.793690,-29195.714497,-14036.828463,-29312.882341,-13211.020912,-28087.582062,50225.666192,-8175.284645,-13009.296418,-11375.518009,-2.440000,-952.088013,-311.832001,1820.000000,-4620.000000,-420.000000
-32173.168024,-23165.102084,-33522.453430,31481.560347,-31072.009334,-5064.905294,-18450.068647,-29229.286817,-14071.652481,-29340.062063,-13240.435808,-28115.253522,50197.882974,-8183.018349,-13020.114663,-11402.608323,-0.488000,-957.944031,-308.903992,2100.000000,-4620.000000,-420.000000
-32179.314754,-23172.478160,-33530.678872,31473.848995,-31084.459255,-5076.237628,-18462.831493,-29241.468518,-14078.335652,-29347.549897,-13244.839101,-28122.115507,50189.881049,-8189.388596,-13024.830881,-11412.219574,1.464000,-957.455994,-305.488007,2520.000000,-4620.000000,-420.000000
-32147.508222,-23143.242078,-33504.236758,31494.211435,-31054.150290,-5039.290194,-18435.092978,-29209.840800,-14043.824559,-29319.453754,-13214.396025,-28093.795847,50218.938317,-8181.789003,-13015.353741,-11390.203105,1.464000,-955.015991,-306.463989,3220.000000,-4480.000000,-560.000000
-32134.901838,-23129.808680,-33492.099761,31504.761458,-31040.180450,-5022.347572,-18419.156184,-29194.954538,-14030.547623,-29310.334243,-13205.768252,-28084.564577,50231.723515,-8176.469287,-13010.503413,-11383.296416,-0.976000,-951.112000,-310.856018,3500.000000,-4060.000000,-420.000000
-32160.204012,-23153.121549,-33513.780953,31490.366935,-31066.980191,-5051.762468,-18441.619687,-29221.910742,-14057.392068,-29332.797746,-13227.538851,-28107.028080,50207.583631,-8187.153421,-13015.621962,-11407.481004,-5.856000,-947.695984,-311.832001,3360.000000,-3220.000000,420.000000
-32173.682114,-23161.771674,-33525.180343,31484.153150,-31080.637107,-5069.867381,-18455.030734,-29235.835878,-14068.992623,-29342.274885,-13236.636011,-28116.035833,50193.390273,-8197.211706,-13016.247811,-11416.421701,-12.200000,-944.280029,-311.343994,2660.000000,-2380.000000,1400.000000
-32142.769652,-23130.345122,-33498.581767,31503.710926,-31050.059921,-5035.557453,-18431.270830,-29204.923416,-14036.090855,-29313.597597,-13207.444633,-28085.391591,50222.961631,-8192.875468,-13006.368340,-11389.778422,-15.128000,-944.280029,-304.511993,1820.000000,-1540.000000,2520.000000
-32118.540361,-23106.004072,-33477.861700,31523.760441,-31022.813144,-5005.695523,-18408.002664,-29177.386067,-14015.191974,-29294.106876,-13186.322234,-28063.553937,50248.308509,-8178.525648,-12994.432508,-11369.013651,-17.568001,-943.791992,-308.416016,0.000000,-560.000000,3220.000000
-32138.880448,-23127.662912,-33494.133770,31512.405755,-31047.444766,-5030.461255,-18427.046350,-29197.346174,-14037.767236,-29311.764754,-13203.868354,-28083.491693,50228.102532,-8179.710290,-13001.316846,-11387.878524,-22.936001,-943.791992,-307.928009,-700.000000,1120.000000,3500.000000
-32165.300210,-23152.920384,-33516.261997,31495.686650,-31075.607964,-5058.177418,-18447.833472,-29221.463707,-14061.169512,-29330.830792,-13221.615639,-28103.943539,50202.934468,-8190.036796,-13007.687093,-11405.335236,-22.448000,-943.791992,-314.760010,-1400.000000,2380.000000,3500.000000
-32142.099099,-23129.048720,-33498.760581,31515.803220,-31050.462252,-5029.723648,-18425.660542,-29196.228587,-14036.359076,-29308.590807,-13197.565162,-28079.468379,50225.956765,-8185.119413,-12994.745433,-11385.755108,-22.936001,-944.280029,-316.712006,-2100.000000,2380.000000,2940.000000
-32117.266311,-23105.624092,-33477.682886,31534.399871,-31021.762612,-4998.677075,-18400.961864,-29166.456064,-14013.001503,-29288.675402,-13175.503990,-28056.356675,50253.494114,-8171.954235,-12985.268293,-11366.912588,-24.888000,-944.280029,-318.664001,-2380.000000,1680.000000,2380.000000
-32132.890181,-23122.365549,-33492.144465,31522.262874,-31040.135746,-5023.420456,-18415.758719,-29187.936090,-14028.759483,-29305.841542,-13191.083156,-28074.260422,50236.752658,-8177.162192,-12990.990340,-11383.430527,-19.032000,-943.304016,-314.760010,-2240.000000,140.000000,1260.000000
-32162.305076,-23147.019523,-33516.127886,31502.548635,-31067.516633,-5060.345538,-18441.887908,-29219.362643,-14056.028611,-29330.719034,-13217.078235,-28098.534417,50206.242526,-8189.969741,-12997.204125,-11405.268181,-18.544001,-948.671997,-313.295990,-1540.000000,-1120.000000,280.000000
-32148.782271,-23134.480194,-33507.924796,31505.096734,-31054.038531,-5049.750811,-18435.942344,-29209.237302,-14039.175396,-29319.699624,-13204.807127,-28086.375068,50216.569032,-8193.948352,-12996.667683,-11398.942637,-14.640000,-945.744019,-310.368011,-700.000000,-2100.000000,-980.000000
-32121.647253,-23108.462764,-33485.953031,31519.737127,-31024.154249,-5016.625526,-18413.009454,-29181.632898,-14013.917925,-29300.007737,-13182.142458,-28064.179786,50244.933396,-8187.265180,-12991.884409,-11380.994187,-13.664001,-946.231995,-311.832001,140.000000,-2520.000000,-2240.000000
-32138.209896,-23125.360683,-33500.235796,31510.662319,-31040.403967,-5029.790703,-18422.285428,-29195.043945,-14034.034495,-29316.883304,-13197.319293,-28083.938728,50230.605928,-8189.232134,-12999.148726,-11392.930018,-15.616000,-945.744019,-311.832001,700.000000,-2660.000000,-3220.000000
-32168.205937,-23158.418913,-33527.437869,31487.528263,-31080.190072,-5067.945131,-18452.661449,-29230.024425,-14062.242396,-29343.347769,-13222.934392,-28114.493563,50199.984038,-8200.139785,-13011.553945,-11420.422664,-9.272000,-943.791992,-311.343994,700.000000,-2660.000000,-3920.000000
-32163.400312,-23152.071017,-33522.699299,31490.970432,-31076.278517,-5061.485477,-18445.844167,-29222.536590,-14055.067486,-29338.922124,-13216.675903,-28107.810391,50205.817843,-8197.815203,-13006.390692,-11412.711312,-9.760000,-946.720032,-310.856018,1120.000000,-2800.000000,-4200.000000
-32127.950445,-23117.872848,-33492.770313,31513.478638,-31040.448670,-5024.426284,-18416.429271,-29187.846683,-14020.779910,-29309.641339,-13187.819801,-28076.026210,50236.171512,-8189.723872,-12996.265351,-11390.337216,-8.784000,-942.816040,-311.832001,980.000000,-2800.000000,-4200.000000
-32130.900875,-23121.337369,-33495.966613,31511.221112,-31045.030778,-5028.047267,-18419.558515,-29191.244148,-14023.462120,-29311.943568,-13191.127859,-28079.960117,50231.075314,-8191.690825,-12998.232305,-11398.048568,-7.808000,-944.280029,-311.832001,1120.000000,-2800.000000,-3640.000000
-32168.563565,-23154.283840,-33526.789668,31489.584624,-31078.446636,-5064.771183,-18446.827644,-29224.056509,-14058.777876,-29341.470223,-13219.983962,-28112.593664,50198.799395,-8199.513936,-13002.993226,-11420.333257,-4.880000,-943.791992,-309.391998,1680.000000,-2520.000000,-2800.000000
-32169.278821,-23152.696866,-33528.689567,31488.422333,-31080.502997,-5066.268750,-18448.504025,-29227.252808,-14056.766219,-29340.933781,-13218.441691,-28112.101926,50197.972381,-8199.692750,-12999.081671,-11421.003809,-9.272000,-942.816040,-312.808014,1960.000000,-2240.000000,-1540.000000
-32137.047605,-23119.862154,-33501.666308,31511.131705,-31044.740205,-5029.008392,-18417.412748,-29193.680488,-14025.049093,-29314.446964,-13189.295016,-28083.089362,50227.946070,-8193.769538,-12982.764898,-11398.607361,-4.880000,-946.231995,-313.295990,3080.000000,-3080.000000,280.000000
-32134.030120,-23118.342235,-33498.738229,31513.165714,-31036.425356,-5020.157101,-18412.048329,-29185.052715,-14026.345495,-29314.312853,-13187.238656,-28080.630670,50234.741001,-8193.233096,-12981.267331,-11397.646236,-3.904000,-946.720032,-309.880005,3360.000000,-2800.000000,1960.000000
-32161.947448,-23148.740607,-33526.052061,31491.328060,-31071.092912,-5057.551570,-18441.351466,-29218.401518,-14054.084009,-29342.006665,-13213.814880,-28108.525647,50204.208518,-8205.146576,-12993.516087,-11426.994077,-4.392000,-943.791992,-309.880005,3220.000000,-2240.000000,2660.000000
-32168.295344,-23153.926212,-33535.305683,31486.544786,-31082.715819,-5073.756584,-18451.454455,-29231.991378,-14058.375544,-29348.600429,-13220.855680,-28114.270045,50191.088044,-8212.075616,-12997.539401,-11436.672382,-6.832000,-944.768005,-314.272003,4060.000000,-2100.000000,3640.000000
-32136.086480,-23123.304322,-33510.986985,31506.482542,-31050.305790,-5037.122075,-18424.073568,-29199.849570,-14026.814881,-29322.605350,-13195.151173,-28086.620937,50220.033553,-8206.487680,-12988.419889,-11415.058245,-6.832000,-945.255981,-315.248016,3360.000000,-2380.000000,4760.000000
-32123.636558,-23112.016691,-33502.359212,31513.009252,-31036.894743,-5020.917060,-18412.294199,-29185.075067,-14015.929582,-29313.463487,-13187.328063,-28080.228338,50233.265785,-8203.917230,-12987.525819,-11410.856117,-10.248000,-945.255981,-313.295990,3360.000000,-2520.000000,5180.000000
-32155.644257,-23142.035084,-33528.488401,31495.709002,-31066.779025,-5054.243511,-18435.115330,-29209.885503,-14050.664193,-29342.431348,-13215.178337,-28110.023214,50204.543794,-8213.841404,-12995.639502,-11432.224385,-14.640000,-947.695984,-311.832001,2800.000000,-2660.000000,5320.000000
-32169.927021,-23154.417950,-33540.558343,31487.461208,-31082.000563,-5071.946093,-18447.386437,-29224.324730,-14062.823542,-29355.194194,-13223.739055,-28120.975568,50190.708064,-8220.725741,-12996.377110,-11437.901728,-14.152000,-949.160034,-313.295990,2520.000000,-2380.000000,5040.000000
-32143.283742,-23129.294590,-33516.574921,31505.946100,-31052.585668,-5039.491360,-18422.553649,-29194.507503,-14035.196785,-29331.210772,-13198.123956,-28093.549978,50215.294983,-8212.075616,-12987.190543,-11414.566507,-16.592001,-950.135986,-311.832001,2100.000000,-2240.000000,4480.000000
-32127.302245,-23113.536610,-33501.912177,31518.105449,-31032.759670,-5017.430188,-18403.688777,-29173.474511,-14021.495166,-29318.894961,-13184.757612,-28079.870710,50231.477646,-8202.889049,-12984.776555,-11401.133108,-20.007999,-949.160034,-309.391998,1680.000000,-1960.000000,3640.000000
-32154.437262,-23138.101177,-33523.995700,31502.414525,-31059.022970,-5045.705145,-18423.000684,-29197.882616,-14046.998506,-29341.045540,-13208.316351,-28105.619920,50207.360114,-8208.499337,-12992.331444,-11418.813338,-20.007999,-948.671997,-308.416016,1820.000000,-1960.000000,2520.000000
-32178.264222,-23158.105988,-33542.838221,31489.204644,-31081.821749,-5071.588465,-18437.439911,-29220.591989,-14066.422172,-29358.770473,-13226.465967,-28123.546019,50185.008369,-8218.110587,-12993.717252,-11432.447902,-22.936001,-950.135986,-307.928009,1540.000000,-2240.000000,1960.000000
-32153.967876,-23134.882526,-33523.012224,31503.129781,-31060.989924,-5047.873264,-18417.748024,-29197.994375,-14039.331858,-29337.491612,-13202.348435,-28099.137914,50205.169643,-8217.104759,-12985.514162,-11413.448919,-20.984001,-947.695984,-313.295990,1400.000000,-2380.000000,1260.000000
-32125.312939,-23108.820392,-33501.331031,31521.793487,-31037.386481,-5018.726590,-18395.508038,-29170.635840,-14012.085082,-29315.899827,-13181.538961,-28076.294431,50228.638974,-8212.545003,-12975.299415,-11396.483945,-21.472000,-949.160034,-311.343994,1260.000000,-2520.000000,700.000000
-32140.959160,-23125.539497,-33518.050136,31513.188066,-31056.832499,-5040.363078,-18409.589637,-29189.076029,-14031.396989,-29333.624760,-13199.599171,-28093.058240,50209.662343,-8217.887070,-12975.254712,-11412.912478,-20.007999,-949.648010,-311.343994,1400.000000,-2520.000000,280.000000
-32169.100007,-23153.255660,-33543.240552,31494.770228,-31087.387334,-5074.002454,-18435.025923,-29218.535628,-14058.174379,-29356.311781,-13220.408645,-28117.555752,50182.035587,-8228.660611,-12982.787249,-11432.313792,-19.032000,-946.231995,-313.295990,980.000000,-2380.000000,-420.000000
-32150.033969,-23135.307209,-33530.678872,31505.364955,-31069.461235,-5058.088012,-18420.050254,-29204.074049,-14035.755579,-29341.067891,-13204.427147,-28098.065030,50196.877145,-8227.587727,-12976.551113,-11416.645219,-19.032000,-948.671997,-313.783997,1120.000000,-2240.000000,-420.000000
-32119.255617,-23107.613398,-33504.527331,31525.258008,-31036.984150,-5022.928717,-18391.216504,-29171.507558,-14007.100643,-29314.312853,-13178.677938,-28069.857129,50227.342573,-8218.512919,-12968.236264,-11394.718158,-17.080000,-949.160034,-312.808014,1260.000000,-2380.000000,-560.000000
-32133.225457,-23122.007921,-33514.406802,31516.719641,-31048.048264,-5034.931604,-18397.340882,-29178.056619,-14024.199727,-29326.695720,-13192.066633,-28084.005783,50215.317335,-8222.647991,-12971.566674,-11405.826975,-13.176001,-951.600037,-313.295990,1400.000000,-2660.000000,-280.000000
-32164.607306,-23150.059360,-33542.681759,31496.714830,-31081.709991,-5072.884866,-18425.280562,-29210.220779,-14053.189940,-29353.875441,-13220.632162,-28111.207856,50183.309637,-8239.143579,-12980.641482,-11432.112626,-12.688000,-945.744019,-310.856018,1540.000000,-2380.000000,-280.000000
-32152.783233,-23134.971933,-33536.199753,31504.962624,-31072.702238,-5064.592369,-18416.786899,-29202.867055,-14036.560242,-29343.794804,-13212.071444,-28098.914397,50189.813994,-8240.775256,-12974.427697,-11423.507204,-10.736000,-947.695984,-309.880005,1820.000000,-2380.000000,0.000000
-32116.171076,-23100.460839,-33506.248415,31526.375595,-31038.280551,-5025.186244,-18388.556646,-29167.506596,-14000.596285,-29314.961054,-13185.338758,-28067.800768,50221.419361,-8231.633393,-12967.006918,-11398.070919,-9.760000,-947.208008,-311.343994,1680.000000,-2380.000000,0.000000
-32114.539398,-23101.578427,-33506.248415,31526.196781,-31037.140612,-5027.220252,-18389.718937,-29167.260726,-14001.155079,-29318.246760,-13189.339720,-28070.102998,50221.329954,-8228.682962,-12966.828104,-11400.373149,-10.248000,-949.160034,-308.903992,1540.000000,-1820.000000,420.000000
-32145.675379,-23134.100215,-33535.551552,31506.661356,-31069.595345,-5066.313453,-18415.021111,-29200.587177,-14033.386294,-29347.527545,-13216.295924,-28101.171923,50188.919924,-8236.439018,-12970.851418,-11421.137920,-11.224000,-946.720032,-310.368011,1540.000000,-1820.000000,560.000000
-32146.033006,-23135.217802,-33537.943189,31504.716755,-31073.082217,-5071.141430,-18416.250457,-29204.632843,-14032.179300,-29348.935705,-13213.636066,-28100.903702,50187.109433,-8234.069733,-12970.650252,-11419.975629,-10.248000,-949.648010,-309.391998,1540.000000,-1820.000000,840.000000
-32116.215779,-23105.802906,-33513.155104,31524.095717,-31040.538077,-5033.903424,-18386.142658,-29171.619317,-14003.144384,-29325.466374,-13181.270740,-28071.935841,50216.457274,-8223.027971,-12959.653194,-11393.958198,-9.760000,-950.624023,-311.343994,1540.000000,-1820.000000,980.000000
-32114.964082,-23103.344214,-33511.232854,31526.487354,-31035.151307,-5025.879148,-18377.894864,-29164.019723,-14002.965570,-29326.539257,-13174.274644,-28071.757027,50221.665230,-8222.804454,-12956.143970,-11393.064129,-10.248000,-950.624023,-310.856018,1680.000000,-1960.000000,1260.000000
-32148.089367,-23136.491851,-33539.619570,31504.783810,-31069.193014,-5062.133677,-18406.505097,-29197.457933,-14035.263841,-29354.702455,-13199.621522,-28101.216626,50192.138576,-8236.997811,-12965.486999,-11421.339085,-8.784000,-951.600037,-310.368011,1820.000000,-1960.000000,1260.000000
-32156.203050,-23144.091445,-33546.526259,31498.145342,-31080.637107,-5072.035500,-18415.244629,-29206.063355,-14039.085989,-29360.022171,-13204.673017,-28106.290472,50185.544811,-8243.301003,-12969.063278,-11428.290478,-11.712000,-949.160034,-310.368011,1960.000000,-1960.000000,1400.000000
-32124.307111,-23112.128450,-33519.212427,31518.150153,-31046.394234,-5035.579805,-18386.120306,-29174.078008,-14005.178393,-29332.887153,-13179.549656,-28076.361486,50216.233756,-8233.913271,-12957.060392,-11405.715216,-9.760000,-946.231995,-310.856018,1680.000000,-1820.000000,1540.000000
-32110.829009,-23098.963272,-33507.991851,31527.560237,-31031.664435,-5019.374790,-18373.960957,-29158.722360,-13993.980169,-29324.080565,-13170.452496,-28066.504367,50228.281346,-8228.168872,-12950.466627,-11399.255562,-11.712000,-948.184021,-308.416016,1400.000000,-1540.000000,1540.000000
-32141.383844,-23126.478270,-33532.668177,31509.298862,-31063.627429,-5051.337785,-18399.643111,-29186.952613,-14025.652590,-29352.757854,-13195.888781,-28094.958138,50199.872279,-8237.243681,-12959.407325,-11421.830824,-10.736000,-950.135986,-312.320007,980.000000,-1400.000000,1540.000000
-32157.588858,-23143.018561,-33548.537916,31498.838246,-31081.464122,-5069.174477,-18412.942399,-29204.208160,-14042.326992,-29369.320496,-13208.942200,-28109.419717,50183.399043,-8244.463294,-12965.107020,-11430.123321,-13.176001,-949.648010,-311.343994,1120.000000,-1400.000000,1680.000000
-32129.157439,-23116.285874,-33522.699299,31513.366880,-31054.083235,-5035.736267,-18389.741288,-29174.815616,-14014.744939,-29348.153394,-13183.125935,-28084.832798,50211.696352,-8238.160102,-12961.642499,-11408.375073,-11.224000,-951.600037,-308.416016,1120.000000,-1540.000000,1960.000000
-32109.443201,-23095.990490,-33504.572034,31525.950912,-31032.916133,-5013.406874,-18372.776314,-29153.804976,-13997.131765,-29333.870630,-13167.479714,-28069.432446,50233.198730,-8231.834558,-12956.009860,-11397.288608,-13.664001,-947.695984,-310.368011,1680.000000,-1400.000000,1820.000000
-32136.466460,-23121.627941,-33528.801325,31510.885836,-31056.094892,-5042.374735,-18392.825829,-29178.950689,-14025.496128,-29358.725769,-13192.021929,-28096.343946,50207.784797,-8237.936585,-12959.519083,-11416.153481,-12.200000,-950.135986,-311.343994,1960.000000,-1540.000000,1820.000000
-32160.695751,-23143.733817,-33549.096709,31494.904339,-31081.687639,-5071.119079,-18414.842297,-29203.269387,-14047.043210,-29378.015325,-13209.746863,-28117.511048,50182.147346,-8244.932681,-12964.995261,-11432.157330,-16.104000,-948.184021,-308.416016,2100.000000,-1680.000000,1960.000000
-32139.171021,-23123.796061,-33530.097727,31506.571949,-31061.593421,-5045.079296,-18399.509001,-29181.409381,-14025.652590,-29357.652886,-13186.679862,-28096.612167,50203.336800,-8242.116361,-12962.491865,-11414.745321,-15.616000,-947.208008,-306.951996,1680.000000,-1680.000000,1680.000000
-32114.561750,-23099.946749,-33509.087087,31524.073365,-31033.765499,-5012.289287,-18374.899730,-29151.413340,-14002.272666,-29336.664598,-13165.892740,-28075.221548,50227.364925,-8236.103742,-12955.093438,-11396.573352,-13.664001,-946.720032,-310.368011,1260.000000,-1400.000000,1540.000000
-32133.337216,-23116.464688,-33525.314453,31515.177371,-31051.535136,-5032.629375,-18388.042556,-29168.400665,-14020.332875,-29352.132005,-13182.902418,-28094.801676,50207.449521,-8241.557567,-12957.686240,-11413.270106,-16.104000,-946.720032,-310.368011,560.000000,-1400.000000,1260.000000
-32157.007713,-23137.855308,-33545.341616,31499.464095,-31078.983078,-5064.368852,-18410.796632,-29198.016727,-14039.577727,-29371.332153,-13203.600133,-28115.857019,50180.470965,-8249.626547,-12964.503522,-11434.370152,-13.176001,-947.695984,-311.832001,140.000000,-1400.000000,1540.000000
-32141.719120,-23121.694997,-33531.841163,31509.052993,-31064.141520,-5046.889788,-18398.279655,-29183.443389,-14023.015085,-29356.691761,-13187.797450,-28098.467362,50195.603096,-8248.061925,-12959.228511,-11422.210803,-16.592001,-946.231995,-311.832001,-280.000000,-1400.000000,1400.000000
-32116.707518,-23096.459877,-33509.444715,31527.671996,-31035.263066,-5012.110473,-18371.368154,-29151.078063,-14002.272666,-29334.675292,-13162.472923,-28074.059257,50223.296907,-8238.584785,-12950.153703,-11400.887239,-14.640000,-946.231995,-310.856018,-140.000000,-1540.000000,1400.000000
-32125.581160,-23107.322825,-33517.714860,31521.525266,-31047.154194,-5022.995773,-18379.884169,-29160.577555,-14012.107433,-29344.018322,-13170.497199,-28084.922205,50214.087989,-8242.630451,-12955.272252,-11410.185565,-14.152000,-947.208008,-313.295990,-420.000000,-1120.000000,1400.000000
-32153.230268,-23139.039950,-33545.431023,31499.933481,-31082.648764,-5061.708994,-18410.818983,-29196.295642,-14039.555376,-29371.354505,-13196.112299,-28111.945464,50184.203706,-8254.186303,-12968.929168,-11434.526614,-16.592001,-943.791992,-314.760010,-700.000000,-840.000000,1120.000000
-32143.127280,-23129.965142,-33538.703148,31507.354260,-31072.366962,-5053.237683,-18403.286446,-29189.612471,-14027.641896,-29362.078531,-13189.362072,-28100.188446,50191.468023,-8252.532274,-12959.921415,-11421.853175,-16.104000,-945.255981,-309.391998,-980.000000,-700.000000,840.000000
-32113.444163,-23100.326729,-33512.328090,31529.728357,-31034.860734,-5017.944278,-18373.782143,-29157.716531,-13998.606980,-29332.753042,-13161.645909,-28072.896966,50221.531120,-8246.385544,-12945.504540,-11393.354701,-14.152000,-940.864014,-314.272003,-1540.000000,-560.000000,420.000000
-32119.993224,-23106.786383,-33516.843142,31528.543714,-31036.827688,-5023.509863,-18377.894864,-29157.336552,-14006.117166,-29337.826888,-13166.675051,-28081.658850,50219.407704,-8246.810227,-12944.610470,-11397.959161,-15.128000,-945.744019,-312.808014,-2100.000000,-420.000000,140.000000
-32151.866812,-23136.201279,-33546.347445,31507.868350,-31073.059866,-5063.117154,-18408.673216,-29190.931224,-14035.889689,-29366.414769,-13193.743014,-28111.721946,50186.841212,-8253.873379,-12953.640575,-11428.245774,-12.688000,-942.816040,-311.832001,-2240.000000,-420.000000,-140.000000
-32153.274972,-23136.648314,-33548.895544,31503.912092,-31076.122055,-5064.994701,-18411.221315,-29192.629956,-14035.040323,-29366.101845,-13189.630293,-28110.492600,50186.572991,-8257.650823,-12954.154665,-11430.391542,-13.664001,-946.231995,-313.783997,-2800.000000,-280.000000,-420.000000
-32122.004881,-23109.468592,-33523.906293,31520.184162,-31046.148365,-5026.817921,-18387.103783,-29160.108168,-14005.133689,-29339.637380,-13159.611900,-28084.117542,50218.133654,-8250.855893,-12948.834950,-11406.296361,-14.640000,-941.351990,-318.175995,-2940.000000,-560.000000,-280.000000
-32118.182733,-23108.149839,-33520.955863,31520.027699,-31043.756729,-5019.754770,-18385.360346,-29154.430825,-14004.619599,-29333.714167,-13154.023964,-28084.117542,50223.073390,-8247.234910,-12950.421923,-11402.876544,-13.176001,-946.231995,-318.175995,-2800.000000,-560.000000,-420.000000
-32144.535440,-23132.267372,-33544.291084,31502.615691,-31072.255203,-5055.964596,-18410.751928,-29187.645517,-14028.535966,-29355.350656,-13178.633234,-28108.369185,50192.652666,-8253.314585,-12955.674583,-11425.004771,-13.664001,-944.280029,-317.688019,-2520.000000,-840.000000,-420.000000
-32142.456727,-23126.590029,-33543.084090,31505.074382,-31072.612831,-5065.061756,-18411.064853,-29198.217892,-14022.858622,-29354.791862,-13182.701252,-28104.010594,50185.053073,-8254.029841,-12945.169264,-11426.658800,-14.152000,-942.328003,-316.712006,-2240.000000,-1120.000000,-140.000000
-32100.614262,-23081.573615,-33510.942282,31534.690444,-31029.630426,-5030.416552,-18373.715088,-29166.836043,-13980.814991,-29322.560647,-13156.169731,-28065.275021,50212.724532,-8243.323355,-12917.766025,-11398.339140,-13.664001,-942.816040,-320.615997,-1960.000000,-980.000000,-140.000000
-32077.390799,-23059.735961,-33495.430171,31551.208383,-31004.596472,-5014.658572,-18350.424570,-29149.111110,-13960.318441,-29308.635510,-13142.959850,-28047.460681,50224.615660,-8233.421532,-12899.616408,-11385.620998,-14.152000,-941.840027,-314.760010,-1680.000000,-1120.000000,280.000000
-32094.847512,-23076.611528,-33512.529255,31539.339607,-31024.355414,-5045.258110,-18366.003736,-29171.686372,-13977.506933,-29326.874534,-13166.384478,-28066.459664,50200.520480,-8233.466236,-12897.560048,-11403.256524,-15.616000,-941.351990,-314.760010,-1120.000000,-1260.000000,280.000000
-32110.225512,-23089.463781,-33525.202695,31528.655473,-31039.487545,-5062.088974,-18380.867646,-29187.354945,-13988.436936,-29338.922124,-13182.030699,-28077.009687,50186.394177,-8236.997811,-12901.002216,-11415.907611,-15.616000,-942.816040,-321.592010,-700.000000,-1400.000000,560.000000
-32091.718267,-23071.940013,-33508.371831,31541.418319,-31016.197028,-5032.428209,-18363.098009,-29162.410398,-13971.918997,-29323.387661,-13163.836380,-28058.793015,50207.762445,-8234.270899,-12898.275304,-11399.322617,-16.104000,-945.744019,-317.200012,-280.000000,-1400.000000,700.000000
-32081.481168,-23063.356944,-33496.033668,31550.224906,-30999.366164,-5008.176566,-18349.284631,-29139.566915,-13967.426296,-29313.999929,-13152.772266,-28049.360579,50225.442675,-8227.095989,-12897.828269,-11386.470364,-14.152000,-942.328003,-317.688019,-420.000000,-1540.000000,840.000000
-32113.242997,-23098.091554,-33522.364023,31527.649644,-31032.737319,-5038.172607,-18378.431306,-29164.109130,-14000.663340,-29340.397339,-13177.694461,-28081.077705,50200.878108,-8235.924928,-12915.486147,-11414.342989,-18.056000,-945.255981,-318.175995,0.000000,-1540.000000,840.000000
-32144.043701,-23127.975837,-33547.085052,31506.415487,-31063.918002,-5067.051061,-18404.024053,-29190.126561,-14030.167643,-29366.638287,-13200.247371,-28106.938673,50175.352415,-8247.436076,-12929.835967,-11436.046533,-16.104000,-944.768005,-318.664001,280.000000,-1540.000000,980.000000
-32129.112736,-23114.073052,-33532.690529,31511.757554,-31050.864583,-5045.392221,-18390.836524,-29170.479378,-14014.588477,-29355.820043,-13183.192990,-28092.722963,50192.585610,-8246.743172,-12930.305353,-11421.383789,-15.128000,-948.184021,-319.152008,0.000000,-1260.000000,980.000000
-32102.447105,-23090.067278,-33511.568130,31528.096679,-31025.160077,-5013.272764,-18367.568358,-29143.813746,-13990.828573,-29337.826888,-13161.712964,-28072.114655,50215.272631,-8238.160102,-12924.382141,-11403.457690,-15.616000,-950.135986,-315.248016,0.000000,-1260.000000,700.000000
-32117.109849,-23103.455973,-33529.360119,31520.742955,-31039.554601,-5034.015183,-18378.274843,-29160.979886,-14005.916000,-29356.825871,-13181.158981,-28088.699649,50196.094834,-8241.423457,-12923.979810,-11418.031027,-14.640000,-953.552002,-314.760010,140.000000,-700.000000,420.000000
-32145.585972,-23129.227534,-33557.255096,31500.916958,-31071.025857,-5072.415480,-18404.404033,-29194.418096,-14031.464044,-29380.786941,-13204.985941,-28112.906589,50165.271779,-8252.040535,-12929.232470,-11441.276841,-16.104000,-952.575989,-313.295990,1120.000000,-1260.000000,420.000000
-32134.678320,-23115.592970,-33546.772128,31506.504894,-31058.799453,-5059.138544,-18395.955073,-29182.817541,-14017.762425,-29368.158206,-13189.965569,-28098.646176,50176.514706,-8250.855893,-12926.527909,-11432.470254,-16.104000,-952.088013,-316.712006,1680.000000,-1540.000000,560.000000
-32108.549131,-23086.558054,-33519.882979,31526.308540,-31023.215475,-5020.402970,-18366.897806,-29149.289924,-13990.895628,-29345.314723,-13165.266891,-28073.433408,50207.136596,-8238.562434,-12918.503632,-11408.822108,-18.544001,-946.720032,-315.735992,2380.000000,-2520.000000,980.000000
-32121.893122,-23100.326729,-33527.728442,31518.552484,-31035.643045,-5030.304793,-18376.084373,-29161.583383,-14004.418433,-29353.853089,-13174.609920,-28089.280795,50198.978209,-8238.584785,-12923.465720,-11421.763768,-17.568001,-946.231995,-315.248016,3080.000000,-3220.000000,1400.000000
-32149.676341,-23126.321808,-33552.248305,31500.425220,-31070.489415,-5065.486439,-18402.504134,-29196.161532,-14027.954820,-29373.120293,-13198.682749,-28117.064013,50170.703253,-8245.536178,-12931.445292,-11446.060115,-18.544001,-944.768005,-315.248016,2660.000000,-3220.000000,1260.000000
-32140.623884,-23115.168287,-33546.526259,31507.488371,-31062.755711,-5057.618625,-18393.876361,-29187.332593,-14016.376617,-29363.173767,-13192.871296,-28106.983376,50177.520535,-8244.440942,-12923.018685,-11433.878414,-18.544001,-947.208008,-314.760010,2100.000000,-2940.000000,1120.000000
-32108.325614,-23084.747563,-33518.877151,31529.437784,-31029.205743,-5020.000639,-18364.036782,-29150.273401,-13986.827610,-29337.625723,-13164.909263,-28078.931937,50209.796454,-8234.315602,-12909.451176,-11405.245829,-17.568001,-945.255981,-313.783997,980.000000,-1960.000000,560.000000
-32110.136105,-23086.558054,-33518.877151,31529.728357,-31031.217400,-5021.967592,-18362.785085,-29148.708778,-13989.845096,-29342.811327,-13167.971452,-28081.748257,50208.812977,-8231.812207,-12906.165469,-11409.157385,-17.080000,-948.671997,-312.320007,840.000000,-840.000000,-420.000000
-32144.244867,-23119.884505,-33547.397977,31509.432973,-31066.309639,-5058.512695,-18389.785992,-29177.631936,-14019.617619,-29371.399208,-13197.408700,-28110.470249,50178.526363,-8243.368059,-12912.647475,-11434.571318,-15.616000,-947.695984,-312.320007,980.000000,-420.000000,-1120.000000
-32146.189469,-23122.007921,-33551.667160,31507.242502,-31070.847043,-5063.251264,-18391.507076,-29182.750485,-14015.102567,-29372.002706,-13199.129784,-28111.274911,50173.340758,-8247.816056,-12912.178089,-11435.621850,-17.568001,-946.231995,-311.343994,1820.000000,-1120.000000,-1400.000000
-32112.728907,-23089.150857,-33523.638072,31528.119031,-31037.207667,-5023.509863,-18360.885186,-29149.714607,-13981.127916,-29343.303066,-13171.480676,-28081.614146,50203.761483,-8240.305870,-12901.203382,-11409.559716,-19.032000,-944.768005,-311.832001,1680.000000,-2100.000000,-1540.000000
-32104.749334,-23084.188769,-33520.508828,31532.231752,-31030.680958,-5014.479758,-18354.649050,-29142.785566,-13978.892741,-29337.938647,-13169.044336,-28080.407152,50209.461178,-8236.930756,-12901.069272,-11407.011617,-17.568001,-943.791992,-311.343994,1260.000000,-2940.000000,-1820.000000
-32130.006806,-23110.519124,-33546.123927,31514.171542,-31060.699351,-5048.543817,-18380.889998,-29174.323878,-14005.692483,-29360.893889,-13194.033586,-28107.676280,50180.627427,-8244.373887,-12911.418129,-11430.726818,-15.128000,-947.695984,-307.928009,560.000000,-3500.000000,-1960.000000
-32141.383844,-23119.437470,-33555.355198,31507.108391,-31070.310601,-5060.814924,-18390.143620,-29185.097418,-14016.264858,-29367.085322,-13201.856697,-28115.454688,50170.815011,-8250.565320,-12912.915696,-11435.644202,-14.152000,-948.184021,-311.343994,0.000000,-3640.000000,-2100.000000
-32114.315881,-23090.290796,-33531.796459,31526.442650,-31038.839345,-5028.740171,-18364.573224,-29153.067369,-13990.694462,-29343.012493,-13178.990862,-28089.481960,50198.620581,-8244.239777,-12901.181030,-11413.225402,-10.248000,-951.112000,-314.272003,-420.000000,-3220.000000,-2240.000000
-32099.116695,-23074.845740,-33518.832447,31537.506764,-31022.634330,-5014.233889,-18349.016410,-29135.320084,-13974.981186,-29330.160240,-13168.552598,-28078.082571,50211.897518,-8239.367096,-12894.542562,-11404.329408,-11.224000,-951.600037,-316.223999,-840.000000,-2800.000000,-2240.000000
-32128.039852,-23105.020595,-33544.112270,31519.558313,-31053.211517,-5047.962671,-18372.105762,-29162.410398,-14002.295018,-29355.350656,-13199.286246,-28105.776382,50183.711968,-8247.324317,-12902.678597,-11427.262298,-7.320000,-955.504028,-314.272003,-1120.000000,-3920.000000,-1820.000000
-32145.138937,-23124.131337,-33558.551497,31507.488371,-31073.641011,-5069.643863,-18390.925931,-29181.856415,-14016.376617,-29371.175691,-13214.239563,-28120.170906,50168.289264,-8252.688736,-12911.239315,-11440.606289,-5.856000,-952.575989,-319.152008,-420.000000,-4900.000000,-1540.000000
-32117.355718,-23096.571636,-33534.925703,31526.107374,-31045.164889,-5038.753753,-18367.970689,-29155.704874,-13985.955892,-29349.270981,-13189.473830,-28094.332289,50194.664323,-8241.579919,-12905.450214,-11419.707408,-3.904000,-955.015991,-314.272003,420.000000,-5460.000000,-1260.000000
-32100.971890,-23077.304432,-33518.564226,31540.948932,-31023.528400,-5012.870432,-18346.736532,-29132.436709,-13971.941349,-29335.859935,-13176.353356,-28080.273042,50215.786721,-8231.499282,-12901.739824,-11403.033007,-6.344000,-958.432007,-312.320007,1400.000000,-5320.000000,-1120.000000
-32123.055413,-23096.884560,-33537.205581,31528.119031,-31044.673150,-5038.440828,-18364.394410,-29156.531889,-13994.315445,-29356.959982,-13200.090909,-28102.110696,50196.407759,-8235.343782,-12907.059539,-11420.243850,-8.296000,-954.528015,-310.856018,1540.000000,-4340.000000,-700.000000
-32143.864887,-23118.118717,-33557.165689,31513.590397,-31069.818863,-5065.039404,-18383.840428,-29181.968174,-14014.007332,-29375.131950,-13219.760444,-28120.416775,50174.324235,-8243.926852,-12910.769929,-11437.991135,-13.664001,-946.231995,-311.832001,1820.000000,-3080.000000,140.000000
-32124.821201,-23098.605645,-33541.340654,31526.576761,-31051.423377,-5045.503979,-18366.897806,-29165.584346,-13992.728471,-29359.776301,-13203.331912,-28102.356565,50193.032645,-8243.077486,-12905.360807,-11421.070864,-17.568001,-945.744019,-311.343994,1820.000000,-1820.000000,840.000000
-32099.384916,-23076.991508,-33519.882979,31541.351264,-31027.797583,-5015.172662,-18348.323506,-29143.120842,-13966.576930,-29340.442042,-13183.550618,-28082.977603,50218.156006,-8239.836483,-12902.566839,-11400.909591,-20.496000,-941.351990,-316.223999,1540.000000,-1120.000000,1680.000000
-32116.931035,-23093.420040,-33535.976235,31531.181220,-31046.148365,-5036.317412,-18363.925024,-29163.080950,-13982.558427,-29358.077569,-13203.108395,-28101.596606,50201.436901,-8245.491474,-12907.551278,-11416.734626,-28.304001,-935.984009,-312.808014,980.000000,-560.000000,2800.000000
-32146.927076,-23121.963217,-33563.580640,31511.444630,-31076.747903,-5071.074375,-18389.830695,-29193.278157,-14013.046207,-29383.804427,-13229.461101,-28127.882257,50172.603151,-8255.259187,-12914.860298,-11437.901728,-31.720001,-935.984009,-321.104004,0.000000,-140.000000,3920.000000
-32132.398442,-23109.043909,-33553.187079,31518.530133,-31064.141520,-5057.730384,-18378.587768,-29180.001221,-13996.930599,-29371.354505,-13217.592325,-28113.219513,50184.226058,-8253.985137,-12908.780624,-11425.295344,-29.280001,-933.544006,-315.248016,-1120.000000,560.000000,4060.000000
-32101.106000,-23080.344269,-33526.744965,31539.049034,-31033.631388,-5024.538043,-18352.682096,-29149.826366,-13968.387421,-29346.924048,-13193.810069,-28087.962042,50212.903346,-8245.178550,-12900.801051,-11402.138937,-32.208000,-937.447998,-319.640015,-1820.000000,840.000000,3640.000000
-32111.052526,-23091.274272,-33533.986930,31535.137479,-31041.365092,-5032.361154,-18358.292384,-29157.671828,-13981.820820,-29355.887098,-13205.120052,-28099.741411,50204.923773,-8242.742210,-12901.359844,-11408.397425,-29.280001,-942.816040,-314.760010,-2520.000000,980.000000,2520.000000
-32138.075785,-23119.504526,-33557.880945,31514.149191,-31072.232851,-5066.313453,-18386.097954,-29189.724230,-14009.872259,-29377.925918,-13228.209404,-28124.909475,50174.815974,-8249.492437,-12909.182955,-11431.844405,-26.352001,-943.791992,-321.592010,-2520.000000,560.000000,840.000000
-32130.297378,-23114.095403,-33552.471823,31516.630234,-31064.655610,-5060.703166,-18378.632471,-29184.158645,-14003.189087,-29371.443912,-13218.642857,-28119.187429,50180.783889,-8252.308756,-12906.634856,-11426.748207,-25.375999,-945.255981,-320.615997,-1260.000000,-140.000000,-840.000000
-32097.641480,-23080.634842,-33526.588503,31540.390139,-31028.870467,-5028.382543,-18346.736532,-29150.899249,-13971.986052,-29346.074682,-13192.960703,-28091.158341,50210.444654,-8243.613928,-12893.246161,-11404.105890,-17.080000,-946.231995,-319.152008,-420.000000,-1540.000000,-2380.000000
-32098.803770,-23081.238339,-33527.281407,31540.233676,-31031.083290,-5031.891767,-18348.368209,-29152.642685,-13974.377689,-29349.449795,-13197.118127,-28094.891083,50210.869337,-8241.535216,-12893.402623,-11408.308018,-16.104000,-946.231995,-321.104004,840.000000,-3080.000000,-3780.000000
-32131.884352,-23113.290741,-33555.958695,31520.184162,-31065.728493,-5070.716747,-18376.754925,-29184.806846,-14004.641951,-29375.780150,-13225.281325,-28125.602380,50178.951046,-8253.694565,-12903.460908,-11432.984344,-10.248000,-946.720032,-318.664001,2520.000000,-4480.000000,-4480.000000
-32135.862963,-23114.788308,-33559.534974,31518.440726,-31070.064732,-5074.985930,-18379.973576,-29189.500712,-14004.485488,-29374.439046,-13223.984924,-28127.904609,50174.234828,-8259.349556,-12905.494917,-11433.967821,-6.832000,-947.695984,-319.152008,3500.000000,-5460.000000,-5040.000000
-32104.637576,-23084.971080,-33534.121041,31537.551467,-31037.453537,-5036.093895,-18351.117474,-29156.218965,-13973.774192,-29345.873516,-13196.045243,-28100.769591,50204.007352,-8251.213521,-12895.481336,-11409.425605,-5.856000,-943.791992,-318.664001,4200.000000,-5880.000000,-5320.000000
-32098.043811,-23076.790342,-33528.041366,31544.525211,-31029.161039,-5027.332011,-18344.188433,-29151.390988,-13968.476828,-29338.139813,-13192.871296,-28097.461533,50211.025800,-8246.765524,-12888.999330,-11406.318713,-6.344000,-947.208008,-318.664001,4760.000000,-5880.000000,-5040.000000
-32126.430527,-23101.779592,-33552.069491,31526.465002,-31059.157081,-5063.653596,-18372.664556,-29185.924433,-13994.583666,-29360.603316,-13219.291058,-28124.328330,50182.437918,-8250.922948,-12892.977940,-11429.720989,-6.832000,-945.255981,-323.056000,5600.000000,-5740.000000,-4480.000000
-32136.980550,-23110.563828,-33560.496099,31518.150153,-31069.841214,-5074.807116,-18380.331204,-29197.055602,-14002.272666,-29368.627592,-13226.153043,-28132.173792,50171.731433,-8254.879207,-12893.559086,-11434.213690,-5.368000,-940.864014,-322.567993,6580.000000,-5180.000000,-3640.000000
-32105.531645,-23080.724249,-33534.948055,31536.679749,-31037.542944,-5040.944224,-18352.212709,-29168.065389,-13972.209569,-29341.492574,-13197.319293,-28104.055298,50201.526308,-8248.106628,-12883.232580,-11407.860983,-3.904000,-942.816040,-319.640015,6860.000000,-4480.000000,-2660.000000
-32089.505445,-23065.569766,-33520.553532,31546.916848,-31021.494391,-5023.129883,-18336.790006,-29150.429863,-13958.798523,-29329.266170,-13184.489391,-28090.152513,50217.843082,-8240.752905,-12878.784582,-11394.941675,-6.832000,-938.424011,-324.032013,7280.000000,-3360.000000,-1400.000000
-32112.885369,-23089.307319,-33539.373701,31530.734185,-31047.780043,-5055.159933,-18355.766637,-29175.888500,-13981.843171,-29350.880307,-13206.997598,-28112.951292,50194.887840,-8247.838407,-12886.428879,-11413.940658,-7.808000,-939.888000,-319.640015,7280.000000,-2520.000000,420.000000
-32124.664739,-23100.662005,-33551.354236,31521.681729,-31062.398083,-5077.019939,-18367.858931,-29195.446276,-13991.230904,-29361.966772,-13219.179299,-28123.009577,50179.196916,-8255.639166,-12889.468716,-11424.937716,-9.760000,-939.400024,-320.127991,6720.000000,-1540.000000,2100.000000
-32098.356736,-23072.834083,-33527.862552,31538.937275,-31036.581819,-5050.175494,-18345.954221,-29170.233508,-13964.162941,-29340.442042,-13195.709967,-28098.959100,50204.253221,-8249.604195,-12883.187876,-11404.731739,-9.760000,-940.376038,-324.032013,6020.000000,-1540.000000,3920.000000
-32080.095360,-23053.253955,-33511.389316,31552.996523,-31016.867580,-5027.175549,-18325.569430,-29148.060578,-13948.472017,-29324.728766,-13181.538961,-28085.615109,50222.380486,-8240.507035,-12876.102373,-11390.806602,-11.712000,-942.816040,-321.592010,5180.000000,-1120.000000,5320.000000
-32102.447105,-23074.935147,-33530.924741,31540.323083,-31042.370920,-5052.745945,-18344.277840,-29168.668886,-13972.187218,-29346.812290,-13205.500031,-28109.911455,50198.307657,-8248.106628,-12879.231617,-11411.034931,-10.736000,-943.791992,-319.152008,4480.000000,-700.000000,6020.000000
-32125.938788,-23097.979796,-33552.896506,31523.872200,-31071.495243,-5081.803212,-18370.608195,-29195.625090,-13994.404852,-29368.337019,-13225.214270,-28131.324426,50171.642026,-8258.790762,-12887.658225,-11430.324487,-11.224000,-944.280029,-320.127991,3640.000000,-140.000000,5880.000000
-32106.291605,-23076.812694,-33536.691491,31537.529115,-31052.183336,-5060.390241,-18354.067904,-29174.525043,-13974.400040,-29353.473109,-13209.791566,-28110.514952,50188.584648,-8258.097858,-12878.538713,-11413.583030,-17.080000,-945.255981,-314.272003,2520.000000,-140.000000,5740.000000
-32079.827139,-23050.527042,-33513.959767,31556.036360,-31023.528400,-5027.577880,-18331.380884,-29145.043092,-13950.863654,-29330.473164,-13190.725528,-28087.537359,50214.266803,-8254.186303,-12869.955643,-11395.209896,-21.472000,-947.208008,-318.664001,1680.000000,-560.000000,5460.000000
-32096.255672,-23068.050810,-33528.644863,31545.709854,-31041.141575,-5044.542854,-18345.238965,-29160.354037,-13970.466133,-29342.565458,-13207.578743,-28105.239940,50198.173547,-8257.695527,-12875.632987,-11408.263315,-24.400000,-947.695984,-315.735992,1400.000000,-840.000000,4480.000000
-32119.322672,-23090.491961,-33549.968427,31528.610769,-31069.505938,-5075.857648,-18368.194207,-29190.506541,-13990.448593,-29362.413807,-13228.231755,-28126.898781,50170.859715,-8264.915140,-12881.757364,-11426.189414,-27.816000,-945.744019,-316.223999,1120.000000,-700.000000,2940.000000
-32104.212893,-23075.538644,-33536.758546,31537.126784,-31055.826671,-5060.256131,-18353.732628,-29175.441465,-13973.550674,-29350.343865,-13213.658418,-28112.504257,50184.896610,-8261.405916,-12875.722393,-11413.292457,-27.816000,-942.328003,-316.712006,1260.000000,-980.000000,1260.000000
-32075.088570,-23048.291868,-33512.350441,31557.310409,-31026.098851,-5024.783912,-18324.608305,-29143.120842,-13947.533244,-29326.963940,-13189.496182,-28087.045620,50212.791587,-8249.537140,-12867.675765,-11391.723024,-28.304001,-942.816040,-318.664001,700.000000,-980.000000,-700.000000
-32085.415075,-23058.417208,-33521.134677,31552.013046,-31035.710101,-5036.004488,-18331.045607,-29152.575630,-13956.630404,-29337.782185,-13199.599171,-28097.595644,50203.917945,-8247.771352,-12872.280225,-11402.787137,-26.840000,-945.744019,-315.735992,700.000000,-980.000000,-2520.000000
-32114.070012,-23087.541531,-33547.755605,31531.583551,-31070.064732,-5074.494192,-18360.058172,-29187.042020,-13981.932578,-29362.905546,-13225.191918,-28122.003749,50174.748918,-8258.030803,-12882.696138,-11428.312830,-25.864000,-942.816040,-315.735992,560.000000,-1120.000000,-4200.000000
-32108.817352,-23079.785476,-33545.185154,31537.596171,-31064.454444,-5069.308587,-18352.458579,-29178.570709,-13973.684785,-29359.038694,-13219.849851,-28112.705423,50177.565238,-8259.215445,-12876.750574,-11418.746283,-22.936001,-943.791992,-319.640015,0.000000,-1400.000000,-5460.000000
-32080.654154,-23049.051827,-33521.648767,31560.014970,-31029.719833,-5031.869415,-18320.137956,-29142.696159,-13946.460360,-29338.095109,-13197.341644,-28083.670507,50205.393160,-8249.179512,-12867.742821,-11390.940713,-23.424000,-944.768005,-315.735992,-140.000000,-1680.000000,-6440.000000
-32080.497692,-23051.242298,-33521.872285,31557.824499,-31027.954045,-5029.500130,-18320.517936,-29143.590229,-13952.160055,-29341.336112,-13202.907229,-28086.397420,50203.828538,-8248.397201,-12873.084888,-11396.126318,-20.496000,-943.791992,-317.688019,-140.000000,-1820.000000,-6860.000000
-32108.258558,-23079.651365,-33547.196811,31536.635046,-31058.441825,-5063.541837,-18350.156349,-29177.050790,-13980.166791,-29367.107674,-13229.394046,-28112.258388,50174.994788,-8259.394259,-12881.198571,-11420.981457,-20.007999,-944.768005,-317.688019,-280.000000,-1960.000000,-7000.000000
-32110.784305,-23083.004127,-33550.080186,31533.058766,-31062.174566,-5066.738137,-18355.163140,-29181.677602,-13980.077384,-29369.588717,-13227.516499,-28111.274911,50173.251352,-8265.362175,-12882.025585,-11418.813338,-16.104000,-945.255981,-317.688019,280.000000,-2100.000000,-6720.000000
-32083.314011,-23053.902156,-33525.202695,31551.901287,-31031.910304,-5031.511787,-18329.771558,-29149.669903,-13950.371915,-29345.918220,-13199.845040,-28085.369239,50203.113282,-8259.461315,-12872.257873,-11395.835745,-14.152000,-948.671997,-314.760010,980.000000,-2520.000000,-6160.000000
-32082.486997,-23051.264650,-33522.900465,31555.365807,-31026.434127,-5025.566223,-18323.669532,-29142.003255,-13952.003592,-29345.046502,-13199.867392,-28084.072838,50207.673038,-8254.365117,-12870.603844,-11395.187544,-12.688000,-949.160034,-314.760010,1260.000000,-2660.000000,-5460.000000
-32116.998090,-23084.524046,-33550.616628,31534.265761,-31061.548717,-5064.525314,-18351.497454,-29172.803959,-13987.945198,-29373.612031,-13229.438749,-28115.253522,50176.782927,-8265.876265,-12879.723356,-11423.462501,-13.664001,-948.184021,-318.664001,1540.000000,-2940.000000,-4760.000000
-32125.715271,-23094.381165,-33557.769186,31525.213304,-31076.054999,-5077.288160,-18364.461465,-29183.868072,-13995.455384,-29379.490540,-13235.272555,-28121.333196,50169.138631,-8274.302873,-12882.517324,-11431.576184,-9.760000,-945.744019,-316.223999,1400.000000,-2940.000000,-3500.000000
-32095.965099,-23064.005144,-33532.288198,31542.982941,-31045.410758,-5042.352383,-18339.941602,-29154.073197,-13965.615805,-29350.992066,-13206.975246,-28092.208873,50199.782872,-8265.898617,-12875.811800,-11407.302190,-8.296000,-945.744019,-318.664001,1260.000000,-2940.000000,-2940.000000
-32083.291660,-23049.208289,-33520.732346,31552.683598,-31029.496316,-5025.096837,-18326.865831,-29140.773909,-13952.160055,-29341.179650,-13197.542810,-28081.077705,50211.316372,-8257.717879,-12874.783620,-11397.690940,-10.736000,-945.744019,-318.175995,1120.000000,-2520.000000,-2240.000000
-32111.879541,-23077.729115,-33546.526259,31534.757499,-31057.435996,-5058.602102,-18351.475102,-29172.066351,-13980.591474,-29368.247613,-13222.487357,-28108.972682,50182.907305,-8264.356347,-12884.439574,-11419.618001,-9.760000,-943.791992,-316.223999,1120.000000,-2380.000000,-1680.000000
-32129.738585,-23093.107115,-33563.491233,31521.391156,-31077.016124,-5081.445584,-18368.663593,-29192.942881,-13995.410680,-29385.011421,-13235.361962,-28123.233095,50165.115317,-8275.331053,-12890.832173,-11430.883280,-7.808000,-945.744019,-316.223999,840.000000,-2520.000000,-1400.000000
-32106.313957,-23068.073162,-33544.246381,31537.238543,-31051.512784,-5051.471895,-18344.926041,-29164.936145,-13973.081288,-29365.632458,-13214.038398,-28099.719059,50186.908267,-8274.436983,-12880.706832,-11409.313847,-10.736000,-944.280029,-313.783997,560.000000,-2240.000000,-1260.000000
-32085.862110,-23049.141234,-33528.846029,31552.013046,-31027.171734,-5024.269822,-18326.105872,-29139.231639,-13957.211549,-29349.338037,-13198.861563,-28083.201120,50205.281401,-8263.574036,-12874.515399,-11395.768690,-12.200000,-945.255981,-318.664001,420.000000,-1960.000000,-1120.000000
-32106.649233,-23072.163531,-33548.381454,31538.020854,-31049.791700,-5047.962671,-18346.222442,-29158.364732,-13981.932578,-29369.320496,-13219.648685,-28104.636443,50182.035587,-8263.216408,-12881.355033,-11415.348818,-14.640000,-945.744019,-318.175995,280.000000,-1680.000000,-1260.000000
-32130.118564,-23097.175133,-33567.581602,31520.072403,-31076.524386,-5075.544724,-18371.882245,-29181.655250,-14004.574895,-29385.860787,-13237.753598,-28125.445917,50159.303863,-8270.279559,-12889.736937,-11433.341972,-17.568001,-946.720032,-319.152008,560.000000,-1540.000000,-1400.000000
-32110.516084,-23078.198502,-33550.616628,31532.634083,-31055.692560,-5053.550607,-18358.202977,-29162.097473,-13983.519552,-29365.923031,-13220.632162,-28107.519818,50177.676997,-8272.335919,-12884.886609,-11418.589821,-15.616000,-949.160034,-317.688019,700.000000,-1540.000000,-1400.000000
-32084.655116,-23052.493996,-33530.477706,31550.962514,-31027.618769,-5023.129883,-18332.990209,-29135.543601,-13959.111447,-29345.068854,-13202.080214,-28087.693821,50200.520480,-8268.781992,-12876.683518,-11400.127280,-16.592001,-946.720032,-319.152008,1120.000000,-1540.000000,-1540.000000
-32099.071991,-23067.693182,-33544.916933,31540.837174,-31045.231944,-5041.234796,-18346.244794,-29152.843851,-13975.517628,-29360.290391,-13218.866374,-28103.608263,50185.611866,-8272.067698,-12881.578551,-11416.645219,-19.520000,-946.231995,-320.615997,1960.000000,-1960.000000,-1400.000000
-32127.525762,-23094.291758,-33569.749721,31522.396984,-31074.490377,-5074.382433,-18372.955128,-29183.018706,-14002.071500,-29383.223281,-13244.950860,-28128.485755,50159.527380,-8278.907332,-12889.535772,-11440.427475,-20.984001,-943.304016,-320.615997,2520.000000,-1960.000000,-1400.000000
-32110.761954,-23075.605699,-33557.143337,31531.918828,-31059.917040,-5058.624453,-18360.393448,-29170.859357,-13981.664357,-29369.119331,-13233.171491,-28112.951292,50171.574971,-8277.677986,-12880.349205,-11427.239946,-18.544001,-938.424011,-322.567993,2940.000000,-1960.000000,-980.000000
-32079.760084,-23043.240374,-33530.276541,31553.152985,-31027.305845,-5018.458369,-18327.826956,-29134.180145,-13953.121180,-29344.219487,-13207.399929,-28084.676335,50202.375675,-8268.290254,-12865.462943,-11397.757995,-23.424000,-939.400024,-318.664001,2940.000000,-2240.000000,-840.000000
-32087.918471,-23052.292830,-33536.333863,31549.733168,-31036.537115,-5025.745037,-18332.878450,-29138.449328,-13963.470037,-29352.422577,-13214.708950,-28095.025193,50196.452462,-8271.531257,-12867.273434,-11402.831841,-22.936001,-944.768005,-313.783997,3220.000000,-2380.000000,-840.000000
-32116.193428,-23081.618319,-33563.848861,31531.292979,-31069.707104,-5062.200732,-18359.991117,-29169.250032,-13991.879105,-29378.171787,-13239.966421,-28122.875467,50168.021043,-8282.796536,-12876.325891,-11425.161234,-21.960001,-944.280029,-314.760010,3220.000000,-2240.000000,-1120.000000
-32110.001994,-23075.963327,-33558.953829,31534.668092,-31065.952011,-5058.713860,-18356.616003,-29164.086779,-13983.273683,-29372.963831,-13233.707933,-28115.700557,50174.838325,-8280.293140,-12873.822495,-11418.545117,-23.424000,-947.208008,-308.903992,2240.000000,-1960.000000,-1960.000000
-32080.743561,-23044.469719,-33532.690529,31556.014008,-31034.100775,-5022.906366,-18329.011599,-29130.335645,-13951.936537,-29350.723845,-13208.852793,-28089.303147,50203.828538,-8271.173629,-12865.284129,-11394.561695,-19.032000,-947.695984,-307.928009,1120.000000,-1820.000000,-2800.000000
-32082.375238,-23045.855528,-33534.501020,31557.288057,-31035.285417,-5022.705200,-18330.799738,-29131.833211,-13955.535168,-29356.714112,-13212.920810,-28095.002841,50202.643895,-8270.771297,-12866.804047,-11402.049530,-16.104000,-952.575989,-311.343994,140.000000,-1260.000000,-3780.000000
-32110.650195,-23075.359830,-33558.596201,31537.864392,-31065.370866,-5058.512695,-18357.264204,-29163.527985,-13982.379613,-29379.088209,-13236.725418,-28122.137859,50173.988959,-8280.047271,-12872.280225,-11426.032952,-12.200000,-951.112000,-315.248016,-280.000000,-560.000000,-4340.000000
-32113.108887,-23076.991508,-33558.663256,31534.913961,-31066.443749,-5063.474782,-18358.292384,-29164.153834,-13980.993805,-29377.702400,-13231.539813,-28120.617940,50175.486526,-8279.823754,-12870.045050,-11421.629658,-11.712000,-947.695984,-323.544006,-420.000000,-420.000000,-4200.000000
-32083.649288,-23047.308391,-33533.472840,31554.471738,-31033.005540,-5029.008392,-18329.480985,-29130.715624,-13951.869482,-29354.389531,-13200.850868,-28092.432391,50205.951954,-8272.626492,-12862.691326,-11397.199201,-10.248000,-946.231995,-324.519989,280.000000,-1120.000000,-3780.000000
-32077.524910,-23042.547469,-33529.293064,31558.517403,-31028.602246,-5023.800436,-18324.563602,-29125.574723,-13950.438970,-29353.495461,-13197.006368,-28091.940652,50209.572936,-8271.486553,-12864.255949,-11400.149632,-9.760000,-947.695984,-323.544006,420.000000,-2240.000000,-3360.000000
-32108.660890,-23072.163531,-33555.578715,31538.758461,-31061.369903,-5061.418421,-18353.956146,-29156.844813,-13983.228979,-29383.402095,-13222.666171,-28122.517839,50179.331026,-8278.169725,-12873.353109,-11425.138882,-8.296000,-951.600037,-318.175995,280.000000,-3080.000000,-2940.000000
-32122.921303,-23082.959423,-33567.335733,31530.935351,-31072.858700,-5075.455317,-18366.070791,-29165.003200,-13993.555485,-29393.750953,-13232.031552,-28132.844345,50165.674110,-8283.198867,-12877.309367,-11429.497472,-5.856000,-955.015991,-313.295990,420.000000,-2940.000000,-2800.000000
-32096.032154,-23054.684467,-33545.766299,31551.856584,-31041.409795,-5042.128866,-18338.354628,-29132.190839,-13965.660508,-29367.889985,-13208.405758,-28107.452763,50191.780948,-8276.627454,-12867.139324,-11400.462556,-7.808000,-953.552002,-307.928009,1260.000000,-2660.000000,-3080.000000
-32079.827139,-23041.273420,-33532.109384,31563.166566,-31026.925865,-5023.979249,-18324.608305,-29115.315272,-13952.696497,-29357.049389,-13195.240580,-28096.723926,50208.254183,-8269.363137,-12862.646623,-11386.336253,-4.880000,-952.575989,-310.368011,2100.000000,-2380.000000,-3080.000000
-32099.876654,-23064.854510,-33552.829451,31546.670979,-31056.787796,-5057.216293,-18349.910480,-29144.998389,-13972.343680,-29377.590642,-13217.122938,-28119.433298,50183.153174,-8273.408803,-12871.721431,-11410.029103,-10.248000,-946.720032,-315.735992,2240.000000,-1820.000000,-2660.000000
-32116.662814,-23078.265557,-33566.262849,31537.283246,-31073.551604,-5079.545686,-18365.064963,-29164.690276,-13985.642968,-29391.202854,-13229.751674,-28129.603342,50167.194029,-8277.320358,-12876.147077,-11422.344914,-10.248000,-941.840027,-316.223999,1680.000000,-1260.000000,-1960.000000
-32092.254709,-23050.929374,-33545.922762,31556.014008,-31046.170717,-5054.936416,-18342.824977,-29140.349226,-13960.474904,-29372.226223,-13207.042302,-28103.272987,50190.596305,-8274.705204,-12865.574701,-11400.753129,-13.176001,-941.351990,-315.248016,560.000000,-980.000000,-980.000000
-32072.451064,-23033.830289,-33530.231837,31569.447406,-31026.389423,-5033.076409,-18329.346875,-29120.500877,-13945.722752,-29358.211679,-13191.865467,-28089.079629,50208.969439,-8272.291216,-12863.004251,-11391.141879,-15.616000,-944.768005,-317.688019,-840.000000,-140.000000,140.000000
-32093.282890,-23058.730132,-33549.677855,31554.583496,-31050.797528,-5059.362061,-18349.888128,-29140.840964,-13970.376726,-29376.808331,-13212.049092,-28114.560618,50187.914096,-8280.203733,-12868.323966,-11412.621905,-17.568001,-942.328003,-318.664001,-1680.000000,700.000000,840.000000
-32115.612282,-23079.897234,-33571.157881,31540.054863,-31074.311563,-5086.094747,-18368.484779,-29162.410398,-13991.029738,-29396.030831,-13232.143311,-28134.900705,50163.707157,-8289.502059,-12869.061574,-11428.536347,-18.056000,-941.351990,-314.272003,-2380.000000,1680.000000,1120.000000
-32096.970927,-23058.596022,-33554.125852,31554.471738,-31052.540964,-5061.820753,-18349.798721,-29139.633970,-13968.834456,-29377.389476,-13214.194860,-28114.158286,50180.783889,-8283.176515,-12859.673841,-11412.308981,-21.472000,-942.328003,-317.200012,-3080.000000,2380.000000,1120.000000
-32073.054561,-23032.489184,-33529.985968,31573.470720,-31022.075536,-5031.288270,-18325.837651,-29108.833266,-13943.889909,-29353.696627,-13190.412604,-28091.091286,50206.846023,-8272.850010,-12852.744800,-11391.968893,-26.840000,-945.744019,-323.056000,-3500.000000,2240.000000,980.000000
-32092.053544,-23050.661153,-33544.022863,31562.853642,-31037.051205,-5050.086087,-18338.667552,-29122.557237,-13962.263043,-29367.957040,-13205.432976,-28109.710289,50191.602134,-8275.174591,-12860.612614,-11404.955257,-25.375999,-946.231995,-320.615997,-3640.000000,1260.000000,560.000000
-32122.876599,-23079.338441,-33569.637963,31542.848831,-31068.611868,-5084.485422,-18364.126189,-29152.799148,-13989.845096,-29391.895758,-13229.416398,-28136.912362,50162.030776,-8286.350463,-12868.659242,-11425.742379,-21.472000,-947.208008,-321.104004,-3080.000000,-280.000000,0.000000
-32109.331442,-23063.692220,-33557.612724,31552.974171,-31053.636200,-5068.928608,-18349.463445,-29138.426976,-13973.148343,-29376.271889,-13216.608848,-28121.087327,50174.883029,-8287.043367,-12859.584434,-11412.376036,-20.496000,-948.184021,-320.615997,-2100.000000,-1400.000000,-840.000000
-32078.374276,-23032.779757,-33531.483535,31573.716590,-31019.169810,-5033.322279,-18320.182660,-29106.620444,-13943.733447,-29350.902659,-13191.485487,-28093.795847,50202.509785,-8283.176515,-12850.263757,-11387.520896,-16.592001,-947.208008,-316.223999,-420.000000,-2100.000000,-1680.000000
-32086.175035,-23039.261763,-33537.205581,31568.799206,-31024.757746,-5042.888825,-18327.178756,-29114.957644,-13952.607090,-29359.463377,-13199.129784,-28103.250635,50192.496203,-8283.444736,-12852.029544,-11393.980550,-14.640000,-948.671997,-315.735992,560.000000,-2380.000000,-2660.000000
-32118.428602,-23068.542548,-33562.865384,31548.727339,-31057.681865,-5079.165707,-18353.218538,-29148.574668,-13984.055994,-29386.643098,-13225.571898,-28130.698577,50163.103660,-8292.340731,-12858.489199,-11417.069902,-11.224000,-943.304016,-312.808014,980.000000,-2800.000000,-3220.000000
-32115.478172,-23061.680563,-33558.171518,31552.929467,-31052.697426,-5075.678834,-18346.781236,-29147.032398,-13977.484581,-29382.351563,-13221.101549,-28125.244752,50169.116279,-8292.631303,-12852.811855,-11408.844460,-11.224000,-942.816040,-318.175995,1260.000000,-2940.000000,-3780.000000
-32082.598756,-23028.309408,-33530.611817,31574.543604,-31018.208685,-5040.407782,-18316.047587,-29113.616540,-13943.711095,-29356.132967,-13195.084118,-28096.790981,50200.878108,-8279.644940,-12840.719562,-11383.631692,-11.224000,-940.864014,-317.200012,1260.000000,-3080.000000,-3920.000000
-32083.202253,-23030.455176,-33530.053023,31573.090741,-31021.248522,-5040.676003,-18315.332331,-29111.783697,-13945.990973,-29359.619839,-13198.213362,-28099.562597,50202.755654,-8274.705204,-12840.473692,-11388.996111,-11.224000,-941.840027,-315.735992,980.000000,-3500.000000,-3920.000000
-32112.997128,-23060.272403,-33556.159861,31552.862412,-31056.430168,-5077.064643,-18342.221480,-29144.014912,-13974.020061,-29386.263119,-13222.710874,-28127.524630,50172.580799,-8282.483611,-12845.972222,-11415.952315,-10.736000,-938.911987,-316.712006,1260.000000,-3080.000000,-3500.000000
-32113.332404,-23060.987659,-33559.110291,31553.242392,-31058.464176,-5079.523334,-18343.160253,-29146.048921,-13973.550674,-29386.330174,-13221.436825,-28127.815202,50168.557485,-8286.171649,-12841.770094,-11415.237059,-12.200000,-940.864014,-319.152008,1400.000000,-2380.000000,-2660.000000
-32082.509349,-23028.599981,-33532.802288,31576.152930,-31021.852019,-5039.670174,-18310.817279,-29111.202551,-13943.308764,-29357.161147,-13194.190048,-28099.182618,50200.140500,-8276.918027,-12828.873137,-11386.291550,-7.808000,-940.376038,-318.664001,1260.000000,-2100.000000,-1960.000000
-32078.150759,-23022.542658,-33528.823677,31580.735037,-31015.437068,-5031.288270,-18303.888238,-29103.066516,-13940.201871,-29354.188365,-13192.178391,-28097.953272,50208.075369,-8273.498210,-12832.047085,-11384.771631,-11.712000,-941.840027,-323.544006,980.000000,-1960.000000,-1120.000000
-32109.420849,-23052.672810,-33558.059759,31560.260839,-31049.456423,-5069.286235,-18332.789044,-29135.409491,-13973.528322,-29385.927842,-13221.146252,-28130.050377,50177.788756,-8280.226085,-12845.346373,-11413.180699,-6.344000,-941.351990,-322.080017,700.000000,-1960.000000,-140.000000
-32118.026271,-23060.808845,-33567.894526,31554.002351,-31060.520537,-5085.379491,-18346.915346,-29147.054749,-13982.178448,-29394.868540,-13229.014066,-28137.627618,50166.165849,-8286.104594,-12848.117989,-11419.238021,-10.736000,-942.816040,-323.056000,560.000000,-1680.000000,560.000000
-32088.432561,-23031.058673,-33543.084090,31572.755465,-31030.680958,-5050.778991,-18323.647180,-29115.941121,-13952.271813,-29369.946345,-13201.320255,-28110.000862,50193.099701,-8277.767393,-12840.317230,-11393.287646,-8.296000,-939.888000,-325.496002,-280.000000,-1540.000000,1540.000000
-32077.770779,-23018.876972,-33533.092860,31583.149026,-31016.308786,-5032.696430,-18313.097157,-29100.339603,-13944.180482,-29362.994953,-13189.652644,-28101.596606,50206.466044,-8275.487515,-12837.344448,-11381.597684,-8.784000,-941.840027,-325.007996,-280.000000,-1260.000000,1960.000000
-32107.632709,-23047.755426,-33557.925648,31566.608735,-31045.097833,-5064.994701,-18340.768616,-29126.491144,-13972.164866,-29388.140665,-13212.920810,-28129.446880,50180.649779,-8288.607989,-12846.821588,-11404.128242,-12.688000,-940.864014,-321.592010,-560.000000,-980.000000,2240.000000
-32123.681262,-23064.362772,-33573.348352,31553.465909,-31066.264935,-5086.027692,-18357.532425,-29143.590229,-13982.401965,-29403.183389,-13225.616601,-28142.254429,50162.813087,-8297.794556,-12851.627213,-11416.689922,-12.200000,-941.840027,-321.104004,-280.000000,-700.000000,2100.000000
-32099.161398,-23038.077121,-33553.298837,31570.699104,-31037.922923,-5057.864494,-18332.386712,-29115.538790,-13954.283470,-29383.200930,-13204.337740,-28117.265179,50185.388349,-8291.021978,-12837.590317,-11393.287646,-11.712000,-943.304016,-322.080017,-420.000000,-420.000000,1680.000000
-32078.597793,-23019.659283,-33536.043291,31585.428904,-31010.676147,-5030.304793,-18311.197258,-29091.443609,-13936.625592,-29366.928860,-13186.970435,-28100.009632,50206.354285,-8282.260094,-12827.688495,-11374.378070,-13.664001,-945.255981,-317.688019,-280.000000,-140.000000,1260.000000
-32096.188616,-23040.804033,-33554.237611,31571.324953,-31032.826726,-5053.237683,-18328.430453,-29115.650548,-13958.642061,-29386.084305,-13205.991770,-28122.160211,50186.461232,-8285.277579,-12838.372628,-11391.365396,-16.104000,-944.280029,-319.640015,-420.000000,0.000000,560.000000
-32119.099154,-23062.954612,-33577.863404,31554.941124,-31059.045322,-5081.646750,-18348.435265,-29144.350188,-13983.296035,-29408.458401,-13227.047113,-28145.987170,50160.734375,-8295.157051,-12847.179216,-11410.699655,-14.640000,-946.720032,-318.175995,-560.000000,140.000000,-280.000000
-32097.127390,-23041.519289,-33560.429044,31567.949840,-31038.727586,-5061.329014,-18331.023256,-29125.686482,-13961.190159,-29391.538130,-13210.618581,-28127.681092,50176.291189,-8294.106519,-12843.021791,-11396.126318,-16.592001,-944.280029,-320.615997,-420.000000,280.000000,-980.000000
-32068.025418,-23014.026644,-33536.266808,31588.312279,-31007.479847,-5028.941337,-18304.491735,-29093.343507,-13934.725694,-29369.834586,-13188.020967,-28102.222455,50202.934468,-8286.149297,-12834.014038,-11376.345024,-17.568001,-944.768005,-321.592010,-560.000000,420.000000,-1680.000000
-32082.621107,-23030.254010,-33550.393111,31580.466816,-31022.969606,-5045.056944,-18316.204049,-29107.827438,-13950.975412,-29383.156226,-13201.655531,-28117.689862,50189.188145,-8289.658521,-12836.808006,-11390.046643,-14.640000,-943.791992,-321.104004,-560.000000,280.000000,-2240.000000
-32112.103058,-23059.266574,-33574.980029,31563.501842,-31054.932601,-5078.405747,-18341.640334,-29136.974113,-13979.228017,-29404.256273,-13224.051979,-28143.237906,50161.136706,-8297.727501,-12844.340544,-11411.951353,-12.688000,-946.231995,-324.032013,-560.000000,0.000000,-2800.000000
-32104.369355,-23048.850661,-33563.468881,31571.816691,-31043.533211,-5063.363023,-18329.235116,-29124.859467,-13969.147380,-29392.521607,-13211.803223,-28132.218496,50173.363110,-8293.301856,-12839.110236,-11401.915419,-12.688000,-943.791992,-324.519989,-700.000000,-280.000000,-2940.000000
-32074.954459,-23018.653455,-33536.043291,31592.804979,-31010.363222,-5025.253299,-18299.842572,-29093.768191,-13939.576023,-29366.168900,-13186.612807,-28104.345871,50202.085102,-8279.510829,-12827.532032,-11380.882428,-11.712000,-943.791992,-324.032013,-420.000000,-420.000000,-2940.000000
-32081.235299,-23026.029530,-33542.257076,31589.698087,-31017.471077,-5033.478741,-18303.418851,-29101.054859,-13945.588642,-29374.371990,-13194.413566,-28113.577141,50192.719721,-8279.689643,-12825.676838,-11387.699710,-11.712000,-943.791992,-323.056000,0.000000,-280.000000,-2940.000000
-32110.381974,-23052.449292,-33566.218146,31572.017857,-31047.623580,-5066.827544,-18327.357570,-29128.569857,-13973.595378,-29399.830627,-13218.642857,-28137.918191,50166.478773,-8286.238704,-12830.191890,-11409.470309,-9.760000,-944.768005,-325.984009,280.000000,-140.000000,-2800.000000
-32104.369355,-23045.408493,-33561.501928,31573.448369,-31042.259162,-5061.329014,-18327.514032,-29124.188915,-13963.380630,-29393.303918,-13211.758520,-28130.139784,50171.954950,-8288.049196,-12829.946021,-11404.217649,-6.344000,-942.816040,-319.152008,280.000000,-140.000000,-2520.000000
-32068.293639,-23012.283207,-33535.260980,31592.804979,-31007.725717,-5026.504997,-18301.787174,-29091.801237,-13928.355447,-29364.648982,-13185.763441,-28101.842475,50200.654590,-8284.539972,-12822.927573,-11380.435393,-10.248000,-943.304016,-324.032013,0.000000,0.000000,-2380.000000
-32069.031247,-23010.942103,-33538.166706,31593.542587,-31006.474019,-5030.282441,-18300.647235,-29091.443609,-13933.228127,-29365.923031,-13189.250313,-28106.938673,50199.089968,-8285.434042,-12823.128739,-11381.709442,-9.272000,-941.840027,-321.592010,-280.000000,280.000000,-1820.000000
-32101.798904,-23041.765158,-33567.715713,31571.749636,-31041.700368,-5070.470878,-18330.598573,-29125.239447,-13968.074497,-29393.460380,-13215.871241,-28136.219458,50167.663415,-8293.167745,-12835.623364,-11410.364379,-8.784000,-943.304016,-322.567993,-280.000000,280.000000,-1260.000000
-32106.291605,-23045.408493,-33573.057779,31569.223889,-31045.947200,-5077.779898,-18334.532480,-29129.620389,-13971.539017,-29396.969604,-13219.469871,-28136.688845,50163.796564,-8296.229934,-12835.690419,-11413.493623,-8.296000,-947.695984,-320.127991,-420.000000,420.000000,-980.000000
-32076.966116,-23015.188934,-33546.190983,31590.994488,-31011.816086,-5041.033630,-18304.402328,-29091.644775,-13942.168825,-29370.639249,-13196.671092,-28105.798734,50193.546735,-8288.429175,-12823.620477,-11385.106907,-7.808000,-945.255981,-319.640015,-420.000000,420.000000,-560.000000
-32067.801901,-23006.449402,-33537.429099,31598.102343,-31003.031850,-5028.315488,-18295.416927,-29080.915938,-13935.910336,-29365.677162,-13196.447575,-28099.808466,50203.649724,-8282.483611,-12819.686570,-11382.491753,-9.272000,-944.768005,-318.664001,-140.000000,280.000000,-280.000000
-32094.132256,-23034.254972,-33558.909125,31579.662154,-31033.430223,-5058.624453,-18320.763805,-29113.728298,-13961.167808,-29387.604223,-13221.883860,-28124.395385,50176.827631,-8289.524411,-12825.945059,-11410.342027,-10.736000,-943.791992,-321.592010,-140.000000,280.000000,-140.000000
-32102.447105,-23042.435711,-33565.145262,31571.928450,-31044.136708,-5069.062718,-18330.308000,-29127.273456,-13963.425334,-29391.001688,-13225.303677,-28128.463403,50168.915113,-8294.598257,-12828.649620,-11418.813338,-10.736000,-944.768005,-321.592010,140.000000,0.000000,0.000000
-32070.372351,-23008.751632,-33539.396052,31593.207311,-31010.877313,-5033.858721,-18301.653063,-29095.958662,-13930.635325,-29365.811272,-13198.794508,-28098.936748,50198.620581,-8286.350463,-12819.083073,-11394.718158,-12.688000,-946.720032,-324.519989,-420.000000,0.000000,-140.000000
-32055.664904,-22994.938254,-33528.331939,31605.254901,-30993.308841,-5016.066732,-18285.336290,-29077.540824,-13920.018246,-29356.803519,-13189.674996,-28088.900815,50212.813939,-8279.399071,-12815.953829,-11383.452878,-12.200000,-943.304016,-320.127991,0.000000,-140.000000,-140.000000
-32082.844625,-23023.280266,-33552.293009,31587.887596,-31023.506048,-5048.588520,-18309.744395,-29106.687499,-13948.963755,-29381.189273,-13212.250258,-28117.019310,50186.997674,-8287.535106,-12827.599088,-11402.563620,-14.152000,-944.280029,-320.615997,-420.000000,-140.000000,-280.000000
-32100.726020,-23039.217060,-33568.296858,31575.012991,-31045.477813,-5070.873209,-18327.223459,-29126.379386,-13962.732430,-29395.494389,-13224.767235,-28131.637351,50170.077404,-8294.441795,-12833.924631,-11411.616076,-13.176001,-944.768005,-321.592010,-280.000000,-420.000000,-420.000000
-32076.362619,-23012.037338,-33547.040349,31593.721401,-31015.124144,-5043.045287,-18301.586008,-29096.025717,-13935.373895,-29373.924956,-13203.555429,-28106.513990,50192.652666,-8287.937437,-12823.173442,-11388.727890,-14.640000,-945.744019,-325.007996,-280.000000,-280.000000,-560.000000
-32054.122633,-22988.232730,-33526.722613,31612.429811,-30987.407981,-5017.497244,-18277.155552,-29067.750760,-13914.363255,-29356.356484,-13188.177429,-28087.649117,50213.216271,-8281.835411,-12810.276486,-11370.600625,-11.224000,-943.791992,-321.104004,-280.000000,-700.000000,-700.000000
-32073.836872,-23007.187010,-33544.916933,31600.471628,-31009.156228,-5043.827599,-18293.941712,-29089.364897,-13934.010438,-29374.528453,-13208.048130,-28109.352661,50193.546735,-8287.289236,-12811.863460,-11388.012634,-12.688000,-941.840027,-321.592010,-420.000000,-700.000000,-980.000000
-32094.869863,-23028.376463,-33564.027675,31587.708782,-31033.251409,-5072.281369,-18314.930000,-29113.504781,-13952.495331,-29392.298090,-13226.689485,-28128.843382,50173.273703,-8293.748891,-12815.327980,-11405.916382,-11.712000,-943.304016,-322.567993,-560.000000,-700.000000,-1120.000000
-32076.563785,-23007.276417,-33549.499041,31602.662099,-31013.000728,-5050.846046,-18299.619055,-29092.047106,-13931.641153,-29379.401133,-13210.082139,-28111.811353,50191.356265,-8288.831507,-12810.209430,-11390.359567,-10.248000,-943.304016,-322.080017,-280.000000,-980.000000,-980.000000
-32055.351979,-22985.461114,-33528.466049,31619.671776,-30985.597490,-5017.229023,-18276.507351,-29058.474786,-13911.904563,-29360.759778,-13189.026796,-28093.348812,50219.117131,-8280.851934,-12806.655503,-11370.913550,-11.712000,-945.255981,-318.664001,0.000000,-840.000000,-1120.000000
-32067.176052,-23000.883818,-33538.904314,31611.133410,-31000.126123,-5033.009354,-18289.828991,-29072.914013,-13925.092092,-29371.399208,-13204.829479,-28108.771516,50208.120073,-8284.361158,-12811.259962,-11384.995149,-10.248000,-945.255981,-321.592010,280.000000,-840.000000,-1120.000000
-32092.321765,-23025.180164,-33562.798329,31595.487189,-31029.049281,-5069.912084,-18313.208915,-29102.977109,-13947.063857,-29393.750953,-13233.439712,-28132.665531,50176.671168,-8296.878135,-12815.976181,-11405.804623,-12.688000,-943.304016,-322.567993,280.000000,-980.000000,-1260.000000
-32078.217814,-23009.936274,-33553.231782,31603.779686,-31018.231036,-5060.077317,-18301.586008,-29092.181217,-13931.864671,-29382.329212,-13222.263840,-28120.148554,50184.091948,-8299.113309,-12809.136547,-11395.969855,-13.176001,-942.328003,-322.567993,420.000000,-700.000000,-1120.000000
-32049.406415,-22980.119047,-33528.197828,31624.544457,-30984.904585,-5022.973421,-18272.461685,-29057.424254,-13904.372025,-29354.925973,-13197.542810,-28093.885254,50213.417436,-8289.524411,-12800.173497,-11371.248826,-8.784000,-941.840027,-321.104004,140.000000,-560.000000,-980.000000
-32061.275191,-22991.429030,-33535.350387,31619.560018,-30994.873463,-5030.461255,-18278.004918,-29063.235708,-13917.470147,-29362.972601,-13208.517517,-28105.508161,50203.940297,-8287.646864,-12804.934419,-11377.931998,-9.760000,-941.351990,-324.519989,-280.000000,-140.000000,-840.000000
-32095.495712,-23025.090757,-33563.960619,31597.185921,-31033.363167,-5068.235703,-18311.353721,-29098.819685,-13949.388438,-29392.052220,-13236.747770,-28135.660665,50172.513744,-8297.503984,-12817.138471,-11400.507259,-8.784000,-941.840027,-322.080017,-560.000000,140.000000,-560.000000
-32093.573462,-23024.062577,-33562.999494,31596.224796,-31031.798545,-5067.766317,-18313.901819,-29098.931444,-13946.728581,-29390.867578,-13231.696276,-28131.391481,50176.760575,-8302.175498,-12820.982971,-11397.579181,-9.760000,-937.936035,-324.519989,-980.000000,420.000000,-420.000000
-32063.555069,-22992.345451,-33535.864477,31618.330672,-30994.247615,-5031.623546,-18284.844552,-29067.817815,-13914.653828,-29366.593583,-13203.533078,-28102.557731,50207.740093,-8293.324207,-12811.215259,-11375.294492,-6.832000,-938.911987,-323.056000,-1400.000000,420.000000,-280.000000
-32059.151776,-22986.623405,-33533.651654,31623.650387,-30986.625670,-5027.957860,-18278.563711,-29064.375647,-13910.317589,-29365.855976,-13206.639970,-28101.328385,50208.745922,-8288.675045,-12803.638018,-11376.523838,-8.296000,-942.328003,-326.959991,-1260.000000,700.000000,-280.000000
-32088.298451,-23015.881838,-33562.217183,31603.645575,-31020.846191,-5067.766317,-18306.905723,-29098.864388,-13940.805369,-29391.560482,-13234.780816,-28129.022196,50175.911209,-8300.029731,-12809.672989,-11401.647198,-11.224000,-939.400024,-325.984009,-1260.000000,560.000000,-280.000000
-32094.400477,-23020.016911,-33568.095692,31599.018764,-31027.507010,-5074.315378,-18310.638465,-29103.401792,-13946.750933,-29398.042488,-13237.597136,-28132.419662,50169.071575,-8306.087054,-12808.153070,-11399.166155,-12.688000,-940.376038,-325.496002,-840.000000,420.000000,0.000000
-32064.560898,-22992.501914,-33541.810041,31616.922512,-30995.968699,-5035.870378,-18283.235226,-29068.108388,-13919.146528,-29375.333115,-13211.870278,-28106.670452,50198.575878,-8299.560344,-12798.765337,-11373.461649,-10.736000,-940.864014,-324.519989,-700.000000,280.000000,0.000000
-32056.715436,-22987.472771,-33535.529200,31620.722308,-30987.765609,-5026.929680,-18274.763915,-29058.139510,-13913.938572,-29370.326325,-13209.568049,-28105.128182,50204.655552,-8295.335864,-12799.927628,-11372.388765,-9.272000,-941.351990,-323.056000,-280.000000,0.000000,0.000000
-32084.453950,-23016.284170,-33560.361989,31600.695145,-31019.840362,-5063.363023,-18300.200200,-29089.878987,-13940.224223,-29393.080401,-13235.853700,-28132.710234,50177.006445,-8300.655580,-12810.030617,-11397.065091,-12.200000,-944.768005,-328.424011,140.000000,0.000000,0.000000
-32097.194445,-23026.454213,-33571.560213,31592.872035,-31033.989016,-5078.629265,-18309.453822,-29104.698194,-13949.075514,-29402.870465,-13243.922680,-28140.153365,50166.612883,-8306.332923,-12811.327018,-11400.730777,-12.688000,-940.864014,-324.519989,280.000000,-280.000000,-140.000000
-32070.595869,-22996.413469,-33547.420329,31614.329709,-31002.808333,-5046.487456,-18279.658947,-29075.797388,-13921.873441,-29381.613956,-13219.291058,-28115.052356,50194.932544,-8298.800385,-12800.776994,-11375.070974,-11.224000,-940.864014,-325.007996,420.000000,-280.000000,-560.000000
-32050.725168,-22978.465018,-33530.388299,31627.383128,-30983.898757,-5024.225119,-18262.649269,-29055.390245,-13904.506136,-29368.269964,-13204.471851,-28102.647138,50212.948050,-8292.497193,-12794.674968,-11364.029212,-10.736000,-942.328003,-325.984009,700.000000,-280.000000,-840.000000
-32076.094398,-23002.560199,-33554.058797,31611.289872,-31011.793734,-5055.182285,-18286.453877,-29082.167635,-13933.272831,-29391.672241,-13227.851776,-28129.871563,50187.310599,-8300.119138,-12800.531125,-11388.705538,-12.200000,-938.911987,-327.936005,280.000000,0.000000,-1260.000000
-32095.294547,-23018.094661,-33571.873137,31599.085820,-31032.312635,-5081.222067,-18304.469383,-29105.145229,-13950.103694,-29408.011366,-13243.721514,-28147.015351,50167.953988,-8310.378588,-12805.113233,-11405.603457,-10.248000,-939.888000,-328.424011,280.000000,140.000000,-1540.000000
-32071.445235,-22993.619501,-33551.913029,31615.268483,-31006.138743,-5055.629320,-18282.408212,-29078.300783,-13924.130967,-29389.727639,-13224.633124,-28125.848249,50191.535078,-8306.332923,-12797.223067,-11386.492716,-14.152000,-941.351990,-326.959991,280.000000,700.000000,-1820.000000
-32048.758215,-22972.161826,-33533.785764,31629.305378,-30983.049391,-5030.103627,-18263.945671,-29052.842146,-13902.114499,-29373.455569,-13210.551525,-28109.643234,50212.389256,-8300.052083,-12791.053985,-11373.551056,-10.736000,-938.424011,-327.936005,280.000000,420.000000,-1960.000000
-32068.025418,-22991.585492,-33550.326055,31613.390936,-31004.641176,-5051.918930,-18284.084592,-29074.165711,-13923.102787,-29391.448723,-13230.131654,-28129.312769,50193.882012,-8307.897545,-12799.525297,-11395.366358,-10.248000,-938.911987,-326.959991,280.000000,280.000000,-2100.000000
-32094.467532,-23013.624312,-33570.129701,31599.354041,-31027.372900,-5079.769204,-18303.597665,-29099.669051,-13948.047334,-29411.900569,-13247.655421,-28148.736435,50173.072538,-8317.084112,-12802.542782,-11411.213745,-9.760000,-941.351990,-328.424011,560.000000,140.000000,-2100.000000
-32077.346096,-22995.966434,-33554.394073,31613.212122,-31007.792772,-5057.283349,-18285.760973,-29077.518472,-13928.936592,-29393.974470,-13226.577726,-28129.268066,50191.378616,-8315.474786,-12796.351349,-11393.600570,-9.760000,-939.888000,-328.424011,560.000000,140.000000,-2520.000000
-32048.020607,-22967.557367,-33528.622511,31632.524029,-30978.847263,-5024.918023,-18259.564729,-29047.567135,-13898.940551,-29368.001743,-13199.666226,-28103.787077,50217.843082,-8311.116196,-12791.366910,-11372.321710,-7.320000,-938.911987,-328.424011,980.000000,140.000000,-2520.000000
-32059.375293,-22979.716716,-33536.490326,31623.985663,-30990.917205,-5041.972404,-18271.992299,-29063.347466,-13912.552764,-29376.338944,-13209.255124,-28115.991129,50205.303753,-8313.776054,-12795.211410,-11385.866867,-7.320000,-937.936035,-330.376007,1120.000000,140.000000,-2520.000000
-32084.677468,-23004.504800,-33557.769186,31605.947805,-31018.454554,-5075.321206,-18298.836744,-29096.137476,-13936.335020,-29397.103715,-13228.544680,-28136.979417,50180.158041,-8324.862519,-12798.765337,-11408.799757,-9.272000,-941.840027,-325.984009,700.000000,420.000000,-2380.000000
-32061.945744,-22982.264815,-33543.687587,31617.257788,-31001.467228,-5063.407727,-18286.163305,-29087.979089,-13907.322455,-29378.663525,-13211.736168,-28115.991129,50192.250334,-8321.599164,-12786.918913,-11399.322617,-6.832000,-940.376038,-327.936005,700.000000,700.000000,-2240.000000
-32016.795220,-22934.923820,-33510.450543,31649.131375,-30956.562573,-5027.153197,-18247.941822,-29053.132719,-13859.780295,-29344.174784,-13182.097755,-28076.830873,50223.341611,-8302.935458,-12761.437924,-11370.734736,-8.784000,-939.400024,-327.447998,840.000000,1120.000000,-2100.000000
-32012.838961,-22928.464166,-33510.227026,31654.629905,-30954.260344,-5034.641032,-18243.717342,-29054.339713,-13854.214710,-29345.270019,-13187.216304,-28076.942632,50217.328992,-8295.671141,-12751.357287,-11370.600625,-9.760000,-940.376038,-327.447998,560.000000,1260.000000,-1960.000000
-32042.186802,-22953.565175,-33534.992759,31640.078919,-30982.915280,-5070.627340,-18265.599700,-29082.793484,-13881.103859,-29371.108636,-13215.848889,-28102.557731,50185.254238,-8300.812042,-12752.027840,-11390.761899,-11.224000,-939.888000,-326.959991,420.000000,1540.000000,-1680.000000
-32040.979807,-22950.681800,-33533.137564,31642.492907,-30978.914318,-5065.307625,-18262.202235,-29075.618574,-13880.030975,-29369.521662,-13211.155023,-28098.400307,50188.137613,-8303.270734,-12747.982174,-11388.705538,-9.760000,-942.816040,-320.127991,140.000000,1540.000000,-1260.000000
-32015.632929,-22926.519564,-33508.997680,31658.228535,-30949.432367,-5027.264956,-18239.626973,-29040.392225,-13855.332298,-29347.952229,-13186.344586,-28074.372181,50218.692448,-8299.672103,-12744.316488,-11366.197332,-11.224000,-942.328003,-321.592010,420.000000,2100.000000,-980.000000
-32027.255836,-22935.549669,-33514.742078,31654.652256,-30952.271039,-5026.147369,-18244.253784,-29038.917010,-13870.017394,-29358.658714,-13195.732319,-28084.430466,50217.753675,-8301.549649,-12748.630375,-11370.220646,-12.200000,-946.231995,-324.519989,700.000000,2100.000000,-560.000000
-32072.585174,-22983.717678,-33551.845974,31623.739794,-30996.795714,-5066.291102,-18284.509275,-29076.870272,-13917.090168,-29398.690688,-13231.226889,-28127.032891,50185.500107,-8318.358161,-12769.484552,-11402.138937,-10.736000,-948.184021,-328.424011,700.000000,2100.000000,-420.000000
-32084.521006,-22996.704042,-33564.050026,31612.072183,-31011.056126,-5075.008282,-18300.848401,-29090.929519,-13926.500252,-29409.307767,-13237.664191,-28137.918191,50176.000616,-8326.494196,-12782.917951,-11411.638428,-7.808000,-945.744019,-325.984009,840.000000,2100.000000,-280.000000
-32052.781529,-22968.898471,-33540.066605,31626.556114,-30982.289431,-5038.440828,-18279.167209,-29061.715789,-13897.085356,-29382.463322,-13207.914020,-28112.504257,50205.996657,-8320.749798,-12781.018052,-11389.934884,-9.760000,-945.744019,-324.519989,840.000000,1820.000000,-280.000000
-32043.103223,-22960.985954,-33533.584599,31633.462803,-30973.616955,-5027.555529,-18270.070049,-29053.244478,-13890.960978,-29378.283546,-13204.158927,-28108.793868,50215.004410,-8317.285278,-12777.911160,-11385.844515,-10.736000,-949.648010,-321.592010,1120.000000,1540.000000,-700.000000
-32075.692067,-22988.903283,-33559.557326,31616.609587,-31002.651871,-5062.759526,-18291.684185,-29087.040316,-13924.287429,-29405.642081,-13233.953802,-28137.225287,50184.874259,-8319.811025,-12781.509791,-11408.151556,-8.784000,-949.648010,-322.567993,1820.000000,1400.000000,-1260.000000
-32087.627898,-22996.949911,-33570.844957,31609.546436,-31014.542999,-5079.456279,-18300.043738,-29104.429973,-13930.881194,-29411.632348,-13244.190901,-28142.567354,50172.491392,-8320.570984,-12782.403860,-11416.511108,-12.200000,-948.671997,-322.080017,2660.000000,840.000000,-1400.000000
-32058.749444,-22964.763399,-33546.459204,31630.579428,-30985.239862,-5048.342651,-18273.266348,-29076.870272,-13899.186420,-29383.782075,-13220.296886,-28111.900760,50199.738169,-8310.467995,-12771.138581,-11393.689977,-10.736000,-945.744019,-325.007996,3500.000000,-140.000000,-1540.000000
-32043.103223,-22953.721637,-33532.444660,31639.207201,-30972.097036,-5029.656593,-18260.391743,-29059.950001,-13884.814249,-29369.454607,-13210.350360,-28103.317690,50215.920832,-8302.220202,-12770.177456,-11385.978626,-10.736000,-939.888000,-325.984009,4060.000000,-840.000000,-1120.000000
-32073.702761,-22980.655489,-33556.405730,31624.097422,-30999.455571,-5059.943206,-18281.715307,-29085.609804,-13914.720883,-29395.248520,-13236.703066,-28130.743281,50190.909230,-8308.411635,-12774.044308,-11407.458652,-9.760000,-938.911987,-330.376007,3920.000000,-700.000000,-840.000000
-32095.294547,-23001.308501,-33573.169538,31610.485209,-31018.879237,-5083.166669,-18298.903799,-29104.586435,-13934.323363,-29412.571122,-13252.617508,-28147.618848,50172.044357,-8314.267792,-12776.592407,-11418.992152,-11.224000,-939.400024,-328.424011,3080.000000,-420.000000,-840.000000
-32068.807729,-22976.788637,-33549.946076,31625.952616,-30994.627594,-5055.830485,-18279.614243,-29081.251214,-13906.182516,-29389.124142,-13228.298811,-28122.204914,50196.564221,-8305.662370,-12771.362099,-11402.116585,-11.224000,-943.304016,-326.959991,2660.000000,420.000000,-1400.000000
-32047.350055,-22958.750779,-33533.092860,31640.637713,-30973.080513,-5029.164854,-18261.330516,-29056.865460,-13886.512981,-29373.343810,-13207.377578,-28105.284644,50220.078256,-8298.845088,-12764.745982,-11386.805640,-12.688000,-944.768005,-325.007996,2940.000000,980.000000,-1820.000000
-32066.349037,-22983.270643,-33553.589410,31625.282064,-30997.935652,-5054.712898,-18283.324633,-29079.686592,-13905.467261,-29392.745124,-13226.957706,-28127.077595,50197.570049,-8306.779958,-12771.227988,-11407.235135,-13.664001,-946.720032,-321.104004,3220.000000,1120.000000,-2380.000000
-32090.578328,-23005.063594,-33573.616573,31610.485209,-31022.522571,-5085.603009,-18304.648197,-29108.542694,-13928.064874,-29412.302901,-13246.135503,-28145.964819,50171.150288,-8315.810062,-12774.960729,-11426.100007,-13.664001,-946.720032,-319.152008,4200.000000,980.000000,-3080.000000
-32076.608488,-22986.846922,-33558.886773,31622.018709,-31001.221359,-5064.815887,-18287.303244,-29089.387249,-13913.491537,-29398.645985,-13230.891613,-28128.262237,50189.031683,-8311.742045,-12768.635186,-11409.827937,-12.688000,-948.184021,-320.127991,5040.000000,560.000000,-3640.000000
-32054.457909,-22963.936384,-33535.305683,31640.660064,-30968.699571,-5028.561357,-18260.145874,-29056.731350,-13893.397319,-29378.440008,-13208.651627,-28107.497467,50218.737151,-8298.465109,-12757.772238,-11387.275027,-13.664001,-945.255981,-320.615997,5320.000000,280.000000,-4060.000000
-32059.934087,-22973.838207,-33544.067567,31631.473497,-30982.915280,-5042.262976,-18275.702688,-29069.807121,-13897.465336,-29387.157188,-13218.709912,-28120.908513,50209.260012,-8300.633228,-12766.243549,-11399.613190,-14.640000,-944.768005,-320.615997,5460.000000,0.000000,-4620.000000
-32085.370372,-22996.502876,-33568.386265,31616.944863,-31011.301996,-5076.304683,-18297.965026,-29099.020851,-13919.995894,-29412.839343,-13244.280308,-28145.875412,50177.878163,-8310.892679,-12768.210503,-11421.875527,-13.176001,-943.304016,-316.223999,5040.000000,-140.000000,-4900.000000
-32077.480206,-22985.908149,-33561.591335,31622.443393,-30999.902606,-5062.290139,-18288.018499,-29087.152074,-13912.396301,-29405.977357,-13235.026686,-28137.426452,50185.433052,-8310.579754,-12760.990889,-11411.705483,-7.808000,-948.184021,-321.592010,4480.000000,-420.000000,-4900.000000
-32048.422938,-22959.600146,-33536.356215,31642.492907,-30966.307934,-5025.230947,-18259.542377,-29054.652638,-13887.719975,-29380.406961,-13208.562220,-28113.845362,50215.339686,-8301.214373,-12749.949127,-11384.257541,-7.808000,-946.231995,-327.936005,4480.000000,-980.000000,-4760.000000
-32054.144985,-22965.098675,-33542.122965,31640.637713,-30972.566423,-5033.076409,-18263.699801,-29061.045237,-13893.754946,-29387.157188,-13216.407682,-28121.444955,50209.125901,-8299.023902,-12750.820845,-11388.660835,-8.784000,-944.768005,-330.376007,4760.000000,-2100.000000,-4480.000000
-32083.828102,-22993.597149,-33567.536899,31620.476439,-31006.719888,-5071.253189,-18294.276988,-29097.992670,-13923.214546,-29411.677052,-13242.067485,-28147.529441,50182.259105,-8307.718731,-12761.907311,-11417.181661,-4.880000,-944.768005,-324.519989,4760.000000,-2660.000000,-4060.000000
-32080.095360,-22992.412507,-33566.508718,31620.185866,-31005.915225,-5068.638035,-18293.964063,-29098.104429,-13920.487633,-29407.854904,-13237.775950,-28142.500298,50186.215363,-8309.976257,-12762.331994,-11416.220536,-3.904000,-946.231995,-325.007996,5600.000000,-3360.000000,-4060.000000
-32042.902058,-22960.807140,-33539.396052,31640.637713,-30969.325420,-5030.684773,-18265.510293,-29066.029676,-13881.930874,-29376.830682,-13208.606924,-28112.817182,50218.625393,-8300.566173,-12753.927738,-11392.371224,-3.904000,-950.624023,-326.472015,6580.000000,-2940.000000,-4060.000000
-32042.902058,-22959.153111,-33536.602084,31643.901067,-30963.916297,-5025.298002,-18260.548205,-29061.738141,-13881.796763,-29379.714057,-13213.144328,-28111.789001,50221.218195,-8297.727501,-12750.865549,-11389.487849,-4.392000,-948.184021,-323.056000,7700.000000,-2100.000000,-4200.000000
-32075.625011,-22993.172466,-33564.184137,31624.387994,-30999.142647,-5063.586541,-18286.744450,-29098.707926,-13914.810290,-29409.419526,-13244.436770,-28142.567354,50190.417491,-8310.825623,-12761.549683,-11417.069902,-4.880000,-945.744019,-321.592010,9100.000000,-1400.000000,-3780.000000
-32082.531700,-23000.257969,-33573.571870,31622.018709,-31007.524551,-5074.449488,-18291.684185,-29113.348319,-13920.644095,-29410.894741,-13248.460084,-28148.602325,50183.533154,-8317.620554,-12762.175532,-11422.501376,-8.784000,-936.471985,-323.056000,9660.000000,-560.000000,-2940.000000
-32053.854412,-22973.346469,-33550.862497,31641.330617,-30977.416751,-5037.010316,-18266.426714,-29080.446551,-13893.084394,-29383.267985,-13221.682694,-28120.930865,50213.596250,-8310.825623,-12754.061848,-11395.835745,-12.200000,-934.520020,-325.496002,9520.000000,420.000000,-2240.000000
-32045.405453,-22967.222091,-33542.949980,31646.940904,-30967.649039,-5024.426284,-18258.871825,-29069.762417,-13887.407051,-29377.970621,-13217.257049,-28116.013481,50221.240547,-8308.836318,-12754.173607,-11389.934884,-15.616000,-929.640015,-325.984009,8680.000000,1400.000000,-1120.000000
-32076.608488,-22992.010175,-33568.654486,31631.227628,-30996.259272,-5061.463125,-18283.704613,-29103.446496,-13916.687836,-29407.653738,-13252.416343,-28141.338008,50189.501070,-8318.313458,-12759.247453,-11413.940658,-18.544001,-925.736023,-327.447998,6860.000000,3080.000000,-140.000000
-32089.751314,-23007.164658,-33580.277393,31620.163515,-31013.917150,-5078.361044,-18299.082613,-29119.718566,-13928.489557,-29416.639139,-13260.530026,-28152.133900,50178.906343,-8324.370781,-12762.041421,-11422.389617,-21.960001,-927.687988,-323.056000,5040.000000,3920.000000,280.000000
-32057.475395,-22977.459190,-33557.925648,31638.737814,-30987.586795,-5051.203674,-18280.128334,-29095.399868,-13896.459508,-29389.146494,-13234.780816,-28125.647083,50203.895593,-8318.760493,-12755.514712,-11402.228344,-21.960001,-930.616028,-325.496002,3780.000000,5040.000000,-140.000000
-32042.835002,-22962.282355,-33543.173497,31654.182870,-30966.352638,-5031.154159,-18263.632746,-29078.814874,-13885.775374,-29378.730581,-13226.577726,-28112.593664,50218.781855,-8308.344580,-12748.675078,-11392.952370,-20.496000,-933.056030,-330.864014,3220.000000,5740.000000,-700.000000
-32063.398607,-22988.009213,-33562.306590,31636.279122,-30995.521664,-5059.630282,-18287.146781,-29106.911016,-13904.841412,-29398.936558,-13249.510616,-28136.979417,50195.111358,-8310.736216,-12759.739192,-11417.673399,-19.032000,-935.007996,-335.744019,4480.000000,5320.000000,-1400.000000
-32081.078837,-23005.711795,-33578.221032,31623.493925,-31016.420545,-5083.747814,-18304.156459,-29130.514458,-13921.493461,-29415.119221,-13264.776857,-28152.066845,50174.838325,-8319.006362,-12766.042383,-11431.419722,-14.152000,-935.984009,-338.183990,6720.000000,4060.000000,-2240.000000
-32058.995314,-22983.091829,-33559.222050,31638.089614,-30992.682993,-5057.059831,-18280.977700,-29108.922673,-13899.879324,-29396.231997,-13243.877976,-28129.469231,50197.882974,-8313.731350,-12759.403915,-11413.560678,-11.712000,-935.496033,-334.768005,9240.000000,2800.000000,-3080.000000
-32038.252895,-22964.428123,-33540.826564,31652.618248,-30969.615992,-5031.489436,-18260.168226,-29084.380458,-13881.863818,-29380.965755,-13228.522328,-28111.319615,50220.659401,-8303.695417,-12754.754752,-11399.367320,-5.368000,-938.911987,-329.888000,11480.000000,1540.000000,-3780.000000
-32063.733883,-22992.144286,-33561.725445,31637.307303,-30994.739353,-5056.366927,-18283.034060,-29105.704022,-13910.585810,-29403.786886,-13251.432866,-28136.510031,50201.749826,-8306.802309,-12765.349479,-11419.215670,-1.952000,-936.960022,-326.472015,13020.000000,560.000000,-4480.000000
-32088.030230,-23017.580571,-33581.774960,31621.370509,-31022.522571,-5085.379491,-18306.145764,-29133.978979,-13935.284488,-29425.669244,-13274.410459,-28157.274801,50178.682825,-8311.920859,-12773.194942,-11437.454693,-0.976000,-942.328003,-323.056000,13300.000000,-140.000000,-5180.000000
-32069.299468,-22998.514533,-33567.536899,31635.385053,-31004.216493,-5066.872247,-18286.677395,-29121.014967,-13919.258287,-29412.682880,-13261.379392,-28137.024121,50193.189108,-8309.015132,-12763.270767,-11421.652010,0.000000,-941.840027,-321.592010,13580.000000,-280.000000,-6160.000000
-32037.783508,-22971.603033,-33542.771166,31655.367512,-30975.650963,-5033.724610,-18262.403400,-29093.790542,-13891.095089,-29387.201892,-13237.708895,-28112.504257,50218.692448,-8298.666274,-12754.821808,-11400.082576,1.464000,-941.351990,-325.496002,13580.000000,-560.000000,-6720.000000
-32052.446252,-22987.405716,-33557.009227,31647.499698,-30991.721868,-5052.008337,-18276.842627,-29108.788563,-13909.870554,-29402.311671,-13251.432866,-28130.139784,50203.068579,-8298.599219,-12761.080296,-11412.331332,-0.488000,-940.376038,-322.080017,13580.000000,-420.000000,-6720.000000
-32080.721209,-23014.496030,-33581.596146,31629.819468,-31020.577970,-5088.285218,-18303.463555,-29141.198592,-13937.318496,-29426.608017,-13274.455163,-28155.084330,50174.368939,-8302.667237,-12768.523427,-11433.967821,-1.464000,-943.791992,-325.984009,13860.000000,-280.000000,-6300.000000
-32064.158566,-22999.855638,-33569.369742,31636.524992,-31009.245635,-5076.170573,-18293.785249,-29130.290941,-13919.772377,-29410.961796,-13259.837122,-28140.309827,50188.025855,-8297.727501,-12765.327128,-11422.948411,0.976000,-944.280029,-324.519989,13860.000000,-140.000000,-5600.000000
-32032.083813,-22969.479617,-33544.201677,31658.250887,-30978.936670,-5040.988927,-18266.583176,-29096.942138,-13890.245723,-29386.307822,-13236.278383,-28112.213685,50220.547643,-8288.228010,-12755.849988,-11399.702597,-0.488000,-941.840027,-323.544006,13160.000000,0.000000,-4340.000000
-32040.197496,-22976.386306,-33551.689512,31657.513280,-30985.888062,-5049.236721,-18270.427676,-29104.251159,-13899.164069,-29395.136761,-13246.381372,-28119.299188,50216.054942,-8287.110423,-12757.056982,-11407.145728,4.392000,-943.304016,-321.104004,12180.000000,280.000000,-3080.000000
-32072.272250,-23007.924617,-33578.265736,31639.855401,-31020.399156,-5085.960637,-18295.439279,-29137.287037,-13929.294220,-29421.802392,-13275.818619,-28146.478909,50188.182317,-8292.698359,-12765.729459,-11433.587841,1.952000,-943.304016,-320.127991,11060.000000,1260.000000,-1680.000000
-32069.187709,-23006.181181,-33575.717637,31641.263561,-31019.125106,-5085.603009,-18292.466497,-29137.488203,-13925.740293,-29419.634273,-13275.237474,-28142.030912,50192.250334,-8292.944228,-12767.674061,-11433.029048,2.928000,-943.791992,-312.320007,9520.000000,2240.000000,-560.000000
-32037.627046,-22977.123913,-33546.861535,31662.609477,-30986.715077,-5048.499113,-18264.884444,-29106.709851,-13896.615970,-29391.940462,-13248.929471,-28112.034871,50225.397971,-8281.410728,-12764.321299,-11409.202088,2.928000,-946.720032,-318.664001,8120.000000,3080.000000,560.000000
-32038.834040,-22978.330908,-33546.347445,31665.246983,-30988.324402,-5044.341689,-18265.309127,-29106.598092,-13900.125194,-29393.795656,-13251.365811,-28115.253522,50226.694372,-8279.667292,-12767.808171,-11412.398387,-2.440000,-947.695984,-317.200012,6300.000000,4060.000000,1260.000000
-32074.462721,-23012.573780,-33579.003343,31645.912724,-31025.048319,-5084.619532,-18296.154534,-29141.735034,-13931.149415,-29424.283436,-13282.792363,-28148.557621,50194.664323,-8293.257152,-12777.240607,-11440.539234,-1.464000,-948.184021,-314.760010,4620.000000,4900.000000,1540.000000
-32077.480206,-23014.518382,-33584.524224,31644.817489,-31029.943351,-5091.794442,-18300.557828,-29149.714607,-13930.702380,-29425.982168,-13285.340462,-28149.943429,50191.736244,-8296.229934,-12779.274616,-11443.064981,-4.392000,-943.791992,-312.320007,2800.000000,5600.000000,1260.000000
-32048.959380,-22982.756553,-33556.875116,31666.118701,-30993.867635,-5054.221160,-18270.606490,-29115.494086,-13901.399243,-29400.590587,-13259.144218,-28120.975568,50223.989811,-8283.087109,-12770.155104,-11412.957181,-4.880000,-945.255981,-308.903992,420.000000,5880.000000,700.000000
-32042.902058,-22977.190969,-33548.113233,31672.198376,-30980.993030,-5043.581729,-18264.996203,-29104.742897,-13899.678159,-29395.136761,-13254.718572,-28115.678205,50235.903291,-8274.191114,-12772.010299,-11407.749225,-6.344000,-944.280029,-315.248016,-1680.000000,6580.000000,-140.000000
-32073.099264,-23004.147172,-33571.448454,31655.278105,-31009.111525,-5076.014111,-18291.728889,-29134.694235,-13928.981296,-29421.355357,-13283.485268,-28142.366188,50212.255146,-8279.309664,-12783.186171,-11430.995039,-7.808000,-941.351990,-316.712006,-3360.000000,6860.000000,-1120.000000
-32084.096323,-23013.043167,-33581.797312,31648.326713,-31021.919074,-5092.956733,-18304.044700,-29152.754444,-13937.966697,-29432.397119,-13296.158707,-28149.541098,50201.794529,-8284.383510,-12787.008320,-11437.767617,-8.296000,-941.351990,-320.615997,-5040.000000,6580.000000,-2100.000000
-32055.463738,-22984.388230,-33557.925648,31666.297515,-30992.235958,-5061.865456,-18280.396555,-29127.385214,-13911.278714,-29409.061898,-13274.119887,-28122.964874,50230.203596,-8278.326187,-12776.637110,-11413.650085,-7.808000,-943.791992,-319.152008,-5880.000000,6440.000000,-2800.000000
-32037.358825,-22967.847939,-33543.598180,31677.808664,-30975.785074,-5038.887863,-18263.632746,-29110.487295,-13896.794784,-29396.410811,-13262.944014,-28110.336138,50247.794419,-8271.285387,-12772.770259,-11399.322617,-7.808000,-942.816040,-317.688019,-5880.000000,6020.000000,-3920.000000
-32063.644476,-22993.507742,-33565.480538,31664.285858,-31002.182484,-5065.173515,-18283.548150,-29136.862354,-13925.963810,-29418.896665,-13286.323939,-28134.364263,50225.330916,-8273.498210,-12778.559360,-11414.052417,-9.760000,-945.255981,-319.152008,-5880.000000,5880.000000,-4620.000000
-32083.917509,-23015.926542,-33582.132588,31649.868983,-31025.830630,-5087.614666,-18304.603494,-29159.504671,-13944.851034,-29433.715872,-13299.958503,-28149.541098,50206.130768,-8277.610931,-12787.142430,-11428.379885,-11.712000,-943.304016,-320.127991,-5740.000000,5460.000000,-5460.000000
