-10.8577,-13.1234,-6.43948,-12.909,-10.0512,-13.4458,-9.30175,-4.7839,-14.2162,-3.42621,-7.27303,-11.9108,-6.694,-8.19644,-9.5208,-10.0968,29.28,-901.336,-441.64,3080,-2100,-840
-7.12236,-6.9574,-6.91599,-8.33956,-8.94528,-8.72847,-9.87337,-4.4877,-0.675755,-0.960673,0.308241,-11.2234,-0.60483,-6.74023,-8.50107,-7.62958,26.84,-900.36,-442.128,3640,-1960,-840
-3.80111,-5.05041,-5.17721,-6.14857,-6.42454,-3.26581,-6.43636,-0.370699,2.38221,-1.32707,3.73588,-5.5303,1.01604,-2.19957,-7.42177,-2.53722,26.84,-893.528,-442.128,4200,-1820,-700
-7.01982,-18.31,-12.6587,-13.5864,-17.3514,-9.44968,-13.343,-7.49242,-10.0021,-22.789,-23.2031,-16.2567,-16.9655,-9.62898,-16.1482,-11.7779,27.816,-892.064,-438.224,4620,-1680,-840
16.9675,17.5471,10.4581,16.6852,14.9705,5.92289,13.4146,12.5538,27.0151,-4.60609,-9.31298,15.797,1.12604,14.2123,14.8758,16.4313,26.352,-890.112,-446.032,3920,-840,-560
-1.42173,4.40353,1.81163,5.90809,0.161492,-2.66447,5.48386,3.50077,10.4627,-8.86502,-7.6918,0.315138,-4.87118,3.30211,5.46848,5.10516,24.4,-889.136,-441.64,3500,560,-420
1.08214,17.6438,10.4814,13.4401,11.3683,3.69276,8.38299,6.26099,20.759,11.5735,13.3989,11.7914,6.71329,10.5066,10.23,9.44908,21.472,-887.184,-442.616,2940,560,-420
-1.58865,5.38452,8.97961,3.08501,7.72136,2.51576,3.39298,5.46971,-2.59132,12.0982,17.3336,9.06709,7.91138,8.39434,1.65292,6.57769,18.056,-889.136,-439.2,2660,280,-140
-19.8829,-26.4289,-8.71943,-18.9338,-13.0555,-5.81847,-9.71773,-4.76934,-36.9444,-9.77811,-1.67563,-16.1298,-6.85668,-5.34662,-16.3102,-8.2162,20.984,-890.112,-441.64,2660,-420,0
-3.94042,-4.37935,1.63942,-5.79331,1.53555,5.17967,1.57409,5.50058,-6.02161,6.73798,11.4175,2.71064,5.26793,6.2034,-1.36667,6.7204,19.52,-894.016,-437.248,3080,-1120,-140
-10.3191,-16.626,-12.0986,-17.2412,-19.8647,-5.88183,-16.2492,-10.8923,-18.7159,-8.0094,-4.5509,-14.0274,-8.68892,-13.0271,-17.7128,-14.4881,19.52,-891.088,-440.176,3500,-1540,0
0.876501,3.67873,-0.00765317,3.13439,-0.854398,5.05761,-0.71561,-2.17627,-0.746056,3.73147,1.22482,1.5208,0.361071,-2.11915,2.88486,-2.61981,20.496,-894.992,-444.08,3360,-1680,0
8.02767,13.3542,5.50325,12.5455,8.8175,7.89748,9.56411,2.1599,5.93356,8.42111,3.10534,10.2025,5.35241,3.74454,14.3879,3.95655,19.52,-894.504,-442.128,3500,-1960,0
5.64302,1.21945,-3.23072,-1.70771,-5.53262,-2.45733,-6.46455,-8.91934,-0.636613,-2.15515,-5.77576,-1.67969,-2.31465,-6.66398,-4.57794,-11.9881,19.52,-895.48,-445.056,3500,-2100,0
22.7313,26.3818,14.2222,19.5048,18.7448,7.0684,10.9295,6.26221,26.5144,16.3897,11.0891,21.5895,14.403,10.9078,14.9694,7.61908,20.008,-895.968,-444.568,3640,-1960,0
4.26628,4.0698,2.24803,7.37428,5.76379,-1.09943,5.38476,1.31308,-1.77789,-1.58599,-2.31922,1.47191,3.02354,0.280116,8.4082,1.96554,19.52,-897.92,-443.592,3780,-2100,140
12.0606,16.8368,9.23493,16.0643,16.8597,6.2965,10.9123,6.28381,17.1247,8.63856,4.54388,11.7603,7.97631,8.17972,16.7819,12.011,18.544,-899.872,-440.664,3920,-1680,140
11.2553,15.8281,7.73434,13.1566,14.4811,6.43762,10.0164,6.81963,14.8492,9.41746,5.61498,13.2688,6.80201,7.10056,13.3712,12.2621,16.592,-896.456,-442.616,4060,-1400,140
-8.35669,-14.1137,-9.57953,-13.0637,-12.2067,-8.05584,-11.0919,-8.21299,-13.3601,-10.6211,-11.0051,-13.4983,-9.24323,-10.9173,-10.8871,-9.47232,19.52,-894.504,-442.128,4200,-1680,280
8.22108,11.7258,5.63955,5.77583,10.0954,2.62859,2.64069,3.07954,14.9817,10.2993,6.72086,7.82538,4.91623,4.26035,5.94931,5.04686,20.496,-896.456,-440.664,4480,-1400,140
-11.0719,-13.6721,-10.8594,-9.68168,-11.5548,-8.37914,-7.92156,-8.90717,-17.8285,-10.6609,-9.51506,-15.7253,-10.4794,-11.105,-7.47227,-10.8371,23.424,-897.92,-439.2,4480,-1400,-140
-8.30511,-10.2384,-6.23058,-5.93125,-7.39142,-1.27837,-3.7818,-4.00317,-9.28785,-5.57242,-4.70721,-8.74327,-5.10235,-4.55195,-6.35289,-2.74193,23.424,-896.456,-439.688,4480,-1540,-280
-9.84387,-15.0907,-4.64973,-11.7695,-10.8905,1.5323,-3.95646,0.0154937,-12.4623,-6.2377,-3.58151,-8.51729,-3.21918,-4.59873,-11.3127,0.744472,28.304,-894.992,-438.224,4620,-1680,-560
-14.7711,-23.3877,-12.2641,-20.0439,-20.7706,-3.92021,-10.8734,-7.03116,-16.598,-15.192,-12.3935,-18.347,-11.2408,-12.4361,-18.4331,-10.3404,27.328,-895.48,-438.224,4340,-2100,-840
12.8054,14.3551,11.4628,8.14374,12.8312,13.9262,12.9503,11.2482,25.2337,15.9597,13.8874,16.6804,13.0516,11.4849,9.46535,11.9072,23.912,-891.088,-441.64,4200,-2380,-980
2.15539,-5.19143,0.619795,-5.43562,-2.99635,5.47309,0.0586101,2.47648,1.10344,0.70098,3.22072,-0.00213874,4.86792,0.0245344,-3.96403,-3.56323,26.352,-889.624,-436.272,4200,-2240,-980
7.33431,1.14183,5.73922,-0.10695,5.43544,11.134,0.727838,7.03297,9.48184,6.05519,10.9291,5.32724,9.62905,5.59779,-2.09299,1.7206,26.352,-891.088,-439.2,3920,-2380,-980
9.93114,4.57294,7.84887,1.89393,6.23685,7.60285,-0.532627,5.15627,9.95822,10.0419,15.0016,6.99236,10.4064,4.90539,-2.36357,0.26038,26.352,-891.576,-439.688,3640,-2240,-1260
-6.44171,-13.5745,-5.39339,-9.1843,-9.12951,-4.18561,-9.13491,-6.69064,-14.4509,-6.08985,-1.21462,-11.5328,-5.33045,-7.17052,-11.733,-13.9724,27.328,-891.576,-438.712,3360,-2100,-1120
12.8329,21.5652,13.3391,21.8041,20.8361,8.04866,15.3951,7.73148,16.6611,14.4355,13.7421,17.8993,8.55152,13.0023,18.7032,9.36447,28.792,-893.04,-441.152,3360,-2380,-1260
1.52247,8.66747,-0.262332,16.2421,7.00149,-1.17697,10.7752,-0.668116,-1.39143,-4.85791,-5.49223,1.87339,-5.87209,1.55457,17.5744,0.839646,29.768,-893.04,-441.152,3220,-2520,-1400
4.36845,11.1512,2.76593,13.7483,9.23021,2.45241,7.82671,1.45508,9.239,1.38156,-3.44358,6.60064,-2.15317,5.72668,14.0652,5.48032,29.28,-896.944,-441.64,3360,-3080,-1540
-3.42114,-1.89061,-1.49183,-6.0692,-3.89973,-2.15312,-7.49705,-2.72731,2.05711,-3.1505,-3.21801,-1.64192,-2.38987,0.490662,-7.17682,-1.07541,28.792,-897.92,-438.712,3500,-3220,-1540
-23.3471,-16.4201,-15.5987,-12.6526,-17.7355,-11.7568,-14.7368,-12.163,-18.3064,-26.4049,-20.861,-21.7789,-16.2419,-9.51341,-15.1982,-12.1798,30.744,-896.456,-440.664,3640,-3920,-1680
-7.83337,8.44164,-0.371264,8.17415,5.14626,-0.749866,2.71513,1.41225,3.45654,-2.54334,-2.652,1.18356,-1.86109,5.84942,5.31363,5.15267,25.376,-900.848,-441.152,3640,-4480,-1680
-17.7791,-14.4132,-9.33842,-7.74226,-11.3904,-8.35369,-5.15651,-3.72264,-25.393,-12.5199,-11.0494,-14.4675,-11.7263,-6.82781,-6.68341,-5.88578,26.84,-897.92,-440.664,3640,-4760,-1820
-1.45211,3.01624,4.21956,7.42823,6.71019,1.10537,9.68339,10.0496,-5.5539,4.60722,5.20924,4.30338,1.42532,7.03786,9.32987,11.6055,26.84,-895.968,-440.176,3920,-4760,-1680
5.30428,-2.95717,2.6462,-5.48583,-2.84294,-8.51968,-1.79758,3.68146,-7.44322,6.88223,6.70245,1.62221,1.77427,0.455519,-5.75767,3.80326,26.84,-897.432,-445.056,4060,-4620,-1960
-3.65735,-22.5333,-8.66334,-24.5596,-19.9257,-20.0208,-18.4346,-8.97667,-23.3391,-5.24005,-6.88236,-13.4441,-7.75714,-11.9651,-27.9409,-12.6144,27.816,-897.432,-443.104,4060,-4760,-1680
4.13587,-11.2329,-0.194731,-20.23,-6.55277,-9.07209,-7.50451,3.114,-2.69578,7.19933,3.03869,1.17616,5.19841,-1.82595,-16.7049,2.57604,24.888,-895.968,-444.568,4060,-4480,-1540
-6.42435,-16.4033,-11.8294,-19.5267,-15.8009,-13.51,-9.08223,-8.05082,-12.8683,-12.0571,-11.0485,-10.7545,-7.35487,-11.9153,-12.3992,-7.71232,25.376,-898.408,-444.568,4620,-4480,-1540
4.95615,10.8058,1.36061,8.40193,7.93135,1.84376,8.62446,1.05631,12.8415,3.7937,3.14824,8.29573,3.96753,3.22718,14.1955,6.50975,26.352,-897.432,-445.544,4900,-4060,-1540
13.6423,19.7831,9.40306,13.2068,11.2919,3.47642,5.10159,1.2309,22.7882,14.6855,10.4847,15.394,10.9402,5.46967,11.0055,5.32745,27.816,-894.504,-446.52,5180,-3920,-1400
3.60363,2.4018,-2.10524,2.84315,-2.63952,-3.4426,-6.24955,-7.06836,4.21865,-1.95107,-6.68526,-0.659422,-0.33138,-4.03572,-0.423596,-7.02246,25.864,-894.504,-441.64,5040,-3640,-1120
17.0965,17.5263,6.22944,13.0695,11.5936,6.02542,5.84096,2.9062,23.166,0.876799,-6.53313,14.2221,6.59171,6.46722,12.9807,7.11884,24.888,-896.944,-442.616,5320,-3360,-1120
-3.36507,-4.40996,-9.66124,-3.43005,-9.55129,-5.36574,-4.29706,-9.12667,-2.34177,-20.9818,-20.2678,-7.85661,-10.143,-10.1644,0.155366,-7.60971,23.424,-894.504,-446.52,5320,-3360,-980
-2.1716,11.5735,2.44189,10.2055,8.26591,4.58397,7.67228,2.16469,15.405,3.51143,3.1274,6.09142,2.60907,1.61862,14.6319,5.54,23.424,-894.504,-444.08,5460,-3220,-700
1.27166,13.9131,5.94342,11.0535,11.313,6.09193,6.9736,3.90654,11.3912,14.4165,13.02,9.11831,6.72295,2.94165,14.3687,6.23267,22.936,-895.48,-446.032,5460,-3220,-840
-9.71358,-14.0242,-7.25916,-10.049,-9.95717,-3.01731,-8.71489,-6.53759,-19.5782,-1.663,-1.29744,-11.9641,-5.72756,-10.6907,-9.231,-8.40488,20.496,-896.456,-444.568,5460,-3220,-840
14.8993,16.3354,13.4833,14.191,14.6108,8.6669,9.41977,7.49823,17.9404,20.5704,16.1248,15.6578,11.1264,7.96743,9.61382,12.0565,22.936,-894.016,-444.08,5460,-3360,-560
-0.126991,-1.91126,1.11778,3.94846,-1.97009,0.940388,1.52547,-1.41361,-2.30041,-1.01447,-0.447887,-3.47328,-3.00976,-2.61527,2.86152,-0.832525,23.912,-893.04,-443.104,5740,-3080,-840
-1.61987,2.9937,6.33447,6.47096,6.3545,12.1787,7.40062,6.0136,3.9467,2.08762,5.24319,2.40696,3.50455,7.75463,7.59255,5.39002,22.936,-896.456,-445.056,5600,-3360,-840
1.35647,9.24324,7.53735,7.68847,5.54373,9.9125,3.98513,2.15217,7.46705,4.75569,9.19349,4.96651,3.38464,6.24843,2.67659,-1.05097,23.424,-895.48,-444.08,5460,-3220,-840
-11.5792,-10.0391,-5.99131,-9.00162,-11.9573,-0.956625,-12.2538,-11.0738,-12.2276,-10.0627,-4.38509,-13.4516,-9.0852,-8.2694,-17.8256,-18.9825,24.888,-891.576,-439.688,5460,-3220,-980
-2.76989,1.75076,6.20632,2.49558,8.5709,12.6307,5.74653,6.62993,-1.34618,4.33937,7.73781,3.10265,6.3548,8.05771,-1.38226,3.85875,25.864,-894.016,-442.616,5460,-3080,-1120
-18.5126,-30.2575,-8.72253,-20.6996,-13.7383,3.30315,-4.69297,-0.183939,-34.2026,-15.5329,-8.45527,-19.837,-5.37255,-6.0936,-17.629,-7.09283,24.4,-894.504,-439.2,5460,-3220,-1120
-0.99822,-10.9308,2.92407,-9.89899,0.111395,10.6608,1.65124,6.80375,-4.15803,1.37996,5.353,-2.0588,5.87144,3.98491,-8.22881,2.1426,26.352,-893.528,-438.712,5320,-3640,-1260
7.42852,3.78892,7.58699,2.69085,8.18086,10.0332,8.68432,10.1447,6.16198,8.57499,8.4702,8.37699,8.3513,9.48294,4.73555,8.47239,26.352,-893.528,-444.08,5180,-3780,-1260
-0.931335,-8.5528,-6.28123,-6.67119,-5.5779,-1.92272,-2.69681,-0.423782,-4.38154,-1.94699,-2.21332,-5.18101,-3.59979,-1.93796,-3.55368,-2.54916,25.864,-892.552,-440.176,5320,-4060,-1260
15.9601,19.0397,5.86308,15.2559,14.7745,4.49369,10.0517,7.46237,21.6218,11.7759,8.46927,15.3722,5.19209,8.70547,14.63,10.6614,26.84,-894.992,-444.08,5180,-4340,-1400
-7.02496,-2.2359,-11.104,5.29903,-4.15735,-7.44511,0.845243,-4.60533,-12.6178,-14.2731,-15.2651,-8.23782,-13.2438,-6.99598,7.57168,-4.57797,25.864,-894.504,-445.544,5180,-4620,-1260
-2.47057,4.12725,-3.50134,6.47271,1.27309,-0.812792,-0.224144,-0.780668,-1.97813,-2.04947,-4.35366,-0.61924,-4.00117,0.718789,4.75928,-0.330992,23.912,-900.36,-443.592,5460,-4900,-1400
3.36255,2.80039,-0.635054,-0.530891,-3.21604,-2.97135,-6.59611,-2.94488,0.0217022,3.12095,-0.0949964,1.0803,-1.21014,-1.23176,-6.32641,-5.13733,26.352,-896.944,-443.592,5320,-5180,-1400
-0.241058,-9.7213,-5.78048,-14.0966,-13.6884,-7.85021,-15.013,-8.9238,-7.75535,-4.4244,-5.09163,-7.87733,-5.24291,-7.1715,-18.4731,-12.5156,27.816,-899.872,-446.032,5600,-5180,-1540
15.7991,13.7513,11.1578,6.27677,11.48,4.90619,6.80678,8.23795,17.1206,14.1569,13.1384,15.9185,11.4109,13.5402,5.88802,12.8118,28.304,-897.92,-441.152,5740,-5180,-1540
1.66801,-2.15038,-2.33923,0.740595,-0.767434,-5.57257,3.21887,1.4137,-1.38904,-3.99316,-2.64018,-1.96267,-1.76149,3.88822,5.01449,4.67026,28.792,-897.432,-441.64,5740,-5180,-1820
12.4154,12.5352,7.77949,10.3274,11.5405,1.70295,10.7086,7.78322,18.2654,9.04055,6.88219,10.0588,8.95534,13.0341,12.3224,13.194,21.96,-897.92,-442.616,5740,-5460,-1820
8.5079,9.89538,6.40545,8.63933,8.7577,-0.874647,9.58697,5.67301,9.64941,6.44854,4.04825,7.7922,6.85777,8.61224,11.3899,11.9111,27.328,-900.36,-439.2,5880,-5460,-1820
-11.3552,-15.9599,-9.28731,-11.5282,-13.1745,-12.2045,-7.91638,-7.65545,-18.5825,-13.7372,-12.6176,-14.794,-8.57792,-9.70288,-8.61221,-6.10239,25.376,-894.016,-440.664,5740,-5320,-1820
-0.253285,3.83234,2.4985,2.639,3.9932,-5.13643,0.3293,1.37607,2.24276,1.46403,2.34966,4.16415,2.49997,-0.489279,3.35072,4.19409,25.376,-895.968,-438.224,5880,-5460,-1960
-22.0168,-24.9281,-18.0661,-21.1403,-25.4921,-23.858,-22.6752,-15.5577,-29.1283,-24.2317,-17.2035,-23.6794,-17.0221,-24.2193,-18.8782,-21.193,21.96,-894.992,-437.736,5740,-5460,-1820
-6.36624,-4.14941,-6.64742,-8.34628,-11.8468,-14.4671,-14.5539,-8.85321,-2.11022,-5.73878,-4.61929,-4.29561,-5.22092,-14.5237,-9.23858,-12.314,24.888,-894.016,-438.224,5040,-5320,-1820
0.135737,1.54396,-1.42007,-3.76883,-4.70969,-7.41009,-6.44377,-4.76985,2.3503,-0.152813,-0.141315,3.36276,0.324032,-8.12285,-4.58574,-5.11486,23.424,-892.064,-436.76,5040,-5320,-1820
-5.68402,-9.61551,-6.11032,-10.5019,-9.84979,-7.58183,-9.63199,-8.4719,-4.65227,-7.28715,-6.89858,-5.68708,-4.26939,-10.6547,-13.0579,-8.70327,23.424,-890.6,-439.688,5180,-5180,-1680
15.3313,20.5536,14.4983,13.0408,18.5258,10.2832,9.86451,9.45252,28.8409,18.7727,13.8156,22.7133,14.2314,11.3382,9.22142,14.5202,22.448,-893.04,-440.664,5180,-5180,-1540
-3.20117,-7.62997,-3.80665,-8.03813,-6.2367,-1.20535,-4.38577,-3.80335,-2.67607,-4.10528,-3.60937,-4.69364,-2.80921,-6.47671,-6.83524,-4.64094,23.424,-892.064,-438.712,4620,-5180,-1540
2.57499,5.74968,2.87491,4.89145,6.96758,4.60965,6.61342,1.00333,9.88664,3.45948,1.93262,4.42367,2.16313,1.77588,5.43161,4.83493,22.448,-894.016,-437.736,4760,-4900,-1400
-4.7326,-0.540756,-0.44909,-0.352682,2.72713,1.01628,4.54219,-0.195497,-2.87128,-1.21962,-2.97043,-1.75065,-1.24202,-0.5826,0.88411,3.53268,21.472,-893.04,-440.176,4480,-4760,-1540
-13.5194,-11.7926,-7.5937,-5.36864,-6.2592,-0.518979,0.541988,-5.36981,-19.4009,-11.435,-12.7688,-13.3793,-9.32383,-5.80105,-4.22646,-4.62245,19.032,-895.968,-438.224,4480,-4200,-1540
7.70189,18.1597,13.4332,20.9335,20.0136,16.8062,21.4598,10.6436,10.194,10.2448,6.75429,14.7011,8.23164,16.0772,21.3841,14.2502,21.472,-896.456,-437.248,4060,-4060,-1260
-9.53262,-6.36978,-3.8087,-0.822384,-4.78236,4.80997,1.44306,-2.62207,-13.8312,-10.9974,-9.02397,-8.69474,-7.65432,-0.681855,0.859585,-7.06592,20.984,-896.456,-436.272,4060,-3360,-1260
2.4476,13.9129,4.18976,12.6607,8.02836,9.04975,5.24901,2.34809,13.3596,3.81812,1.5725,5.67945,0.0385845,4.78973,13.155,-0.736212,22.448,-897.432,-438.712,4060,-3220,-1260
3.84072,11.0038,5.60197,10.5701,6.71261,4.95764,4.13606,1.05349,9.65629,6.91321,3.34465,5.68039,1.77269,3.06534,11.7137,-0.228725,21.472,-895.48,-439.2,3920,-3080,-1120
-5.25347,-13.5957,-4.86309,-12.48,-12.5444,-3.66539,-15.012,-8.93444,-10.9186,-1.93724,-3.25071,-11.4056,-5.84989,-8.9385,-16.6093,-12.4958,23.424,-900.36,-443.104,4060,-3080,-980
7.65422,8.69488,8.95954,8.94479,10.7226,8.75818,4.73491,8.95887,9.08263,13.6005,11.8234,9.36361,9.05963,10.2043,8.24233,7.85269,22.936,-902.312,-439.2,4200,-3500,-1120
-9.08586,-18.2952,-11.0311,-11.943,-14.5682,-5.49939,-10.7747,-4.59219,-17.6012,-10.1674,-6.12836,-17.0865,-7.26531,-8.36095,-5.63322,-13.9429,20.984,-903.288,-440.176,4900,-3780,-980
1.18557,-9.84018,-3.93729,-12.3154,-8.11327,1.48547,-10.4337,-1.41366,-0.637052,4.15907,6.54661,-7.10075,2.735,-2.22227,-7.68419,-9.00348,22.936,-900.36,-438.712,5180,-4060,-700
-2.87648,-10.6909,-2.63233,-12.7967,-5.86912,2.33945,-7.04937,0.918677,-11.057,4.82061,6.73,-5.55813,3.35391,2.63425,-13.1432,-2.75193,26.352,-900.848,-438.224,5600,-4340,-980
0.191432,-3.58188,-2.5639,-1.27383,-1.29581,0.886389,0.250663,1.03686,-6.60779,0.0429616,0.618924,-3.06521,-0.229115,5.27688,-8.72815,0.612645,24.4,-901.336,-437.736,5880,-4480,-1120
23.2157,31.6201,22.1769,30.289,32.0651,19.9717,29.5754,23.4012,27.5641,22.6184,21.06,30.9293,21.1307,31.6498,22.6065,30.6428,23.424,-900.36,-438.224,5740,-4340,-1120
6.64878,7.48463,8.16139,11.2027,9.21081,9.20428,14.2943,11.9429,2.60893,5.35018,7.69493,10.7724,7.22733,14.2517,8.46307,15.2851,28.792,-900.36,-437.736,6020,-4480,-980
7.59746,11.6422,11.0803,14.5593,15.526,12.1242,19.0052,15.9862,9.21892,11.609,13.2241,14.4181,9.954,14.0179,19.6275,22.0657,26.84,-898.408,-432.856,6160,-4620,-980
11.3074,9.45875,9.55107,9.62677,10.2502,7.46502,11.6387,10.4891,9.95767,11.5952,13.1384,11.9791,8.26489,5.70879,13.924,13.3221,27.328,-897.432,-437.248,6300,-4760,-980
0.77328,-10.0585,-3.62409,-8.43244,-10.4863,-1.24648,-6.8402,-1.43103,-5.25488,-2.56508,1.16833,-7.03505,-2.55167,-8.55191,-6.27417,-5.06805,28.792,-894.992,-434.808,6020,-4620,-980
11.3863,7.76618,5.63936,1.87663,2.99805,3.0058,-3.05953,3.41576,13.6785,5.10747,4.01519,8.2717,5.7714,0.320677,-1.40671,2.3872,27.816,-894.992,-434.808,6020,-4900,-1120
-10.7922,-26.1327,-19.7089,-25.3869,-27.2535,-15.8089,-23.3527,-15.6999,-21.4769,-34.5002,-30.9734,-24.3494,-18.0463,-23.3558,-25.8077,-21.3842,29.768,-895.968,-437.736,6020,-4620,-980
-16.4557,-28.4489,-20.6526,-33.4483,-27.8366,-15.5345,-26.6158,-13.8978,-13.5493,-26.3994,-17.6422,-24.9404,-14.988,-23.9889,-31.4563,-17.9497,30.256,-896.456,-432.856,6020,-4900,-1120
-17.2903,-14.9921,-15.7383,-21.8882,-21.3956,-20.5639,-22.5203,-17.1245,-4.86298,-12.648,-8.13324,-17.2346,-14.485,-23.0308,-25.4097,-16.2147,28.792,-895.48,-434.808,6020,-4200,-1120
-16.4893,-10.6821,-15.7104,-13.729,-16.6311,-24.4665,-18.125,-23.471,-11.8091,-14.1464,-13.329,-16.0827,-19.5679,-21.9942,-18.3818,-17.7793,32.208,-896.456,-434.32,6020,-4200,-1260
7.49512,26.5363,5.95913,21.1798,20.3098,-5.24375,9.59567,-5.77659,18.5814,4.376,2.32669,18.2948,0.788116,4.68034,16.7116,7.20724,29.768,-894.992,-434.808,5740,-4060,-1260
-7.19979,9.82943,-5.64496,15.3532,8.6816,-12.4495,7.7521,-11.6537,-4.49537,-13.4779,-16.8319,1.84517,-9.72339,-1.87313,15.5571,-1.92343,28.792,-901.336,-434.808,5600,-3780,-1400
10.3481,26.7999,10.7537,26.8914,24.2262,-3.15161,18.7067,-2.56524,16.9115,12.3621,0.517389,20.3164,5.91593,11.7749,26.3233,9.53656,25.864,-902.312,-441.152,6160,-3920,-1540
3.18839,10.0821,7.02414,9.81217,10.9549,-3.17946,12.0086,-0.0748658,0.350392,9.97546,2.00767,10.7075,5.72253,5.9007,10.7142,6.26595,24.888,-902.8,-447.008,6860,-4760,-1680
-15.5416,-19.2878,-9.31205,-16.0648,-15.1679,-11.3183,-5.74306,-5.55874,-24.4762,-6.67856,-7.21537,-14.4709,-6.71774,-8.42305,-12.4587,-10.4953,22.936,-906.216,-448.472,7420,-5040,-1680
-0.9416,-5.41485,3.42307,-9.50614,-2.07505,0.420671,2.90987,10.2322,-7.33981,8.00407,6.84052,-0.298173,5.73165,3.52646,-3.28574,2.00199,20.984,-907.192,-447.008,8120,-5740,-1820
-8.78154,-23.942,-5.93883,-22.1223,-17.4271,-3.83725,-9.24037,3.25707,-26.5295,-6.87672,-7.03996,-16.4783,-4.96698,-7.68025,-15.41,-11.4851,22.448,-905.728,-447.008,8960,-5740,-1820
11.6138,8.79491,11.5411,10.2538,9.488,12.1879,9.04157,14.0492,11.3694,10.5852,4.78868,9.88235,9.02073,11.525,12.0215,8.0529,24.888,-905.24,-445.056,9380,-5460,-1820
16.2984,23.7601,13.6382,26.3274,17.7693,13.5448,15.7543,11.7064,25.2729,9.69938,5.7841,15.9906,8.8456,14.6967,23.2449,12.3001,24.888,-907.68,-442.128,9520,-5320,-1820
6.80059,12.218,5.99256,16.2467,7.82893,12.0433,6.41891,3.3345,16.8962,-0.284278,1.2383,3.01228,3.36852,8.78125,12.0882,5.26015,23.424,-907.192,-441.64,9380,-5180,-1680
10.7594,12.9884,15.4875,10.6846,13.4543,22.3922,5.61195,11.6237,20.9023,16.2739,17.8563,12.9571,17.5898,16.4974,6.29871,14.2913,24.888,-908.168,-441.152,9800,-4900,-1540
-4.62947,-12.1549,-1.69296,-6.88706,-8.70387,9.66504,-7.89752,-0.79765,-9.79466,-2.97533,0.734345,-8.55975,2.07215,-1.40407,-8.77314,-4.4035,27.816,-909.144,-440.176,9800,-5040,-1400
12.5954,14.752,10.6442,19.6425,15.6413,20.8458,13.1767,12.0826,16.8454,13.5046,12.4446,13.9413,12.6732,14.0598,19.6911,13.8377,24.888,-908.656,-439.2,9800,-4760,-1260
14.2543,15.0425,8.44032,18.3759,12.5354,16.4558,8.99366,5.61198,15.5672,11.5334,9.04568,14.5906,9.25398,9.72951,13.5239,6.12549,24.888,-907.192,-440.664,9940,-4900,-1120
-5.11418,-13.158,-6.68844,-8.72603,-8.1844,3.37224,-9.85083,-6.89858,-10.8544,-6.94273,-3.93924,-6.64158,-4.29413,-5.18354,-11.3198,-10.211,18.544,-913.048,-436.76,9800,-4480,-560
-1.52876,-14.0249,0.562317,-17.8339,-4.231,4.91622,-10.0657,3.30158,-5.62602,5.78269,11.6103,-1.05702,6.91534,0.696523,-17.7593,-1.56573,30.744,-901.824,-436.76,9100,-4340,0
-21.4479,-46.6802,-21.9131,-51.1,-38.518,-13.3617,-33.7253,-9.17019,-33.6965,-17.0679,-5.23423,-34.2859,-9.99818,-22.4428,-44.8594,-23.1065,24.4,-900.848,-440.664,8960,-4200,-420
-13.1736,-20.9567,-12.9611,-26.5871,-17.0951,-6.21116,-15.6887,-1.18376,-10.3963,-5.43504,0.165507,-15.8692,-3.86803,-9.0045,-16.5912,-6.91397,25.376,-894.992,-443.592,8680,-4480,-140
-10.7283,-6.29097,-12.7319,-10.671,-10.4193,-10.6088,-7.78717,-4.78832,-6.62672,-8.3079,-7.46697,-9.78685,-9.82791,-10.2215,-4.4541,-5.85484,24.888,-889.136,-439.688,8120,-4340,-140
-8.72387,0.545263,-12.3695,1.128,-7.22571,-13.8894,-3.70918,-9.61965,-4.96935,-13.2806,-14.3739,-7.92364,-16.3627,-10.5146,2.0571,-7.8384,25.376,-888.648,-439.688,7840,-4060,0
9.5533,27.2443,8.73214,24.1337,21.2383,1.00312,18.9084,5.78915,16.932,8.75298,4.16633,19.4695,1.29394,11.4401,24.4414,15.0709,25.376,-889.624,-436.76,7280,-3780,0
-17.3832,-14.2749,-12.8058,-8.92409,-11.5949,-14.4253,0.463971,-8.82003,-28.3922,-17.9783,-16.1897,-15.0009,-17.3318,-11.6595,-0.18452,-6.95239,23.424,-891.088,-438.712,6860,-3500,0
-0.569835,4.75478,3.51224,4.53782,4.89087,-3.89757,10.2906,-0.442752,-0.44503,1.45492,-1.88362,4.23236,-3.44287,1.65061,11.5688,5.59625,25.376,-885.72,-441.152,7280,-3360,-140
3.15732,6.47327,4.30685,2.77832,2.20428,-7.53001,5.64741,-3.45349,3.7251,0.477967,-1.5782,3.64404,-3.95865,0.408405,4.76956,-0.533362,23.912,-889.136,-435.784,6860,-3780,-420
3.93404,5.57316,3.61251,2.03281,0.877903,-8.58642,-0.257291,-6.13089,7.05863,-1.89574,-2.67684,0.121492,-5.31858,-0.716929,-3.67832,-7.64564,28.792,-888.648,-441.152,7140,-3920,-420
27.1022,38.4232,25.7409,27.636,30.3573,8.7583,16.5715,12.5575,39.2312,26.4872,20.8281,31.2304,18.3278,21.2151,14.5395,16.5043,29.768,-898.408,-437.736,5600,-3360,-700
10.2608,14.9721,9.30958,14.2532,9.73233,-1.50495,3.75213,0.125095,9.11745,6.49122,3.12225,8.75289,5.14741,5.86897,0.121212,-0.123729,29.28,-898.896,-434.808,4340,-2240,-840
17.5203,26.4956,15.7983,27.8323,24.2326,8.2748,17.0571,8.40424,21.9254,15.0066,9.95308,19.251,12.8942,13.8013,16.623,13.0666,29.28,-896.456,-435.296,4060,-1820,-980
4.06035,7.7669,3.818,13.7446,10.2893,0.501896,9.65392,1.9366,-0.510402,1.3608,0.722551,5.50929,3.52207,2.02921,6.7602,7.0906,29.768,-899.872,-436.272,3780,-2240,-980
-12.9743,-20.6052,-12.6576,-15.1611,-16.5308,-10.1653,-13.6361,-11.962,-22.8456,-12.7741,-9.95353,-16.5962,-9.31964,-15.3352,-18.6772,-9.60914,25.376,-894.992,-434.32,3640,-2800,-980
-3.78831,-10.9088,-3.94168,-10.9804,-6.47807,-2.02362,-6.04511,0.354777,-9.47522,0.534964,3.38725,-4.10353,3.03048,-5.39018,-7.68797,3.77978,27.328,-895.968,-427.488,4760,-3640,-1260
-17.7403,-30.0309,-16.9572,-23.1845,-22.3383,-8.89206,-16.3063,-7.44102,-30.3442,-17.3874,-12.0383,-22.1003,-8.86519,-16.6855,-17.142,-10.0674,28.792,-893.528,-434.32,5040,-4340,-1120
-5.85489,-14.4717,-5.79721,-10.5428,-3.99631,6.14473,-3.40583,4.22793,-6.56762,-1.54029,-0.600641,-6.04118,3.45198,-2.73257,-1.72527,4.61264,25.376,-894.016,-434.808,5180,-4340,-1400
-5.1247,-15.8686,-5.22709,-10.166,-6.16677,7.08948,-0.918279,3.59268,-8.06627,-3.09079,-3.33682,-6.75668,1.71177,-2.37135,0.452741,4.18757,26.352,-895.48,-435.296,5320,-4340,-1120
-4.44276,-12.3667,-4.85741,-6.21234,-7.60174,6.49599,-0.464591,1.24976,-4.09262,-6.65699,-6.8353,-6.75592,-1.92056,-2.45957,1.29122,0.739508,27.816,-894.992,-437.248,5460,-4480,-980
11.1293,15.3103,9.78978,13.8567,12.5453,14.6569,11.4557,10.1473,18.6902,9.39797,8.83342,14.9112,9.74563,11.1686,15.941,13.2811,27.816,-894.992,-436.76,5180,-4200,-980
-4.83043,-11.376,-8.6788,-13.2358,-19.6602,-3.86488,-18.4145,-11.1697,-7.93775,-9.71248,-5.74384,-12.1396,-8.11024,-12.9595,-17.5924,-16.9785,27.328,-895.48,-432.368,5180,-4060,-980
2.00774,-0.464953,1.95817,-4.94225,-4.36483,2.9318,-8.77512,0.967419,7.56158,2.77476,7.71085,-0.134562,3.44644,-1.72661,-7.16831,-4.51459,27.816,-889.136,-429.928,4480,-3780,-840
-5.05184,-3.79491,-1.27399,-3.41958,-5.02691,-3.19806,-8.24893,-1.73124,-5.77793,-5.21562,-0.162632,-2.76863,-2.21351,-1.83762,-6.73187,-6.25745,25.864,-892.064,-433.832,4340,-4060,-980
-8.22155,-7.75894,-8.20932,-6.40038,-10.6633,-9.12546,-12.6686,-9.71112,-10.361,-11.4443,-10.6709,-8.57374,-9.98491,-6.24099,-12.8386,-13.879,27.816,-892.064,-431.392,4200,-3920,-840
15.1429,24.8929,10.4674,17.0345,16.2477,4.69549,8.55966,3.7894,24.8814,13.0289,7.13891,19.7969,7.61822,12.8287,11.3179,6.52188,25.376,-893.528,-434.32,4060,-3500,-840
7.27197,16.736,1.73701,11.6637,6.99281,-1.31089,5.84331,-3.68224,12.7346,2.14651,-3.58379,7.62196,-1.50088,5.76565,8.02351,-4.35294,25.376,-892.064,-438.224,4200,-3500,-980
14.2941,30.1141,14.2662,26.3161,25.6825,9.69844,21.4184,9.28753,24.9915,16.8341,9.16687,20.9061,10.6449,19.5698,25.9196,9.94667,22.936,-895.48,-436.272,4200,-3360,-980
5.47856,14.1539,6.57129,12.7675,12.8613,2.57412,12.6363,4.92781,10.3476,7.12407,1.84935,8.8384,3.77002,10.2384,14.36,2.66998,21.96,-896.456,-437.736,4200,-3360,-980
-7.33304,-7.83595,-6.80395,-8.4956,-4.9101,-7.07561,-1.82563,-2.43779,-4.40761,-7.25133,-10.0686,-9.19911,-6.76676,-2.48803,-4.43405,-7.52879,21.472,-896.944,-438.224,4760,-3780,-980
2.52698,5.94919,5.50923,0.169435,9.88052,3.93043,9.1768,10.2501,8.28758,7.87799,4.95295,5.63334,7.17461,10.6994,5.90262,9.50634,19.032,-896.456,-436.76,5040,-3500,-980
-10.1419,-13.6789,-7.06685,-12.9083,-11.9592,-7.04565,-5.11676,-6.7026,-18.6297,-10.252,-8.80887,-14.4032,-8.20026,-6.51026,-9.94707,-9.85055,22.936,-897.92,-435.296,5180,-3220,-980
15.0194,19.597,15.6097,14.4659,14.5544,9.47078,11.121,4.36858,18.8943,15.6069,12.2697,15.7804,9.91488,11.1193,11.6682,9.30025,19.52,-895.48,-441.152,5180,-2940,-840
12.095,13.0901,9.52504,10.5458,5.49263,2.91117,5.73456,1.07253,12.8284,10.1244,9.01069,9.61312,4.64236,3.96129,9.51827,6.5029,20.496,-900.848,-437.736,5040,-2660,-560
-6.71708,-11.7241,-5.81656,-4.74058,-11.2999,-6.34644,-6.48484,-6.83943,-11.1421,-5.3672,-2.9938,-9.25134,-7.29036,-8.95117,-3.49921,-3.40013,24.4,-901.336,-437.248,4620,-2520,-560
-13.5402,-21.986,-2.10059,-15.6467,-5.47141,3.39953,-2.6888,6.75515,-19.6627,2.24564,7.4591,-6.5789,3.30651,-2.88076,-7.52887,9.61474,23.912,-906.704,-439.2,4480,-2380,-420
-30.2208,-50.4295,-21.3272,-41.1049,-31.4941,-12.2619,-24.1285,-8.19909,-45.9099,-19.5506,-11.3118,-31.4206,-14.4619,-24.3803,-34.5533,-12.639,22.448,-905.24,-440.176,4620,-2380,-420
-13.6571,-18.8948,-7.47764,-13.8584,-5.11817,1.52402,-3.0194,5.73237,-17.5245,-5.52203,-0.267185,-8.62095,-2.08242,-5.19979,-9.67199,7.30354,21.472,-904.752,-441.152,5180,-2240,-140
-12.0413,-16.91,-9.06445,-14.5738,-11.374,-2.28383,-6.14429,-0.926171,-18.1626,-9.66971,-4.06951,-12.7685,-5.19325,-9.40563,-9.4435,0.21356,23.912,-905.728,-438.224,5740,-2380,280
0.192161,3.24118,-4.6056,5.6831,-3.64909,-4.45678,-4.088,-9.40397,0.546893,-8.66568,-8.5863,-3.90854,-7.37622,-8.30121,0.239411,-7.19107,19.52,-906.704,-440.664,5600,-2380,420
15.3882,31.636,9.72026,28.6205,19.9189,1.72993,11.0456,1.3988,23.3205,8.06522,3.87035,19.8708,5.90654,7.15778,17.5823,8.07945,20.496,-902.8,-435.296,5880,-1960,560
3.44375,13.1548,-3.13147,13.9021,1.51193,-10.2001,-2.07134,-9.728,3.19083,-7.31482,-9.23173,1.45083,-6.96744,-6.23325,3.4588,-7.02659,23.912,-902.8,-438.224,5600,-1820,560
10.9619,18.676,9.12249,19.2569,14.6766,4.98348,9.94417,5.07462,15.1337,8.1238,7.818,13.7582,7.06471,7.9073,16.2466,8.04973,24.888,-901.824,-440.664,5180,-1540,700
7.33894,4.61618,4.71673,4.72469,2.07953,2.89525,2.02244,4.03384,6.08107,3.94082,6.3344,4.85472,3.7705,1.98242,3.51084,0.294868,22.448,-901.824,-440.176,4900,-1540,840
0.980685,-10.1171,-3.02287,-10.0391,-7.12043,0.4298,-5.28822,1.49081,-2.04879,-3.09792,0.960383,-6.19853,-2.13948,-4.19123,-8.27079,-5.87861,23.424,-903.776,-444.568,4900,-1260,840
14.6312,8.78772,10.7976,0.0866967,9.616,11.3138,5.69101,10.1297,18.7396,13.0336,14.8096,10.1972,10.6074,8.76827,3.01031,7.15693,24.4,-903.776,-442.128,4480,-1120,980
-1.80695,-9.30032,-4.2943,-9.32181,-8.01651,-1.57556,-7.45902,-8.27403,-8.50516,-9.16275,-7.25507,-9.48312,-5.96215,-4.03796,-11.5133,-12.1855,21.96,-901.824,-442.616,4340,-1120,1120
-1.35,-7.80623,-3.14228,-12.5557,-5.6821,-0.354691,-8.12702,-4.0753,-2.03687,-1.47877,-0.545697,-4.41264,-0.206689,-0.777759,-14.1245,-6.21222,23.912,-902.312,-439.2,4620,-1680,1400
-9.41372,-23.1278,-11.2323,-27.2674,-20.9577,-7.25188,-16.1144,-3.7362,-17.4292,-8.65101,-4.30612,-14.5344,-3.96383,-9.95628,-23.2303,-11.0812,23.912,-905.728,-441.152,4480,-1820,1540
-10.8301,-18.0933,-8.95129,-13.1433,-12.4073,-2.61068,-6.06138,-0.242198,-18.7166,-10.3807,-8.27834,-11.1665,-3.44025,-3.05315,-5.92749,-6.75283,21.472,-905.24,-443.104,4480,-2240,1680
16.3083,26.9412,15.7948,24.1755,24.527,14.9241,19.3594,14.939,21.4169,16.2948,10.6537,24.6758,15.8929,21.9371,24.7784,15.2278,21.472,-905.24,-442.616,4200,-2940,1820
-0.696735,2.22748,0.738248,6.16281,5.94098,3.00565,7.32229,3.33952,-4.41222,-0.278975,-4.03775,2.7174,1.46251,6.65223,10.2534,0.706281,23.424,-908.168,-441.152,3920,-3220,2240
20.0513,30.9724,14.4413,24.8571,20.6132,8.11096,14.9621,6.25938,36.5105,21.0401,11.4045,22.4361,11.1323,17.1573,21.7542,8.83211,23.912,-905.728,-443.592,4200,-3780,2240
15.2518,30.6184,10.4161,25.1581,16.2337,2.85988,11.0298,1.61889,30.1163,14.1863,5.3506,18.0405,4.97413,12.045,19.2502,5.15151,20.984,-903.776,-441.64,4200,-4200,2520
-9.14839,3.63643,-2.91768,5.61988,0.653968,-2.7745,1.01896,-4.05262,-5.107,-6.1031,-9.79416,-4.36239,-6.96501,-0.202383,5.42141,-2.17974,23.912,-903.288,-438.224,4060,-4900,2800
-6.84838,3.83872,3.6483,3.18968,6.17163,2.31509,4.17598,2.13402,-4.07239,3.01668,0.39104,3.14712,2.07897,4.58781,3.22883,8.56923,24.888,-898.408,-441.64,3920,-5180,2940
-30.1192,-36.2559,-23.6917,-30.0627,-29.4279,-20.5108,-22.2629,-20.4187,-39.392,-26.4378,-23.179,-31.2531,-21.3762,-23.3714,-30.6889,-18.2391,26.352,-901.336,-437.736,3640,-5460,3080
-2.59282,-2.66942,-5.52272,-5.79691,-5.50294,-12.8674,-6.76594,-10.9067,6.54355,-2.14298,-2.43279,-3.13308,-5.12557,-8.92935,-8.33453,-2.61489,27.328,-902.312,-439.2,3780,-5880,3500
0.41909,2.24584,-3.72801,3.0249,-2.12028,-14.0232,-2.18403,-9.19694,4.92198,-1.49154,-0.516794,-1.61442,-4.53998,-10.8721,2.13867,-1.74842,22.448,-902.8,-439.2,4200,-6580,3500
4.55797,8.70439,0.679423,10.1782,1.87847,-7.1109,-0.368359,-6.48908,8.49926,1.10829,-0.780721,0.868049,-2.39017,-7.13069,5.44962,-1.24946,24.4,-906.704,-438.712,5180,-7000,3500
22.8491,32.0197,23.5294,30.0523,29.4081,15.0253,21.7482,14.6228,26.7817,24.8254,19.2332,26.1263,17.8516,18.6735,28.1203,22.7839,22.448,-908.656,-442.128,5880,-7420,3640
-15.6989,-30.1131,-3.30085,-19.5802,-11.4965,2.75538,-2.85458,5.67905,-37.457,-7.93222,-3.00397,-18.1505,-0.398365,-1.88649,-11.3402,1.98375,23.424,-907.192,-435.296,6440,-7280,3360
-22.3202,-47.8865,-7.63055,-39.2097,-19.7025,9.38235,-4.85608,15.8868,-39.3624,-6.3888,3.99077,-25.1291,4.08227,-1.8853,-17.435,7.55037,26.84,-908.168,-434.808,6580,-7000,3220
-4.0012,-23.0664,-7.24706,-21.1265,-17.9621,2.16976,-7.25441,4.33002,-10.3853,-4.67164,2.34696,-15.408,-1.51511,-7.43863,-11.9702,-5.02775,27.328,-910.12,-431.88,6720,-5880,3360
12.8964,13.5542,3.73354,14.9601,2.2383,3.68898,1.62642,-1.53677,18.85,2.42061,1.03561,5.73356,0.804249,1.47858,4.53188,-3.77593,25.864,-913.048,-435.296,6580,-4900,3500
20.8564,32.6053,14.6323,29.3663,20.8096,9.74784,12.1639,4.58806,29.582,14.1325,10.014,24.1992,9.10477,12.6515,15.55,7.34277,26.352,-910.12,-433.832,6860,-4340,3780
-3.16721,4.16685,-5.32823,8.76078,0.782263,-1.86281,-0.343419,-6.65823,-7.72738,-10.8147,-10.4597,0.134553,-8.8313,-3.51261,-0.0339571,-7.33846,25.864,-909.632,-438.712,7000,-3640,3920
5.88354,11.4145,2.99152,6.71376,9.17075,7.05358,0.467183,2.8441,7.73013,2.07423,2.11045,12.132,2.67562,4.46768,-3.73076,2.63158,25.376,-903.288,-434.808,7420,-3080,4060
4.07298,0.538016,-1.45146,-8.67958,-2.92698,0.587807,-9.05323,0.430682,3.97854,-3.02512,-0.646144,4.32629,-0.451198,-4.32242,-15.4566,-4.33384,22.936,-903.288,-443.592,7280,-3360,4200
2.56003,0.20929,-0.844724,-1.77401,-0.440914,2.31266,0.856238,3.3402,7.27142,-3.07388,-1.82916,1.61708,-1.04913,-2.84781,4.84181,-0.232357,24.4,-898.896,-440.664,7560,-3500,4340
15.7986,20.4027,11.4872,16.206,15.0227,6.14881,10.7095,5.40113,27.1104,14.5555,11.0494,20.063,8.77973,8.78,20.7557,7.50781,20.008,-894.992,-440.664,7700,-4200,4200
-13.7905,-18.8325,-12.022,-17.299,-17.8564,-13.826,-17.4585,-13.8556,-19.0962,-12.9552,-11.3691,-12.4763,-12.2101,-15.2145,-18.291,-17.6444,19.032,-893.528,-446.032,7420,-4620,4200
-5.68987,-4.77335,-2.03449,-10.8309,-4.83558,-3.81924,-8.48135,-2.75732,-1.48161,1.00699,0.220873,0.413483,-2.51279,-4.88535,-10.2095,-3.41486,17.568,-896.456,-440.664,7280,-5040,3780
-6.2803,-4.71527,-3.54307,-9.54216,-9.08635,-3.77097,-6.82742,-6.93753,-4.90547,-3.9807,-4.18574,-5.58537,-6.6814,-7.35348,-6.6943,-5.84945,19.52,-893.04,-441.152,7420,-6160,3640
-8.94897,-6.97631,-5.40595,-8.7237,-10.4281,-1.49662,-6.28593,-8.31383,-7.94684,-7.10168,-7.07526,-10.4737,-7.3994,-4.58571,-6.814,-7.05341,15.616,-895.968,-438.224,7140,-6440,3220
-5.79429,2.6407,2.21302,3.3792,6.05395,9.1803,12.7456,8.57804,-3.65238,3.04035,2.18912,1.24409,4.13876,10.9489,14.0721,12.3849,18.056,-895.968,-440.176,7140,-7280,2660
-37.3618,-47.911,-25.8796,-36.9197,-31.244,-10.3882,-13.1168,-5.20746,-51.3337,-25.6298,-18.0055,-37.3304,-13.8595,-15.1346,-17.832,-10.1055,17.08,-899.384,-443.592,7280,-7280,2380
-16.5472,-21.5152,-10.2531,-16.8672,-6.58076,1.17814,-3.5679,4.31029,-17.8272,-4.17096,-0.822596,-11.3004,2.24703,0.887728,-6.31507,3.53665,18.544,-899.872,-439.688,7280,-7840,2100
1.30644,3.88036,-1.1084,5.73123,7.63104,0.16305,0.458065,0.561724,-0.792847,2.21629,1.2809,2.34899,3.14301,5.94595,1.54044,-0.167977,18.544,-902.8,-440.664,7420,-8120,1820
13.8501,18.255,4.69542,18.3133,14.0867,-3.60173,2.37683,-4.30813,14.363,6.23219,2.37252,7.65103,2.28965,7.22534,6.55345,-3.65633,15.616,-905.24,-438.224,7560,-8260,1540
29.921,34.3355,22.7876,29.1841,29.9908,7.20741,17.6118,9.99234,34.662,25.3052,20.3852,25.9765,18.7975,20.7223,17.6604,14.4284,14.64,-906.216,-436.272,7560,-8400,1400
7.44763,-0.848044,2.37946,0.550085,-1.12506,-7.85867,-0.399828,-2.35618,1.87242,-1.34111,-0.568946,-6.8501,-0.721694,-2.79629,-3.26893,-5.98592,10.736,-902.312,-438.712,7700,-8400,1400
13.1625,11.6957,11.3956,12.4393,14.8693,2.15334,15.5756,11.4042,13.1669,8.75463,9.2236,6.75436,7.85182,7.77805,17.8356,12.2801,10.248,-907.68,-437.736,7840,-8680,1260
0.947226,0.804144,2.12036,9.44321,3.89748,-5.12521,12.3426,3.40117,-5.11118,-5.25341,-3.53849,-2.91173,-3.39283,-0.626698,18.1769,4.98493,12.688,-902.312,-433.344,8120,-8960,1400
-0.31127,5.12821,-1.39545,7.86207,-1.43025,-8.57915,-2.86628,-8.212,2.52934,-8.20663,-8.63144,-3.00601,-8.609,-6.12244,0.738115,-7.19199,16.104,-901.336,-436.272,8540,-8960,1400
12.9361,24.6299,13.3814,16.3177,14.7075,3.34734,1.92538,1.5179,20.666,13.1096,10.6708,19.3941,7.79539,6.58098,0.377935,5.31789,20.008,-896.456,-436.272,8820,-9100,1400
-3.10472,-1.69967,-1.85267,-5.89832,-8.58877,-9.08813,-12.9206,-12.4202,-6.43268,-4.71229,-4.62501,-0.899873,-5.85222,-9.32804,-17.1497,-10.746,16.592,-893.528,-439.2,9380,-9100,1540
4.72589,9.83358,6.86134,4.35647,5.06812,2.40775,0.285751,-0.648153,8.25671,8.88284,7.3698,13.6822,5.52097,5.63212,-2.09256,5.36704,21.472,-898.408,-440.664,9520,-9100,1540
2.23305,8.01847,1.50879,8.20999,0.208787,2.6399,3.80067,-1.69033,0.66381,2.06683,-0.601934,6.87695,-1.48005,1.77064,3.79885,2.71245,25.864,-898.896,-436.272,9940,-9240,1540
-5.40946,-5.46966,-4.20312,-1.35773,-5.99576,4.21862,2.68344,-1.32406,-9.86826,-5.10977,-5.59504,-5.08017,-4.81576,-1.81841,0.834881,0.758923,21.96,-902.8,-434.808,10640,-9100,1540
2.34023,1.19122,2.21453,3.9835,1.45264,11.2355,10.1101,7.8705,4.35832,4.91043,4.67861,2.27795,5.76803,4.96056,14.4637,10.1612,20.984,-902.8,-436.76,10920,-9380,1820
-13.1956,-26.6579,-16.3936,-22.582,-27.5755,-1.46198,-14.6983,-6.22978,-15.8825,-12.734,-10.4744,-24.2989,-7.4161,-16.3549,-12.2082,-13.3559,20.496,-903.776,-438.712,10640,-9380,1680
-3.51938,-14.2346,-3.3142,-14.5187,-8.56087,12.9153,-1.85292,10.6609,1.28106,4.11095,5.60648,-7.73395,7.15978,-0.558353,-3.99944,5.21494,21.472,-898.896,-438.224,11340,-9240,1680
-0.497773,-7.62384,-1.28786,-6.6468,-4.84201,7.41255,-1.58792,7.19312,-0.517861,1.8792,3.00721,-3.02875,3.63133,0.0803174,-6.37568,1.8648,20.008,-896.456,-437.248,11620,-9240,1540
0.793369,-10.0458,-4.52378,-18.6649,-11.7304,-1.70031,-17.7754,-3.24558,3.92471,0.46253,0.318535,-3.71599,-0.634919,-4.87081,-28.4868,-11.9146,15.616,-897.92,-435.296,11900,-9520,1540
-4.88926,-9.91241,-4.53158,-14.5245,-4.90581,-0.617809,-5.93201,4.4262,-0.144941,0.0308648,0.598945,0.389574,2.09413,-0.425149,-8.81315,0.515752,19.032,-893.04,-433.344,11760,-9940,1680
-28.1972,-39.2472,-24.9424,-32.2321,-29.4923,-16.3801,-18.854,-10.9871,-36.0926,-25.9943,-21.4857,-27.1111,-17.9555,-20.2078,-16.375,-18.2562,22.448,-892.552,-429.928,11900,-10220,1680
4.41038,2.7244,-0.428088,-5.57943,-0.772834,-4.48198,-8.9247,-4.24096,11.6112,5.33007,3.27908,6.01099,1.77969,-1.71317,-0.77996,-5.98681,23.424,-886.208,-431.88,11760,-10360,1400
3.90624,10.8236,-0.512256,11.1505,6.6128,-6.39734,0.298175,-5.18428,3.22295,-1.01293,-2.51841,4.98843,-2.38985,-1.51229,11.1538,-4.59016,21.96,-885.232,-429.928,11760,-10500,1400
-1.55804,8.56843,-0.260131,15.7771,11.5239,-5.75163,6.71968,-3.45183,-6.41856,-7.27796,-7.36815,1.48876,-5.7186,0.891627,12.7518,-0.812487,20.496,-885.232,-428.464,12040,-10920,1120
6.85322,29.6655,19.6926,36.3233,35.958,7.79429,22.375,8.01978,1.27652,7.84951,6.46396,24.5664,9.95187,21.9295,21.5233,18.1023,20.984,-888.16,-429.928,11760,-11340,980
2.6465,20.2222,13.9077,23.4515,21.8709,1.73805,9.3007,-3.98166,-5.64457,-0.636412,-2.71039,13.2392,1.41458,12.9719,1.95146,3.78937,19.52,-887.184,-429.928,11900,-11620,840
24.5836,35.3212,23.6883,27.8191,30.6307,13.6214,23.0268,9.58086,36.2517,22.7551,18.0222,25.2886,15.0806,20.4816,24.1224,19.9869,20.496,-889.624,-424.56,11620,-11760,700
24.8792,21.4309,14.6164,14.3886,12.9111,8.35933,18.9762,8.83876,36.0107,18.588,15.3232,12.9296,8.59363,7.30705,23.8188,15.0489,16.104,-895.48,-427.976,12040,-11760,420
16.527,14.2974,9.82954,15.273,11.0508,4.88388,19.4648,6.297,24.1871,11.962,6.67286,8.53438,3.75851,5.44458,26.6687,12.8762,15.616,-897.432,-424.56,12600,-11900,140
7.4418,10.4909,10.4679,18.6668,17.4733,9.29191,28.0272,16.7155,10.8714,12.3511,9.48174,11.1219,8.05882,12.7061,34.4811,23.2068,15.128,-898.896,-430.904,12880,-12040,0
-24.9284,-40.5281,-20.4365,-31.6618,-32.7362,-13.4796,-15.3834,-10.2114,-38.6381,-22.1083,-16.322,-31.8003,-18.6633,-21.0586,-20.1141,-17.0146,12.2,-897.92,-427,13300,-11760,0
-13.038,-20.8682,-9.61111,-22.7222,-16.9699,-3.26829,-11.2839,-2.3529,-16.4397,-7.53579,-3.70928,-13.4012,-7.38518,-8.88148,-17.4609,-6.32488,12.2,-897.92,-429.44,13440,-11480,-140
-13.7146,-20.3353,-13.1751,-20.8953,-17.298,-6.23898,-13.9632,-4.67653,-19.8246,-12.4426,-7.27766,-15.612,-11.1184,-12.5652,-18.6905,-9.99522,12.2,-894.992,-425.536,13440,-11340,-420
-1.52205,-4.33308,-8.73385,-9.3553,-10.8745,-5.14304,-20.5543,-10.3459,-2.118,-2.9004,-0.850441,-6.17336,-6.45011,-10.9235,-22.3377,-16.3495,12.2,-898.408,-426.512,13720,-11060,-420
19.8236,25.9096,10.1762,11.3147,14.6013,6.55891,-9.52927,0.2733,27.8735,20.5038,16.9898,21.9206,11.5222,8.72126,-12.8135,-2.12609,13.176,-898.896,-421.632,13720,-10500,-560
3.57574,3.87261,-3.71895,-4.93363,-3.12477,-3.59799,-19.6782,-10.9694,3.33409,-1.1035,-2.12417,0.958499,-2.84368,-4.05945,-28.264,-16.9578,13.176,-898.896,-427.488,13860,-9800,-560
12.4705,17.5864,8.43636,7.47213,12.4377,10.5806,-0.217343,7.70071,21.662,12.6676,10.7338,15.4389,11.3917,10.4274,-4.96835,4.95937,14.152,-897.92,-433.344,14700,-9380,-420
-6.23391,-10.7502,-5.5825,-11.4777,-8.94743,1.41616,-4.56858,2.86212,-5.86623,-7.52026,-5.22611,-7.36112,-1.21023,-2.12486,-9.22975,-2.0332,15.128,-897.432,-433.344,14280,-8260,-140
-23.445,-27.4834,-13.6645,-17.3539,-15.5453,-1.59027,-4.12417,1.25412,-26.4068,-22.3704,-16.9775,-21.896,-8.75246,-5.95114,-7.3769,-1.509,16.104,-898.408,-429.44,13440,-6860,0
-23.341,-26.9187,-9.87501,-17.7999,-15.138,1.02639,-5.72428,4.63882,-27.1215,-16.6275,-9.81683,-18.5918,-1.52445,-5.21664,-9.96118,2.63765,19.032,-896.944,-432.856,13580,-5740,420
-32.566,-42.1865,-23.8201,-33.8919,-38.4615,-16.2525,-26.4559,-14.9787,-41.0254,-31.0873,-22.9142,-37.1736,-14.9605,-23.8416,-30.33,-20.995,15.616,-897.432,-429.928,13860,-5180,840
-15.8273,-10.6801,-7.28432,-5.29578,-10.106,-6.00588,-4.96975,-4.4281,-13.7356,-11.2708,-8.64733,-10.1072,-1.28107,-4.53914,-2.25409,-3.6049,16.104,-895.968,-427,13580,-5040,1400
-23.7824,-20.6967,-15.3218,-9.6744,-17.2451,-10.3399,-7.58236,-9.16928,-33.3846,-21.5486,-17.6247,-19.2794,-9.68611,-10.9104,-5.70426,-10.3933,15.616,-893.528,-422.608,12880,-4760,1540
-24.8475,-24.3422,-16.9922,-14.7818,-18.0899,-9.75515,-10.8563,-11.186,-36.0501,-20.3244,-16.0442,-21.2242,-11.3893,-12.6095,-11.4047,-12.8609,14.152,-893.528,-422.608,12040,-4760,1540
-0.369999,-3.94949,-0.288697,-11.9372,-6.50543,-3.52305,-7.83658,-5.70444,-0.724317,5.97205,6.50132,-0.311159,3.46465,-5.9636,-12.8236,-5.94342,18.544,-893.04,-427,12180,-5460,1400
-7.60716,-14.0648,-5.61581,-12.2142,-13.1118,-7.6439,-4.71308,-8.66024,-14.2771,-6.44387,-2.66436,-11.3724,-3.68018,-12.522,-3.00636,-7.80582,18.056,-894.992,-424.56,11760,-6020,1260
14.8835,23.1601,16.9993,25.6794,24.8627,9.95436,26.8273,13.1689,19.2052,18.7473,17.8199,22.0884,15.9047,13.1218,38.5981,22.5712,21.472,-894.016,-424.56,11480,-6160,980
17.2905,24.9345,15.2915,30.3372,24.0859,2.91846,25.4071,7.24938,15.6801,16.4167,10.5645,21.1602,8.90773,9.88896,41.8701,14.9715,21.472,-897.432,-426.024,11620,-6580,700
18.9777,22.893,14.3864,27.0296,22.7307,2.66504,18.6414,3.94836,19.5526,17.9111,8.21471,20.3351,5.9154,9.85892,34.9059,10.2516,22.936,-899.872,-426.024,11900,-7140,420
42.247,45.2005,29.2476,37.4046,36.9165,10.4389,22.8815,10.5504,51.2068,39.2925,25.1826,40.6537,18.2364,22.7647,36.2009,18.6793,24.4,-895.968,-427.976,12040,-7420,140
44.5846,49.4226,21.6555,41.7946,28.6556,2.67813,16.6536,0.850081,55.4551,29.1248,14.2638,33.4682,6.16283,15.3669,25.3863,5.84249,22.448,-896.944,-427.488,12180,-7980,0
46.2379,57.9633,29.0538,44.299,40.609,15.9874,26.2401,16.2664,64.131,36.7019,25.78,41.8863,16.9429,27.7602,29.1545,20.5172,22.936,-900.848,-426.024,12320,-7840,0
12.6499,10.2465,8.06051,12.5992,14.2956,8.89633,20.0206,15.6468,10.3808,7.12998,7.45725,7.59514,3.17048,15.0767,19.9071,14.7314,20.984,-897.432,-423.584,12180,-8680,-140
9.75545,-1.08668,5.01631,-2.46718,4.8049,6.39162,7.46649,7.57814,8.61604,2.65272,4.64164,0.197636,-0.202641,11.3051,1.54937,6.63767,16.592,-897.432,-421.632,11900,-9240,-420
22.4364,17.642,16.1569,4.29498,14.9174,9.94665,6.35066,10.0395,29.2803,16.0677,15.4282,16.2205,9.27932,18.4663,-1.57004,10.0557,17.568,-899.384,-422.608,11480,-9940,-700
-2.47931,-14.5893,-9.56172,-17.8277,-17.1115,-8.97883,-12.5208,-5.42461,-5.25546,-10.8341,-8.81663,-15.9026,-11.3647,-6.32626,-19.0827,-12.562,17.08,-901.336,-417.728,11060,-10220,-980
15.7909,15.7337,6.13415,5.32071,6.27713,4.72478,2.05292,4.35569,26.3969,10.0404,6.03652,9.82755,4.32027,8.24291,-4.39453,4.22033,18.544,-898.408,-419.68,10500,-10640,-1120
-10.5054,-14.5012,-12.5208,-21.2407,-16.4571,-6.16483,-16.6257,-5.64878,-13.0905,-14.1774,-13.7291,-14.1395,-9.81471,-9.26996,-32.8417,-10.9836,17.08,-901.336,-423.096,10360,-11200,-1400
-28.6614,-32.6855,-25.3984,-32.1547,-28.8729,-12.5896,-19.8955,-11.2804,-31.7528,-27.8115,-23.5707,-29.4071,-17.9557,-19.8038,-28.857,-16.3886,19.032,-899.384,-425.048,10360,-11480,-1400
-21.2611,-9.81068,-11.9773,-10.8525,-11.3083,-4.53718,-10.834,-5.8871,-19.2537,-12.0681,-7.45111,-8.97377,-4.75597,-10.3459,-13.4723,-5.33856,19.52,-895.968,-424.56,10360,-11620,-1400
-35.685,-22.2235,-20.1968,-15.8991,-24.4704,-11.0494,-25.9075,-19.8969,-41.1286,-27.4162,-20.7457,-21.2514,-14.4954,-22.1132,-28.8573,-20.3126,22.448,-899.384,-420.168,10780,-11480,-1260
-15.0609,-0.150383,-1.98864,-1.72754,-1.52236,4.92069,-15.6339,-4.91788,-9.9974,-4.78899,-0.567151,2.92091,2.83802,-5.20083,-21.3165,-2.11909,21.472,-897.432,-420.168,10920,-11620,-1120
-35.677,-46.3879,-18.9012,-47.6006,-33.144,-6.08049,-38.1822,-11.9306,-49.9711,-23.3008,-12.4632,-28.3197,-8.98593,-25.2929,-54.0016,-19.1238,20.984,-895.48,-420.168,11340,-11900,-840
-31.9599,-48.6609,-15.3873,-39.0312,-25.7089,-1.95737,-14.2819,-4.30515,-47.8962,-19.4054,-12.0857,-27.1063,-6.31594,-18.9094,-18.5537,-6.32216,25.376,-897.432,-427.488,12180,-12180,-700
-21.6166,-31.3292,-2.88262,-16.1688,-4.32937,6.83005,10.4841,9.05837,-37.3904,-6.78747,-0.470182,-12.2471,5.06693,-2.48845,12.3618,11.7963,23.912,-897.432,-425.048,12180,-12180,0
-9.28323,-18.2073,-7.68468,-6.73172,-12.2876,-3.80068,1.05645,-4.57826,-14.142,-10.3241,-8.31546,-15.8691,-3.33402,-10.8933,8.19048,-6.74468,23.912,-896.456,-421.144,12040,-12180,140
24.8692,32.7976,17.2789,29.5734,20.7373,8.58679,13.9571,3.05252,41.4047,20.5079,12.9856,21.5126,15.4075,10.9881,24.3919,5.44799,23.424,-902.312,-423.584,12460,-12040,560
-1.85924,1.42032,-0.725394,11.4592,3.92492,-1.15441,9.80152,-0.494527,-2.21734,-3.47696,-5.69219,-2.60265,-0.784887,0.452083,20.2932,-0.672158,25.864,-902.8,-422.12,12600,-12040,700
-2.39248,1.95654,-0.841628,18.6723,11.7002,3.86587,22.5632,8.3755,-4.73801,-3.58019,-5.21005,0.224934,-0.531772,9.03784,39.0906,11.4159,22.936,-903.288,-426.024,12460,-11900,840
21.8929,31.421,16.5653,39.2109,32.8648,11.4976,35.0417,18.806,27.7316,18.0355,11.7513,26.963,12.0484,23.8697,54.0628,24.608,20.496,-901.824,-424.56,12460,-11340,840
7.32543,10.9746,-0.79494,21.2407,7.96263,-6.38626,13.6052,0.292679,9.83842,-1.16088,-5.4815,7.03007,-5.54936,3.00923,25.5363,-0.387098,19.52,-904.264,-422.608,12600,-11060,980
19.0585,31.5456,11.2481,27.0524,20.8074,2.23244,7.6711,3.8958,32.7178,17.3977,10.9882,25.1022,6.97061,11.379,9.56277,4.26496,18.056,-902.8,-424.072,12600,-11060,1260
1.18427,0.183994,-3.62649,-13.8906,-11.9419,-9.16103,-35.1871,-14.1687,3.21085,3.15336,2.33055,-1.33209,-4.71701,-9.97609,-50.8509,-24.796,16.104,-905.728,-425.048,12320,-11060,1120
-8.5666,-18.3535,-12.0154,-35.1102,-25.1919,-9.55874,-39.4,-14.6265,-7.37078,-4.62106,-2.05085,-17.8615,-9.77433,-15.8162,-58.5683,-25.3039,13.176,-907.192,-418.704,12740,-11480,1120
-5.75825,-12.1693,-6.03894,-15.2225,-7.64197,-0.207825,-1.21967,6.78053,-7.69051,-0.934996,5.18324,-11.7279,-4.67943,-2.61957,-2.47974,4.86629,13.176,-908.168,-416.264,13160,-12180,700
-21.8103,-32.144,-18.2945,-24.9204,-22.7933,-7.46614,-5.75415,-1.65689,-33.9051,-19.5539,-6.8924,-30.0445,-16.9032,-11.9525,-6.90425,-4.70721,8.784,-915,-416.264,13160,-12880,280
23.4333,31.8513,16.5867,24.2566,20.6466,12.0909,16.9243,10.7008,30.6067,20.7,23.3391,21.4531,10.336,19.4047,18.9993,17.3289,10.248,-911.096,-419.68,12880,-13720,-140
31.9485,41.5401,22.2404,25.5894,20.7229,10.775,5.59839,3.54082,34.4903,21.5899,22.5137,27.1915,12.3659,17.9789,-2.24655,7.99443,12.2,-904.264,-415.776,12880,-14560,-560
20.9541,22.6569,15.9186,5.47022,12.172,11.056,3.52163,6.01699,24.314,13.3943,15.0087,14.2922,10.6877,13.7918,-8.35917,9.77162,12.2,-903.288,-416.752,12740,-15400,-980
18.6273,18.2822,15.608,7.59019,15.453,10.6276,14.1774,11.9314,22.6818,16.0984,15.8811,15.2224,13.3265,14.9147,12.9381,18.6482,11.712,-897.92,-419.192,12880,-15820,-1540
-16.4634,-25.9135,-14.9696,-20.0877,-20.7104,-12.8359,-5.67439,-10.9975,-24.715,-19.191,-17.1363,-24.4715,-13.4078,-13.9944,-3.17926,-7.33138,12.2,-899.384,-418.704,12600,-15960,-1680
-1.77821,2.12891,5.43122,6.49166,6.67551,0.98793,11.3393,-1.88731,-3.3345,2.42316,-3.51159,4.59288,4.7339,5.13658,18.7012,8.86249,12.2,-898.408,-421.632,11760,-15960,-1820
-0.188734,-2.65057,-1.92984,-5.78984,-9.20562,-8.57119,-7.21218,-14.6913,-3.9086,-2.26479,-11.7204,-0.943516,-3.34876,-9.17645,-4.75482,-10.003,14.152,-901.824,-422.608,11340,-15680,-1960
-7.13501,-8.76607,-7.29201,-6.82167,-10.6956,-10.0643,-8.32215,-12.4411,-12.1818,-9.64324,-16.8398,-5.67607,-5.82598,-10.0684,-4.71554,-9.72319,9.76,-902.8,-417.24,11060,-15540,-1960
4.03778,3.03241,2.49432,4.7777,3.34677,-4.57897,3.57921,-0.497722,1.28361,0.247644,-5.41228,8.45678,4.43848,0.368692,9.61173,2.23539,9.76,-904.264,-418.704,10920,-15260,-1820
-13.6224,-26.2191,-14.7863,-15.0931,-20.2373,-16.7454,-7.2345,-8.71015,-22.1036,-19.4287,-19.3009,-17.8017,-10.0122,-17.8574,-0.0416072,-14.3886,5.368,-905.24,-420.656,10500,-15120,-1680
7.97467,12.6812,7.56174,18.6191,12.9931,-0.970557,12.0964,6.81832,17.7658,4.55572,1.5669,12.8712,8.89023,3.88477,21.0983,4.38693,7.808,-903.776,-419.68,10080,-14560,-1540
4.41833,12.9872,0.693022,12.9622,6.39395,-8.9451,-2.74121,-0.936678,16.4259,-5.17986,-7.18059,7.37656,-0.598376,-3.94231,-3.74579,-8.5095,6.832,-906.704,-419.192,10220,-14280,-1400
-2.28289,1.64234,0.755423,1.80146,6.95478,-1.17644,-1.59671,3.64459,5.47741,-1.55601,-3.84078,3.97838,0.745838,0.311376,-11.2161,-3.61483,4.392,-906.704,-420.168,9520,-13860,-1400
-13.5518,-20.7997,-2.21372,-11.5198,0.159016,3.75448,5.60295,8.89591,-19.1908,0.170421,0.676075,-4.92581,1.32069,-0.0886413,-0.546815,2.2755,8.296,-906.704,-416.752,9240,-13300,-1400
-37.3475,-55.1608,-22.0578,-36.2852,-26.8956,-2.10516,-9.55914,2.16584,-54.2419,-22.4879,-15.3382,-33.7141,-13.2012,-14.469,-18.2845,-9.8734,10.248,-907.192,-419.192,8820,-12880,-1400
-2.0563,-8.00743,1.60413,-7.73478,2.58969,13.8499,1.05017,12.9426,1.0073,10.0596,11.5947,1.69615,7.58455,6.47439,-7.96194,6.57238,7.808,-899.872,-418.704,8960,-12320,-1400
8.72442,2.88207,1.25633,-3.3718,-1.81442,3.84631,-5.26387,-0.0364083,10.1643,9.98613,10.7881,2.74524,3.65702,-1.47515,-7.67235,-5.45628,9.272,-901.336,-417.728,8960,-11900,-1400
15.5195,19.84,8.40882,20.8512,15.2453,10.1271,12.9773,5.98792,18.4205,12.006,13.3464,12.3931,7.76589,10.2374,18.673,9.4426,7.808,-897.432,-423.584,8820,-11480,-1400
20.0644,33.9425,15.6071,29.7603,25.3804,11.6942,15.9056,11.0911,25.2694,16.803,18.1118,25.0231,13.0042,18.291,18.6752,17.4207,10.736,-896.944,-418.704,8680,-11480,-1540
0.679756,2.17615,-5.69179,-2.38299,-7.74469,-5.43048,-8.53834,-7.0163,1.0159,-6.70574,-3.7587,-3.82314,-7.50281,-3.18703,-11.1521,-4.10482,6.832,-900.848,-416.752,7980,-10500,-1540
5.30758,15.4376,5.2476,7.30957,7.84616,6.90695,-0.486573,0.274452,12.2488,4.99227,3.95457,9.96889,2.83795,9.55653,-1.97399,8.09685,9.272,-898.896,-419.192,7840,-10080,-1400
-6.4569,3.85237,-5.21182,0.048532,-3.35399,0.468676,-4.69968,-5.42528,-5.04868,-10.8244,-13.5,-4.56465,-10.3991,-0.109941,-7.30294,-1.53559,9.76,-901.824,-416.752,7560,-10080,-1400
-6.09543,3.09925,-4.27511,8.90279,1.31255,3.35232,6.80113,0.231122,-4.78751,-6.10992,-8.65996,-5.395,-10.559,1.06715,12.6609,5.47837,9.76,-902.8,-414.312,7700,-9800,-1400
-5.35484,-3.44679,1.50747,0.989603,1.28006,7.70481,3.1489,3.31948,-11.7609,5.35095,5.05899,-2.06835,-1.61887,3.81645,10.1853,8.65498,9.272,-905.24,-418.216,7980,-9800,-1400
-15.1168,-27.1519,-11.6217,-23.7309,-23.278,-2.36492,-15.9525,-11.0783,-28.1269,-9.15458,-5.90429,-23.6673,-12.4983,-13.2039,-11.7896,-12.0271,8.296,-911.584,-413.336,7560,-9660,-1400
8.40778,10.2589,9.70669,-1.56299,3.78133,10.1358,-2.47493,-0.903416,13.2169,14.6369,14.5639,7.30225,9.56522,5.52016,1.81301,3.33113,8.296,-909.632,-407.968,7980,-9940,-1680
-1.88468,5.09114,-1.47437,-0.52077,-2.91278,2.14212,-5.53981,-5.80397,1.59477,-4.41401,-1.79179,-5.64315,-0.842801,-3.09835,-1.83223,-3.08205,9.76,-914.024,-403.576,7700,-10220,-1680
2.58247,10.0654,0.509171,8.31925,2.85586,3.49801,2.20985,-0.181656,8.82335,-2.03369,-0.525145,-2.89997,0.535599,-1.69936,5.28949,1.1708,11.224,-912.072,-403.088,7980,-10220,-1960
13.0755,14.789,9.59907,9.99568,10.6376,4.12146,8.61322,8.08395,16.2691,13.2545,14.4881,9.79675,11.0528,3.4925,7.35828,7.53368,9.76,-907.68,-406.992,7980,-10360,-1960
-10.5339,-22.0648,-8.20777,-14.6934,-13.7758,-13.2842,-8.59289,-7.54042,-23.0782,-9.78197,-6.77584,-16.2669,-6.65377,-13.3616,-10.3186,-12.9895,10.248,-902.8,-415.288,8400,-10220,-1960
4.0545,8.27693,9.51278,10.6686,16.0118,0.187225,10.426,7.14465,4.81144,10.1661,5.40928,13.0674,7.07503,10.7149,9.29038,9.15531,16.104,-900.36,-409.92,8820,-10220,-1960
-2.48071,-5.3639,-1.27152,-2.3531,-0.0828519,-9.73011,-1.25064,-1.11355,-6.06697,-2.34339,-5.45749,-0.875705,-4.51932,-1.18191,-4.82335,-4.1114,16.592,-898.896,-409.92,8960,-10080,-1820
-10.0469,-18.3379,-4.22378,-11.3003,-4.6218,-6.83278,-0.422863,0.969922,-14.9256,-6.55458,-4.44682,-9.54639,-3.65671,-2.41468,-0.698823,-1.68403,16.592,-898.896,-414.312,9380,-10080,-1540
5.61388,3.86513,6.26894,1.51202,9.56523,1.30096,7.61604,7.605,8.91056,5.39462,8.53284,6.80876,7.65259,7.43647,8.39719,8.22091,17.568,-900.848,-422.12,10360,-10220,-1400
1.60185,-3.10408,-6.92097,-8.37331,-8.7857,-12.3284,-12.6303,-11.6839,5.01476,-8.76155,-5.81632,-4.6943,-5.86158,-8.18663,-13.7721,-13.8646,19.032,-900.36,-424.072,11060,-10080,-1260
8.76496,11.1824,2.27516,6.3883,6.94608,-1.32967,1.94965,1.6627,20.4867,4.36431,8.03866,10.4331,6.9621,4.77851,3.12719,2.63776,19.52,-906.216,-422.608,12460,-9100,-1120
-8.48292,-22.1773,-13.1251,-21.4131,-20.5877,-11.0825,-15.0012,-7.72925,-12.2409,-13.7793,-7.30625,-14.0069,-4.71989,-11.5799,-17.7791,-13.0786,18.544,-904.264,-425.048,12880,-8540,-980
-4.72615,-11.5899,-7.2762,-7.79192,-11.5789,-5.81517,-4.14188,-4.56741,-2.66529,-7.21839,-5.48426,-4.88234,0.0360849,-4.78903,-3.78385,-6.2476,19.032,-906.216,-423.584,13440,-7560,-700
5.00059,15.4202,5.18835,22.1312,11.7781,0.137789,15.6613,3.38949,7.91527,3.8755,0.139846,14.9952,6.55994,9.17912,16.9922,7.90892,21.96,-907.192,-419.192,13440,-6860,-420
-11.0372,-5.32482,-10.3582,0.406919,-11.1452,-14.4844,-10.4469,-14.6113,-20.5707,-12.2341,-16.6331,-5.90308,-11.5648,-11.3762,-19.103,-15.4673,22.448,-906.216,-420.168,13580,-6020,-140
8.14505,10.947,3.69936,-2.79708,-1.62175,-4.78533,-12.4062,-8.11282,10.0229,8.99722,2.36815,12.2284,1.6697,-3.85268,-25.0108,-8.18622,17.08,-906.704,-422.608,13020,-5320,280
-14.4308,-23.2724,-14.1674,-25.4378,-24.8368,-11.4663,-20.5597,-12.5529,-21.9306,-15.4267,-12.3285,-15.3905,-12.2288,-19.8059,-25.2535,-17.5849,19.032,-910.12,-422.12,13160,-5040,840
-8.84601,-12.1863,-10.0657,-15.7423,-17.8547,-6.74007,-14.4828,-9.54194,-5.36819,-14.7565,-11.7458,-10.4872,-8.68984,-14.8768,-16.006,-12.6345,18.056,-911.584,-424.072,12880,-4340,1120
13.1333,13.0625,5.38442,1.12017,1.70549,1.7247,-0.505747,1.2417,20.4275,2.05075,-1.73762,10.9203,2.45246,-0.0402346,-2.64492,0.901055,19.032,-913.048,-425.536,12320,-3780,1540
-13.9199,-21.9884,-6.66769,-7.91666,-8.81419,0.818539,7.88972,2.27279,-27.0246,-17.8187,-16.1112,-15.3262,-7.21057,-3.89717,14.6609,0.644241,20.984,-916.952,-422.12,11340,-2940,1820
13.5244,15.3595,17.2095,25.4696,25.8006,22.9764,33.4501,22.6258,14.7778,11.1414,8.47987,15.2715,12.4963,23.1467,42.2113,29.2113,18.056,-915.488,-423.096,10640,-1960,1960
15.2167,8.56575,9.59044,16.7639,13.2552,12.4473,18.9599,11.3038,8.61826,7.98628,4.58665,5.47638,0.599003,9.31711,26.4485,14.3574,14.152,-916.464,-422.12,10360,-1540,2100
13.1177,3.13083,13.407,1.12807,9.41533,13.987,3.74862,8.25942,6.59006,17.0789,14.6286,4.93788,6.45961,6.72991,1.85237,6.72278,12.2,-916.464,-416.752,9660,-980,2240
22.5008,22.1427,25.3155,7.28188,20.5946,20.0493,4.72637,13.4082,28.1031,30.5108,28.4826,19.3083,18.7564,15.111,-0.764336,10.9982,6.832,-920.368,-411.872,9380,-420,2380
18.1792,22.3693,13.518,18.2153,15.9144,12.0677,9.34215,7.33685,19.6179,15.7128,9.02088,11.5741,6.42444,9.01463,15.0853,4.77034,6.832,-917.928,-410.896,8820,-280,2380
11.1665,35.3275,19.7668,44.4099,41.5629,28.2288,40.0663,27.6235,12.4403,21.0427,14.0883,23.0949,16.4547,28.1463,55.0739,33.5598,6.344,-920.368,-414.312,7280,420,2380
-28.7964,-9.55989,-8.26373,8.76208,5.26927,12.0572,18.9352,12.9496,-34.3329,-11.9192,-3.75747,-17.8307,-2.51288,4.82784,28.7318,13.5734,5.368,-919.392,-410.408,6720,980,2240
-13.0412,2.00618,-8.38788,4.72774,-0.342925,6.05973,6.03278,6.13239,-3.35185,-7.04727,-1.32951,-9.33969,-2.51987,1.25222,7.02801,5.9365,5.368,-914.512,-426.512,5740,980,2380
-3.21685,3.60544,-2.24083,1.12994,4.06015,4.57141,3.44934,8.75352,1.01353,4.60935,5.99901,1.95857,1.61603,5.56736,-1.85529,7.18524,8.296,-916.952,-434.32,5740,1540,2380
-4.21406,-20.458,-15.961,-34.7144,-30.7455,-13.3808,-32.4704,-13.6337,2.81892,-3.1569,-3.40381,-18.7183,-12.6087,-17.395,-48.9137,-26.7863,8.296,-911.584,-430.416,4760,2800,2240
25.2531,23.8701,10.0049,-9.35719,-1.73042,-3.78146,-21.7068,-7.22361,52.9583,27.0371,19.354,17.4299,8.54956,3.46648,-39.4367,-11.0202,-0.488,-913.048,-428.952,4340,4480,2380
-13.1574,-12.2237,-17.1243,-18.9013,-21.5934,-21.72,-16.6514,-10.5211,-6.55219,-7.76019,-8.03754,-17.3935,-13.5573,-14.3404,-14.285,-12.7768,4.88,-910.12,-430.416,3500,5040,2380
-35.8033,-17.9983,-22.5252,-0.361109,-11.2366,-19.8883,0.209396,-7.88437,-37.7153,-23.4159,-20.9587,-20.5526,-16.1834,-10.6133,20.5275,-3.06025,5.368,-905.728,-428.464,2100,6160,1960
-18.4576,-9.16753,-9.21472,-7.91634,-7.43975,-18.2972,-22.6639,-18.2427,-25.0761,-10.1687,-8.69536,0.265318,-3.29021,-8.10812,-21.3239,-13.8186,5.368,-909.632,-425.536,700,6580,1960
-14.0582,-44.2723,-20.3607,-53.6725,-36.8976,-27.3368,-46.3485,-32.4667,-28.0638,-21.8623,-18.7989,-19.9306,-14.347,-28.037,-63.131,-32.2003,4.88,-909.632,-421.632,-420,6860,2100
3.56718,-11.8601,3.76436,-7.97634,8.60815,-0.869579,-1.34732,-5.04044,-5.14469,-0.37218,-0.16765,8.87349,4.65947,3.28955,-6.13398,7.49161,7.32,-907.192,-425.536,-1120,6300,2240
-3.65309,-5.06866,6.69746,10.7386,10.5033,-0.819267,0.254118,-11.8592,-17.1832,-7.4439,-6.69155,5.76411,2.01251,3.1659,3.74024,-1.10537,8.784,-907.192,-428.952,-1540,6160,2240
13.091,18.8313,17.8233,35.2543,22.7305,3.42319,13.282,-11.4932,12.868,8.24483,5.50607,21.819,9.96491,9.93712,28.2113,1.93467,7.808,-899.872,-429.44,-3220,6440,2520
16.7484,26.9304,13.2906,51.9529,25.4286,0.484399,30.0042,1.9881,19.476,11.8452,10.2951,23.0758,7.99621,10.8422,54.5945,14.7579,15.616,-901.824,-431.88,-5460,7840,2940
-6.63791,-14.1759,-8.00087,12.735,-4.29494,-7.14083,11.4393,1.42478,-17.0315,-8.63872,-6.95507,-7.9531,-5.54919,-3.44641,21.1985,4.01612,20.984,-906.704,-431.88,-8260,10360,3220
21.9442,12.2185,7.26496,0.602452,2.16428,3.88403,-0.902454,8.31487,28.4915,18.1462,15.1495,14.3428,11.4453,6.0589,-9.67013,6.7839,22.936,-911.584,-435.784,-10500,12880,3500
9.40374,-0.752219,-3.14941,-20.241,-14.394,-3.68232,-9.06511,1.64221,10.7903,-0.397026,0.687116,-4.10031,0.591506,-4.46872,-23.9309,-5.13081,23.912,-915.976,-443.592,-12040,14980,3780
1.72772,0.357896,1.76829,1.66257,5.06631,8.85982,17.201,15.6252,-2.9144,-5.25673,-0.483032,-3.09294,5.08766,9.92253,12.3792,12.9626,27.328,-919.392,-446.52,-14420,18340,4200
18.2138,12.938,9.47535,-6.54826,1.2347,10.0795,-4.47513,7.42156,21.2477,6.78546,13.3934,5.99913,12.7711,6.06496,-22.8987,0.988321,25.864,-921.344,-444.568,-16240,21140,4340
5.59354,-16.4682,-12.5209,-43.9394,-34.9022,-7.54165,-29.0614,-10.5897,10.1729,-13.509,-3.35903,-24.6057,-8.38202,-22.2868,-49.0876,-24.6431,23.912,-922.808,-447.496,-18200,24220,4620
0.506143,10.458,2.95752,11.6304,11.4009,13.315,33.646,21.9086,6.9556,-5.30987,-2.4819,-1.51533,0.248667,8.01512,41.6364,22.0455,24.888,-924.76,-447.984,-19040,26320,4480
-31.2852,-21.1653,-11.6881,1.14269,-3.16454,5.87772,24.7693,17.6199,-40.6772,-26.8501,-24.1399,-25.5582,-14.8208,-4.37791,38.4749,8.93338,20.008,-924.76,-447.008,-21000,28000,4480
-20.6442,-14.1445,-13.2249,-14.7327,-15.5898,2.44029,-5.54706,8.13174,-5.80997,-15.1006,-16.5559,-24.4446,-15.3539,-13.3301,0.890678,-9.5332,17.08,-922.32,-444.08,-23660,29820,4480
-3.08528,9.77125,2.85731,-4.08755,-2.06584,6.25166,-16.4511,1.06579,7.70033,5.64954,-1.99113,0.604514,-3.18725,-3.60384,-19.2941,-12.3629,12.688,-927.2,-446.52,-26180,30800,4340
-10.0008,-10.2887,-4.89669,-20.1079,-17.4775,-7.1352,-34.1868,-20.527,-19.948,-3.43644,-11.7788,-10.7849,-11.6224,-16.1798,-41.4173,-30.8793,14.152,-927.688,-443.592,-28980,31920,4480
2.88807,0.111362,3.50948,-10.0145,-1.54217,0.107937,-11.8653,-8.01542,0.74955,11.3593,7.34034,5.82581,1.92236,-3.03512,-11.6539,-7.29812,14.152,-923.296,-443.104,-30940,32480,4200
-21.8442,-30.7863,-17.5223,-26.2415,-23.6434,-12.6437,-11.4988,-9.51011,-31.0922,-20.3476,-10.1407,-21.6689,-12.3812,-15.7638,-6.01667,-12.4492,19.52,-917.928,-437.736,-33600,33040,3920
-9.45556,-13.9378,-9.03395,-13.9208,-9.70166,-7.39525,-4.55349,-8.96896,-9.47469,-12.4295,-5.21365,-9.49283,-7.23338,-5.71385,-1.95987,-7.4186,20.984,-917.44,-438.224,-36260,33740,3500
19.7956,28.823,13.7433,7.82242,12.2348,-0.507349,-16.7497,-12.8117,24.9714,13.7797,9.36898,21.8571,6.57776,6.88789,-28.8028,-12.2648,23.424,-918.416,-436.76,-38360,34580,3220
-4.5797,3.9749,-1.63108,-11.0582,-6.01588,-9.79576,-29.264,-19.2879,-12.9416,-5.79893,-8.04233,-0.821265,-7.84582,-4.54865,-47.188,-24.2774,23.424,-918.416,-438.224,-40320,35560,3080
6.05353,33.6932,23.927,48.2264,48.162,19.9024,42.4171,20.5762,-5.02401,21.8255,15.9043,32.6213,16.329,35.7392,52.0317,36.1444,24.888,-914.024,-437.736,-41440,36960,2800
-0.744257,22.3039,19.5438,68.8146,52.8137,20.1631,68.1381,26.362,-24.8542,17.7143,13.8325,25.4437,13.6383,38.5173,89.5688,48.8416,23.912,-920.856,-429.928,-43120,37940,2800
9.30154,9.13797,22.1794,46.7755,45.3689,22.7354,56.0663,27.6035,-5.51049,27.2872,26.7556,24.798,22.1171,38.3563,67.1202,48.0284,17.568,-924.76,-436.272,-43680,38500,2800
46.1316,37.3156,34.3317,32.4583,36.8401,23.7426,27.5141,28.9504,62.1691,46.2634,40.5504,44.4887,33.082,35.5474,20.0942,43.3464,8.784,-915,-442.616,-43120,38500,2800
39.3994,14.4101,8.77366,-12.4976,-12.8362,2.85853,-23.3613,6.23262,64.5849,25.5675,24.1731,15.0442,12.9825,-1.77781,-38.1948,3.8103,6.344,-901.336,-442.128,-43260,39060,2940
40.2626,26.5068,10.1393,-0.606855,-6.24897,7.59499,-17.0976,6.45932,70.2167,26.7161,24.9093,21.8569,18.1499,-2.70852,-16.2797,5.04652,9.76,-894.504,-437.736,-44520,41860,2800
1.71492,-9.56999,-16.0862,-11.7075,-22.116,-9.60483,-7.8938,-5.3264,8.30012,-13.0752,-9.15477,-11.6324,-8.15614,-21.921,-2.27508,-3.36817,6.832,-894.504,-437.736,-46060,43260,2520
-11.8517,-11.0173,-19.7751,-1.32272,-10.9253,-6.13366,14.4989,2.60643,-3.15568,-18.2017,-11.8923,-17.2643,-11.6047,-15.9221,24.8448,10.8375,6.344,-898.408,-435.296,-46480,43960,2380
-30.5916,-26.3455,-25.1459,-17.8923,-22.1925,-13.4653,-7.59017,-10.9854,-32.8632,-23.4778,-12.9231,-27.7353,-15.2258,-21.1295,-3.03101,-12.2753,8.784,-897.432,-442.128,-46060,44660,2100
-44.6794,-49.7316,-35.4574,-48.5735,-49.3736,-34.011,-50.1843,-44.11,-59.2531,-36.361,-26.9653,-44.9619,-28.6009,-41.0009,-51.8549,-56.6743,8.296,-898.408,-449.936,-45500,45080,2100
-26.7261,-20.3766,-21.2174,-10.3395,-17.0597,-19.2509,-4.72878,-14.7846,-25.1464,-21.2061,-21.1657,-21.1135,-17.5624,-16.9808,10.8604,-12.7253,8.784,-894.992,-449.448,-44940,46060,2100
-16.6683,-11.4099,-24.7877,-1.29692,-18.1025,-19.8478,2.88235,-5.78559,-5.32359,-28.0934,-33.207,-22.3127,-25.7864,-17.1751,14.3686,-6.93072,7.32,-887.672,-446.52,-44240,47180,2100
9.29466,2.38605,0.424207,-1.00791,2.29044,-4.3228,-2.53137,-7.5728,13.0105,-6.14295,-17.9805,5.67138,-5.95693,-1.40005,-6.93327,-6.33511,5.368,-889.624,-446.52,-44240,48300,1960
6.85945,-3.40733,24.4904,0.692586,24.9629,12.3664,5.622,-0.101453,-19.3026,10.8225,1.11533,23.2005,15.7573,18.2573,-5.96926,3.10434,15.616,-884.744,-448.96,-44520,48440,1680
-3.41032,-3.98757,24.1591,10.302,22.5642,10.2475,-0.83139,-7.00504,-30.8087,7.65932,7.78263,15.2494,14.8618,16.104,-8.14579,-10.8355,16.104,-871.568,-463.112,-43680,47880,1400
19.0274,33.5863,37.5534,29.0362,38.1451,17.9179,-4.04362,3.97252,18.9076,28.1808,29.8397,35.8598,30.9391,26.2068,-10.973,-4.60425,11.224,-866.2,-457.744,-43260,48020,980
14.702,13.387,8.83878,-11.8047,-7.33186,-6.34814,-40.627,-12.426,20.3699,8.7281,5.42464,3.11334,5.69853,-7.20292,-61.7227,-29.7676,13.664,-880.352,-454.328,-45080,48580,980
-2.78551,-16.2095,-14.4793,-32.8979,-24.7381,-10.611,-22.8413,-7.81215,6.42249,-5.63572,-13.5401,-22.3401,-10.8634,-15.6881,-32.7216,-14.9709,19.52,-892.064,-459.208,-46480,47880,980
-15.4544,-14.4382,-20.9255,-13.7194,-17.1923,-10.428,6.57737,-1.82198,-5.27982,-15.5978,-22.6166,-24.1578,-14.5501,-9.24301,16.7341,1.54945,21.96,-892.552,-466.528,-45640,48160,1120
-40.4493,-46.5683,-38.0188,-33.2839,-36.1541,-18.7586,3.54004,-2.24011,-43.2699,-35.5754,-32.7571,-49.8667,-27.6015,-21.3922,11.5713,-5.75547,25.376,-893.04,-468.48,-44520,48860,1400
-13.3866,-10.2662,-11.2363,-8.65216,-4.81533,2.13783,15.1911,15.0231,-6.25762,-3.24218,-1.39804,-13.6225,-2.47158,3.41687,26.4943,10.5785,35.624,-905.728,-446.52,-44940,49420,1260
-14.2825,-5.45995,-6.27508,-0.347606,-3.77876,-3.61874,-4.76668,-7.0591,-29.9209,-8.69362,-4.1593,-7.78799,-4.76582,-2.33375,6.29985,-16.1988,39.04,-895.968,-472.872,-45920,47600,840
-1.26155,11.8215,9.31689,13.0461,18.682,8.56392,-0.332827,-0.641683,-12.2379,5.04674,6.7012,12.094,8.34568,9.91993,6.94672,-10.0113,38.064,-865.224,-488.976,-42840,47320,700
24.3885,42.8723,18.1541,32.878,30.3407,21.0335,15.1508,20.6253,40.2129,18.9651,14.9468,24.356,15.7496,22.8685,20.0928,19.9119,32.208,-901.824,-476.288,-44380,47180,1120
31.5461,39.1407,7.96672,25.6387,12.8646,16.1028,20.1768,26.3701,54.7331,13.9849,1.73028,10.7888,0.95394,15.2295,9.35238,30.083,16.592,-890.112,-456.768,-43960,49000,980
40.1145,48.632,22.871,38.5264,31.0992,27.9257,39.9128,40.1354,60.8742,35.6149,24.3049,28.8567,16.482,29.3289,29.1529,47.8426,16.592,-898.896,-467.504,-45780,49280,1120
22.9844,8.25477,16.0322,0.964879,1.53836,11.6803,2.60399,12.9202,13.4022,27.653,25.2929,10.3729,10.1586,8.66629,-10.2563,8.11995,11.712,-907.68,-455.304,-47600,51520,1260
15.4864,-6.39621,23.8158,-15.2192,-0.893096,7.22739,-20.7606,-5.72176,-6.5743,32.6088,34.6298,17.9291,19.0531,6.95691,-38.887,-7.73051,10.248,-904.752,-451.4,-48440,53620,840
5.39969,-1.47251,22.8032,4.77196,11.055,7.23609,0.318582,-3.73874,-13.7438,22.5581,27.3945,23.7585,18.9222,8.88501,-4.09335,6.51294,13.664,-899.384,-455.792,-48440,53620,560
-22.5837,-16.5032,-8.08018,3.16384,-5.42969,-5.63349,13.7096,-7.22412,-19.7423,-18.0567,-5.21523,-7.35992,-8.9671,-10.1296,19.4998,7.47093,19.032,-889.624,-453.84,-50120,53760,-140
-14.3413,8.50884,-3.82642,23.3492,12.9522,6.58113,45.0511,15.1409,11.9719,-18.8798,-0.814315,4.46218,-2.8009,6.40332,52.778,40.8031,18.544,-888.648,-466.04,-52080,54740,-560
-30.6283,-28.5023,-23.3765,-11.4261,-19.5933,-9.22302,13.9791,0.966723,-34.9099,-46.6017,-27.937,-20.4201,-20.8218,-13.2661,12.6088,14.6345,16.104,-894.992,-460.184,-54180,55440,-420
-37.8231,-60.1283,-32.4025,-61.7368,-51.1234,-21.0657,-41.7346,-22.6981,-55.4922,-44.136,-23.2832,-37.477,-24.2747,-35.1661,-57.5354,-25.8772,21.96,-901.336,-464.088,-55720,55160,-700
-15.7081,-43.4989,-19.8108,-50.483,-39.6138,-23.5415,-36.0952,-28.278,-40.9339,-24.5296,-15.5208,-20.4836,-18.4417,-30.1486,-48.1788,-25.5161,24.888,-898.896,-467.504,-55440,55860,-980
-38.5103,-46.7189,-25.9363,-24.9787,-30.202,-22.4256,-16.0339,-16.1211,-74.2965,-39.0799,-29.2971,-32.4249,-26.0204,-26.629,-4.48089,-15.6094,37.088,-906.216,-511.912,-55720,56140,-1540
8.60453,22.9329,2.59773,26.8019,3.10192,-6.59006,-9.0944,-6.61956,15.2875,2.9694,5.26292,8.11593,-1.17817,-7.85924,30.5564,-13.8021,46.36,-907.68,-433.832,-52640,58800,-2660
15.1657,26.9812,-2.79643,11.086,-10.0156,-14.2007,-24.5237,-19.0603,45.7994,-0.987491,4.04531,-3.04958,-5.71128,-17.9947,-5.41756,-25.964,38.064,-884.256,-467.504,-57400,58660,-3080
12.0651,30.9304,12.3362,19.7522,23.9862,10.1191,11.6777,14.1473,43.6534,2.93903,6.75072,8.72458,10.9356,14.6855,6.89818,17.5039,44.896,-896.456,-475.8,-55020,61320,-4060
28.5519,33.0319,26.0621,17.3731,37.4752,21.3024,4.86115,21.5319,39.3913,18.0465,4.60528,26.1714,21.7556,30.0102,-4.69274,16.6878,35.624,-888.648,-452.864,-57120,61040,-4340
26.3191,9.71299,0.175875,-9.56696,-2.42464,-3.38659,-28.0484,-14.7264,34.0043,12.5784,-6.26283,0.239887,0.879503,-3.52654,-27.816,-32.2334,37.088,-895.48,-481.656,-60200,60620,-4060
26.077,18.2046,2.33776,22.3876,20.3737,-0.516785,10.3895,-9.99829,31.987,23.658,7.50653,14.397,6.94856,5.91994,28.9258,-20.2743,42.456,-905.24,-466.528,-62160,61180,-4480
3.63171,-4.13204,-6.24296,11.8047,10.0235,-8.7272,-2.17261,-18.9545,-7.66771,3.09452,-5.10387,4.80071,-2.15817,-2.21524,9.77379,-31.2563,46.848,-895.48,-479.704,-63700,57960,-5320
26.6553,20.657,5.14777,23.6191,18.2446,-4.81872,-4.38668,-18.2902,36.9806,18.5475,10.1018,25.7365,8.66304,2.58264,10.0068,-21.7481,46.36,-893.528,-473.36,-64400,58520,-6580
17.8924,12.968,-0.559821,22.3535,16.9416,1.36598,26.3351,8.51728,30.9049,9.61294,4.53327,17.955,6.57134,8.54317,26.9623,19.6399,50.264,-903.776,-483.12,-67340,56560,-6720
-5.39773,-19.2458,-7.06665,-10.8393,-0.292221,0.9983,18.3969,8.46124,-11.838,-4.93504,-7.81374,-0.863353,-1.0362,7.77861,-10.6917,23.939,52.216,-915.976,-477.264,-69580,54740,-6160
-4.51346,-22.456,17.1087,-30.0012,8.95307,18.4803,5.24911,17.8789,-24.8184,24.2798,21.9279,14.7328,23.3004,23.7918,-36.1161,30.3485,62.464,-893.528,-507.032,-69720,53060,-5460
-34.4051,-36.23,5.3926,-35.7136,-8.51756,4.61765,-16.2785,3.92732,-68.3328,4.70199,10.1066,-8.06919,10.9296,5.80343,-46.1145,3.52752,60.512,-890.6,-486.048,-68880,47040,-4760
-10.0268,17.1061,16.787,18.1084,18.8685,10.5644,5.39376,11.7592,-18.319,14.6012,13.4511,14.2728,14.2768,16.8333,8.90922,9.96269,63.44,-868.64,-476.776,-67480,47320,-6440
10.8229,43.457,14.7844,51.3412,23.3767,10.0105,23.259,13.5371,16.6108,12.852,8.3599,17.5928,9.54297,16.5075,63.1673,11.8871,64.904,-856.44,-450.424,-71680,42980,-6720
2.68809,16.1808,-7.19767,21.354,-12.0724,-10.3375,-0.665824,-16.0611,2.00631,-3.10231,2.71957,-15.2136,-8.008,-13.9382,31.6265,-18.0217,58.56,-874.008,-397.232,-78400,38220,-7280
10.1342,19.7153,0.972074,2.01502,-5.91906,1.62675,9.43321,2.09508,20.8112,2.22516,9.30532,-10.0365,1.4516,-4.44615,7.52564,7.07542,64.904,-904.752,-437.736,-84280,34300,-8120
-34.4172,-32.1625,-28.8202,-47.4336,-44.9866,-6.82947,-16.7979,3.64703,-29.6482,-44.6875,-33.7998,-55.1785,-26.3478,-24.3674,-38.0079,-5.68843,49.776,-891.088,-437.736,-82040,31640,-8820
-51.3497,-62.0292,-24.8042,-63.7723,-43.5801,4.8804,-21.1476,20.2476,-62.368,-39.4747,-32.5237,-59.3106,-23.0201,-18.1515,-41.9997,-1.54205,55.632,-888.16,-429.44,-85960,28280,-9660
-24.4976,-25.0104,6.60516,-20.6685,-2.80651,15.9032,-4.85457,25.1522,-45.034,-3.5517,-13.7823,-15.5263,-4.71156,4.93941,-16.6545,3.85605,56.608,-886.696,-443.104,-87780,26460,-10080
9.87344,23.4807,14.3729,22.7743,16.7644,13.9122,18.0542,13.3526,16.4809,17.5479,-8.08502,9.95136,-3.87318,11.6885,13.0269,9.47154,38.064,-853.024,-367.952,-86520,23240,-9660
20.8913,48.4088,26.1512,58.795,49.4406,27.8186,69.8767,32.6034,45.1969,33.7456,12.42,31.7885,11.5585,35.8648,74.5517,56.4391,41.48,-896.456,-378.688,-88340,19040,-8820
-0.491019,5.04519,6.10148,15.1542,13.6063,7.67195,35.2017,12.5484,6.83174,13.4104,6.92032,3.50028,-1.77642,10.838,31.8126,29.3148,24.4,-880.84,-456.768,-91560,16940,-8960
1.09736,-3.18204,7.3299,-8.47867,3.92099,7.79998,12.6562,7.62544,7.07502,14.8204,11.5202,4.08476,5.35373,9.66091,7.97455,17.7844,20.984,-865.712,-429.928,-85680,11480,-9520
12.9377,20.6643,-1.43148,12.0474,-6.47146,-5.5808,-9.76121,1.90736,36.5072,2.43679,-0.792068,7.38571,-2.80274,-2.91066,22.0247,-2.41125,23.912,-871.08,-429.928,-87920,10920,-10220
17.7265,10.9971,-12.5078,-12.251,-31.1246,-24.9365,-61.5874,-32.1152,36.628,-7.776,-5.85619,-2.82104,-12.8653,-26.7541,-39.411,-51.334,29.28,-848.632,-435.784,-84700,13440,-10780
51.9734,51.2603,23.2024,12.6256,15.8893,-5.30285,-33.0592,-35.1281,65.9463,29.8913,26.7311,44.7717,17.1113,4.39536,-44.4062,-28.4247,31.232,-838.872,-424.56,-83720,15680,-11060
16.9789,19.9161,-7.48946,6.66131,-3.67232,-22.4812,-13.8888,-41.2572,23.4749,-8.36134,-5.31065,9.55241,-7.06132,-14.1122,-22.1662,-25.9847,18.544,-825.696,-412.848,-83440,16660,-11340
-16.467,-22.2711,-23.7407,0.637991,-9.1837,-19.9542,17.8984,-15.521,-18.3297,-21.5989,-10.8959,-15.3235,-11.4311,-11.969,33.2001,0.885615,17.568,-826.184,-416.752,-82740,16800,-11480
-32.1836,-53.5958,-22.8262,-15.2897,-10.1668,-11.4414,30.17,8.58198,-56.638,-19.8894,-5.54266,-19.8798,-5.75885,-2.24861,34.9495,21.1765,8.296,-827.648,-417.728,-83720,15960,-12040
-61.3085,-107.363,-42.5301,-73.407,-55.837,-22.8395,-24.7993,-6.30889,-108.595,-40.8054,-18.532,-52.6832,-18.428,-29.8476,-42.3685,-13.6782,0,-833.504,-418.704,-85120,15120,-12880
-20.2041,-52.9478,-23.0076,-51.011,-39.4471,-20.3805,-50.021,-13.138,-36.3024,-14.5537,-2.20061,-11.6435,-3.95722,-28.5327,-61.4926,-27.062,-2.44,-830.576,-413.824,-85540,14000,-13440
-20.8858,-49.2281,-40.2496,-45.2779,-50.9671,-38.8494,-52.0454,-39.9261,-22.9682,-39.0661,-26.5519,-26.2662,-24.772,-46.363,-52.1782,-51.9605,4.392,-838.872,-424.072,-86380,11900,-14000
28.968,6.1793,-0.85624,-0.423066,-10.6308,-18.7838,-32.9154,-33.8121,39.3641,2.11423,2.39437,21.7017,-1.11596,-19.4739,-27.3279,-33.4552,12.2,-844.24,-422.608,-85680,7840,-14280
43.5449,32.107,34.2109,14.8125,25.6826,4.84362,-31.1089,-14.2366,37.7996,23.6272,20.0026,55.7094,19.5858,4.53446,-41.375,-18.6571,16.104,-850.096,-441.152,-84420,4340,-14280
9.88645,2.8415,17.3826,13.2055,19.5702,14.3677,-15.7054,5.87743,-6.45158,-3.88726,2.39485,20.9296,8.18698,2.5276,-14.4088,-6.73191,21.96,-854.488,-454.816,-82460,-140,-14000
37.7189,56.0232,43.6319,59.6312,62.4002,32.274,31.3201,21.9971,38.5917,29.4573,27.665,55.1538,30.7871,34.1322,32.2434,30.0284,30.256,-852.048,-458.232,-81340,-2940,-13720
8.34134,6.08069,12.7442,12.1696,18.5132,11.9613,26.1293,5.92864,-3.6729,6.22343,11.1076,3.90376,10.3722,10.7328,22.6386,16.8041,34.648,-860.832,-456.28,-81340,-6020,-13160
-12.0904,3.30013,3.31222,8.12071,10.7758,18.0555,25.7985,21.3038,-11.4195,0.427728,2.81721,-13.1503,8.62874,13.0753,31.7772,25.4854,38.064,-866.2,-451.4,-81620,-7840,-12740
-34.5492,15.169,-1.94384,33.9957,20.8068,17.9347,47.4015,26.2394,-22.9752,-12.467,-5.15068,-18.0213,3.27722,16.9278,67.8967,33.187,42.944,-876.448,-457.744,-81620,-8680,-12320
-31.5785,2.59828,-7.71043,24.2691,12.1666,16.1199,40.0542,30.1906,-26.9291,-27.3631,-21.1732,-28.2137,-7.40122,18.897,49.7334,33.8915,49.288,-882.304,-468.968,-80640,-9380,-11900
1.75813,15.5785,16.7022,3.5253,21.0207,24.5855,8.77269,31.7905,-2.64392,0.809815,-1.97516,0.214109,11.1375,30.2754,-12.638,22.7483,53.68,-872.056,-479.216,-79380,-9380,-11620
-2.89,-8.59115,-2.71864,-19.9698,-9.59828,-2.14769,5.048,4.2256,-11.647,-8.65653,-10.4091,-24.5766,-7.24762,-1.18339,-13.5969,-5.26589,56.12,-851.072,-494.832,-78960,-9240,-11200
7.47941,32.3426,3.15906,30.7873,18.8237,-1.88277,50.7474,11.4441,31.8044,-2.39427,-15.1065,-1.89575,-7.82098,12.141,59.2095,20.2764,55.144,-845.704,-494.344,-78400,-7420,-11060
-6.50896,23.4635,-1.90971,28.53,12.6733,1.34178,45.5772,20.7688,16.4054,-3.71805,-13.7529,-6.30777,-9.41501,13.9026,65.5846,25.7915,50.752,-846.68,-485.56,-79660,-6440,-10640
-6.17039,-1.99909,-3.14727,-16.1956,-26.3314,-5.32262,-54.3248,-4.48112,-2.61084,11.3636,-1.08167,-12.7595,-6.61148,-12.6151,-35.9512,-39.7481,50.752,-852.536,-483.608,-81760,-5740,-10220
45.0343,47.2508,27.3849,2.90522,2.18366,-0.0191008,-60.6642,-26.3776,63.1548,58.9576,35.0389,38.5166,18.4081,-1.27579,-57.7064,-54.5136,45.872,-852.536,-475.8,-81620,-5040,-9800
38.2251,35.7822,16.3258,5.8308,9.85596,0.2765,0.11087,-19.5125,55.3932,38.8761,17.342,26.984,5.50654,7.17839,-18.4711,-9.47251,47.336,-846.68,-469.944,-80360,-4760,-9100
19.6658,18.2545,12.2921,0.722035,5.16234,10.9297,-10.6953,8.85343,34.7827,27.8534,19.0859,18.6283,8.38778,8.00244,-8.01139,8.6288,40.504,-842.776,-473.848,-80080,-4900,-8540
1.27034,-3.80502,6.29675,-1.07359,2.4664,8.67956,2.59489,7.75623,-7.41425,16.23,24.4506,6.54591,8.43284,2.01487,13.936,6.45814,40.016,-836.432,-479.216,-79800,-4620,-8400
-19.352,-35.438,-15.846,-18.5637,-15.8181,-1.73337,16.4982,-2.77958,-30.5716,-11.7498,5.94081,-23.402,-6.91021,-11.2804,18.4327,8.28514,39.528,-833.992,-484.584,-78680,-4900,-8540
10.5538,-0.199788,-0.779916,2.83923,11.632,13.216,50.4945,21.5926,23.767,5.29028,14.8623,4.17629,6.50798,13.46,40.1972,49.5659,42.944,-831.064,-481.168,-77560,-5040,-8680
4.04268,-12.4616,-6.3746,-3.3562,6.22193,5.06287,44.2556,14.0363,1.77911,-5.43582,-0.753648,-4.69363,-3.15229,8.20525,25.242,38.9959,45.872,-831.064,-481.656,-76440,-4480,-8540
17.4011,13.8053,4.86021,18.7202,20.6844,7.31933,45.8949,17.2575,26.0965,10.6256,6.00143,14.8581,5.61437,16.3429,38.2408,38.3217,52.216,-830.088,-481.656,-74620,-3780,-7980
4.13432,-1.64893,4.86457,7.48653,14.8036,4.89726,22.1977,13.4492,-4.26722,6.51207,2.41448,12.9805,6.89497,13.4915,13.3561,25.6976,53.68,-826.184,-491.416,-71540,-3780,-7700
-31.6513,-51.655,-19.8266,-45.994,-37.8187,-18.2062,-72.9787,-19.9621,-63.4111,-19.6971,-15.5302,-23.2489,-10.3942,-24.4384,-80.3292,-38.5883,51.728,-823.744,-494.344,-70980,-2940,-7000
-29.7369,-37.5279,-17.4845,-47.3689,-43.847,-22.313,-109.322,-33.9054,-51.5498,-14.3496,-8.43837,-15.9555,-2.8206,-31.5184,-108.164,-65.21,53.68,-821.792,-489.952,-70700,-2660,-6720
-39.8902,-59.6702,-34.9841,-61.3325,-60.6974,-40.2726,-89.0283,-59.6165,-71.3869,-39.4612,-31.4958,-39.3623,-21.1255,-47.4531,-98.8982,-76.5574,54.168,-818.376,-476.288,-70980,-2940,-6440
-14.1001,-16.7638,-17.0273,-6.34642,-12.2911,-19.2095,2.15923,-30.0046,-21.935,-26.8979,-25.134,-13.2737,-11.4734,-12.7117,-5.63329,-13.4852,57.096,-822.768,-471.896,-70840,-4620,-6580
-2.55573,13.5753,-3.2457,30.5904,17.9017,-5.61906,45.5727,-3.39509,-0.575657,-18.0142,-15.3087,5.66315,-5.18407,7.6128,47.8078,22.5606,55.144,-830.088,-469.944,-71120,-6580,-6580
-18.8068,1.70259,-14.0463,22.9419,0.191182,-12.4391,23.7488,-8.25425,-18.6269,-27.5184,-19.033,-10.8635,-14.3822,-9.78385,36.4537,-0.435057,58.072,-843.264,-471.408,-71400,-9240,-6300
-8.39807,-2.81386,2.15985,4.38218,0.300364,0.964917,-8.62624,-0.119441,-13.726,1.88822,5.37507,0.93003,5.02429,-6.54755,8.2884,-11.0283,58.072,-855.464,-485.072,-70560,-10780,-6020
-4.11288,-20.5354,-8.46966,-24.4878,-28.5663,-9.63737,-42.1916,-15.7618,-11.8731,-1.74734,-5.02549,-16.0594,-8.29712,-24.6146,-28.4661,-34.3172,54.656,-856.44,-502.64,-68460,-11900,-5880
0.979564,-7.08623,-1.73466,-14.1223,-20.1831,1.73654,-34.0835,-1.2538,6.7077,5.31772,3.39402,-8.86248,-3.21192,-12.8867,-20.3849,-16.7939,46.848,-858.88,-509.96,-66360,-11200,-5600
-3.64949,-21.6571,1.6614,-25.0218,-9.25364,14.12,1.36287,20.627,-6.34486,-0.220347,-1.13321,-10.0853,-0.578707,3.6287,-9.17509,13.5954,40.504,-863.76,-509.472,-64260,-9660,-5320
4.45383,-6.05067,0.960714,-7.47559,3.34485,10.1827,23.7352,19.8056,15.7501,-8.50492,-10.8364,-7.54368,-6.79005,2.24001,11.2565,20.0863,35.136,-864.248,-511.912,-61600,-7980,-5040
27.2753,54.3249,27.5747,47.3852,41.5929,13.3809,24.9288,24.6048,54.3156,17.3797,15.9658,36.4563,14.2791,19.3459,38.1795,23.3713,32.696,-855.952,-513.864,-60200,-7700,-5040
33.6512,69.0037,27.5731,64.4656,42.0482,1.07709,14.2224,3.2125,59.1044,10.3421,5.31953,41.2383,6.61098,18.3926,23.1143,-0.583143,34.16,-851.072,-516.304,-58240,-8820,-5320
61.5361,82.0506,41.4039,59.6634,51.1452,14.4597,36.2804,8.29935,95.19,40.6081,27.8345,58.1679,20.5649,32.1277,28.0673,16.9627,35.136,-844.728,-520.208,-57260,-10220,-5460
17.8689,13.7528,17.2282,3.49181,11.9065,10.8668,18.6539,8.18728,19.4315,23.5417,23.5216,16.7125,10.7555,13.5264,8.18662,12.4555,38.064,-845.216,-527.528,-56140,-11060,-5460
-28.4008,-28.4257,-14.4249,-13.3089,-8.76717,0.493123,12.889,5.35797,-34.9481,-17.9398,-14.8093,-20.4583,-12.2543,-1.32092,19.237,6.75092,38.552,-837.896,-535.824,-54040,-11620,-5320
-9.79833,-4.01544,-8.33209,1.69636,5.91987,7.57772,16.7198,16.6834,2.42475,-4.64486,-14.2637,-2.36201,-2.95818,9.74554,31.2992,18.5121,38.552,-840.336,-519.72,-52500,-12040,-5040
0.770391,-17.4543,-13.1966,-24.8615,-17.7583,-8.07296,-11.3926,-7.67906,-4.71589,-2.52303,-14.4799,-11.1894,-8.36247,-8.92784,-16.813,-12.1055,37.576,-851.072,-515.816,-52220,-11900,-4620
-2.94063,-21.0171,2.6777,-18.8379,5.22924,8.78888,15.3803,4.9178,-27.482,8.95152,3.06281,1.56127,6.82673,11.7196,-1.13982,12.1522,34.16,-857.416,-533.384,-52220,-11900,-4620
-11.4308,-23.2081,-2.075,-17.8274,-9.03064,4.31386,-16.4116,4.1523,-40.226,-1.65685,3.20834,-6.72217,2.84539,-0.450835,-17.4326,-6.39878,26.352,-856.928,-531.92,-50680,-7700,-3920
-24.697,-24.5495,-22.5755,-19.8948,-34.1176,-15.9207,-41.1996,-14.4822,-31.8036,-27.7749,-10.18,-29.3233,-12.3137,-25.5728,-32.5559,-38.5925,26.84,-853.512,-542.168,-50680,-7700,-3920
-16.2957,-12.6233,-10.7965,-3.41558,-12.1095,-7.63265,-12.6911,-7.89916,-19.6411,-12.9937,7.67188,-15.7526,2.02849,-9.64445,-3.42756,-14.5073,29.28,-844.728,-545.584,-47040,-6580,-3360
-12.6625,-19.851,-11.2325,-11.8385,-6.58513,-8.56667,8.68683,-9.12428,-25.2635,-14.2909,-2.69812,-17.9497,-3.69171,-4.67076,-2.9809,0.935279,25.376,-834.48,-552.416,-47040,-6580,-3360
11.3444,25.0723,12.0105,36.8524,41.6759,12.393,60.2445,16.9251,15.6833,10.5804,4.37451,17.2892,8.24433,30.2769,47.8809,49.4566,27.328,-828.624,-546.072,-45920,-6020,-3220
20.0516,28.9691,13.4495,26.9179,25.2256,4.72601,27.6615,8.74919,29.4848,21.2261,13.8632,16.2457,9.63742,16.0831,26.1621,26.9922,30.744,-828.624,-537.776,-45220,-4900,-3220
11.7506,6.30021,-0.156983,-5.53246,-13.6354,-13.4797,-23.8334,-16.5782,16.517,11.1674,8.74724,-5.74391,-0.423623,-14.8411,-12.888,-17.1965,36.112,-827.16,-538.264,-43540,-3640,-3220
20.3108,34.6391,10.6278,22.5106,10.2067,-0.667628,6.68328,-3.24795,41.6252,21.5364,20.7516,15.0602,11.7337,1.06692,21.8983,3.25098,34.648,-832.528,-533.872,-42280,-3220,-3080
-23.6596,-16.207,-8.85664,-19.138,-19.1586,-3.66837,-23.0944,-3.41226,-27.4111,-15.2215,-3.04366,-19.6513,-3.34528,-12.7773,-30.9759,-8.39348,36.6,-840.336,-535.824,-41860,-2520,-3080
-19.843,-23.3097,-2.47936,-22.6596,-18.0722,7.93511,-37.7807,6.89022,-36.7412,-8.02036,1.82873,-13.7831,5.23666,-8.32977,-45.456,-9.0973,34.648,-844.24,-535.824,-41860,-2240,-3080
-18.5201,-35.5275,-6.06781,-38.3638,-25.9465,3.32941,-27.6573,-3.77043,-37.4434,-8.02379,1.73658,-18.0195,4.60692,-12.9419,-44.5151,-16.3379,34.648,-844.728,-528.016,-41300,-1820,-3080
-18.0891,-35.8394,-7.84633,-34.7543,-26.0919,-1.18046,-32.4895,-3.40167,-34.5132,-8.11484,-3.90072,-17.9001,-0.941689,-13.9183,-40.1254,-17.3997,35.136,-843.752,-521.184,-40740,-980,-3220
24.1326,34.0624,18.9542,31.8253,30.6154,14.8735,33.6075,15.7228,47.1624,27.3133,16.8788,29.1816,17.3065,19.0925,39.5053,18.9382,38.552,-847.168,-528.016,-39620,-1680,-3220
35.6968,41.444,10.522,24.1508,15.9885,2.83803,20.6113,-0.133029,68.2845,20.7318,3.73535,23.5162,2.22387,6.13894,23.7178,0.0360858,38.064,-842.776,-525.088,-38080,-2940,-3220
39.4776,45.3592,20.77,24.8962,25.5001,8.70319,2.01588,-3.1558,63.3059,31.5521,9.54366,35.7326,9.42283,13.7152,9.00193,-6.95833,41.968,-841.312,-527.04,-36120,-4200,-2940
10.7748,26.5391,24.3534,34.3035,43.4303,15.7657,23.7208,2.90992,0.371334,16.8389,-1.52491,33.6008,10.1517,28.7412,23.4437,15.0641,43.432,-839.848,-523.624,-34860,-5040,-2660
-10.4612,5.80009,2.29103,23.6489,18.1926,5.00885,26.0662,-2.26703,-18.0664,-11.224,-18.9315,8.10374,-7.42297,14.2615,27.1552,15.0089,43.432,-838.384,-511.912,-32900,-5740,-2100
-2.58723,16.8466,-2.35474,36.9891,19.8902,14.0272,60.5214,26.5936,16.6078,-9.03841,-4.91001,10.5663,-4.17082,21.455,83.2008,50.3961,44.896,-838.872,-512.4,-31640,-5040,-1680
-12.8847,-9.37632,-19.3116,7.36488,-11.0263,-1.72629,15.7865,14.5147,-6.32797,-26.4036,-16.8574,-8.69958,-20.9244,-2.44941,34.4312,16.8698,44.896,-833.016,-517.28,-31780,-4340,-1120
-13.6554,-16.2305,-4.26114,-10.9867,-3.76537,-0.326726,-5.02201,-9.10159,-28.9287,-6.75208,1.93639,2.13393,-6.54273,2.30166,-12.1635,-9.03443,44.896,-830.088,-500.2,-31640,-3360,-140
-12.7639,-27.907,-9.36439,-32.9595,-21.038,-9.97391,-27.7336,-17.9442,-30.4708,-7.48486,0.625197,-7.12434,-10.1945,-9.04304,-40.12,-21.4469,40.504,-833.016,-492.88,-32060,-2800,140
-30.6291,-59.4527,-39.5308,-75.7827,-73.1253,-39.9897,-91.2545,-39.2262,-42.8875,-34.8644,-26.9327,-45.9701,-34.4154,-51.1807,-94.7195,-64.6934,25.376,-771.04,-444.568,-34160,-700,280
-51.9768,-76.6473,-48.0222,-90.3722,-78.8515,-45.8342,-85.4874,-39.2173,-63.6522,-43.8425,-33.3607,-61.02,-36.7794,-56.5296,-100.399,-60.5743,9.272,-984.296,-461.16,-36820,2100,-420
-25.1661,-44.5734,-42.4077,-62.2095,-67.2228,-53.4291,-62.2828,-48.2088,-20.2995,-36.9356,-39.5929,-51.2604,-43.9101,-56.3977,-78.3276,-55.8292,69.784,-1010.16,-559.736,-47320,9240,-2660
16.8854,10.3991,-3.03313,-6.86889,-15.4832,-20.5395,-33.9675,-10.6111,37.0691,5.70439,-6.82295,-8.49478,-11.885,-21.0541,-24.3302,-14.776,41.968,-941.352,-602.192,-44100,2660,-7280
21.6097,20.4926,17.0768,23.9949,17.813,4.05857,5.6016,12.4623,30.0062,11.8501,3.61603,6.62579,8.65872,3.11627,17.7412,7.71014,68.32,-861.32,-590.48,-19460,-5600,-5180
21.2127,11.8565,25.535,36.3586,39.5947,23.6506,56.912,22.3514,8.79936,14.6136,13.413,9.38078,23.3218,23.4076,51.2348,35.2148,105.408,-822.768,-610.976,-10360,-11620,-2800
36.92,31.3184,37.7106,48.4322,56.7833,39.0737,71.7798,42.9749,23.1855,31.0811,32.437,31.8441,44.382,41.7824,71.7739,64.6141,68.32,-810.568,-616.832,-12460,-12880,-1260
26.4386,24.2028,16.7341,28.9793,32.2249,17.5381,33.3283,22.1608,6.53047,-2.70734,-1.93343,19.001,23.4741,24.1459,34.751,34.4657,30.256,-802.76,-597.8,-9380,-6720,1540
23.4288,39.6897,12.5579,36.1322,31.0457,10.0228,28.2955,8.19712,27.0345,8.1651,11.2982,21.2374,20.8486,22.4896,33.2808,23.4411,34.16,-817.4,-573.4,-3640,4620,4060
-17.1697,21.3725,-0.121438,34.9948,26.8901,10.772,46.606,16.8433,-6.57665,4.84363,17.3897,4.2592,11.1086,19.8217,45.5511,33.8879,36.6,-830.088,-557.296,-3920,7700,3920
-23.4852,0.244953,-0.802417,20.6998,24.2989,14.7656,50.4032,17.0654,-21.0959,0.868994,12.8395,-0.200094,4.03165,18.1086,41.974,30.3866,36.112,-837.408,-549.488,-6580,6860,3080
27.8785,26.3144,21.8816,24.2261,26.5137,21.4265,18.5703,21.6167,27.2845,33.5473,30.0408,30.1884,19.6724,19.3037,24.6489,8.86266,35.624,-847.656,-554.368,-8960,7140,1960
-10.7287,-26.091,-7.99204,-19.5921,-23.149,-5.93935,-28.8911,-10.0755,-31.5908,-3.36749,-0.537657,-14.8517,-6.80852,-18.1488,-26.7701,-40.7352,33.184,-848.144,-557.784,-9240,7700,980
-18.8846,-26.585,-4.8842,-35.9157,-24.33,-7.68081,-45.2267,-20.4812,-28.2323,-3.916,-1.01845,-8.84236,-4.44413,-18.0905,-53.3929,-44.3531,37.576,-850.096,-568.52,-8120,7140,-280
-4.00763,-6.4702,2.15179,-20.1866,-9.06275,-2.53663,-24.4858,-5.52902,-4.62871,0.28614,-7.81769,5.42832,-5.37376,-3.98689,-38.6675,-19.2903,35.624,-837.408,-568.032,-7000,6300,-560
6.35235,1.46474,-4.64742,-9.76828,-21.8585,-9.71705,-37.6151,-8.41178,23.6119,3.43536,-9.07537,-2.83978,-12.4025,-12.6603,-27.4396,-26.2614,35.136,-836.432,-569.496,-5320,4900,-420
7.69098,-5.72388,10.8364,-29.3643,-11.341,5.4842,-32.0759,1.94795,18.5483,24.1674,15.0547,7.61506,8.70092,2.73795,-39.6293,-8.12711,41.48,-831.064,-579.744,-3780,5460,-140
8.50665,15.721,16.5716,17.9268,21.6073,12.1261,32.3091,1.78547,12.7968,14.1543,2.82723,16.2525,6.78975,19.4121,30.1707,20.5381,41.48,-828.136,-580.72,-2240,6440,420
19.6889,59.995,23.7827,65.0181,44.6214,29.5036,47.9074,31.2225,54.8313,21.5537,12.0998,32.1603,18.3898,32.3807,77.5991,46.0798,37.576,-825.696,-572.424,-140,7700,1120
-38.4494,-6.41985,-6.58065,12.9432,2.15136,12.2839,15.8672,13.8664,-33.7416,-11.2332,7.23795,-15.3809,6.39,4.55792,31.7125,17.7628,38.552,-815.448,-585.112,700,8120,1400
-26.7069,-17.8393,-11.8423,2.85942,-4.03206,-1.59074,16.8245,-9.84828,-38.1408,-19.5729,-3.65711,-16.9807,-5.10589,-2.2294,11.3313,5.53776,43.92,-837.896,-567.056,1960,8260,1960
32.0491,27.1301,11.9022,9.79222,14.3224,3.80016,19.12,-0.0438317,40.9859,15.9483,12.4535,24.2872,7.05865,9.37754,6.0353,15.933,46.36,-830.088,-568.52,2800,7000,1960
10.0098,-16.3436,-10.2076,-44.9477,-33.1,-21.7831,-50.0514,-23.537,4.82808,-5.41433,-2.62309,-8.43141,-12.3311,-26.6424,-59.9877,-37.7422,45.384,-821.792,-569.984,4480,8680,2380
6.84133,-22.2279,-11.421,-49.3886,-46.859,-25.357,-85.8372,-33.6759,1.74064,0.741127,7.51568,-11.5545,-8.28304,-35.2354,-74.5563,-62.6517,45.872,-818.376,-574.376,6300,8820,2100
-11.3162,-24.4153,-28.2373,-32.288,-53.7141,-30.8579,-75.7152,-33.7971,-12.8403,-20.0511,-10.4443,-27.2622,-19.8789,-45.9325,-45.7546,-63.0497,50.264,-816.912,-567.544,6580,8120,2520
-10.5423,-3.89638,-21.7298,13.1933,1.29626,-10.6157,33.1732,-3.6778,-3.30006,-27.625,-30.8041,-12.9969,-21.2748,-9.89381,37.2499,12.1211,46.36,-820.816,-560.224,6440,8680,2660
2.55969,6.83636,3.30678,21.3233,37.684,8.15596,76.1305,21.875,1.7775,-0.217423,-12.7391,15.3851,-0.464978,25.2991,59.0784,60.3409,49.288,-823.256,-561.688,6300,10360,3080
-31.885,-40.8393,-21.1738,-21.8377,-6.04165,-9.51255,27.9393,5.64409,-44.9162,-31.9113,-37.5619,-25.4737,-20.6106,-1.13595,13.1282,22.6923,46.848,-825.208,-564.616,6160,11060,3360
-9.44552,-15.1134,-10.6379,-11.1001,-5.08313,-2.33223,0.207776,-0.942301,-9.26687,-14.1613,-19.1898,-11.0834,-8.4805,-2.32309,-8.46431,1.27031,50.264,-828.624,-561.688,5600,11060,3360
9.31786,-2.39428,-1.50003,-24.0096,-13.419,-6.00006,-24.9324,-10.871,3.75126,-5.57155,-8.57493,-3.38462,-2.17305,-6.25042,-53.1878,-20.5844,52.704,-826.672,-554.856,5600,10640,3220
0.717068,3.65234,-5.52311,-4.06984,-7.63203,-2.8664,-9.39473,-3.38587,4.36746,-17.6072,-19.5393,-9.54232,-7.18898,-0.133435,-21.6356,-11.6059,50.752,-829.112,-555.344,5320,10640,2940
-9.71859,0.602974,-0.0267309,13.8556,4.76807,7.27054,7.79885,18.1559,-9.14297,-1.92201,3.92407,-8.10279,4.37713,9.15207,21.7949,10.7194,51.728,-838.872,-547.536,5320,9100,2660
-41.0855,-27.3869,-7.83169,8.87051,3.46468,-1.41967,27.7935,10.9263,-60.7794,-14.4486,2.32727,-23.6383,-3.49589,4.14737,30.381,14.6297,46.848,-836.92,-557.784,4760,7980,2100
22.1609,37.8565,34.0544,35.7623,45.545,13.9979,28.2093,13.4649,24.5756,33.9838,32.0514,38.758,25.6939,31.3645,14.9367,27.0962,50.752,-830.576,-559.736,6020,6860,1400
44.6386,44.8392,35.2685,37.0082,34.1653,12.8473,-5.74323,14.3749,41.6582,42.1506,29.6863,44.8517,27.8005,23.0693,8.44965,10.6714,49.288,-821.304,-568.032,7280,6440,700
39.8728,35.7561,18.1378,28.9932,10.8581,1.96091,-25.5739,-2.63637,44.6497,30.886,19.9791,29.7428,15.0275,2.7872,1.35875,-15.5249,43.432,-819.84,-569.008,7280,6300,140
49.4264,46.9265,24.7677,29.0627,25.4303,12.552,15.9201,5.66748,70.6617,37.6599,28.7161,41.1166,22.9545,16.4218,26.9686,11.4813,40.504,-816.424,-567.056,7280,5880,0
-10.3462,-18.6006,-12.6378,-6.5312,-9.54592,-3.54911,19.5668,-2.97399,-14.496,-18.7355,-11.4282,-14.3931,-9.55215,-4.29054,23.3593,8.27652,37.576,-820.328,-564.128,7420,6300,-140
-28.856,-36.2396,-3.40821,-15.0875,2.24292,8.66561,19.9359,10.2113,-54.5698,-12.6627,-3.11379,-12.614,-1.90545,9.75146,9.17583,24.5899,36.6,-824.232,-558.272,7560,5880,-140
-26.067,-29.9081,-0.00113826,-23.2172,-6.99335,6.40123,-19.7959,4.62281,-50.9297,-10.8089,-5.02306,-8.07611,-4.20825,2.65551,-37.8855,2.30153,34.648,-828.624,-554.856,7700,5600,0
-0.478358,-9.12145,-7.46664,-32.9671,-33.4608,-9.75246,-61.7531,-21.1225,3.70873,-3.10197,-3.0307,-11.7165,-12.1441,-26.2347,-76.3145,-40.4258,32.208,-833.016,-549,8120,5460,280
-4.32998,3.8117,-6.4323,-6.74948,-26.4227,-0.474797,-36.8623,-8.42994,12.6254,3.22115,6.3711,-9.20081,-3.65373,-25.0461,-12.3765,-28.5825,32.208,-837.408,-543.632,7980,4900,840
-59.1905,-47.1953,-36.9946,-36.0315,-57.7493,-18.0746,-45.3217,-30.0721,-58.3296,-36.9634,-19.6275,-56.9443,-26.8852,-52.6711,-19.3323,-49.2672,34.16,-837.408,-547.536,7420,4200,700
-34.5618,-22.4082,-19.5951,-4.2971,-8.12668,-1.91454,28.4658,-4.4155,-25.7741,-17.0507,-8.12289,-32.4115,-13.7837,-19.2404,34.5261,10.4814,32.696,-838.384,-553.88,8120,3080,980
21.2619,20.8841,5.57146,24.8993,24.9228,1.1036,62.0419,9.19311,32.5737,9.8358,-1.44217,7.28492,-4.61205,10.619,54.9963,42.1731,34.648,-831.552,-560.224,8400,3080,1120
1.53432,-19.2088,-6.55272,-23.8889,-13.6861,-11.579,-12.1538,-9.49275,-11.426,-4.66815,-5.98578,-15.2336,-9.40369,-7.8318,-25.2178,-6.05648,33.672,-824.72,-562.176,9520,2940,1260
14.1561,8.40921,12.3037,-9.58175,10.3636,1.29334,-10.366,-10.9062,10.6492,9.26411,10.2069,12.7107,10.2045,11.3788,-36.3384,-9.74006,37.576,-818.376,-573.4,10780,2660,1260
17.2963,15.5983,6.05515,-7.18455,3.17679,-7.08214,-8.21252,-12.699,23.2542,4.59473,1.80716,8.53154,2.84526,6.40716,-35.1442,-11.3447,38.064,-813.984,-579.744,12040,2520,1120
40.7087,53.1694,24.8434,37.6988,35.1099,13.0319,27.039,21.1862,62.7017,29.6433,12.5816,37.8018,18.7364,28.0582,36.6283,19.4537,41.48,-809.592,-576.816,14140,3080,980
32.3943,23.1861,17.579,19.5294,18.6413,11.7711,-0.676404,16.7794,30.8432,25.6337,8.3406,26.4341,16.4788,18.2878,20.4844,-0.632235,40.504,-808.128,-576.816,14700,3080,700
29.2309,12.8889,1.34078,6.44981,3.45693,5.60895,-9.19933,6.75851,39.2846,8.39496,-0.416216,13.0239,6.949,7.22335,5.77963,-11.3262,43.92,-803.248,-580.72,15260,2520,280
41.4593,53.8044,18.3665,46.5341,43.8731,21.7055,53.8194,26.1356,64.4437,16.2596,4.32491,41.3721,20.4608,35.5562,56.6368,36.1617,45.872,-801.784,-578.768,16100,2520,-420
-16.5908,-12.2751,-16.1202,2.3354,-4.72488,-0.693375,12.7188,8.77645,-28.3687,-31.0083,-26.406,-12.6136,-4.7875,-0.00197358,15.9768,5.61363,47.824,-802.272,-574.864,16800,2660,-980
-29.4317,-17.246,-11.7422,-0.343827,0.781076,0.800461,15.0197,2.74588,-28.2729,-15.6001,-5.00017,-10.9595,1.71034,0.0736076,19.4505,6.52768,53.192,-799.832,-575.84,17640,2240,-1540
-44.0038,-34.6679,-14.1138,-15.3931,-9.79814,-6.26494,9.30386,-5.44294,-43.3517,-13.7266,-0.505732,-19.3166,-3.74203,-4.37455,0.880159,6.97805,50.264,-803.736,-575.352,18200,1960,-1960
-50.8259,-62.953,-22.9223,-46.2786,-40.3249,-14.0267,-41.4144,-13.4177,-79.7981,-23.9183,-10.2959,-36.7101,-13.8555,-23.5571,-46.7929,-20.0283,48.8,-802.76,-575.352,19320,1540,-1960
-16.9607,-24.9447,-8.17038,-23.9209,-23.0064,-9.25125,-31.9106,-6.8385,-32.8198,-6.57147,-0.341581,-10.8194,-4.21809,-14.7068,-26.5227,-14.9799,53.192,-804.712,-575.352,19600,1260,-1960
3.20351,5.04155,-2.1417,3.15214,-5.01743,-11.5784,-1.91985,-11.414,8.21895,-9.70864,-11.1737,0.88491,-10.1871,-5.01249,-2.12425,-5.60262,51.728,-804.224,-573.4,19880,840,-2240
-10.7885,1.1262,11.8441,-1.27112,5.29253,4.59956,-28.9101,7.85724,-17.4923,5.43567,6.4861,8.89029,4.5072,5.79253,-37.5251,-1.61372,48.8,-810.568,-567.056,19460,1120,-2100
-7.80189,15.5999,12.157,20.5399,7.92669,-2.82503,-24.4008,-4.44671,-13.1107,5.42472,10.6847,12.9943,2.45375,-2.43746,-16.7509,-20.7075,48.312,-813.984,-563.152,19320,1400,-1960
4.5633,23.2302,9.15532,42.9214,16.5237,-0.141358,25.4757,-5.19282,7.3741,1.62547,3.59409,10.3484,-3.46463,2.83515,39.6061,1.90251,41.968,-820.328,-561.2,19040,1960,-1400
24.5713,22.2073,18.1791,20.8443,18.7188,12.5505,38.4029,12.2419,32.3178,19.4105,19.6467,16.9103,8.77994,11.9265,29.2568,25.3513,46.848,-827.648,-560.712,17920,1960,-1120
5.70127,-20.9464,-2.29258,-26.7411,-13.685,-1.40058,19.5677,3.68819,-7.34426,-4.82635,1.22503,-15.672,-8.53008,-6.55882,-1.65986,9.55492,44.896,-832.04,-555.832,16380,2240,-700
21.2374,14.6582,6.53736,3.48681,9.73278,5.77169,32.4617,17.5716,28.2721,8.12556,5.91986,6.61528,1.75698,8.25431,34.8542,25.5275,44.896,-826.672,-556.32,15260,2520,-560
8.35142,8.34381,-2.7586,4.81043,8.39693,-0.805097,23.7445,9.62939,8.77413,-0.390024,-3.14242,0.511704,-2.39026,4.33001,29.8385,19.1758,44.896,-826.184,-564.616,14980,2800,-280
-21.8659,-29.5291,-19.6754,-36.7357,-14.201,-6.98827,-11.8899,-4.89203,-25.0322,-20.2169,-15.367,-23.0405,-11.7739,-9.62845,-29.9861,-0.0812118,41.48,-823.256,-559.248,14280,2520,0
12.942,10.2181,2.0259,-14.6166,2.40912,4.83481,-8.5278,-0.935575,29.5245,14.0487,9.27072,10.8918,5.46812,3.30746,-22.7503,5.22222,38.552,-819.352,-557.784,13720,2800,280
8.22697,-12.3151,-8.89039,-18.243,-23.9288,-4.47477,-16.8911,-15.8372,6.81002,5.99203,-1.21256,-7.1904,-8.47177,-12.3453,-18.4484,-14.9193,36.112,-818.376,-547.048,12880,3220,420
7.9604,-14.9564,0.289102,-16.1515,-14.708,3.01391,-38.8333,-12.6361,-6.38034,18.7849,13.5352,1.0307,3.1898,-13.9019,-36.1474,-26.868,36.112,-824.232,-546.56,11480,3640,840
6.91001,-6.76364,-1.66008,-16.9051,-20.9505,-11.2899,-70.3277,-28.7886,-7.2721,16.541,14.872,-2.10524,3.21376,-27.8278,-63.2525,-59.596,39.04,-821.792,-543.144,10080,3500,1120
19.3362,23.0463,-0.386766,7.04885,-14.0893,-22.4227,-63.6507,-36.4819,32.8814,17.6172,12.0129,2.65631,2.06016,-25.0077,-36.6559,-61.9559,39.528,-822.28,-546.072,9520,3080,1400
23.4905,46.8562,11.8483,35.1969,21.3613,-2.68366,1.70609,-12.5332,50.5009,18.4289,17.7812,20.7044,13.7569,5.67743,18.7947,-6.83308,41.48,-827.16,-542.656,8960,2800,1260
-20.3308,1.84316,-10.1762,18.2785,11.6931,3.17149,39.6207,2.94199,-10.378,-33.7201,-20.2855,-13.7235,-7.0654,7.00395,39.9966,22.3336,40.992,-823.744,-548.512,8260,2520,1540
-21.2827,6.84427,-4.48515,22.4203,23.4303,19.8376,42.5862,32.1413,-4.48573,-35.9771,-39.6029,-6.15147,-4.52216,20.4252,45.0131,41.5478,38.064,-820.328,-544.12,8540,2520,1820
-18.373,3.09172,-4.94182,26.5785,18.7566,12.9507,44.2762,22.9226,-12.2625,-28.3175,-41.8492,-7.91602,-7.57022,15.9413,52.8845,32.3387,40.504,-820.328,-552.416,9520,2240,2240
-20.9578,-26.3968,-0.268726,-4.29924,1.3704,10.2588,13.3148,24.6969,-39.0309,-9.89334,-18.667,-15.7726,-2.16578,12.0819,12.8974,24.8877,44.896,-817.4,-552.416,9800,1400,2100
16.099,0.255027,17.044,-6.29222,7.28581,10.5093,2.44071,18.1222,13.3741,26.705,16.1911,11.3747,15.4034,16.3221,-6.38555,12.668,45.872,-816.912,-555.344,10920,1260,2520
-5.77658,-29.6996,-1.17199,-19.14,-9.46417,-6.14727,10.0259,-0.325607,-27.2251,7.11075,3.74941,-11.7687,0.321636,3.21508,-2.44034,2.96926,45.872,-813.984,-552.416,11900,1400,2660
-8.75233,-12.302,10.6435,-1.04155,15.3197,10.161,30.8444,18.5142,-24.2949,12.0144,13.774,6.48243,13.0283,24.5096,16.2233,31.7371,46.36,-807.64,-550.952,12880,1680,2940
0.209756,-7.09014,9.02339,1.75255,12.3422,7.74893,23.0977,13.9268,-18.1488,7.90184,6.71435,9.92204,8.71637,19.864,11.6251,22.6361,47.824,-808.616,-552.904,13720,1680,3220
-2.31605,-14.8945,-0.493326,-9.65146,-2.59946,1.63478,1.45607,1.73171,-17.2327,0.777545,0.0500366,-0.451838,1.1431,4.21301,-6.9672,0.838209,51.728,-803.736,-549.976,14560,1960,3500
23.208,28.9194,13.7759,15.9999,12.9354,7.46217,-5.59868,3.05656,33.254,11.9419,7.35267,29.2771,10.8498,8.09602,-3.27889,0.906479,42.944,-812.032,-549,15120,1260,3500
-0.386539,-1.74835,-10.6723,-19.1806,-23.0234,-11.6234,-39.9874,-15.7662,3.46186,-24.8502,-22.2279,-0.399166,-12.8975,-20.3297,-45.3469,-27.7556,51.24,-804.712,-551.928,15680,980,3780
3.37558,28.8575,-11.6649,8.02335,-13.3981,-12.9077,-24.1901,-20.9447,42.2778,-14.5862,-4.68321,6.7564,-11.0812,-20.8248,-9.48091,-25.14,49.288,-802.272,-544.12,15960,1120,3920
-16.6198,9.8104,-18.7186,-6.1632,-25.8706,-18.484,-32.4338,-27.9908,14.1022,-13.6797,-1.6771,-9.27094,-17.7767,-27.8965,-21.7125,-28.5031,47.824,-810.08,-539.728,16520,1960,3640
-31.4003,-24.9763,-22.1824,-24.5122,-31.5072,-16.0541,-25.8661,-24.9331,-31.9613,-13.8943,2.84966,-26.9987,-20.2847,-27.3676,-21.9835,-20.5553,45.872,-810.568,-538.752,15960,3080,3780
9.73763,9.98167,3.98808,10.2566,6.10386,2.37773,15.1754,1.80426,10.8294,14.7381,25.8801,10.1445,0.523468,-0.621075,25.5427,12.7855,41.48,-815.936,-536.8,15820,3780,3780
5.31559,-6.7271,-6.47639,-3.28501,-10.5993,-9.10879,-0.156712,-11.004,-4.76111,-4.23138,3.90302,-7.47411,-11.6098,-14.4225,8.02692,-12.7609,39.04,-816.424,-538.264,16660,4060,3920
19.1743,7.4992,9.4952,-1.33449,1.182,-1.16897,-4.2648,-3.70079,20.2688,14.5483,14.2517,8.58151,5.77709,-1.47686,-2.36018,-7.5557,41.48,-824.72,-538.752,17780,4060,4200
10.3869,-5.64301,3.51103,-5.58334,-0.360696,-5.46821,1.15801,-0.82566,1.50683,5.33932,6.14665,-0.624402,0.737066,-0.848318,-0.763244,-3.18441,39.528,-822.768,-533.384,18060,3640,4340
-15.8445,-22.8932,-4.78533,-3.04439,-3.18854,-5.34643,1.67949,0.511906,-38.5542,-2.33209,9.09357,-19.0077,-1.1152,-2.319,4.2621,-5.07256,39.04,-823.744,-533.384,19040,3780,4060
-4.96511,6.25152,13.4278,13.9241,18.469,6.91168,12.1691,8.61614,-10.6239,16.3712,25.9722,4.30171,19.4299,13.151,9.54198,6.78649,40.992,-821.792,-533.384,19740,4340,4060
-23.671,-19.1385,-6.28435,-0.707719,4.1719,0.289238,20.3337,8.04482,-34.2908,-17.0851,-12.3767,-20.8455,0.51829,3.69142,8.58158,6.26248,40.016,-823.744,-528.504,19880,5040,4340
4.38265,3.96837,12.2257,9.63779,26.1673,18.7212,32.198,28.2562,6.78598,6.01014,1.16859,8.21221,14.9844,24.9247,18.3031,27.4521,41.968,-817.4,-532.896,20020,5040,4340
44.5688,33.2566,25.3494,19.5508,26.1304,16.7568,11.6199,17.5304,46.6637,23.3571,-1.80333,32.2601,16.0023,23.3161,6.60478,13.1709,40.992,-814.96,-536.8,20440,4760,4480
27.8218,7.0398,15.9217,1.01663,9.35249,11.1338,-11.2255,5.44039,4.40892,14.7385,-7.78914,18.007,9.16286,13.0427,-17.845,-0.519292,44.408,-813.496,-527.04,19880,4480,4620
12.8292,14.4056,8.7483,5.69427,7.23522,7.58732,-19.0344,7.96524,7.33324,9.84031,-0.995772,16.139,7.40879,8.72762,-14.7595,-0.000191573,44.896,-813.984,-527.528,19460,4340,5180
-19.2256,-8.28119,-16.9696,-14.4375,-23.1998,-13.8113,-31.5953,-19.0575,-2.87317,-16.502,-14.8971,-18.0484,-12.7043,-19.5804,-29.5658,-27.5356,48.312,-810.568,-527.04,20300,4340,5600
2.1916,13.4335,3.03583,13.1976,9.53578,4.35198,16.6393,-5.79042,22.3178,5.63251,8.26083,5.5064,6.16844,2.11824,19.0036,5.61537,44.408,-812.52,-528.016,19880,4060,6160
-0.568513,-1.83355,-2.99325,7.05646,3.65517,2.31536,18.2162,4.49505,1.578,-7.43124,-3.56391,-3.77474,-1.14814,-2.75109,24.7231,10.0053,45.384,-812.52,-528.992,19740,3920,6440
-6.28939,-20.1255,-9.98738,-12.7324,-9.53316,-4.67141,1.28029,-3.17739,-14.0847,-12.639,-11.113,-15.6533,-6.66112,-10.2611,7.5242,-0.142966,42.944,-811.056,-528.016,19460,4060,7280
19.8706,15.4381,4.26923,2.92528,3.45671,-0.406622,-0.225484,2.21238,24.6854,0.109145,-6.77673,9.10989,3.99426,3.14873,6.85083,8.50628,43.432,-814.472,-529.48,19320,4060,7840
-9.12474,-1.79225,-18.1057,-17.1846,-26.4053,-19.7651,-27.581,-17.9654,4.81022,-24.8976,-23.1933,-18.1764,-19.044,-18.7382,-26.0992,-20.2225,47.824,-811.056,-531.92,19320,3920,7840
-22.3827,1.00932,-14.819,-9.39907,-12.0429,-11.1659,-7.92179,-5.4346,3.85431,-10.3671,-12.2646,-13.0357,-13.0511,-8.75588,-10.2038,-0.451712,49.288,-807.152,-532.408,19460,3780,8260
-32.1006,-23.7998,-19.9633,-19.3824,-18.7108,-12.2385,-3.94253,-2.80433,-32.4389,-13.2175,-15.6446,-23.2747,-16.844,-14.3043,-8.6949,1.85856,47.336,-799.344,-530.944,19600,4200,8400
-9.04808,-18.1017,-7.08172,-9.96869,-9.44495,-2.82169,0.0759878,-1.8618,-24.9828,1.13981,-3.04339,-10.4757,-7.08806,-7.49233,-0.700136,1.25902,47.336,-804.224,-534.848,19740,5040,8540
6.57577,6.31142,13.2579,10.0565,14.8341,13.0057,10.5919,6.88375,0.160371,19.6626,18.1081,16.1784,11.6876,10.771,8.25713,10.6176,41.968,-797.88,-536.312,20160,5460,8820
-5.68015,-9.94425,0.306405,-3.55346,-2.80743,5.61078,1.0602,-2.57774,-12.3116,0.913246,3.40305,-2.17787,-1.58862,-4.40115,-4.72629,-5.52879,40.992,-802.272,-540.704,20440,6020,9380
7.98483,21.3813,15.1912,25.0891,25.2346,19.3603,26.4218,15.4865,19.613,12.649,11.6176,20.675,11.7048,17.3696,25.1565,19.0372,38.064,-803.736,-535.824,20580,6860,9940
-6.13395,8.44169,4.06501,13.3366,8.45431,6.34328,13.5693,4.38997,0.992595,-0.314479,0.347061,6.40679,1.43119,7.95211,11.0789,6.64839,37.088,-809.592,-537.776,20440,7980,10500
-23.1596,-19.558,-10.1701,-8.09768,-14.2259,-5.1088,-8.28684,-7.48415,-29.7885,-10.3588,-6.7213,-14.9064,-8.83565,-3.70414,-8.19058,-10.0039,36.6,-805.2,-535.824,21420,8820,11060
-15.2567,-11.3891,-2.92934,-0.981608,-4.03892,-1.24067,-7.16296,-3.57986,-23.2283,-3.76164,-1.87981,-1.86859,-1.73214,3.42961,0.417579,-6.4426,33.184,-809.104,-537.776,22400,8960,11620
-11.1027,-22.917,-14.4557,-16.0705,-22.0315,-14.8189,-20.9174,-18.3093,-19.6545,-20.0924,-17.6609,-15.5519,-15.7734,-15.1267,-14.57,-25.4298,37.088,-806.664,-536.8,23240,8540,11760
13.2926,-1.45151,5.60383,-1.82893,3.08284,2.42905,2.03254,4.92618,12.9087,8.62643,12.4721,8.72566,7.02192,4.01311,5.88186,3.47949,38.064,-808.616,-537.288,24780,7700,12180
18.0615,-8.27691,2.95806,-17.0487,-11.794,-7.10345,-14.3647,-6.15997,10.3943,12.4951,19.1036,4.92043,7.80346,-7.25905,-15.1298,-10.5195,33.184,-809.104,-542.656,26040,7140,12460
26.6491,9.98097,6.92336,0.928059,0.21131,-7.82174,-7.00231,-12.6967,26.1506,16.2075,15.1768,14.6365,6.92353,-2.93172,-7.19895,-10.8084,38.552,-810.08,-542.168,28280,6720,12740
49.5204,39.3421,26.3615,22.4064,30.2804,13.2259,8.46438,8.65238,56.5894,39.4899,29.4402,40.6592,23.6951,16.4798,4.69479,9.80093,42.456,-805.688,-548.024,30380,5460,13300
35.242,19.5174,15.5345,11.5123,20.9032,18.2393,5.35641,13.6116,29.9081,18.7446,15.8186,20.4412,14.4355,10.4789,-3.34316,3.81681,44.408,-800.32,-550.464,32760,4760,13580
43.1137,46.6869,33.0709,44.7202,55.3581,40.7817,41.9851,42.599,48.0483,31.3328,30.8908,44.0037,31.6084,38.9437,34.9096,40.8981,40.016,-800.32,-556.808,35700,4620,14140
0.0057526,15.3874,10.527,25.1798,30.4572,22.2013,28.9244,31.0749,-0.939198,-2.33295,6.72279,13.8238,12.2291,23.1393,17.9815,30.7195,40.992,-799.344,-564.616,37520,4200,14700
-32.6123,-20.8055,-14.7518,-3.70476,-5.61076,0.41458,3.47841,11.901,-36.7484,-26.0927,-15.0849,-17.932,-9.32374,-0.750864,-3.35483,9.55202,39.528,-800.32,-570.96,40180,3920,15260
1.18298,2.35357,1.73004,6.13204,-0.0852441,-0.0611267,-4.09463,7.8463,-1.07154,3.70111,4.35421,5.18771,-0.0164142,4.12202,1.67453,4.82208,47.824,-802.76,-577.792,42980,3640,15960
-14.6456,-17.2802,-12.0888,-11.533,-21.0183,-15.0178,-12.5407,-11.7979,-25.529,-18.321,-14.8538,-18.6621,-17.3583,-13.4948,-9.84506,-16.8827,48.8,-802.272,-583.16,46340,3640,16660
-19.1556,-0.184321,-8.11107,-5.57464,-7.10175,-8.91851,2.75275,-3.79116,-5.18685,-21.2431,-13.9584,-13.1472,-11.3924,-3.04063,5.60853,0.58443,48.312,-801.296,-586.088,50540,2940,16940
-42.9774,-15.4626,-22.9941,-15.2528,-19.4562,-19.3355,-5.25312,-7.84058,-32.0394,-43.6196,-34.3097,-33.6345,-23.1933,-11.5476,2.00951,-5.84792,44.896,-800.808,-589.504,53900,2660,17080
-26.8095,-19.7121,-20.8459,-23.307,-32.0706,-27.4504,-22.3351,-21.7492,-25.216,-21.0791,-22.1919,-33.9502,-18.5703,-20.0203,-12.7496,-19.0936,37.088,-811.056,-585.112,57680,2660,17360
-9.50167,-9.32255,-8.64793,-25.6186,-26.883,-25.1208,-22.465,-24.9572,-3.81834,0.256167,-6.27247,-19.7935,-5.44692,-17.0136,-18.8612,-15.9391,40.016,-821.304,-577.304,60760,2660,17920
-40.4239,-40.8871,-33.8206,-50.7361,-55.2858,-40.9255,-38.4923,-41.0756,-42.2089,-35.7203,-38.2939,-54.8103,-29.2993,-40.2012,-43.1728,-36.2319,35.624,-816.424,-577.304,63980,2660,17780
-11.2665,-2.1995,-9.56999,-14.3833,-19.7323,-20.5991,-14.9372,-24.3419,-4.14726,-6.13955,-12.6544,-20.0814,-7.75951,-16.094,-12.6619,-15.3206,35.624,-824.232,-569.984,67620,2520,17780
4.1156,6.85083,-1.90755,-1.20932,-9.95241,-15.4086,-9.45725,-25.5864,3.4489,2.07023,-4.44715,-5.86997,-2.87022,-15.2683,-1.20624,-17.6122,32.208,-826.184,-560.224,70140,2100,17920
3.70356,0.629064,0.199579,-2.59443,-3.14212,-3.15976,-8.37328,-17.2023,-1.71901,5.34346,-1.46173,-1.3114,0.0810027,-11.7569,0.771474,-11.7815,24.4,-833.016,-551.44,72660,1260,18060
11.6218,5.42973,11.287,3.39141,15.1729,15.1857,1.80831,5.01606,4.2043,21.2176,14.6643,15.603,12.5908,3.70439,5.9446,7.49284,23.912,-841.8,-543.632,73780,980,17780
4.43457,-12.4728,1.76133,-4.32025,3.73464,9.71175,-1.51662,2.49354,-12.8888,9.09284,5.34541,0.59291,0.415524,-0.997615,-1.91535,2.29793,20.984,-849.12,-538.264,75600,420,17640
19.1134,16.1948,19.7444,22.4746,32.3561,25.2533,21.4571,22.8126,17.9073,26.6745,22.3542,25.0383,15.2476,24.353,22.0085,26.4528,19.52,-854.976,-528.992,77280,-980,17220
21.1476,22.1568,20.0064,27.8807,32.3373,20.1587,16.6039,16.4131,19.4375,21.0532,16.4425,27.3569,11.1555,23.5187,18.2258,18.4415,20.984,-861.32,-524.112,78260,-1960,16520
22.1167,25.4822,21.0734,35.0271,36.6985,23.1083,26.4648,20.103,24.6574,19.7982,15.1893,28.287,11.2038,28.6529,29.4497,24.0505,16.104,-871.568,-516.792,79380,-3360,16240
28.3353,32.3995,25.3536,35.339,38.5365,27.5404,32.183,28.6279,38.442,27.7154,27.4039,35.3307,19.8212,31.0184,31.3953,28.8993,18.544,-874.008,-506.056,79800,-5180,15960
-13.7511,-25.0482,-9.45173,-11.588,-12.5137,6.48677,-1.95803,6.27737,-21.6592,-15.0945,-3.03395,-15.0054,-7.68311,-6.2224,-12.9968,-7.23015,17.568,-876.448,-489.464,79520,-6440,15960
2.62922,-2.24742,-0.653092,3.88739,2.12687,13.7001,5.72872,10.0988,5.3969,-10.9933,-4.32076,5.17704,0.924156,2.60337,0.578825,2.7211,16.104,-902.8,-468.968,78120,-8400,15680
2.74327,1.49811,-7.30534,5.33015,-2.95572,3.37794,-0.656639,-2.42365,7.19225,-25.9223,-20.0881,4.4575,-8.04438,-4.18715,0.660027,-7.16819,15.128,-896.456,-470.432,76440,-9520,15400
-9.75309,-6.06465,-9.5136,-2.57721,-11.8052,-0.969197,-7.63639,-5.0552,7.35387,-14.3308,-8.10531,-2.15506,-6.47639,-9.86917,-7.43997,-12.9572,18.544,-884.744,-456.28,76300,-11200,15120
4.58881,22.5679,14.8824,24.2509,19.1934,14.5414,17.8828,15.1704,27.9651,19.7201,21.4998,26.4832,17.351,12.474,16.0685,13.2174,25.376,-895.48,-449.448,75180,-17360,14980
1.69896,2.82032,5.37099,12.9213,5.4526,2.48146,9.33586,8.59168,1.06325,7.57411,10.5493,7.38519,6.24741,2.56535,3.94954,3.75956,30.256,-894.016,-444.568,70000,-20440,14140
15.2252,3.03227,12.7574,5.14826,9.69143,4.65288,6.35627,16.2308,11.7974,20.6501,20.9863,13.5889,16.7491,9.4489,-2.1928,8.02895,23.912,-892.064,-440.176,66780,-22820,13160
4.76633,-18.4517,-2.03405,-28.5429,-17.5432,-8.05319,-15.8918,0.155477,-4.97065,4.37146,5.94702,-5.33426,4.16879,-7.31131,-26.7773,-12.8472,22.936,-892.552,-435.784,65240,-25200,12600
-5.38765,-15.679,-12.2948,-29.3371,-22.1176,-11.7367,-11.59,-4.98728,-7.6876,-8.81662,-8.8889,-10.984,-4.79379,-9.83136,-18.4988,-11.2415,26.84,-889.624,-429.44,62440,-29260,11620
-6.94373,-7.1203,-11.9551,-19.4088,-15.6811,-10.2385,-1.33685,1.39283,-7.27945,-8.88541,-7.61011,-6.98184,-2.21374,-3.48712,-9.45081,-2.08583,30.744,-886.208,-423.096,59780,-32900,10920
-27.7579,-36.7006,-28.8192,-37.1249,-36.9002,-23.5441,-24.4267,-12.4444,-43.0339,-28.4228,-22.1675,-36.9767,-18.4808,-21.3288,-30.2373,-22.4533,34.16,-887.672,-415.288,56000,-37940,9940
-8.72526,-4.69949,-8.9561,-6.65262,-4.4006,-5.92752,-3.70858,1.10685,-11.7563,-5.53188,-5.89905,-10.6026,-1.89909,-0.286661,-3.07666,-0.0152428,31.232,-891.576,-412.36,51100,-42000,8820
-4.7616,-7.33137,-10.4621,-6.48066,-5.11174,-9.38494,1.08023,-6.6597,-13.9004,-7.09071,-12.974,-11.5064,-7.59795,-2.56199,0.706962,0.340199,35.136,-892.064,-415.776,46620,-45220,7560
-8.83143,-17.068,-10.0265,-11.2322,-3.02115,-8.7021,1.97873,-6.76006,-20.252,-4.02831,-13.3234,-15.3644,-9.23363,-2.174,1.31872,4.93224,34.16,-887.672,-422.608,41860,-48300,6440
5.58724,5.68523,5.13045,-1.08801,6.81705,-3.47214,-5.4569,-4.3461,3.38209,19.1009,7.04321,2.99714,3.58304,2.74836,-0.286764,4.22597,33.672,-881.328,-420.656,39620,-50260,5740
-11.5765,-6.78494,-4.98231,-0.173012,-5.99239,-11.4477,-16.831,-15.3401,-19.7636,-2.67201,-9.57038,-12.582,-9.50898,-9.338,-7.63352,-12.2923,33.184,-878.888,-423.584,36540,-53620,4900
20.2496,25.7383,17.9158,26.9287,20.5219,4.84217,5.85514,-1.35988,23.8178,18.7341,8.17766,18.8798,8.62303,10.4038,13.501,6.94512,32.696,-877.912,-424.56,33180,-55580,4340
13.2643,12.7121,8.37092,11.8368,4.49486,-3.32895,-7.65474,-12.1901,8.99237,4.37596,-1.78231,6.31185,-2.69021,-3.22974,-4.79218,-5.51693,31.72,-871.08,-425.048,30660,-56840,3640
6.35913,6.64472,4.56573,5.44437,0.0799938,1.13966,-5.89866,-9.94882,8.04087,-1.28601,-3.28603,0.324199,-4.15559,-4.64422,-3.27927,-5.89211,24.4,-865.712,-428.464,27860,-57820,2800
18.534,23.877,18.8154,20.5046,20.9619,18.9313,20.3028,11.1565,25.1271,13.8408,16.1065,18.4368,12.3561,14.3196,22.8993,18.1754,19.032,-862.784,-431.88,26740,-58380,2240
2.57815,7.40879,5.95026,9.30088,6.26514,10.3975,11.8026,4.29717,4.11083,-3.32489,5.93318,1.02145,1.16467,3.80034,15.1908,8.68802,19.032,-856.928,-458.72,24220,-58520,1120
12.5746,29.0666,18.6611,22.4472,23.1978,18.1305,21.9665,12.8938,29.9403,13.6753,22.2355,21.5937,15.49,16.0311,29.7025,21.4315,26.352,-846.192,-487.512,21420,-56980,-140
-5.8426,7.03553,2.50777,3.93299,0.620973,-0.103118,9.23828,-1.16059,4.57039,-4.48129,4.52066,1.01125,-0.500329,-2.15133,15.7627,4.49619,26.352,-833.016,-485.56,20440,-53900,-980
-3.5867,6.25971,-0.650628,3.39071,-3.04284,-6.18546,4.18944,-5.20754,7.85722,-4.88199,-4.71088,-0.761457,-5.70384,-4.00712,13.8039,-1.49934,29.768,-833.016,-473.36,17360,-46060,-2520
5.78287,24.8561,9.49577,16.2578,12.6675,0.804207,7.90035,5.74763,22.2629,5.80993,5.3929,14.6954,4.67286,7.73092,22.1306,8.97106,27.328,-848.144,-467.504,14140,-40040,-3500
-23.5549,-9.6715,-15.1122,-7.67068,-13.4609,-15.6124,-8.80054,-8.41546,-22.4505,-26.17,-15.8021,-18.4087,-15.6973,-11.6747,0.629319,-11.652,22.448,-849.12,-477.264,11060,-31780,-4480
-8.30103,6.77254,-2.42744,6.06055,7.32812,-3.05816,7.19196,1.42787,-4.04541,-7.13391,0.218078,1.47036,-2.12097,5.74029,13.5764,3.40861,19.032,-847.656,-492.392,10640,-23660,-5180
-12.147,-10.2362,-11.938,-9.60477,-8.3865,-11.2608,-8.3008,-8.69156,-16.8643,-14.4619,-10.412,-10.521,-10.8228,-6.46062,-9.49716,-11.951,14.64,-847.168,-500.688,9800,-17080,-5880
-3.78448,-11.2077,-7.97099,-10.8183,-7.82709,-5.34265,-11.228,-4.65268,-8.21757,-5.34077,-5.49934,-7.42096,-4.04415,-4.22146,-17.0009,-10.1489,5.368,-854,-498.248,8260,-7980,-6440
13.4855,7.29081,6.6363,2.99833,8.11866,5.65988,0.372491,6.68264,12.7242,15.5834,10.3079,12.1139,10.1122,8.34486,-6.40896,5.39314,1.464,-862.784,-500.688,7000,-1680,-7140
-12.1315,-23.3348,-12.4219,-15.8507,-16.0213,-6.02215,-16.3172,-4.91306,-24.8938,-9.66528,-13.9556,-13.5472,-9.44796,-8.90082,-24.9479,-12.4174,-10.248,-867.664,-498.248,6720,5460,-7560
-0.719943,-11.1656,-1.64578,-12.8932,-8.54034,0.938477,-18.8692,-0.902583,-2.65541,5.92621,-1.24554,1.44596,1.29758,-2.14477,-26.8965,-9.54811,-11.224,-876.448,-501.664,6300,11060,-7980
-16.6138,-29.5312,-14.2227,-24.8802,-21.3053,-5.69612,-19.2204,-8.87892,-26.1687,-11.7135,-14.1705,-16.0804,-10.1031,-12.0534,-34.8773,-12.7857,-9.272,-879.864,-505.08,6720,13300,-8260
-16.0855,-28.8642,-14.3402,-22.1953,-18.0881,-1.62014,-11.3357,-4.74715,-21.7944,-13.8298,-14.1328,-18.7136,-9.24105,-9.24009,-23.1754,-5.0187,-3.416,-883.28,-513.864,8260,14280,-9100
-3.69025,-13.6943,-5.25469,-9.73499,-6.29178,4.48093,-0.357831,6.59137,-5.20157,-5.03641,-4.53809,-6.71875,0.772028,-1.37991,-8.04867,6.42128,0,-883.28,-525.576,9660,14140,-9520
-18.1143,-29.7461,-12.6201,-16.1186,-16.7506,1.37707,-5.03623,0.691285,-31.8069,-19.4446,-15.9055,-20.2336,-6.1328,-8.69888,-14.755,-1.58492,8.296,-890.112,-527.528,11760,14140,-10220
-7.53672,-10.4791,2.62863,-3.17416,1.93675,12.8826,2.88078,9.33282,-12.3411,-0.500036,0.276888,-0.168736,8.99888,4.67815,-4.73669,8.67852,17.08,-894.504,-531.92,13720,14000,-10500
-13.3968,-23.7608,-9.14194,-18.3746,-16.9812,0.0193767,-12.6047,-2.46701,-22.4063,-12.0766,-7.37664,-13.5417,-1.4426,-12.2269,-18.9931,-10.9655,25.864,-892.064,-537.288,15260,14000,-10360
-5.24475,-18.2652,-7.03383,-13.5272,-11.6255,1.99388,-11.8483,-2.25418,-8.06197,-2.82037,1.40686,-8.40366,1.19979,-11.1453,-14.6003,-13.9502,32.696,-894.992,-535.336,16380,14700,-10500
5.40904,1.22873,5.15367,3.29783,7.33131,10.549,1.17389,7.28502,10.1047,14.6594,18.7024,9.83728,13.0204,2.01038,2.01172,-1.19482,37.088,-898.896,-534.36,17220,15120,-10220
2.52455,-10.8531,-4.61651,-6.24511,-7.76559,-2.75784,-8.23692,-5.40415,-2.99448,1.88679,7.37362,-4.15033,0.200225,-10.5565,-6.23922,-14.8904,55.632,-891.576,-562.664,17640,14980,-9660
31.3537,27.588,20.9124,23.1466,25.853,11.004,17.3861,11.0338,37.539,30.1635,29.9926,28.9037,19.5881,13.8769,21.0616,10.1661,62.464,-896.456,-529.48,17220,14980,-9100
22.5114,23.8001,16.3625,19.8773,17.8138,3.21883,16.7917,4.84651,21.0611,16.671,18.8812,18.1113,9.92674,9.52236,21.3337,4.92034,60.512,-918.904,-522.16,18060,15540,-8400
21.5061,29.576,13.5768,27.0082,16.8025,1.78907,23.4816,7.34899,24.6857,11.4118,13.5107,14.2497,5.82172,9.8742,34.7593,10.3403,70.76,-920.856,-508.008,15120,16100,-7140
39.4768,50.5953,26.5524,42.2109,30.2023,7.607,33.9868,16.5862,49.0056,29.2754,27.7353,31.7668,16.6918,21.2445,47.1098,23.1847,72.712,-913.048,-518.744,15260,17080,-6300
24.4818,28.0847,13.1411,27.3406,14.3361,-1.92051,24.205,5.43918,23.3692,11.1826,8.2672,10.7471,2.33561,10.7711,30.0615,9.3223,80.032,-904.752,-522.648,14840,15120,-5040
38.5454,50.3997,27.208,37.7621,34.286,7.81718,31.9938,13.7269,52.6643,31.9594,20.4928,33.8566,15.3213,26.4383,37.7767,22.1602,81.008,-903.288,-527.528,13440,13160,-4200
9.07627,23.7639,7.86676,14.5196,11.9406,-5.86821,10.554,-0.375342,17.6601,10.8399,2.31476,11.0818,-0.71499,9.37711,14.547,5.74897,83.448,-901.336,-526.064,12740,12740,-3640
-14.3596,2.29524,-4.56602,0.566159,0.871652,-8.41872,0.0991719,-5.51722,-8.05907,-2.40531,-7.09106,-4.52477,-8.03317,1.11642,1.33974,0.592887,82.96,-901.336,-521.672,12460,13020,-3080
5.60335,12.9466,3.0781,4.00094,10.5983,-1.15363,2.51255,0.572475,9.25036,3.59509,-11.0108,11.1102,-1.43085,8.15413,3.46608,8.91526,81.008,-902.8,-516.792,12040,13440,-2660
-10.7045,-13.6545,-16.7389,-13.6658,-10.5748,-9.99379,-11.0426,-8.9037,-14.2047,-32.157,-44.1288,-14.2458,-20.7828,-8.88085,-8.87907,-5.99446,77.592,-894.992,-504.104,11060,13860,-2240
-5.32263,8.84424,-0.777695,2.55757,10.0822,5.7716,1.79411,4.37416,17.1813,-9.63287,-17.4883,3.95724,-4.40691,5.33643,7.75937,9.90017,71.248,-895.968,-492.88,9660,14420,-1820
-19.3445,-5.17448,-3.60754,-4.89149,-2.29082,1.80652,-4.48764,-1.60694,-5.98612,-7.6642,-10.4136,-8.28169,-5.49513,-2.85973,0.0727342,0.751301,67.344,-899.872,-488.488,7980,14420,-1680
-9.83959,-4.24911,5.01933,-2.49527,0.702184,5.28639,-4.54427,-4.62666,-13.2806,4.48258,2.43138,-2.16869,2.15204,1.80485,-2.9917,0.651597,61.976,-900.848,-493.856,6160,14140,-1960
-2.28132,-2.11533,3.3766,-7.8283,0.00604649,4.24969,-10.2348,-6.68872,-9.54822,7.60123,6.44669,1.49991,3.2756,1.17444,-10.3909,2.74408,57.096,-898.408,-496.296,5880,13440,-2240
-24.6687,-34.0157,-22.8502,-31.8224,-27.6238,-10.2451,-25.9402,-18.9354,-37.0004,-22.0061,-17.3431,-30.6389,-18.1759,-19.1225,-30.8738,-15.6899,49.776,-896.944,-503.128,5740,12460,-2520
-16.4419,-14.4693,-11.6822,-17.0457,-9.60819,0.903261,-10.8742,-5.05747,-15.758,-9.86425,-5.60597,-13.8493,-3.5799,-4.2951,-15.2045,-0.415716,45.872,-893.04,-517.768,6580,10780,-2940
-37.4497,-40.6097,-28.5976,-37.0633,-34.4703,-14.8073,-26.8551,-17.0715,-48.0677,-30.5191,-20.108,-36.0197,-15.4922,-21.4904,-33.0693,-19.3065,41.48,-890.6,-515.328,7280,9520,-3220
-31.0352,-38.0762,-24.3149,-31.1415,-31.0492,-12.6354,-21.8118,-12.3808,-40.2576,-25.3902,-14.0926,-31.7016,-12.1221,-17.0676,-29.5623,-16.1128,34.648,-888.648,-513.376,7700,8820,-4060
-11.1826,-19.2305,-7.56337,-13.5972,-13.6069,-3.65517,-7.70256,-0.416086,-19.3956,-10.6568,-0.970801,-10.3729,0.270016,-3.35707,-13.5632,-1.87547,33.184,-889.624,-508.984,7700,8820,-4060
-13.612,-27.1184,-11.219,-18.6299,-24.5573,-11.1768,-13.8374,-8.46473,-27.1371,-19.3504,-8.47997,-18.2966,-9.55284,-13.1426,-19.8257,-12.8418,29.768,-889.136,-498.736,7560,8540,-4480
8.48829,8.07552,8.30392,5.92169,2.63831,0.825343,2.01711,4.22064,11.93,6.19153,12.459,10.8644,4.51159,2.57996,1.15059,4.65471,26.84,-890.6,-489.952,7280,8260,-4480
-0.616087,-5.36986,-0.189956,-4.00026,-10.2169,-7.09371,-11.5661,-5.09932,-4.24847,-0.717485,9.10407,-1.33022,-3.52068,-10.9447,-11.8053,-12.3442,20.008,-893.528,-491.904,7140,7700,-4480
0.450143,-4.8432,2.05493,0.932508,-3.08941,-1.29211,-5.7509,-0.684913,-2.78866,5.59277,14.653,0.534661,1.87895,-7.34754,-5.15373,-9.96222,17.568,-893.528,-492.88,6580,6300,-4060
13.3475,10.2924,10.1189,14.0766,14.5974,7.72356,11.5026,10.1812,15.3192,18.6013,20.3812,15.8723,11.754,6.55528,12.5671,5.9974,19.52,-890.112,-495.32,6580,5180,-3640
5.44535,-4.34184,-3.28697,3.06967,-1.85852,0.105448,2.16486,0.703533,3.42643,2.24456,1.9015,-0.659466,-2.44319,-5.56466,0.467089,-7.13636,15.616,-891.088,-497.76,6720,3360,-3360
26.9517,28.294,18.7231,27.0047,26.3698,17.3039,18.931,13.2759,36.5607,25.6375,19.1159,28.9631,15.8495,15.1383,20.4109,11.4585,14.64,-889.624,-496.784,6720,2100,-2800
11.1192,7.76189,5.01367,10.6187,6.22745,5.84439,4.26382,3.07574,10.2758,6.69641,4.44333,9.63818,3.85792,-0.928058,5.24502,-2.58312,17.08,-884.744,-501.664,6580,1400,-2660
