Ch 1,Ch 2,Ch 3,Ch 4,Ch 5,Ch 6,Ch 7,Ch 8,Ch 9,Ch 10,Ch 11,Ch 12,Ch 13,Ch 14,Ch 15,Ch 16,Ch 17,Ch 18,Ch 19,Ch 20,Ch 21,Ch 22
2.2768122110797506,3.043666344703441,3.5625109639797907,2.017931960610808,3.7179453588207636,0.27336320715659435,3.404683178150041,-7.801382843124946,3.073838013952858,3.8866460290001887,2.927013555013289,2.7937217404390458,3.6657944380996588,3.5115223876226,2.9843742192183322,2.8577333944104817,40.504002,-715.40802,-697.840027,-2380.0,-2800.0,-560.0
-22429.51962069905,4391.807816737666,-14289.976235808352,-14773.300080754872,-36501.016915844106,14310.178203412965,-7823.16155981149,-46465.68019180975,32699.425211572907,-5659.0648521163575,-37344.598029226094,31468.692206611035,45708.783741209896,-37937.87357313079,38321.040537028195,-165.3221238768986,40.504002,-715.40802,-697.840027,-2380.0,-2520.0,-420.0
-17749.9669682993,3477.478670092543,-11287.17795464607,-11701.018676559974,-28906.041926701673,11334.179296981305,-6194.218960553411,-36871.09655221637,25925.651551868654,-4457.19154058731,-29552.14415969408,24927.478574507153,36206.17507646881,-30024.397805026783,30334.9532557191,-124.84236836197213,64.903999,-691.007996,-721.752014,1260.0,-560.0,4060.0
6553.728997653747,-1277.9987862521666,4212.55900052908,4300.2817643869075,10631.1577420895,-4164.26969720649,2281.9297842823316,13402.51036061292,-9469.653736827497,1690.982848791207,10913.177631745151,-9150.88308964516,-13294.35613988333,11082.209086437673,-11178.14563048453,59.96985609742634,64.416,-692.471985,-720.776001,1680.0,-560.0,3920.0
20013.635358454652,-3918.0772437955097,12756.670233448496,13179.395641612919,32564.007998429486,-12766.194889099006,6979.788526515145,41433.3259036928,-29164.01830255396,5055.411867435827,33322.47930146423,-28072.38111522151,-40775.96720062241,33851.15275204635,-34190.71538986715,149.2850156980774,60.024002,-691.496033,-720.776001,1960.0,-560.0,3780.0
9158.652374920055,-1802.4736956486774,5786.0348135963895,6052.9140338574625,14948.161086108166,-5866.351659744969,3197.656651620909,19205.07649373465,-13465.202391385541,2260.567131188136,15247.78353094101,-12910.111718913173,-18748.59606925275,15495.217574813487,-15676.682360450492,50.62723458748106,62.464001,-689.544006,-720.288025,2240.0,-700.0,3500.0
-8636.61487165306,1680.2140630399758,-5559.284319630451,-5664.797508917107,-14004.359574246128,5483.428525338444,-3008.8318952449717,-17622.6216445259,12459.780154198252,-2237.4372533283213,-14381.032619051917,12046.71030130388,17502.139579698476,-14603.558180952024,14721.537712040103,-83.45782655160077,61.487999,-692.471985,-722.728027,2380.0,-980.0,3360.0
-11934.465322454935,2337.4075681688864,-7601.538067653706,-7861.36462146899,-19423.31447838577,7615.3002786442785,-4162.543213500237,-24733.03656047876,17403.52197318791,-3009.0900729481455,-19870.64479642844,16746.70096036985,24324.61931508653,-20186.535695625433,20391.589443879646,-87.22355043131475,60.512001,-689.544006,-717.848022,2240.0,-1540.0,3080.0
-1885.1561657560926,381.92500482840074,-1140.186181387634,-1266.5004481148637,-3121.1952639479227,1231.7498824146276,-660.2530137066207,-4194.201007836153,2889.354140367554,-412.7944479696865,-3137.7528668107366,2721.527902452617,3948.4962834387516,-3193.7407714465567,3259.3900643308903,7.994748563753175,59.535999,-691.984009,-719.312012,2240.0,-1680.0,2660.0
5336.392601024761,-1033.4577163905858,3451.2251148705627,3494.0724984693643,8639.526907102036,-3380.096409895114,1859.5196775606703,10810.227363521122,-7660.282021636814,1399.7899266640027,8885.663254164207,-7421.488058512274,-10783.632874137456,9021.878336351036,-9083.408900217752,58.36039480417276,59.535999,-688.567993,-720.288025,2240.0,-1680.0,2380.0
3023.1060041653427,-593.2945730854884,1916.4770551446165,1995.242514448211,4928.375101009508,-1933.3003751100034,1055.4353463959487,6306.892164775905,-4428.9284781616225,753.2958686600742,5033.1353559819045,-4252.596765478092,-6176.134675552861,5114.354908180381,-5169.620957310503,19.48683840143302,61.487999,-693.936035,-719.799988,2100.0,-1680.0,2240.0
-849.6284491490962,155.63103836273564,-589.8792738296429,-540.1067918607638,-1340.432453557259,518.7053046576466,-294.60967926485057,-1529.5627096787914,1125.9450609092635,-264.606243966704,-1415.196463233413,1130.3833605482707,1645.6746507027067,-1432.825751029182,1420.0161040533312,-23.969802413574236,60.512001,-688.567993,-715.895996,2100.0,-1680.0,2100.0
298.0903279312283,-66.71875246476435,158.14239593695405,208.64465556265904,512.0419437600552,-205.63396851113555,103.92956462888395,770.2393579793367,-509.22110627140574,41.6390181330041,496.2207518496604,-460.18688457921047,-666.0584383586051,506.7928615044394,-532.672046032185,-10.523813608663913,61.0,-691.496033,-713.944031,1960.0,-1400.0,1960.0
2310.0629789648715,-452.5165428043178,1477.4045693770206,1518.8678258380214,3753.758618051057,-1471.2132198490463,804.2599553617059,4761.341416295003,-3355.83930594282,587.7842588807578,3846.518459892117,-3235.748244689182,-4700.646819829823,3906.43970206272,-3946.22750205609,17.713310399816926,62.464001,-688.080017,-715.40802,1820.0,-1400.0,1820.0
-236.99151675807633,50.880226018203885,-130.3278378543171,-164.27947885382008,-403.53960458621333,161.26164399298227,-83.46047302849246,-588.1299895856587,393.12281103935106,-38.67346463030095,-394.4133854462365,358.436365334271,518.8302004505297,-402.9236348647976,417.86803877375803,5.494275236931452,59.535999,-687.59198,-717.359985,1820.0,-1400.0,1540.0
-4127.6690203772305,812.6117764084579,-2615.719940531214,-2723.9637208878685,-6728.805361842467,2640.338413679137,-1439.0422197010655,-8619.775148486393,6051.171809911734,-1026.1504191798685,-6872.548205804083,5810.604420632271,8439.057629860303,-6982.610644032357,7064.024711598697,-24.12730375883685,60.512001,-686.127991,-711.992004,1260.0,-1400.0,1260.0
-3032.777225079636,597.26396948634,-1923.8518518399087,-2000.6810599428209,-4942.138049662978,1938.838466365719,-1056.7055154732452,-6326.322359745376,4442.38383775319,-755.2833157743914,-5049.544942320044,4267.9110856857105,6199.06125679492,-5129.709859766306,5190.79060687605,-17.50245390013898,59.535999,-689.05603,-717.359985,840.0,-1540.0,980.0
2008.3899148151552,-390.99534334573417,1285.2841894442308,1320.6833336624763,3263.765147293218,-1278.6711541859913,701.1711533154129,4131.073924947492,-2913.7119192099685,513.423798695646,3343.889694069036,-2809.074118065085,-4080.375256429645,3396.9839551121822,-3425.256433996784,18.004104635944724,60.024002,-688.080017,-712.968018,560.0,-1540.0,840.0
4216.807539268898,-827.0264421545291,2680.4783635356025,2780.1738366293603,6867.843244606973,-2692.965118000812,1470.9988315221744,8766.219752775893,-6162.232298081224,1057.1843036655853,7020.5978173918265,-5924.307108948835,-8605.096662543789,7132.405360841647,-7209.060113166312,28.379467624720586,62.952,-688.567993,-717.848022,140.0,-1820.0,700.0
1298.8396594705043,-260.3419305452116,806.2539830760405,864.12103191964,2131.95240793647,-838.5169760262231,452.6332617298384,2796.372143372978,-1944.691978842971,304.2633258317463,2162.2077284475286,-1851.535202203032,-2688.535542884841,2197.6365055240703,-2236.6811612962533,-0.12050509693644161,62.464001,-689.544006,-717.848022,-140.0,-1540.0,700.0
-2003.1444855326963,385.7821310370113,-1294.7189280925518,-1312.6983985051795,-3244.919638955968,1268.8689011260342,-700.0867171152219,-4058.324342235267,2875.686701319727,-525.8595983229279,-3334.9269175831764,2783.974503282675,4044.9707267099648,-3386.9658810466212,3405.450357287601,-23.59444358717877,65.391998,-689.544006,-714.919983,-560.0,-1680.0,560.0
-1746.426593430933,341.2854627883121,-1108.0429868386575,-1153.4001453462479,-2847.521756316579,1115.5738870581933,-610.8170307091245,-3641.0177059965163,2556.741716783839,-435.82875684485464,-2906.8893298032986,2454.818136256518,3566.035236422988,-2953.4639460605454,2984.631592404977,-11.642381771197313,64.416,-686.616028,-712.968018,-560.0,-1680.0,840.0
103.39489510102186,-14.130031519558177,89.10668113324465,58.42210885933961,148.00172715621818,-55.335100667555125,36.07749626516954,98.94807777963116,-95.03001342364753,51.56246318457702,172.65527625135059,-113.5683887694849,-165.84700692889956,174.11498315575918,-158.24063378814947,11.060322395397803,64.903999,-686.616028,-712.47998,-1260.0,-1680.0,840.0
203.9627593986679,-32.64582527266432,147.53022690093346,128.583233191903,318.52031424943823,-121.10191679957546,73.53010226289526,335.0212450962574,-254.4759548768567,71.24137127840692,338.95662910980053,-259.8370114646358,-378.74359252227435,343.6660835691506,-330.3865564424628,10.592633100341338,66.856003,-691.007996,-713.944031,-2100.0,-1400.0,980.0
-713.4598287626131,141.89666403598568,-456.9121864735787,-467.2224703180299,-1156.8969252225359,455.2015665992469,-246.32226108713638,-1466.3036988631518,1035.1198619524582,-182.1523946217923,-1189.0623072104818,1000.3450437230699,1452.3357259228278,-1207.5681140271283,1221.3604356609032,-5.021247577280737,66.856003,-689.05603,-711.992004,-2100.0,-1120.0,1260.0
-39.18192711600652,3.7954859370381064,-38.89659327054398,-19.929020847755666,-51.579966968976066,18.731454032628626,-13.845067405757504,-10.974031118781404,23.30423897080037,-25.481646924148396,-65.5932935166629,35.64613563584575,52.09579775351893,-66.09339724451287,55.17981804120305,-6.863705282244548,67.344002,-688.567993,-712.47998,-2800.0,-980.0,1540.0
1674.7673702329068,-333.7781051977406,1056.1449881082592,1106.0199174449642,2732.916299820788,-1074.4283168513139,581.4754422424468,3524.584698144165,-2468.7439428189914,409.845698404101,2789.241415421621,-2367.4258947611893,-3437.8011276210545,2833.6458955138073,-2874.9642346564956,5.822598643006464,69.784004,-688.567993,-711.504028,-3080.0,-840.0,1680.0
1541.1695625156715,-304.9733689686534,978.3168244870584,1015.1017484625698,2509.403430197822,-985.8941040621569,535.5163294979941,3209.923964159731,-2255.7714312955663,384.6994565459464,2566.8914276154314,-2169.053232238636,-3149.716417261268,2607.760812481276,-2639.190785781074,8.885837899482404,66.368004,-691.007996,-713.455994,-3360.0,-700.0,1680.0
-731.3935413133399,144.2050967653354,-464.94639434123553,-482.15073348129704,-1190.9590947027637,466.9684964557116,-254.46900712562035,-1522.5192038256503,1069.6199987351124,-182.7110442865016,-1217.7405446794264,1028.7015949462539,1494.5013656974306,-1236.6508887774712,1252.321464033202,-3.9840607169294158,67.344002,-691.984009,-712.47998,-3500.0,-980.0,1820.0
-2148.894027621625,424.24652249406745,-1363.5666765653905,-1416.733759820713,-3500.576805488266,1374.0245353450712,-747.6989540209959,-4480.603717597714,3146.992196698858,-535.4054189768437,-3578.346667519224,3024.572010052739,4392.851882010629,-3635.0137854170134,3679.4319313496158,-12.03336918645881,67.832001,-692.471985,-716.384033,-3360.0,-700.0,2240.0
-956.0283034250136,190.2618539155207,-599.2642676163323,-633.332177262019,-1563.8764399523916,614.7905912043415,-333.0062806383017,-2028.4282078342235,1417.1662260759604,-230.5814865845578,-1591.8467419322399,1354.8752342799924,1967.2639309655658,-1617.799119240296,1641.5847424424003,-2.7103650260506167,65.879997,-691.984009,-713.944031,-3220.0,-700.0,2380.0
956.4921875822811,-186.39649072624997,616.7917498648918,626.7074061619281,1549.7017853258706,-606.8460997730568,332.69431127132975,1947.0961154568906,-1377.6886030380945,248.67076196390497,1592.8268614211127,-1333.4139544771258,-1937.3645974057176,1617.1798983560939,-1630.7748395972972,9.199386278455393,67.344002,-692.960022,-714.432007,-3080.0,-980.0,2380.0
1188.0002156304872,-233.58167977524306,753.873730428811,783.9287539394202,1936.0726184572504,-759.1081473155281,414.2230605513088,2477.614284397735,-1739.7287589228984,295.99435761921876,1977.795153160839,-1671.3666188961756,-2427.915602576031,2009.0591811923296,-2032.9470510557724,6.897921160098843,68.32,-691.007996,-715.895996,-2660.0,-980.0,2660.0
159.6124806509769,-32.7499230682624,90.24249301333991,110.79141439527476,270.84457093406184,-106.51746189354019,57.024978268978906,387.29797892656904,-259.7564024142965,27.994744239558923,264.91749873166896,-238.04792389400447,-345.7174312574868,269.92127607509514,-279.4214443453894,-3.1683347057762967,67.832001,-690.52002,-719.799988,-2240.0,-1120.0,2800.0
-255.129129161847,48.544668245191545,-171.41608955954527,-164.067545055116,-406.99450790417666,158.79329065264432,-88.1718249215984,-486.00686566932103,351.3488414018949,-73.56918455797185,-425.16108836059635,347.0904018703606,504.5891675644661,-431.06050108597407,430.7991836207401,-4.9819868453887635,68.32,-689.544006,-717.848022,-1820.0,-1120.0,2800.0
131.14011465298398,-27.12166077991447,84.43417610823879,84.58205633424319,211.06369808338133,-84.30923173449878,44.228077716310075,265.1795192121862,-188.7977557400667,34.33407028597311,219.28759875048738,-183.845112484389,-266.1174546337584,222.9720972680907,-225.13694590228226,1.1771362390190743,66.368004,-689.544006,-716.872009,-1540.0,-1540.0,2800.0
26.803105997926284,-6.089901270027703,24.284353425287893,12.653079502006142,35.027547512854326,-15.186885740285721,6.892739770542965,18.055467056971757,-21.896233465498657,14.67251579486179,46.07886619982479,-29.941321386108612,-42.61561579016683,46.491403457693615,-43.62228467021741,2.6174486597287077,67.832001,-687.59198,-722.23999,-1540.0,-1680.0,2800.0
-727.9582393961233,143.7982282457148,-457.4278454848797,-482.3112390241214,-1190.4444126407802,467.24992231085866,-254.26277697434108,-1539.2630273385232,1076.3057438649907,-176.85051049921714,-1211.7737529733554,1029.4933643863396,1495.1390681045436,-1231.479084741368,1248.006013851181,-2.8314401881343727,66.856003,-687.104004,-719.799988,-1260.0,-1820.0,2940.0
-803.547845792635,160.72031243708696,-509.2219645315506,-528.1716478446856,-1307.542669079622,515.5285358267606,-277.85265157567915,-1675.0028633204508,1177.611469765908,-200.14946277199658,-1339.2755247255602,1132.7827313566747,1643.7950366523198,-1361.0657393345193,1377.9186548237392,-4.378736230145467,67.344002,-687.59198,-718.335999,-980.0,-2100.0,2660.0
275.17225948512845,-51.255511932552004,174.87997211309545,183.80956054633847,450.83836587120544,-174.00444146086718,98.46279593474252,575.9867201811431,-402.7785707058268,68.40497753290855,456.59196965583203,-385.0178028167192,-560.8842800366258,463.394031365354,-467.7019582053169,2.0337622506560242,66.368004,-688.080017,-721.752014,-980.0,-2380.0,2660.0
1155.4584248571753,-227.46223050622945,732.2384556834685,762.6429946721787,1883.7050337966728,-738.9775612404976,402.84924537316004,2413.5256758956375,-1694.0883418931323,287.0907306965799,1923.742677377441,-1626.6885157728764,-2362.705294971071,1954.4165831090668,-1977.666091825459,6.571234874583268,65.879997,-688.080017,-719.799988,-1120.0,-2240.0,2660.0
666.9266596220745,-134.85784736217695,418.2637064016422,439.70317775577917,1088.5826099788787,-430.30027564092154,230.32649890576124,1410.3755045969313,-987.4873056663682,161.66866507511682,1111.7867715821387,-946.0582440410931,-1372.232108229255,1130.3846394396785,-1147.0253084527735,1.980919737597436,65.391998,-686.616028,-718.335999,-700.0,-2100.0,2800.0
-461.73453016446456,87.46845135457849,-298.53859098756914,-304.3745354567784,-749.7555409289963,290.94536168513,-162.6921009551121,-940.0135863141576,663.8839633128854,-120.2429730369749,-767.5295326318251,641.416244595455,933.5415355851803,-778.6672859952059,784.5591895407556,-4.7354534812965845,64.903999,-686.127991,-719.312012,-420.0,-2380.0,2660.0
-796.0182968431978,157.19216461957356,-504.16254188550477,-525.3853331484632,-1297.7502562839848,509.27338645821635,-277.15937226818477,-1664.7539401315262,1168.0546334958303,-197.24995559435396,-1325.3916784216858,1121.5540328844224,1629.0222843435977,-1346.3945772648622,1363.5147288991743,-4.051038807581277,62.464001,-687.104004,-722.23999,-280.0,-2380.0,2520.0
-234.25762747067762,49.55036951029348,-141.06057207646785,-155.9602881593647,-386.5266499130682,154.58515298277092,-80.29598546380574,-521.6110588644494,360.13139409942073,-51.000033151705374,-390.9920012193342,340.1830179647618,492.3605888577536,-398.33845176776356,407.4669897109586,1.4048255432574954,61.0,-689.544006,-726.143982,0.0,-2380.0,2380.0
197.57593310021412,-36.74752414574311,131.11300658966175,129.26357186402404,318.21307722941714,-122.50327132746517,69.46465632954971,388.4397131940921,-276.9897777987656,54.35174287758688,328.2171541980651,-270.7434034062819,-394.8423345417615,332.2153814671957,-334.43094892750815,2.6114979084344037,62.464001,-690.52002,-723.216003,420.0,-2380.0,2520.0
86.64039652852962,-18.054076639484013,52.86144464790301,57.95713814495649,142.86973363126486,-56.33417305539245,29.808467428922683,192.18367938456635,-132.38914068212307,18.932183538934165,144.2529874467177,-125.4080690935354,-182.21084822850065,146.41874836076474,-151.00797807465284,-0.9223559117160831,62.952,-687.104004,-725.656006,840.0,-2380.0,2520.0
20.69567967478645,-5.929915280970009,7.09823159698587,15.381867085266505,38.26984286067072,-16.698560572491843,6.946194294649345,69.83767091652714,-43.815456224002794,-0.6611201902981672,34.832619798751864,-36.81529866509789,-52.400707234228214,36.312738130684664,-39.42734981004908,-1.776061046338543,61.976002,-689.05603,-724.679993,1540.0,-2380.0,2520.0
308.502844646967,-61.03078425647557,193.06400915479193,204.09137272205578,504.68793861321205,-199.02411018873104,107.83384472982212,652.5360089870785,-456.8298743763149,75.06014277246385,513.9335209863463,-436.4246790457186,-632.9428962242647,523.0520072642402,-527.9940915286609,1.9317037337505298,61.0,-689.05603,-724.192017,2100.0,-2240.0,2660.0
396.31551913892565,-77.47792750463181,252.9918668876724,260.5761592953552,644.3108044620894,-252.86948524446714,138.21676239333277,817.2702509092433,-576.189990549036,100.86664537791756,660.0271387035011,-555.0800262216981,-805.977911073445,670.728305756807,-676.2639351873842,3.4923529402407802,60.512001,-689.544006,-722.23999,2800.0,-2100.0,2800.0
-101.95379889034388,19.68277583114429,-63.22950046485122,-68.10116237177697,-167.7704858131351,65.76026342964794,-36.20160405569198,-218.6115392015875,152.2226253429966,-24.251775491525112,-169.56732746791752,144.44913049603883,209.6635301354473,-172.64614387477172,174.0105699555135,-0.6462014377595732,61.976002,-691.007996,-722.23999,3080.0,-1960.0,2940.0
-616.8928793132424,120.68220937831556,-391.42462149116176,-406.98474659865195,-1005.4131563198304,394.4207591262459,-215.61883560212357,-1284.1969006899499,902.5103450319593,-154.42249882027156,-1027.0813513951036,866.8017304694631,1258.7071569717887,-1043.8647967867614,1053.7963249990332,-4.55924158572825,60.512001,-692.960022,-718.824036,3360.0,-1540.0,2940.0
-435.4852677141456,86.52145971854802,-275.13745416385524,-287.1444496885657,-710.0007520593263,279.4017358704234,-151.3002073365078,-912.2485272538817,640.127684737569,-107.59890950660186,-725.4495666263721,614.3919975309482,891.8128179188981,-737.3105633021236,746.3276194389866,-2.279042836061716,59.048,-692.471985,-720.288025,3780.0,-1400.0,3080.0
212.86507439251986,-39.83489614404697,137.82708627824556,140.2831640833395,345.62531775149273,-134.08759312692283,75.39075160338973,431.2340980379976,-305.1331580666512,56.01319927654625,353.8109798464602,-294.7822737843219,-428.9009355222848,359.19040978245397,-360.4601582041851,2.7851663683563985,60.512001,-692.471985,-719.312012,4060.0,-1400.0,3080.0
511.18631364517574,-99.94568585378497,324.84522436349147,337.35195681301917,832.9710118741057,-326.2992956991534,178.63225335314218,1063.594250572861,-747.3195422564996,127.99457099294558,850.890092995261,-718.1017594105122,-1043.2406142832128,864.3965531400717,-873.6465762647935,3.433742965971646,60.512001,-695.400024,-721.752014,4340.0,-1120.0,3080.0
222.67646271804875,-45.83396495807755,137.48477392990824,147.5335921829808,365.15307234664397,-144.79016242573633,76.69153155604894,481.47841794794243,-334.91065841796024,51.607881538857946,371.2752156369661,-318.9903221657619,-462.5097574818836,377.6160302131355,-384.9919195247008,-0.36060154580820664,59.048,-692.471985,-715.895996,4200.0,-980.0,2940.0
-125.33298833912127,22.103521407788097,-83.74050779710817,-82.40687457675563,-202.1313097850878,77.0345564424048,-45.00328722205932,-243.56451589928514,174.0735357725469,-35.28072102035229,-207.8047897644135,170.00381669156295,248.2295510401144,-210.40618774813422,210.0706919332795,-2.4015812272915227,61.976002,-690.52002,-719.799988,4340.0,-980.0,3080.0
-144.23209768018828,28.09738309767462,-91.22328232531673,-95.84362868402575,-235.8443739817351,91.83968294577888,-50.60431599279771,-304.04862691644604,212.40654794904077,-35.20776026941659,-239.7630015737646,203.4061373662904,295.9711333611253,-243.26855794323174,247.16858632136154,-0.37588031319174203,59.535999,-690.031982,-716.872009,4060.0,-980.0,2940.0
-54.172346134430875,12.74259335327968,-30.238498352843216,-36.51091635785927,-90.84170780843323,37.23397433570858,-17.969732552541338,-131.6568722976487,88.89031553670155,-9.281703166977097,-90.72344884193328,82.31646192360755,118.69773070973902,-92.64959844889171,96.82398952180344,1.4619646792253738,61.976002,-688.080017,-720.288025,3920.0,-840.0,2940.0
-123.80853904403664,26.546376269539316,-75.47906861324101,-81.34587852348922,-202.7445867403728,81.8274787209349,-41.882393262976144,-269.34881430103155,187.6968059204704,-28.325565679516597,-207.11894141975753,178.6917112132997,258.0746266759887,-211.23559873973898,214.89659230066957,0.12366136955553554,60.512001,-687.104004,-719.312012,3920.0,-700.0,2940.0
-173.68036114705285,34.755358552960246,-110.65398339393921,-113.55391769722934,-281.7461752243467,111.46983328875633,-59.88650341950684,-357.75752793860596,252.71750742389258,-44.23375534396784,-289.72358774238745,243.8916135103603,353.55811907580966,-294.64935644923196,297.1203622112487,-1.5075797465963938,64.416,-689.544006,-714.919983,3500.0,-980.0,2800.0
43.28280999568811,-9.449803759403183,25.498776903795285,28.755199927471896,71.63703200625113,-29.081054156655156,14.701345978902127,98.10335349908394,-67.59847801479413,9.056297468969808,72.41844636925762,-63.51460743742016,-91.62018443026719,73.99961740482011,-75.5703299432919,-0.28098940226864383,62.952,-687.104004,-719.799988,2940.0,-1120.0,2800.0
321.01275969343465,-64.85120793784439,202.50781288083869,210.77207793812914,522.5633982247801,-206.8913711747352,110.63116107868686,671.8109323198656,-472.15946297210337,79.37787773034967,535.407713658075,-453.7286661906025,-657.8167093998304,544.4988043223128,-551.1176138418743,1.6883391118201878,61.976002,-686.616028,-716.872009,2380.0,-1400.0,2520.0
263.7113195128334,-53.63385711194663,166.59968685706477,173.10429011896431,429.03079620447795,-169.712400355137,90.52132340237397,552.3484768509629,-387.92812493000537,64.97632411101314,439.8042963825232,-373.1667867244909,-541.310275756954,446.90555853945074,-453.7963087860643,0.8425318579827549,62.952,-682.712036,-717.359985,1680.0,-1680.0,2380.0
-93.18158529002237,17.661689342625166,-60.100763473400654,-61.06739647218641,-151.07503725976778,59.19184069816839,-32.834404174678546,-188.12245999851814,133.57885253705442,-24.710693350514664,-155.1656709136395,129.09400905559758,187.33277289008836,-157.87040567406953,157.5548646916406,-1.546551069314192,61.487999,-680.272034,-720.776001,840.0,-1960.0,2100.0
-312.33854959824055,62.99178324477277,-198.11714216548532,-204.9519441496346,-507.7167923014185,200.44891917115925,-107.49387949653894,-650.5485790890983,457.5472967240917,-77.80982109037467,-520.7578797680084,440.6650640109018,639.3958500664622,-529.0967612340069,536.4512127148888,-1.4185725147090005,63.440002,-683.687988,-722.23999,280.0,-1820.0,2100.0
-175.02503230090872,37.472342471853906,-108.76597173216251,-115.00290431219769,-285.44940037959407,113.79625198567227,-58.828256742963255,-376.66128754764645,262.4635609450029,-40.636729725232556,-292.27790519237254,251.6372348345295,364.83590829650876,-296.7604662195574,305.1401829396369,1.1853707677632166,62.952,-686.616028,-721.752014,0.0,-2240.0,1960.0
69.23687988725871,-11.934048953790514,46.64913318603698,45.177135410140416,111.22084926286179,-42.595752712441495,25.010800412049868,131.11490171378813,-94.72491286452254,20.331557382186073,114.92002696517704,-92.89425083870194,-135.35711798371938,116.63892999511107,-114.93335569337555,1.993999162928992,60.512001,-688.567993,-720.776001,-700.0,-2660.0,1960.0
132.36526585612947,-27.72831689856233,84.05808624881388,86.61426482887344,214.6867323323769,-84.88699064687033,44.63486763700932,277.5669861644379,-194.68192658017693,32.297181470939044,220.81771181678755,-188.1138427709889,-273.24379333604384,223.79892776893115,-229.74464956013952,-0.4978245894064204,60.512001,-691.007996,-722.23999,-980.0,-2660.0,1960.0
63.89863355444974,-16.025943491934445,37.80343665498607,41.822616747915184,104.66356125580737,-42.97514899475087,19.84195038343349,147.86543879545707,-101.12396236952347,12.214381490020008,107.28018923732974,-96.3358702666793,-139.33765688071472,108.68928957371259,-116.05263352580685,-2.3729462815783946,61.976002,-697.35199,-715.895996,-700.0,-2660.0,1680.0
48.03300099777626,-10.971166968839054,28.012669574002025,31.682853248161354,79.35940782884695,-32.655886725185326,15.943713754315445,109.76915338915381,-75.63140370239057,9.806078525962995,80.58564707436088,-71.12776378718146,-102.36320325592264,82.42049071398273,-84.52401609045357,-0.4822716621979343,59.535999,-696.864014,-717.359985,-280.0,-2380.0,1680.0
63.187143472447026,-10.6650235283929,40.16325282415536,41.9278621749448,103.53661409959017,-40.447642723689746,23.556261441927557,127.2454103477619,-90.63539713004546,17.183457634712106,105.02601774240179,-86.27953009702097,-124.80659799179213,107.64231627851424,-103.89715193247352,2.357659674261278,61.487999,-697.840027,-716.872009,140.0,-2380.0,1820.0
-25.85070667168431,7.5826104322187735,-14.894885101821139,-16.482779914954307,-41.94006897364399,17.94821977364835,-7.131644940874506,-61.79543447514848,42.08477342199466,-4.349548439028142,-43.78840233278014,40.41357140575334,58.167312948325296,-44.29922162578735,48.76835606732649,1.5868905347557334,63.928001,-696.376038,-715.40802,700.0,-2100.0,1680.0
-164.82678811842428,32.67212331233386,-103.77314597522671,-108.1698007897378,-268.51135756120675,106.59286601640811,-57.380413384454414,-343.03500415001656,241.81885365383914,-41.40564296556022,-275.0015983954909,231.96650433075962,335.7652082786962,-280.3072166465742,281.023338705517,-1.9051230571625444,64.903999,-693.936035,-713.455994,1540.0,-1820.0,1540.0
-151.25937787703097,28.180859509768535,-95.8855611334797,-99.93924301006447,-247.00658693750597,96.93190973418429,-54.111961019662026,-311.29979926456866,219.88094525480886,-39.04116517912284,-251.76601618064606,210.44585965815705,305.00781675364175,-256.7855038679452,254.8022185272027,-2.852967452105583,67.344002,-691.496033,-713.455994,1820.0,-1960.0,1120.0
39.57917816310114,-8.319773666125881,25.829920618498846,25.1741097362948,63.17720084177908,-25.44516400150522,13.146952872798062,77.94630570749383,-56.09220176843087,10.800069809795392,66.32392645340178,-55.14056660710636,-79.68352533282118,67.46744927195826,-67.88638464598836,0.5063199996941913,62.952,-696.376038,-715.895996,1680.0,-2240.0,980.0
185.86613353759435,-35.037448220976735,119.05513517994534,121.90812918672472,301.97874823516185,-118.77420193078885,65.85073294358406,376.7793447028162,-267.54561287955084,49.10624305553011,309.6360235656633,-257.6804120443071,-373.41459185045875,315.60014885959976,-313.3842297470252,3.610165279058432,67.832001,-693.447998,-716.384033,1960.0,-3080.0,700.0
125.76515440496476,-23.538768228075686,79.36001234140144,83.3553337631308,205.80206759547767,-80.65831375299281,44.9949052472421,261.27452363174535,-183.91874643329777,31.889876758150894,209.246991186741,-175.62927544585338,-254.69636662308938,213.313888488979,-212.40593834009832,2.0246248335232195,64.903999,-692.960022,-716.872009,1680.0,-3780.0,420.0
-34.784479405289474,5.290023765326218,-24.7212841667965,-22.00709326143025,-54.69001180098233,21.03206716706139,-12.869984836973645,-57.484676888779376,43.765282896122095,-12.20877775210919,-57.8698236514807,44.13614337821539,63.97807546649038,-59.08504690465808,55.4204968783058,-2.302003254711252,65.879997,-693.447998,-719.312012,1260.0,-3920.0,280.0
-103.93746013875372,17.338139138487634,-68.4695627266922,-68.34868682178472,-168.41404437465184,64.96773155219904,-38.38324163194321,-200.72816389249232,144.46056426048324,-29.97107905727175,-172.5701756249208,139.79699858482314,202.9698556768914,-176.0636936603477,170.8547993987848,-3.8240932210081215,66.368004,-692.471985,-719.312012,980.0,-4340.0,140.0
-61.17322865697928,11.111821449733846,-38.312498719707726,-41.05003853362151,-100.7602872648503,39.07162194512375,-22.2546003793323,-129.19665507440484,90.25581853379002,-15.088521516970083,-101.52779706245994,85.59080208325862,124.37759398577914,-103.42818670290825,103.155173833234,-0.8604436361460603,65.391998,-691.007996,-723.216003,840.0,-3780.0,-140.0
-17.369815897144377,6.342493551889731,-7.573339332369791,-11.893143614759115,-29.999130929642902,13.241368676725825,-4.254940094174102,-54.509446649984554,34.54577604792722,0.07967347908671818,-29.497620479847193,31.211436036231298,44.93541697886649,-29.748227266986255,35.95143032680149,2.67462342118164,64.903999,-689.05603,-727.119995,1260.0,-3500.0,-140.0
-9.143368612935063,5.823771888268395,-2.595610107827024,-5.441923191899163,-15.336419005230061,8.532251803624543,-0.33762268944250895,-35.029485850201226,21.833206530250436,1.7581498289707722,-16.40633501228369,20.11457763093728,28.24065956365046,-16.54536198243164,23.03977017423487,2.834312836204284,66.856003,-692.960022,-723.703979,1820.0,-2940.0,-140.0
23.030376145750985,-3.6573518225311203,14.598740667587972,15.911648241250655,38.35491864277584,-14.216409412986568,8.824938641216187,49.04058044904795,-33.86543076072349,5.6161894163581385,37.87764268068898,-31.83888713335005,-46.71765851034904,38.37694336042419,-38.43901172687363,0.2651257217835413,67.344002,-691.496033,-727.119995,2380.0,-2800.0,-420.0
81.32187869399783,-19.319174434829574,48.49063958373405,53.1697263836778,133.1719188153576,-54.618159403376474,26.101776887920224,183.69816225917867,-126.72636350151977,16.793666380287647,136.4768114260115,-120.61436100517531,-174.09377234725227,138.83486750953074,-144.95779863761513,-1.6816099631069534,66.856003,-694.424011,-722.728027,3220.0,-2660.0,-280.0
77.41272681874874,-19.441114266808313,45.76680911187676,49.70427997533675,125.98770490597784,-53.02148210568098,23.97765376029849,174.20936740508256,-120.96915820904736,16.081139054113315,130.60550606488792,-115.62428147260414,-166.0014600951677,133.2951445763292,-138.78835699735436,-1.4829067066966828,66.856003,-696.376038,-718.335999,3780.0,-3080.0,-420.0
-18.427081365795075,2.6540128324746193,-12.467262671986301,-12.59643659658729,-30.162133578547813,10.836260926015484,-7.118143492522926,-36.11637443209321,25.424634568348775,-5.168615136003364,-30.204203660300287,24.519129655184187,36.21411683533999,-30.41840252295053,30.307594307485083,-0.3778525351892452,67.832001,-697.840027,-716.872009,4200.0,-3360.0,-560.0
-103.9654506894683,23.48649365456801,-63.72186249902827,-67.1850021674214,-168.8290811594548,69.24868384068087,-34.01193467593105,-223.44523424157074,156.76477598396434,-24.22597421296055,-174.56926374645604,150.5234329857965,216.80878915746754,-178.10172442930983,181.75354952165563,0.2478775353097004,67.832001,-695.400024,-712.968018,4620.0,-3080.0,-560.0
-79.6142604053541,19.533645181214393,-47.337400192859405,-50.731722888284054,-129.1671801813051,54.74525446445586,-24.974918283287902,-175.1090459284697,122.7855644497846,-17.606986354370804,-134.51135527431245,117.57530933591372,168.22982542783294,-137.82386756185832,140.92390833554862,0.46769556851042576,67.344002,-693.447998,-709.552002,4620.0,-3220.0,-700.0
15.568788038338127,-2.1095276715829474,11.25138759081905,10.223069917854179,24.761738047703727,-8.9370443550261,5.968957900607126,26.525204986577513,-19.655131951312292,5.251720845899051,25.607164252158032,-19.70302586258874,-29.047155185834725,25.823731024438636,-24.977170535222076,0.7268035883881058,63.928001,-687.59198,-706.624023,4060.0,-3220.0,-840.0
68.90460960361774,-16.174478954612713,42.2501240619185,43.36190929497075,110.77195611353069,-46.89121589953965,21.965871605039442,143.89878731572338,-102.70939917670817,17.03939606310798,116.44727245907211,-99.37690148115819,-141.99456409124764,119.52587946687524,-119.88687385099665,0.701098091083151,64.416,-686.127991,-708.088013,3500.0,-3360.0,-980.0
46.60393929857006,-12.481703716695119,26.800819112964305,28.85969672593888,75.20427954242692,-33.48212301191638,13.871398757011242,103.2307473776418,-73.0565755826162,10.158939466043625,79.50518156263486,-69.9465856907953,-98.9548653881225,82.15381725611412,-83.06831018648755,0.002247682743804276,61.487999,-682.712036,-712.968018,1960.0,-4200.0,-1120.0
7.973788942484309,-2.240317557327402,3.618773874465078,5.743377271801142,14.096362427498136,-5.813184954388632,2.524975144400896,24.10935154746101,-15.317541260656412,0.2711061980026086,13.317003247313714,-13.51612851642035,-19.585717323671197,13.515724720761236,-15.359804799011481,-0.8205442082039905,63.440002,-685.151978,-711.504028,980.0,-4480.0,-840.0
-6.155062129300375,3.5976779637735534,-2.868369042573046,-1.6753431803098726,-8.051465304500903,6.709802837342307,-0.18069132683232914,-9.9234263197059,9.420495150421491,-2.1532902196013244,-12.060860755201851,10.173131724574569,12.224628685396901,-13.658901807598072,11.617880666105263,-0.8524304014306412,62.952,-686.616028,-716.872009,-700.0,-5040.0,-560.0
-18.11940808523987,6.272676268181982,-9.334587610892843,-10.24996454307357,-28.70571140788764,14.660730415305993,-4.338717394574283,-41.653608612623636,30.02755905589994,-3.5856366834242452,-31.817398652380437,28.82414417779713,39.55410811901341,-33.55962428513368,33.45989866309868,-0.07933816616408097,62.952,-689.05603,-717.359985,-1400.0,-4900.0,280.0
-41.86527034882619,8.438219970229568,-25.510568782411973,-28.392953524726224,-69.43264382120478,26.928797332885974,-14.66850178538174,-94.02933829277792,64.28462631586947,-8.902589403740913,-69.46488763259573,60.595788815493016,88.3518956961642,-70.34650492647633,72.90492500755715,0.6015663866141113,61.976002,-687.59198,-718.824036,-1820.0,-4900.0,840.0
-40.86354106900636,5.798401665538645,-26.7126115882539,-29.290599070884753,-68.6146379110224,23.590572883981558,-16.12314669032625,-88.76719420586089,59.84361649463849,-9.438080426632066,-66.32587433306642,56.249839970925976,84.06607263456897,-66.09828302733193,68.92784774744658,0.54981298087039,58.072002,-693.447998,-715.895996,-2380.0,-4340.0,1820.0
8.055466710813821,-3.6649907053831883,3.7194283544707574,3.908663458652787,12.277488864154854,-7.366703742834101,1.2368989736372182,18.767776452392066,-13.975234030794713,1.486262314511461,14.669256856547882,-13.672375033686754,-18.164595700928388,15.764932799750467,-15.695705283847705,0.017132260742861945,61.487999,-694.911987,-715.40802,-2660.0,-3920.0,2520.0
58.98639954932508,-11.464801360117567,36.885132163899456,39.73535070239076,97.1760369742602,-37.43308654256427,20.837585309504647,127.92750224146668,-88.33606694632694,13.56829490353287,97.80580846697725,-83.97302665259188,-122.57214138175775,98.98509577466648,-101.76161889118524,-0.38686287422116233,61.487999,-693.447998,-718.335999,-2660.0,-3080.0,3080.0
51.49718626763571,-8.36118893339159,33.09959511411974,35.91094638885072,85.73009165260844,-31.009614681510087,19.488564850954667,111.09471120562748,-75.86797849808644,12.05228736962225,84.3702344398252,-71.67951574343006,-105.98380302896612,84.72386311331937,-87.39612351330497,-0.36885165452734314,63.440002,-698.815979,-720.288025,-2520.0,-1820.0,3640.0
-4.909797654695296,2.294241391283701,-2.567531336506638,-2.2415361048603737,-7.1593929037806365,4.3350032077149026,-0.6247744958218042,-10.290902235811728,7.922473372919993,-1.128133966324211,-8.962671201246511,8.124989980762255,10.8139518369324,-9.538549113791241,9.656374285140362,0.011862176876289494,59.048,-697.35199,-717.359985,-2240.0,-980.0,3780.0
-45.19115173768704,8.814904890608057,-28.43498330796332,-30.50578265038029,-74.37608146077382,28.44476983270363,-15.894805002372975,-98.07909315373959,67.55496291051486,-10.335034912360957,-74.85215738598149,64.37302594716088,94.16309835596549,-75.55982279983948,78.27596011772722,0.5124730178716049,62.464001,-695.888,-719.799988,-1820.0,-140.0,4060.0
-35.81506483876925,6.365270686125113,-22.503722162910623,-24.946647885832377,-59.75561763778613,21.95058536044551,-13.175486971766267,-79.84845287862568,54.08979642223419,-7.747755302328638,-58.8298614403143,50.92844435519531,75.13627972287942,-59.0671741196059,61.8199739629475,0.6776075612296826,60.512001,-696.376038,-721.752014,-1540.0,560.0,4060.0
-5.263775356228498,0.6130432513539541,-3.0573212093324633,-4.038515934616952,-9.30621230377,3.1571168562423333,-2.2808158213593073,-13.127898722617529,8.497862683648103,-0.8891076239494137,-8.469595973719134,7.5024262296093065,11.194831967794478,-8.52290302328531,8.744291380947129,0.07361702882322402,58.560001,-698.815979,-722.728027,-840.0,840.0,3640.0
11.33943306721606,-2.700751722849467,6.958701395696946,7.868599946645482,18.851236077777095,-6.9955668333990975,3.617346966020846,27.66160811044316,-18.183802819715154,1.7609469116462668,18.681846274031116,-17.287661460962468,-25.680261426254603,18.40949916936453,-21.256583484791413,-1.016478198560305,58.072002,-694.911987,-720.288025,-140.0,1120.0,3500.0
15.910578717087898,-4.082784040592246,9.03787634878385,11.028516830302545,26.78867247370162,-10.431107889074545,4.970446938373887,41.081647982958856,-26.850660958428314,2.005252033936485,26.40306569628667,-25.032969370098762,-36.782517917818346,26.309937308155277,-30.06711179729609,-1.4236708896816492,56.119999,-696.864014,-722.728027,-140.0,840.0,3220.0
21.72833005664773,-4.817939142219068,12.806310824434629,14.448095236489037,35.95882207191494,-14.567693872820271,7.317808701166971,49.549371972507416,-34.04894626111007,4.4538770961237555,36.343202040452525,-32.021385377273965,-46.25435058567945,37.06598781376934,-38.170423982182115,-0.26552027777458825,58.560001,-695.400024,-720.776001,420.0,140.0,2520.0
19.258269407925933,-2.5291562526974976,12.644178791988644,12.661526835277742,31.391707490212244,-12.220375583866316,7.7182111455582465,35.084566270621345,-25.979269356379497,6.216631657225429,31.984406252521804,-24.810386968155754,-35.659610506435904,33.13824823532184,-29.794611859616783,1.6484868835346709,61.487999,-691.984009,-719.799988,560.0,-420.0,2100.0
-4.566648541686016,3.497773980696305,-1.0925765075756098,-2.8117575047620167,-7.720753882436851,4.236422489315287,0.29724442971186016,-20.263969456213477,12.073580251063508,1.6422284495806114,-8.184755857134192,11.203459429475043,16.05122921674922,-7.881665877165867,13.122258517090007,2.237789956154482,62.464001,-692.960022,-720.288025,560.0,-1260.0,1400.0
-32.16924352740108,7.615953232564838,-18.99068224086659,-20.996822481961072,-52.75033562679087,21.817247447592003,-10.379698762054863,-72.74160853017946,50.27812075354067,-6.676170893300605,-54.06322244515897,47.701162300326686,68.6459814758618,-55.18386492533853,57.04978213777858,0.4691167309766633,63.440002,-692.960022,-717.848022,840.0,-2100.0,840.0
-31.215313114414414,4.207600168127755,-20.404195258210756,-20.8721631784271,-51.18013765609132,19.522930080399718,-12.438955402620921,-59.190120953082534,42.91569456091377,-9.48373451408141,-51.64621460783066,40.827487361600376,59.09610014151584,-53.15666582185,49.162927830271755,-2.0783028971984407,64.416,-691.496033,-718.824036,980.0,-2660.0,420.0
-0.17347151491363988,-3.547797263423458,-2.238207008415253,-0.843936481395243,-0.4653981319744407,-1.8213171902006104,-2.747849082299024,11.401138717994396,-5.9531348986470665,-3.175255565722119,0.710001651157512,-5.66433032554561,-7.62353312293129,0.3328009668277154,-6.4305799889671675,-2.6614598931150555,64.903999,-690.52002,-718.335999,980.0,-3360.0,-280.0
27.291080064049527,-6.890069690274419,15.845342730229635,17.577280962547828,44.627594964474454,-18.89836676231323,8.487540006248667,62.3850714503229,-43.18922322919,5.477689722431611,46.07826566246486,-41.0153389225925,-58.78222104784283,47.13459355492271,-48.93072354263772,-0.5048048938064149,67.344002,-689.05603,-715.895996,980.0,-3780.0,-700.0
25.799407007149714,-2.9304121610543343,16.989217323212554,17.429761282799404,42.522024381747244,-15.963236438888803,10.745484791463074,47.891586181175605,-34.937767444758734,8.159118260483401,42.532459980797555,-33.02016131264591,-47.849954042164406,43.89329044946259,-39.613603811588476,2.1174697970968808,62.952,-690.52002,-721.752014,1400.0,-3780.0,-980.0
5.477215382377385,2.3119020489186566,5.330146354840813,4.457364407174575,9.341713592616092,-1.6741501656164237,4.501629321366804,1.4321822631356564,-2.6511036139190747,4.064671625325158,8.10731336350262,-2.3778712408145886,-4.128338819789965,8.545751218003575,-3.20945594280329,2.396182331312061,66.856003,-689.05603,-723.216003,1260.0,-4060.0,-1260.0
-10.098299474752842,3.087763692458674,-5.29016110895883,-6.2483428974328845,-16.49069645064257,7.652271998268877,-2.7756117455073706,-24.54912783572224,16.99329656947344,-1.6975517497324542,-17.36342101655788,15.991904916243314,22.468800951860004,-18.02095722455861,18.637455312989538,0.23213823105405476,64.416,-686.616028,-724.192017,1400.0,-4060.0,-1400.0
-14.155532967974754,1.0455211200564578,-9.414313843766113,-9.656355987961934,-23.465297039960166,8.693240797204467,-6.36042314665075,-24.762311078358586,18.469068209247787,-4.941989346767293,-23.258610070760007,17.260362459595314,24.895403947320574,-24.25156768580377,20.44930144440135,-1.744913788173836,62.952,-687.104004,-723.216003,1960.0,-4060.0,-1540.0
-13.193972188811044,0.5809211490406271,-9.42083980041054,-9.266762070465047,-21.813370744986614,7.332921156874617,-6.146399525946321,-21.97464041151303,16.2805795419459,-4.805600052677758,-21.344489317310938,15.480709340800374,22.91066577170146,-21.848315246732422,18.975096765489397,-1.4316674753378993,63.440002,-687.59198,-721.752014,1960.0,-4340.0,-1540.0
-7.852221790646397,1.297221384582623,-5.485374240401811,-5.472149795959519,-12.7993729986919,4.323030947102548,-2.855187429011484,-16.13271692249182,10.972973955634144,-1.9441737454653634,-12.761105297003509,10.764714740474831,16.220671850451176,-12.5171017238093,13.681137034594258,0.30241975295745915,66.368004,-684.664001,-722.23999,2100.0,-4060.0,-1540.0
5.262408682672409,-0.3212209866717657,3.4105190345361764,3.4164875534891697,8.656623460685143,-3.498825298546274,2.440199412979207,8.268444676446183,-6.633406552746335,2.10876673059368,8.777404107802965,-6.148678490441677,-8.5649310217726,9.42343274733001,-7.038174606072523,1.0312488735384937,63.440002,-686.616028,-724.192017,2240.0,-3920.0,-1400.0
18.441436879582874,-3.693513474363938,11.715147124965295,12.124485042798632,30.004051080779657,-11.8041991610596,6.371470135653423,38.4323523266518,-27.0134916054976,4.5857983865887055,30.724021369791995,-26.00299560126726,-37.76946243815668,31.194357974591057,-31.67395334462869,0.06846738988638654,65.879997,-685.640015,-723.216003,2520.0,-3640.0,-1400.0
16.87070511292841,-3.8734945266447913,10.62786728580058,11.2550892563076,27.530198690470886,-10.622478730827819,5.426906634623821,37.778062957533045,-25.731421893722874,3.456831220046717,28.02212217533896,-24.8276205498612,-36.45368801905299,27.997462966436977,-30.558758064790357,-0.7968200267137533,66.856003,-686.616028,-724.679993,2660.0,-3080.0,-1120.0
-0.3879939690740537,0.8204416979733147,0.1730567005450543,0.30939826207615573,-0.21531385083592092,1.0264401313892546,0.45244335988408513,-1.014352968469682,1.1150262744368131,-0.02487680656586555,-1.1213122325110731,1.2660459233257741,1.1948781607214887,-1.4645065131483772,1.2688328729414007,-0.0501146540418584,69.295998,-686.127991,-721.752014,2940.0,-2520.0,-840.0
-16.06386788692393,5.2294549622592275,-9.278159991028264,-9.925733433269189,-25.659774693390894,11.334179604875445,-3.9624423105625652,-38.345314433116194,26.235006481871235,-2.6301792306217875,-27.411850579994095,25.570639108251058,36.67973402473844,-27.673706317268078,31.10136315296202,1.2298959830230107,68.32,-686.127991,-721.752014,2940.0,-2100.0,-560.0
-15.707994064006861,3.872041918610028,-9.596430805248474,-10.434818934065886,-25.6872745498024,10.148257781699094,-4.874035233936689,-36.339828243029345,24.59779234703169,-2.9481421448181675,-26.200549656051358,23.614444644157707,34.51365193564957,-26.242541390973216,28.84635103092266,0.8673452071359777,67.832001,-685.151978,-721.264038,3080.0,-1680.0,-140.0
-3.7318674464787898,-1.6096722771346643,-3.3462558589334845,-3.5437772063461357,-6.9511259144212865,0.9129484777392327,-3.1716763427775407,-4.057225407884608,2.978226714589587,-2.04562147924493,-5.270547960844357,2.276989234044759,4.174411806927052,-5.27519568290649,2.84542522577906,-1.0967986729763517,69.295998,-687.104004,-720.776001,2940.0,-1400.0,280.0
6.448515447055484,-4.632296604994016,2.561297088877353,3.129636725115924,9.692991004345085,-5.934117302310922,-0.39323868878150225,21.279914906453378,-13.895289189651791,-0.6092057323969201,11.843451845860642,-13.898069698026232,-19.39102329378651,11.799817075434428,-16.843235645658783,-2.0615212483330536,70.760002,-685.151978,-718.824036,3080.0,-980.0,700.0
9.646762555721281,-2.192062388370466,5.823511153734144,6.458565563486394,15.91702113298662,-6.289585488278469,3.178865314509463,22.142744004312384,-15.076570798104505,1.897925308916114,16.070327760835738,-14.29892071540633,-20.838590680177568,16.21539330889795,-17.279008186806553,-0.3288709599831168,72.711998,-688.567993,-719.312012,2800.0,-840.0,1120.0
8.867682540682594,1.941918179550926,7.193925068238323,7.185637678962376,15.51742837885891,-3.68781331387284,6.023151661675394,10.688572203208196,-8.46025235004797,4.456503625080816,13.504239061220101,-7.369740248968334,-11.65174724771485,13.932704795425236,-8.950433502512961,2.247601749599158,67.832001,-687.59198,-719.312012,2520.0,-560.0,1540.0
4.766044066804221,2.8032854501427797,4.903257091465236,4.3555635157409025,8.56025079464558,-0.9122607219025927,4.569872392672894,0.7077393402043981,-1.7503564817973984,3.7409257931397013,6.6783227614958705,-1.2282310677559245,-2.763950298810329,6.955966925631225,-1.7700184040893188,2.315939159087401,68.32,-691.007996,-716.384033,2520.0,-560.0,1960.0
-4.2523128567529795,0.2758541208028089,-2.674921585225856,-2.9389070799811376,-7.170667554317127,2.7204235230689005,-1.9741201079825181,-7.801531868203505,5.7633654091469815,-1.4339022715262615,-7.0026235512720785,5.229810502321546,7.459354087310471,-7.393585384509863,5.995922165019977,-0.6038559288845792,71.248001,-690.52002,-716.872009,2240.0,-560.0,2520.0
-13.10509766809146,-1.8599831153533817,-10.426822890031485,-9.870774871215902,-22.160896095992904,6.152055180763718,-8.023278029630825,-15.45662769046717,12.761160820942317,-6.566796071228204,-20.502710385994277,11.726163833197097,17.823669819471277,-21.331932099372167,14.333377712113,-3.1762352170284673,66.368004,-690.52002,-716.384033,1960.0,-420.0,2660.0
-11.723706003645454,-1.2160484357244634,-9.56326791047133,-8.772810707996374,-19.539618922313934,5.252948504516428,-6.737361170968978,-14.506846257910908,11.558256884687648,-5.571932662195794,-18.319857450414958,11.0499928492873,17.071483137515344,-18.649192051139416,14.085708982683272,-2.1997780783614456,66.368004,-689.05603,-715.895996,1820.0,-280.0,2800.0
1.1896015303695346,0.8641647082140985,0.9451350139092654,0.7529623940245478,2.0566590347591713,-0.8419563193921347,1.3295345875343376,-1.562229782829819,-0.06306596937256614,1.4746978944586793,1.9520738743716048,0.2318477579882483,0.7823164794963642,2.6581687134930228,0.8353824162101642,1.4289522574621898,68.32,-687.59198,-718.824036,1400.0,-280.0,2940.0
13.333256611211311,1.7834186982770337,10.963897165349717,9.499229097145198,21.875938450119705,-6.444048555205887,7.979235178128025,12.560319554499461,-11.752545185483672,7.397656190087362,21.118109743042798,-11.32332438466898,-16.887792258444684,22.192692234511682,-14.108342448411886,3.681962526752467,69.784004,-691.007996,-714.919983,1260.0,0.0,3080.0
12.54274138864356,0.7490000862944755,10.345898714023122,9.028008123483028,20.433094694617434,-5.75577011909734,6.699534727501755,15.21798477640968,-12.333652229715,5.9197005380129575,19.79660138489994,-12.262344064273195,-18.827666163149992,20.03905567786863,-15.973127955737347,2.060189413212574,64.416,-691.496033,-719.312012,1120.0,140.0,3220.0
1.0157066431864532,-1.010521567802189,0.5198617846283655,1.111657395802379,1.9339334726046111,-0.17375506972772303,-0.29726341874652906,7.295985767691722,-3.431345559744914,-1.1941718717164485,1.4301241406148382,-3.3344347540239667,-5.728415299975618,0.5163323728139417,-4.691909027217353,-1.6737528758743534,66.856003,-691.496033,-720.776001,1120.0,-280.0,3220.0
-8.824210594437808,-1.923172787134094,-8.169296427833178,-5.821619301063012,-13.7029304431925,4.026178356660879,-5.704697163172686,-1.7010944474977396,4.790052179964681,-6.522205073262359,-14.057684753165706,5.325464346975014,7.687239941863647,-15.165663168339147,7.078840027657521,-3.6531547516095912,63.440002,-689.544006,-720.776001,840.0,-280.0,3220.0
-9.427681526121425,-1.3041834293737917,-8.569982335327893,-6.824064587165353,-15.08026116307527,3.7085298491752456,-5.505610063395512,-7.70973327418757,7.290623914969626,-5.355164166121759,-14.663543492198288,7.698210310641516,12.158461850562746,-14.809810975759746,10.633532952882572,-2.089415298938715,64.416,-687.104004,-719.799988,980.0,-140.0,3080.0
-3.79092751455963,0.42476053428263805,-2.650988924024228,-3.557695943491045,-6.9980971318333545,1.2360882744098327,-1.591778183981695,-11.948169919626668,6.5676759069306705,0.10858620207466796,-5.565463909816938,5.947907422170072,9.974251582922495,-4.659590612304805,7.819916289972717,1.211774858500495,60.024002,-688.567993,-717.359985,980.0,-560.0,3080.0
2.027652443607187,2.0111076420572727,3.4632988469268415,0.6652898229713675,2.024148803688014,-0.4467002951029926,2.3144372418839554,-11.216530442247441,4.151689305786152,4.389909314045389,3.2701161620195425,2.811838088807188,4.612083888842609,4.254915372317882,2.7412044667886004,3.105049425423269,61.976002,-689.544006,-719.799988,980.0,-700.0,2940.0
5.629815217076826,2.122953716312947,6.1116230458361,4.304345300216296,8.944552288281525,-1.3591138121439457,4.262793936512005,-0.3923031266891197,-1.711469459975758,4.473871859742666,8.35533725500365,-2.2548532634304195,-4.184428579768394,8.489675823270394,-3.9016088461806486,2.1974295190524167,61.487999,-691.007996,-716.872009,840.0,-980.0,2660.0
6.549107184989965,0.48316262909472973,4.95028509223527,5.897429063131245,11.964003115266348,-2.2911366524666406,3.7284015976790448,14.753818318158665,-8.933265788383903,1.4422470504013811,9.67705149705839,-7.852101683748064,-13.075108104073697,8.963784289590807,-10.049627275614629,-0.2984623832723173,59.535999,-689.05603,-716.872009,700.0,-840.0,2380.0
3.5223120213306958,-1.6541526575233423,0.9246003647941112,3.38568594579152,7.196819786148108,-2.2287791397297863,0.7217219842767444,18.551807910296,-9.95452354353349,-1.8821496944707503,5.495378596551841,-8.354647426559167,-13.054578043187648,4.698055042127486,-9.729251939415114,-2.1517651455858675,61.976002,-687.59198,-719.312012,280.0,-1540.0,2100.0
-2.819621870476178,-2.5098216696622235,-3.890849000816623,-2.5020244721860423,-4.602876868025508,-0.12560213447731527,-3.2235665085293723,4.633861286551948,-1.5388563708890857,-3.4338652080574015,-3.7586010834416115,-1.1896985056151408,-0.9950192153676358,-3.948176810067344,-0.6966984754890593,-2.1214735753668164,61.0,-690.52002,-718.824036,140.0,-1540.0,1820.0
-7.5477047227483975,-1.3998569695843859,-6.097885138224527,-6.777074251280385,-13.709863147919183,2.4649295279583976,-4.934071203066159,-13.409612502928828,8.633638879145881,-2.6435646282170433,-11.075393603891715,7.467322530109079,12.577271212108268,-10.615208499155747,9.532302880929967,-0.6297082752489348,58.072002,-689.05603,-717.359985,280.0,-1680.0,1540.0
-5.857301028353107,0.724277604395885,-3.526110422525609,-5.0412016122137535,-10.742753531959979,2.8607717796448213,-2.5011743008893177,-17.385742114842355,10.257882503202847,-0.23220538068157115,-9.036582063747296,9.011844580067834,14.220154378281801,-8.427580365001972,10.986395610680292,1.004231230856059,60.024002,-691.984009,-719.312012,140.0,-1960.0,1400.0
0.7774271845242433,2.2271910594171804,1.867148020043211,1.0456102229377744,1.470162659915065,0.7922623092798182,2.0752249552333337,-5.841716565796836,2.8259489589996143,2.188463472612492,0.604030634202271,2.747676421840736,3.5404988165007545,0.843020654523361,3.058285975600377,1.7131326735684445,58.560001,-691.984009,-715.895996,140.0,-1960.0,1120.0
5.8753678911081755,2.0821380304213557,5.360628845419023,5.443417152799977,10.701681601442175,-1.399921721167778,4.588603118567931,6.981836158365727,-4.940845680432693,2.9661781727181875,8.354215554484725,-4.137581519795576,-7.5187483640402295,8.109137752335831,-5.530395250344252,1.252276513778668,57.584,-691.984009,-716.872009,-140.0,-2240.0,980.0
5.327078126341925,0.44296016244843406,4.198683854751747,4.570820616544303,9.452714853897291,-1.936059513553797,3.0306407980988688,10.321951046484351,-6.591659813746098,1.5764010087808635,7.975177356512656,-5.964313725651175,-9.832489787223446,7.544984067850917,-7.730390811574804,0.06458835864664254,60.512001,-692.471985,-716.872009,-420.0,-2100.0,840.0
1.1041622289370725,-1.5425857635859748,0.058874506449697606,0.4859864186195346,1.6779711590564812,-1.262416514212374,-0.6356194004872211,6.527800977705599,-3.7694471596428922,-0.8862742601629678,2.1515609993908846,-3.712923043668882,-5.311825458059493,1.9156622696188883,-4.542894926904555,-1.097690446467092,59.535999,-689.544006,-721.752014,-560.0,-2100.0,700.0
-2.4686135564891534,-2.3955046170803,-3.2644080889375147,-2.6725105430980083,-4.565421489463057,-0.4074829896262999,-3.0449315239548427,1.8850990081723555,-0.5958383840821213,-2.507568664686796,-3.0128898717712014,-0.7335424343507189,-0.013994842204073876,-2.9234690578556055,-0.3198699005798673,-1.494445942117695,61.487999,-691.496033,-720.288025,-560.0,-2240.0,560.0
-3.509962360077603,-1.3367982938626968,-3.5791168666390316,-3.190103466689296,-6.127258065672771,0.566175231853022,-2.7327579562548903,-2.800175719327518,2.1918690833394354,-2.0587974758650414,-4.942307005173044,2.0738912303759998,4.0352345251994715,-4.681124982344605,3.187376454040023,-0.7773709406317787,58.560001,-691.007996,-716.872009,-700.0,-2100.0,420.0
-2.665074978199693,0.8654337973701263,-1.4639069115005374,-1.949125677145898,-4.549947508624957,1.6544015257963516,-0.6848182203355062,-8.079133406541251,4.947444038571897,-0.010422126873764759,-4.372304806782571,4.624189404393249,6.960058070453573,-4.163651547117814,5.672401589288955,0.5990229658522735,58.560001,-691.984009,-716.872009,-980.0,-2100.0,280.0
-0.7381525401607787,2.2906798836537634,1.0883255243980505,-0.08430037250822675,-1.2679092016305118,1.849621011374475,1.299590171982947,-9.285325089732765,5.218816944305088,1.8041356900519865,-1.88059226610505,4.730277170250058,6.340380425219419,-1.8359343656009148,5.1388116380124575,1.4828112775889912,57.584,-691.007996,-714.919983,-1120.0,-2100.0,280.0
1.6540195387258843,1.6155459580085014,2.3378849646519777,1.746695022555039,2.954893989293483,0.3616753540121027,2.0237888938484954,-1.7943970344120412,0.667695406117458,1.780474792705492,2.0042413628985525,0.6155511011101229,0.12894516251787458,1.8893178762147755,0.20078612353728076,0.9912044768901496,60.024002,-688.080017,-717.359985,-1540.0,-1960.0,140.0
3.1105867048850078,-0.46303514730960127,1.7372519852082666,2.593631232686407,5.710636096923583,-1.7122918247735068,1.2920622004734483,9.32683389103789,-5.614036888892237,0.11421213263253649,4.882139904563386,-4.883004367836346,-7.5477088259832055,4.671628691673336,-5.8046107928797746,-0.45564102955537816,61.976002,-689.05603,-719.799988,-1960.0,-1820.0,280.0
2.2951293756245787,-1.882582574832114,0.15202903922641076,1.6036083340422649,4.259702541593866,-2.2865902186526155,-0.15870621836021837,12.371815401073306,-7.10982420988231,-1.3242631749522764,4.08361214789841,-6.240906503429578,-8.995076501021883,3.9069952702462967,-7.028718676576371,-1.3736245357283576,60.024002,-690.52002,-717.359985,-2100.0,-1680.0,280.0
-0.16399749749473713,-1.3789738962326736,-0.9063903082954576,-0.5923598358826507,-0.5213578363330758,-0.8157586366718936,-1.129597758989319,3.196254726118548,-1.8351735409978893,-1.000152739212816,0.2376648353841535,-1.8523305626715665,-2.235313222200462,0.25983535020977655,-2.024064275012522,-0.7839229238752355,60.024002,-689.05603,-718.335999,-2240.0,-1680.0,140.0
-2.049578768837524,0.28974202926570014,-0.7744785670104672,-2.0829293317676627,-4.28051147591944,1.1030358884621312,-0.9510307506101474,-8.753020396522178,4.7889658354327205,0.5088356975733053,-3.071158438949208,3.78515404424148,5.988520343124373,-2.8159508747247743,4.218890214963549,0.6236329622760212,60.024002,-687.59198,-718.824036,-2380.0,-1400.0,280.0
-2.081820734770961,1.3713832055918211,-0.2513514879951022,-1.7322477268485117,-4.0896902865050215,1.7640052106626778,-0.12723003126301435,-11.359073404037408,6.308326322375543,1.2048582947232862,-3.50150551566602,5.3800136215849115,7.993878370537589,-3.228758228622328,6.064527907490481,1.2462315248615703,58.560001,-689.05603,-718.824036,-2380.0,-1260.0,560.0
-1.0014081001062296,1.00805022629507,-0.3504116238627333,-0.3206253794210152,-1.314927339525802,1.0636794196173813,0.3143050161636711,-3.435398261730141,2.291139404292773,0.160767126878534,-1.9621423268916827,2.446796275976184,3.3211117356267064,-1.9565394762382535,3.0283554051108963,0.4358616491982322,61.0,-689.544006,-716.872009,-2660.0,-1260.0,700.0
0.036898014617538166,-0.16408352269570048,-0.775493607781768,0.70525057031583,1.0765680402805664,-0.06529338472803792,0.07948145652786409,5.714352791118451,-2.5010042320755446,-1.2955988853763332,-0.1860130016750361,-1.4661338282466012,-2.522174739066461,-0.46154863536922086,-1.2329735637011439,-0.7970469114443156,60.512001,-689.05603,-717.848022,-2940.0,-1400.0,700.0
0.905603498794223,-0.9851908791967632,-0.359945943546804,0.919601919760344,2.1197505918577466,-0.9608983542061749,-0.16900464251669867,7.985210172388651,-4.174636672750388,-1.2705535997159256,1.527036901188719,-3.3831852063778527,-5.083732175439971,1.2712938042951283,-3.683177841793686,-1.0732659879155866,58.560001,-688.567993,-722.23999,-2660.0,-1260.0,700.0
1.728014867325662,-0.8747917097389699,1.0461406179390451,0.8318228145175444,2.473807563106016,-1.343743565792975,0.140249001702202,3.808472179930577,-2.769681488252518,0.3012616723579613,3.08636573434252,-2.966892714680707,-4.16207089258314,3.0978259448345735,-3.7793912875958284,-0.2400242321474953,59.535999,-689.544006,-718.335999,-2380.0,-1260.0,700.0
1.7752500392737582,-0.05620234694200943,1.990246025606151,0.6813596725132487,2.053699856339879,-0.8811964515467716,0.6748883898877878,-1.4639477052637346,-0.24242841516828584,1.6264425517168533,3.0560532284795556,-1.0716523332700483,-1.4024003818890414,3.229647114674359,-1.9371209137923149,0.6660832403454415,61.487999,-689.544006,-718.824036,-2800.0,-1400.0,840.0
0.3289866175735101,0.8028808009786355,1.1359532443677995,0.13984748741002218,0.14007999025362672,0.3849620695947862,0.6740587031629854,-4.273925223178958,1.9926734099349535,1.2895166963744058,0.36427306775678403,1.4394767089677387,1.9665728346727498,0.442787058647232,1.2459320576340343,0.7957641776687348,60.512001,-691.496033,-718.335999,-2240.0,-1120.0,840.0
-1.761720446501997,1.008905289977562,-0.961215724578877,-0.8343159918535101,-2.523382367548069,1.450552341902636,-0.053323816401894986,-4.360261116184729,3.062128031340375,-0.19402871598938276,-3.188252423817798,3.232547613746055,4.492767618269943,-3.2099863502724295,4.044238977038736,0.3153837702648741,56.608002,-691.984009,-721.264038,-1960.0,-1540.0,980.0
-2.552644555084573,0.3066932815986769,-2.3446241089882665,-1.5154064857818645,-3.631328396754088,1.168674365950288,-0.895481171073806,-2.3990391488845386,2.202229823715177,-1.259847867087481,-4.1821915014258915,2.7524344743442644,4.181456884870472,-4.082079358849272,4.026247257540032,-0.1539168291249248,59.535999,-693.447998,-718.824036,-1680.0,-1540.0,1120.0
-1.2024010815914021,-0.7548998502740274,-1.733424752518321,-1.103808946090962,-1.875306101156478,-0.22251637970501648,-1.0849466227193818,0.9213476675500232,-0.3083585315201418,-1.1242085482044986,-1.5616930522537302,0.015064091540775593,0.5841149755028656,-1.33641967699905,0.6699629614021294,-0.3904775676175676,59.535999,-693.447998,-722.23999,-1260.0,-1540.0,1260.0
1.0382316636161937,-1.152386462727153,0.284161170707915,0.3070365343047041,1.3851060827669848,-1.1835368668316546,-0.39373962977534793,3.953349027812699,-2.6061436862656517,-0.27205050379441564,2.0638172026948194,-2.7286819774129096,-3.708733350639376,2.0520837272080765,-3.3453288494258455,-0.53051520400538,59.048,-693.936035,-719.312012,-700.0,-1540.0,1260.0
2.2489148518897215,-0.434042247712928,1.9818933191640449,1.645588143282175,3.4959409274326863,-0.7770988347040442,0.687609080805325,4.460567822330596,-2.8088776088641243,0.48929252955516134,3.496845389164596,-3.107725240303788,-5.109922291240023,3.0254699806005902,-4.54603287225614,-0.5070615037948567,57.584,-694.911987,-722.728027,-140.0,-1540.0,1260.0
1.6901014602922677,0.6646872559965724,2.03822798918673,1.738301833256052,2.9620907791869975,0.20324594593562306,1.284682119906236,1.7598668420951036,-0.9586520793349997,0.8107040585018794,2.16457073992345,-1.076492360138916,-2.5345443689926253,1.6330897734650502,-2.109097119479131,-0.06588864545915388,60.512001,-691.984009,-719.312012,280.0,-1540.0,1400.0
0.058440387405954475,0.9881706028795171,0.48068537728342875,0.36027516415398564,0.34718067072107495,0.47546947817863927,0.8132159780636325,-2.232092725071043,1.2239990244116514,0.6794125470499341,-0.2250194933494445,1.3538093621713294,1.7404553194626473,-0.14525081837095755,1.644142063416826,0.640619158362694,56.608002,-691.007996,-719.799988,700.0,-1260.0,1120.0
-1.4505120331211065,0.30731918045086204,-1.4109607519348928,-1.4175664120962903,-2.4585598108415585,0.024580861290032896,-0.40055567018659555,-4.560315620709798,2.236904760169912,0.1527659465176936,-1.9955064770785835,2.402961458698222,4.413842348398502,-1.2294607208583859,3.7679149583140514,0.9438755575585869,57.096001,-689.05603,-720.288025,560.0,-1400.0,1120.0
-1.8968331585302196,-0.46688328207815966,-2.0577316503116805,-2.021741813230253,-3.4323681700234756,-0.14865131577286972,-1.241120133631731,-3.6554837876301995,1.8285738286995254,-0.4878675635198171,-2.447158730623636,1.8337019877407483,3.8008781614966507,-1.7437867185306528,3.0667957601180236,0.42130201568149367,58.560001,-688.567993,-717.848022,560.0,-1400.0,980.0
-0.953171191375243,-0.4839491257119284,-0.8845933977487803,-0.8318675930817636,-1.7039460833784048,0.28958319498018303,-0.8600364218390886,-0.349134153792356,0.494444666426781,-0.7073796549244866,-1.388957257715992,0.35847485965975867,0.6267134142875452,-1.4991450365416856,0.40308254521558773,-0.47435985655255825,57.096001,-687.104004,-720.776001,420.0,-1540.0,560.0
0.7622089756322943,0.033248379315465204,1.0374411435922104,1.0740100424357872,1.461784171985915,0.5334963812341273,0.3397177562897402,2.9549962096288986,-1.0994477965013267,-0.267084628866328,0.7554918561380752,-1.2157750190979861,-2.7905431091723365,-0.047118334262936656,-2.3174557081541938,-0.8779956984518288,59.048,-687.104004,-717.359985,280.0,-1680.0,420.0
1.8396807622216826,0.24749138389808167,1.8774323028614717,1.8816007862647486,3.3048829384570926,-0.004587058002789579,1.0563021166712898,4.042659505591375,-2.089842325596793,0.33399929525628336,2.4478971747918727,-2.083149203788425,-4.06870385987027,1.7717439431074489,-3.3116844643080032,-0.5198987168313385,58.560001,-683.687988,-718.335999,-140.0,-2100.0,280.0
1.2525394445082965,-0.10938137849417084,0.8568955452953144,0.8911069755492798,2.1017157809197844,-0.711309140291525,0.550059274777744,2.4075321074534166,-1.7002691297832886,0.37013013891466295,2.0245852379435405,-1.5946165445415126,-2.38282513524198,2.0428429393860785,-1.9544379891072747,0.05902006840174029,58.560001,-689.544006,-717.848022,-420.0,-1960.0,0.0
-0.4409129582499407,-0.4491447180046999,-0.913891635539835,-0.7802384484221307,-0.8792507197070094,-0.667013940913928,-0.5032140566810146,-0.5403883154959654,-0.09083099109240145,-0.14834500042396348,-0.2607982535264384,0.04431146198839819,0.8457216306343742,0.2637512747659567,0.696300775013178,0.3145325852260799,56.608002,-688.080017,-720.776001,-560.0,-2240.0,-140.0
-1.5256234070607437,-0.198417296975532,-1.6165689648684598,-1.4745267601485619,-2.6120746780856576,0.02621368311657024,-0.8450024156619136,-2.7820853221309996,1.489032179936146,-0.4145995995799522,-2.0769958636938393,1.599812518878772,3.106837673964023,-1.5669468649569804,2.6223177598856084,0.33477726300309973,59.535999,-686.616028,-723.703979,-420.0,-1960.0,-140.0
-0.9971989688448275,0.4349054520318867,-0.6513519346719421,-0.7392387540056946,-1.619911906765858,0.49048090547086165,-0.13589021388526223,-3.223373574751383,1.8562608537715626,0.08850492421464651,-1.6055214280255026,1.8744299955363948,2.947381201586115,-1.373173613994144,2.5081078038940925,0.43854401093698636,57.584,-685.640015,-722.23999,-700.0,-2240.0,-420.0
0.3523535570705034,0.7446823565213029,0.8456392480985278,0.4386974459385864,0.5836291388358639,0.37649240386359617,0.7123528644989883,-1.9746676965840013,0.9982524865692826,0.7736522059115163,0.2946982791314614,0.8514373783184936,0.9399365442403678,0.25054821245327297,0.73534441039331,0.4680265872245474,58.072002,-687.104004,-719.312012,-980.0,-2380.0,-280.0
0.9963040845006743,0.36731958634972095,1.3546947313304045,0.9285338701500554,1.5748629114348756,0.1705580985944799,0.701700230147478,0.32096881602693017,-0.23103299685590706,0.6232555127808854,1.2990139690613258,-0.4968956153000761,-1.2954306733204746,0.9628417227137405,-1.2386595082883929,-0.013448719706580552,59.048,-684.176025,-722.23999,-980.0,-2380.0,-140.0
0.48452342148283467,-0.36047050665535885,0.5404000531731832,0.5599301046256824,0.8121057152066928,0.18736759287073346,-0.09363131624067034,2.690878261262096,-1.1410412263656635,-0.4147782711298761,0.5882950617434624,-1.3039020362396165,-2.5013782105805618,0.011707915877346764,-2.183196826667574,-0.8332265276660477,59.535999,-684.664001,-721.264038,-700.0,-2240.0,-140.0
-0.2730836351397752,-0.7999789632860184,-0.628137179753514,-0.07567309085662455,-0.2731619741771958,0.029748300687071794,-0.7302736730648989,3.608593339001578,-1.485509434229252,-1.1855250720394748,-0.4135253947196045,-1.3355032664298712,-2.191276415352837,-0.8302568641068291,-1.7172702111253937,-1.0745557311381655,59.535999,-689.05603,-719.799988,-840.0,-2520.0,-140.0
-0.3822039030506943,-0.6084101764664036,-1.0558459392367192,-0.46668721908803157,-0.47887844090071674,-0.5721689012477009,-0.560778424693759,1.846774969460018,-1.0683415235634577,-0.7035143382630346,-0.29752426368399476,-0.6822138789576329,-0.5056419896161906,-0.03568719002772269,-0.20193106411406703,-0.19282263014395734,61.487999,-687.59198,-717.359985,-980.0,-2520.0,0.0
-0.01939282038972845,0.023398744672008753,-0.5510120604961615,-0.520978621267036,-0.13984602543663271,-0.9797686936293228,0.10410397695952445,-1.7261033524063425,0.15201119564857635,0.5592426328450395,0.4302045787033357,0.42107825968189605,1.6274041828528283,1.3126165138523884,1.4385427825627222,1.0437087074915803,61.976002,-688.080017,-718.335999,-840.0,-2380.0,140.0
0.09660400007984915,0.5833085133673025,0.24333558459625415,-0.3113061267079016,-0.12262562337560823,-0.3833295747665648,0.5050659383906992,-4.040314550826481,1.4782437020160577,1.1766801161895517,0.35727985287272546,1.3632607246162287,2.6174999372957632,1.0396368512110339,2.036340059816437,1.2601299286739003,61.0,-687.104004,-718.335999,-840.0,-2240.0,280.0
-0.1790158661853809,0.6605639790109736,0.6410490808957938,0.09220295785706734,-0.39706835820446784,0.8795124759747863,0.3362560824871961,-2.711259946373467,1.7141100813875347,0.48370485717234524,-0.6260366168447078,1.3438998280553047,1.463920074639578,-0.909017904508854,1.0337399795651834,0.1356202413142888,60.512001,-688.080017,-720.288025,-560.0,-2240.0,280.0
-0.3092761714120531,0.2574847865484109,0.4886552562707278,0.4855817988424369,-0.2557189929515271,1.4503897783818998,-0.044061526629950665,1.0485425694691024,0.46752929501409657,-0.6477031466110954,-1.1383683092527068,0.2302258533474859,-0.9241434039878573,-2.1670871682444544,-0.7695322019831394,-1.1076421994659265,63.928001,-691.007996,-719.312012,-420.0,-1960.0,700.0
0.04833219671104505,-0.24501108340422273,0.10326218873695314,0.5378731174642621,0.4268251717765974,0.5710471274471272,-0.1744197754125676,3.3928886721051725,-1.12992919813375,-0.8997674760148573,-0.27092438961029686,-1.0258609422696185,-2.3067387068220935,-1.0017359469315519,-1.752940624938363,-1.1008875873561024,62.952,-689.544006,-719.799988,-280.0,-1960.0,700.0
0.5315048852711275,-0.43933785330565267,-0.14034972058205453,0.14055939176306564,0.8981446536869608,-0.9152726298659735,-0.009942352018420975,2.010238963173096,-1.515759006793461,-0.0461784812594328,1.137419089173969,-1.258428988504667,-1.4076281718306856,1.4417195624743417,-1.0754579461689797,0.1015666758306103,62.952,-688.567993,-719.312012,-140.0,-1540.0,980.0
0.5664622879186165,-0.24586249170425267,-0.13192056822053155,-0.3701928666410801,0.55230854636625,-1.5082596091603806,0.15428050003211857,-1.341775007567982,-0.43953617018785884,0.8870143077005352,1.5471303215441576,-0.3548717444680989,0.6882084641717992,2.5446870415852985,0.4406692120374984,1.1595747862447061,61.0,-689.05603,-721.264038,140.0,-1400.0,1120.0
0.06253450584199083,0.049087567147464206,-0.07020795930219892,-0.5325727423535112,-0.29989080964589476,-0.7119149284242621,0.07644779924675604,-2.860111078378141,0.7818468896728357,0.8250524268626214,0.5022655947887493,0.6375448377744997,1.7475245144296068,1.198588536009117,1.2296696187699983,0.9733361807418921,61.976002,-691.007996,-723.216003,140.0,-980.0,1260.0
-0.571804432280012,0.09705639466800742,-0.2312413609985331,-0.2742534924854598,-0.9124579655356726,0.5861350009192159,-0.23066558252060854,-0.8401417533749171,0.8107840490451874,-0.26960252884309144,-1.0552680224957207,0.708201790011544,0.7895647949982614,-1.2773640715704868,0.6335632845075505,-0.2492969983024807,61.487999,-687.59198,-719.799988,280.0,-840.0,1400.0
-0.8771045191893272,-0.13562186661990494,-0.5774038053681183,0.054950895316220105,-0.9347534244811584,1.2154559052994558,-0.5346352090153403,2.5475927948177954,-0.2078840625715319,-1.4017827593375316,-1.8715921786526728,-0.03396522162594806,-0.9983747849324427,-2.745648576596536,-0.5434119179821,-1.3422698081676485,61.487999,-690.031982,-717.848022,280.0,-840.0,1540.0
-0.5958666680325289,-0.27496530952095255,-0.5887496397232779,0.1758614900482991,-0.44099545977242904,0.8164039871616149,-0.47274589465598305,3.428815881026674,-0.876908527910734,-1.3773475894806504,-1.3139312688281901,-0.572448876676539,-1.6089280708872966,-2.0481726732975147,-0.990518487982774,-1.260579495199711,60.512001,-690.031982,-719.312012,140.0,-840.0,1540.0
0.2689690479828961,0.07724953189309525,0.23738356234380253,0.20192313583402832,0.46039424226879966,-0.1161490958462017,0.1984667000366016,0.15776488500433672,-0.19477754880482223,0.1744469145611054,0.4121163995044679,-0.17234809629583125,-0.27267373358237634,0.4374438370605933,-0.21562734975626796,0.1004948866996534,61.976002,-689.544006,-720.288025,140.0,-700.0,1820.0
1.2555904299451166,0.7509542956347363,1.4926616677210038,0.33082575270236925,1.453667757887306,-0.8527061755129957,1.1390028770421747,-4.526429534457723,1.1872274132769363,2.162495989034616,2.238821177719956,0.7458192361256417,1.7153852695047274,3.0138438564721817,0.9855084207668323,1.7119427408260575,58.560001,-689.544006,-720.776001,140.0,-560.0,1960.0
1.4402985380609712,0.9328573154233328,1.7761184355412993,0.39008049248328325,1.6540832487925776,-0.9235047741832672,1.3548960320309693,-5.49076599306801,1.523534870800816,2.5549751675423247,2.5458902697379138,0.9881281753437801,2.1396517332135527,3.432708968196218,1.2582839176451461,2.0122423907174376,61.0,-688.567993,-720.288025,280.0,-560.0,1960.0
0.23410581987511137,0.02622325775557033,0.14012720767031484,0.014034051371004885,0.2933410985248095,-0.3107521927518686,0.14431463413097645,-0.4521783150023104,-0.04304049139518895,0.31354525339015593,0.4801957666602128,-0.05511857296239775,0.12913308975382698,0.6811803095129783,0.0591333366978013,0.3024654629763942,59.535999,-688.080017,-719.312012,420.0,-560.0,2100.0
-1.5911597617169848,-1.3507319604565917,-2.297317838732,-0.6830662311880569,-1.8981105196638115,0.5283191306866866,-1.7057348970331376,6.441194843842862,-2.153021387275073,-2.8981372642940797,-2.571836736018769,-1.4738308386809589,-2.5482897395602713,-3.307472044279905,-1.5500752442138186,-2.124233666329393,60.024002,-687.104004,-720.776001,140.0,-700.0,1960.0
-2.2162832082944566,-1.6799885431986588,-2.9475945445535183,-0.9641080181795649,-2.759292143045645,0.9146874830176279,-2.256472586573532,7.767806625163772,-2.373270323793477,-3.74987659943832,-3.6354613484456078,-1.597507296062627,-2.943009547981445,-4.671105278378663,-1.7689082968451224,-2.7976572798254344,59.535999,-689.05603,-724.192017,420.0,-840.0,2100.0
-0.696645678771354,-0.2727698289183955,-0.6210504020166412,-0.3105713005260564,-0.9855088381590562,0.5062019964109696,-0.5489217685585295,1.0047964874905357,-0.004425138970873377,-0.8378371274974263,-1.2160511549210824,0.05135965095978445,-0.20343154444247702,-1.5597792351319715,-0.08063499686695508,-0.6873625886521455,59.535999,-691.007996,-720.776001,560.0,-840.0,2100.0
1.6450753022786584,1.5963345116101941,2.6093255382580782,0.7592244690890504,1.9389976113194702,-0.3264597846629034,1.8998941810278123,-7.443614271246657,2.6788105451143496,3.172187394843344,2.55957594772285,1.8758505139871042,2.995746956715047,3.242948378280035,1.848564190916779,2.2539069462858294,61.0,-690.52002,-725.656006,420.0,-840.0,2100.0
2.4249133393106534,1.9268361113559538,3.3645104384648272,1.1369153417111044,3.050838326149224,-0.8172129843946498,2.5303516073762484,-8.590737740369171,2.730615491949499,4.103135827589175,3.882680221352505,1.8428792539582268,3.180887963075717,4.893480688245399,1.8935528919559959,2.975371829676107,57.584,-690.031982,-725.16803,700.0,-1120.0,1960.0
0.8883928097894467,0.3859967383650582,0.8536159747276946,0.44599742544011045,1.2966744862646795,-0.5545298522913713,0.7333105386784589,-1.2274942509049644,0.02061621826214477,1.0405548353743355,1.4954604754091427,-0.04982015231378334,0.1726635192888768,1.8593324162131157,0.040391770486955636,0.8091184735626041,59.048,-690.52002,-724.679993,1120.0,-1260.0,1960.0
-1.2279945123735354,-1.2374752273748317,-2.1340295747598406,-0.4917308496689907,-1.2677434618269023,0.15062116116811142,-1.407356026114162,6.481292189148878,-2.4638751726544275,-2.5762395078588654,-1.9187145653110322,-1.6554352955499567,-2.6123943817680573,-2.421242354274564,-1.5332148594875203,-1.7675871400857037,56.608002,-689.544006,-720.776001,1120.0,-1260.0,1820.0
-1.8196749283544702,-1.2912017451280358,-2.58609215223071,-0.7353117818253945,-2.1004653658658032,0.635393247490446,-1.7382829153225152,6.712977865986357,-2.1620648928578863,-3.1134971112826415,-2.9805263172876977,-1.3074660898428512,-2.323821234864468,-3.716670957094051,-1.2061422404312605,-2.175144457850458,58.560001,-687.59198,-723.703979,1260.0,-1260.0,1820.0
-0.7839673963629501,-0.2568869036445576,-0.7150217836268258,-0.37765946800857275,-1.113977551169926,0.517803732228562,-0.572872918651631,0.8512158092214328,0.08488932941794225,-0.8582076322420795,-1.3456228378345028,0.16660768752634958,0.002093010284511365,-1.6573692676826326,0.11118468022655748,-0.6556909906908588,58.072002,-688.567993,-721.752014,1120.0,-1540.0,1540.0
0.3359114456338741,0.2411922303077938,0.8861820350314193,-0.16200124810004146,-0.0882236894012216,-0.03569613723770004,0.23013423823241275,-3.5849471822289143,1.4439366922576609,1.0859354664733811,0.6381679111958221,0.7681897296529003,1.2756183924212419,0.8023627190732778,0.49676458649622823,0.6207751592408713,59.535999,-688.080017,-721.752014,980.0,-1820.0,1540.0
0.5967159391812755,-0.09840950180435981,0.8730776023260276,-0.2121265707927824,0.1859972184682892,-0.5228540867118561,0.09842472794568802,-2.9415402228010503,0.8275523600547308,1.1207237817403184,1.2613701693808892,0.1165503768776146,0.5899733899110053,1.5737028793439176,-0.17049626114601146,0.6515063438513048,58.560001,-690.031982,-722.23999,1120.0,-1540.0,1540.0
0.5279563556515674,-0.0022531673883130487,0.41063895665281436,0.11004145989334457,0.6468663534424834,-0.522465727281407,0.25015354766923426,-0.6101736649892011,-0.15739906175466345,0.5719687978564283,1.012221392505479,-0.2684340819853084,-0.10096756648745675,1.2852692245572896,-0.23681242272698277,0.4430737049444815,59.048,-691.984009,-716.384033,1120.0,-1820.0,1540.0
0.716227624734656,1.0475681005707076,0.695349999311369,0.9318947550702652,1.6951640975105988,-0.035149916080814414,1.2546071565222696,-0.3516992962999641,-0.010344396503766617,0.7887209475970656,0.8313846849413,0.48558555345736654,0.5405624283464512,1.0559819575681306,0.9075677020268849,0.803250050212842,57.584,-689.544006,-719.799988,980.0,-1820.0,1400.0
0.6430306477369356,1.572522914302056,0.9021981483094859,1.2317214026030148,1.840472692466216,0.477564907285569,1.634404854990095,-0.7981227641013735,0.5018366262404781,0.8691794748218025,0.4201316494508145,1.1191802925441277,1.0999121421067066,0.480495373604402,1.5565496989260996,0.8502320556946521,60.024002,-691.984009,-719.799988,840.0,-1680.0,1400.0
-0.31894366328339085,0.15840032493560752,-0.23765343738657974,0.1387701211893253,-0.1696760389134102,0.4880836711480314,-0.0002596912971861709,0.9472920923132069,-0.06101803261713101,-0.4770955331898551,-0.75282459711479,0.16994886609512783,-0.1317424297390115,-1.0295111231246636,0.14617864338102926,-0.3712013627294043,54.167999,-690.52002,-720.288025,980.0,-1540.0,1260.0
-1.4455445677110532,-2.0555848868883726,-1.875048380702597,-1.5217093762454104,-2.798227993684412,-0.03233718331059565,-2.352178483354789,3.3612962107172546,-1.1977336907285352,-2.168299469195687,-1.8038131446072487,-1.5325089165225982,-2.01987276451084,-2.2807236347580275,-2.0591406557358294,-1.8399147229650366,57.584,-688.080017,-717.359985,420.0,-1400.0,1400.0
-1.307582022891995,-2.39305442284949,-1.811036807496594,-1.8782136840666777,-3.0105281005536417,-0.5131227685559425,-2.5884208618205067,2.3351936866858836,-1.0719491799176346,-1.836861315122332,-1.2771053046594503,-1.7133507744826186,-1.8559359487337233,-1.4985611875864535,-2.253372802219028,-1.5908316903525983,59.535999,-688.567993,-718.824036,420.0,-1260.0,1260.0
0.1899147122483127,-0.15229067180448164,0.2710126247338085,-0.3286354294078677,-0.1791636968985344,-0.4031844612258899,-0.08070692361447995,-1.899185978889042,0.5294892858941731,0.5873278536057347,0.570900030894677,0.14161538047045497,0.6069129362051893,0.852058044316724,0.11960235413665643,0.4255380063709569,58.072002,-692.471985,-719.312012,0.0,-1260.0,1260.0
1.441150110465891,2.24300670103393,2.022286115382671,1.5482528034608163,2.792658299567613,0.15785642136658362,2.4918173653556286,-4.074583027893667,1.5650925931352537,2.3398716780240116,1.7335663958569505,1.8607609239135607,2.428322435717149,2.2037078033529838,2.382907634786802,1.9581494189022102,61.0,-693.936035,-719.799988,-280.0,-1260.0,1120.0
1.165917883407384,2.215830441090658,1.5120184752875492,1.8278665726480576,2.9126085988248676,0.49028634220703404,2.4164897101964877,-1.3150993075547746,0.633478701791157,1.4711089983309031,1.0586149045521012,1.4239835093220208,1.404345932065116,1.218350623909009,1.9886536962299965,1.3472276425306702,58.560001,-689.05603,-717.848022,-560.0,-1120.0,1120.0
-0.018583434485117678,0.1457260541552864,-0.2500429081023605,0.45331852114015847,0.5462120994986144,0.21386455384916792,0.19228794736775723,2.427763176066632,-0.9155650954996482,-0.5692292104677087,-0.2777885633632433,-0.40263608919610583,-0.946177010858559,-0.49751210935216506,-0.32110098405427046,-0.37139988959149817,58.560001,-690.52002,-720.288025,-700.0,-1120.0,980.0
-0.6682719571769322,-1.476053296604698,-0.9990400242049966,-0.9780286478163478,-1.562797786123431,-0.29713856599252697,-1.525223968634744,2.058116018447798,-0.9432197378962837,-1.1877491876432564,-0.6244800019138523,-1.3018501766877666,-1.624685385083966,-0.8506727893091419,-1.7508106686998826,-1.0923537389303442,59.048,-690.52002,-720.776001,-840.0,-700.0,840.0
-0.502184862837245,-1.3387055989147654,-0.44638708782787484,-1.2774335125216765,-1.860623576596649,-0.42499607127556516,-1.4320086943235188,-1.1536568494436548,0.3250601501750747,-0.29973773301915974,-0.19304095200892846,-0.5802406189457319,-0.28626514301776496,-0.1763634203771769,-1.1114057891285594,-0.496959188020891,58.560001,-691.007996,-720.776001,-980.0,-840.0,840.0
-0.3726097255508547,-0.42418934659420304,-0.19337092174454096,-0.7100571334175805,-1.1278239756656632,-0.07454773266994152,-0.5862268747197614,-1.6923254209961875,0.7427102114250621,0.052835104671018485,-0.33262869233236003,0.2745719680877823,0.6969795577678024,-0.253813550686365,0.14890903955150492,-0.022509809995109233,60.512001,-690.52002,-717.848022,-1260.0,-700.0,840.0
-0.5360041586667803,0.06894734954709536,-0.7363748175388873,-0.030392514162649764,-0.3670990282462032,0.29812186891526293,-0.11629558386754635,1.476833945116942,-0.36008188471140734,-0.7230604899380049,-1.0072674841395575,0.13403266522417479,0.03385627503960009,-1.1169385275509232,0.4705320018795458,-0.3247814984553563,58.072002,-690.031982,-720.288025,-1680.0,-840.0,700.0
-0.17303700231316643,0.3889109095799238,-0.5357194131977048,0.5752110818367986,0.640729285576974,0.31479387555390037,0.3721321932355377,2.9616966827349422,-1.054065711736074,-0.7521961706398963,-0.6335421519227253,-0.1844006912769327,-0.6751844052080838,-0.8104776597247323,0.2204303408972752,-0.3149839881466528,59.535999,-687.59198,-715.895996,-1540.0,-700.0,700.0
0.9900627097390426,1.085495523037391,1.1917581184218715,1.1010894874829247,1.9662859705147842,0.055333404997004454,1.361763277942578,-0.7565030780983246,0.16508429783281642,1.0496900428948364,1.2142592676871562,0.4034726329944833,0.2572925134904498,1.3083791177236375,0.4768502632010385,0.7774374513862166,59.535999,-691.496033,-720.776001,-1680.0,-840.0,840.0
1.6441373205395244,1.3829662840216104,2.432250455634306,1.0154625464804705,2.210644916985279,-0.19509142481490382,1.7631216757000276,-5.069376100522384,1.7397635261015845,2.562062898701905,2.4344708398029997,1.1482815399904505,1.6308232460776964,2.823664411140477,0.907703600934898,1.6822911761640753,61.0,-688.080017,-720.776001,-1820.0,-980.0,840.0
0.4801260942696812,0.13092229724763738,0.840792058073287,-0.12980036540797002,0.15370356587332346,-0.2975652246034719,0.235139248386522,-3.089172426440415,1.0478444936690172,1.0901047643227277,0.9533785809364073,0.4468639279592024,0.9426528591114849,1.2184645181753062,0.24865448030118564,0.6745079925015501,58.072002,-687.59198,-719.312012,-2100.0,-980.0,700.0
-1.6425687365343187,-1.9358294207444255,-2.4453213944839214,-1.5580191444863698,-2.7650714006656028,-0.23933753320758333,-2.2535644525772924,4.0404593128121,-1.574219802182368,-2.3835629796500846,-2.081481147622518,-1.4270118240007754,-1.6350639357254142,-2.3065025170095845,-1.3647491000206404,-1.6371022650979492,57.584,-690.031982,-721.264038,-2100.0,-1260.0,700.0
-2.2917869254080223,-2.4101583494748726,-3.493409576945951,-1.693410796185808,-3.3408412934806604,-0.0006026183605629676,-2.8553173543618056,7.383638042439912,-2.7419910790806963,-3.712596641872718,-3.195084945013508,-2.1181688025486363,-2.866866492044551,-3.7366125642923764,-1.982138178900021,-2.5497409698013516,59.535999,-687.59198,-720.288025,-2520.0,-1400.0,980.0
-0.4513685425710179,-0.23393922309222237,-0.5359745843230073,-0.08016141255632547,-0.467334372554971,0.33376529427474777,-0.37014567598724923,1.7335896910238926,-0.4657684307681045,-0.8027616038146012,-0.8346179519973784,-0.26342393080186355,-0.6548065618404362,-1.1334745834549018,-0.3471747958773985,-0.6320922633377007,61.487999,-688.567993,-722.728027,-2380.0,-1400.0,700.0
1.999116840735244,2.5224068356200147,3.358434579019491,1.7547696438757598,3.0852379675543222,0.46434513903519914,2.8112132078573246,-6.900015251661422,2.8527695382438187,3.3475787471573852,2.5229206046112633,2.3274931106901455,2.821760768589767,2.79455436018935,2.0825720322148547,2.2111682806913824,60.024002,-689.05603,-718.824036,-2520.0,-1540.0,840.0
2.403218065003684,2.848042662726244,3.770028008426711,1.9065704959161702,3.6465818756593933,0.15477899916215954,3.265394194557304,-8.259733195899042,3.174910086210219,4.0486150205939175,3.232298009759999,2.6230090197681726,3.490087704328854,3.813396331186542,2.591499630437484,2.8467935678862504,59.048,-689.544006,-723.703979,-2660.0,-1400.0,700.0
0.40480040610424073,0.3264583143373202,0.22955158713065416,0.2523489554266902,0.7637932935552563,-0.38279791310294975,0.5026426201944891,-0.469407969117869,-0.1101106336492883,0.510699240780897,0.6876816626261331,0.09233149906438687,0.3641762238302153,1.0129120955818713,0.43773807278753196,0.5795109390406832,59.535999,-689.05603,-717.848022,-2660.0,-1540.0,840.0
-1.8152468857062223,-2.437565270420693,-3.3730144039629435,-1.5158003861877374,-2.5614271831042332,-0.6176941807747909,-2.6000354303664857,7.7951131468814125,-3.376500105185441,-3.3895868295095837,-2.2669981606907896,-2.597351209123218,-3.2306623438148687,-2.489646966866128,-2.2254255713739255,-2.1627776940746615,61.976002,-688.080017,-718.335999,-2520.0,-1540.0,840.0
-2.1566722698427614,-2.837487490874453,-3.4724808753201923,-1.8419027605873965,-3.3751185808024315,-0.2955492756505378,-3.1526817863380874,7.825442214252476,-3.1338871603005174,-3.769357093432933,-2.7996788220900326,-2.7088365817056594,-3.579598386286822,-3.335283463140809,-2.7890225154820634,-2.7079904705790643,61.487999,-686.616028,-720.288025,-2660.0,-1680.0,700.0
-0.6759630280687343,-0.8549544048523465,-0.5290309895409613,-0.7284769079681248,-1.4938033481528867,0.2637436457343654,-1.0786324869982309,0.48010893036890323,0.07016866913539488,-0.7959916829522111,-0.9209861875437326,-0.375857228445728,-0.6222294372318462,-1.284934878483373,-0.8994327542826817,-0.8766383471034033,57.584,-685.640015,-720.288025,-2940.0,-1680.0,560.0
1.0323095617675007,1.515775763557754,2.295514463771842,0.7418285270240976,1.1825028170712955,0.5495498773871268,1.5141234549397173,-6.185102064717519,2.777902350897091,2.3113057433659323,1.268293442887451,1.9844641078802132,2.5127012878184534,1.3512645853319594,1.5578376237281226,1.3744665531167006,56.608002,-689.05603,-718.824036,-3080.0,-1680.0,700.0
1.7293485380898792,2.5400235472721637,2.8755833970186364,1.6104451061633935,2.8458736428804237,0.39141537302322815,2.7530037579372575,-6.571874925917846,2.7200279633804403,3.116167142568882,2.129697831383499,2.474296760756901,3.1914496411737137,2.541748915940179,2.6075144384054116,2.2748061738279124,56.608002,-689.05603,-721.752014,-3360.0,-1540.0,560.0
1.2957603023736155,1.8593048477849625,1.545332517773132,1.4726840465092947,2.7028860959419845,0.0019737665837369356,2.1651591931536043,-2.2075698094451504,0.6990286519747846,1.7640933339709133,1.5738069582891558,1.2018970855011366,1.507397334836984,1.9844042168431546,1.7581747062535316,1.571950268399195,58.072002,-692.471985,-719.312012,-3640.0,-1820.0,420.0
0.15408958441501408,0.028403795395351095,-0.3947018767346928,0.32608275965517697,0.7497456746331714,-0.3460124562374167,0.22228431475655497,2.275710699415521,-1.2172056015897397,-0.34719954713815193,0.23023078425071297,-0.6062746489830673,-0.802391834861254,0.36994768975109693,-0.19497466953547082,0.0021924275901410682,58.072002,-689.05603,-717.848022,-3920.0,-1680.0,560.0
-1.1889700740610047,-1.9985524375171613,-2.0683794176864936,-1.301412134521204,-2.1076849004872367,-0.49442240230350176,-2.093019046500501,4.505348054746815,-2.0116288253102788,-2.1621975507736035,-1.3207277249981892,-1.9328299713814925,-2.364662159002364,-1.5308881376778078,-2.0514557662153585,-1.5827174125971637,59.535999,-687.59198,-723.216003,-4480.0,-1680.0,280.0
-1.9817042916641077,-2.9327425863854075,-2.775546176402037,-2.238326494620929,-3.877353406657888,-0.3552707148812182,-3.289948998475899,4.564642367630935,-1.8063775342191768,-2.930823062959556,-2.321402771447759,-2.1944755904143634,-2.623793499537477,-2.76378669117721,-2.6880362484938836,-2.345493590302921,59.048,-689.544006,-721.264038,-4760.0,-1820.0,140.0
-1.4103685920832882,-1.7452235205003506,-1.7199596412916778,-1.449169243590664,-2.7047229521104263,0.05028314463176553,-2.090525015343675,2.4208220271348964,-0.7514576860399984,-1.8766115153105714,-1.8101228577472712,-1.0652562498343947,-1.3375320043535535,-2.20099138354324,-1.4550387819998356,-1.5532255555745644,59.535999,-688.567993,-719.312012,-4900.0,-1540.0,0.0
0.4750423391277838,1.1060489464841723,0.9749641465591017,0.7343887787330234,1.0227829460445914,0.4753738860669454,1.088110975874381,-1.9247215484943698,1.0135626460927956,0.9072402767232235,0.34673099390694695,1.075837762021174,1.1512022222068872,0.3248217782697509,1.113580173275345,0.6476391512796944,57.096001,-687.59198,-719.312012,-5180.0,-1960.0,0.0
2.2858833030607055,3.439791720029212,3.445943996716137,2.5365278846437938,4.328792721654228,0.5721213807648913,3.8014298270387314,-6.1264640668814865,2.5339562602993793,3.5510256181473014,2.639272181638976,2.7703304899747705,3.2680610281041957,3.064439094720834,3.1422524025610725,2.7083264854978903,57.096001,-687.104004,-722.728027,-5040.0,-1680.0,140.0
2.350909772995471,3.106087435696355,3.380996215036536,2.306159852356481,4.191494814694881,0.23338943501748188,3.5557957838593186,-6.194739215477246,2.3480140177385653,3.593704993046864,2.951665394781342,2.432751162679917,3.036521354865412,3.5007360634394633,2.768509606063045,2.7309497059817534,56.119999,-689.544006,-724.192017,-5180.0,-1820.0,0.0
0.4232847438026317,0.1650576985072445,0.4523808871042494,0.14220336089168883,0.532975697179177,-0.2881699619450946,0.3228204174540761,-0.9747416857747329,0.15872823172684747,0.5820565458495051,0.7451835600634329,0.045244985189171416,0.22486149482153195,0.94417570981369,0.06517957237291405,0.4359497417941127,58.072002,-688.080017,-724.192017,-5320.0,-1820.0,0.0
-1.9184426430568209,-2.9827087566862622,-3.0187208003806743,-2.1832134548950384,-3.608099541152998,-0.6343416898237884,-3.2407022992710015,5.432605683321501,-2.3565834585577274,-3.046036543738886,-2.154040894428202,-2.4832980215308265,-2.8820135723240945,-2.446877335260777,-2.7198951503487283,-2.2677972813432272,57.584,-689.05603,-721.752014,-5180.0,-1820.0,-140.0
-2.720945780896993,-3.766641867616159,-4.140337396401771,-2.819025608601457,-4.863396319672462,-0.5942929709724156,-4.213367325672773,7.399566627079121,-3.025140832343043,-4.198733229775621,-3.2691153682683067,-3.0301571848433806,-3.5860130267597796,-3.7317376085984346,-3.239021368028059,-3.067867237961655,61.487999,-686.127991,-724.192017,-5180.0,-2240.0,-280.0
-1.405238598686358,-1.6530548025631426,-2.044795139506772,-1.296930211197755,-2.359822703546139,-0.12769646780386434,-1.9328071317888424,3.5472659843519327,-1.3406740834397866,-2.0735776507124024,-1.8164369442357877,-1.2388378666828714,-1.5031152860319725,-2.0752471855090215,-1.2639065457866714,-1.4744697057068892,58.072002,-687.59198,-726.632019,-5040.0,-2100.0,-280.0
0.9017929872344936,1.6343409521825887,1.557516632537407,1.2465634605359512,1.8715395520800406,0.5875785482584464,1.7127036194681133,-2.3855466983876923,1.1983487701518536,1.3893169175725506,0.8299215079046842,1.336348599984536,1.327018695773729,0.8091041456387558,1.36487683804841,0.9760055844315934,57.584,-688.080017,-723.703979,-5320.0,-2520.0,-420.0
2.46736445932953,3.6506823768846433,3.956556519120162,2.9159915827310674,4.673211637013454,1.019844392862585,4.007675995604068,-5.933668288017799,2.6843611838306014,3.5915370346618767,2.673717990403132,2.7812223660419715,2.8040809414229066,2.7511421275006,2.7126560010881473,2.4562024992125395,58.072002,-687.59198,-723.703979,-5320.0,-2380.0,-560.0
2.2319177546603424,2.9641072837320226,3.4235206077729563,2.3412637806660475,3.989761980419093,0.5610243344477928,3.351631625909693,-5.5417216248860015,2.285740358108172,3.2761067993651825,2.649806199821814,2.24702878155808,2.458835387510474,2.88569098246505,2.223660908798898,2.2797383874628516,57.584,-690.031982,-721.264038,-5600.0,-2520.0,-700.0
0.3815806887178228,0.038326403379727036,0.2936536647835424,-0.20536695979077768,0.23819792295428677,-0.665512695881918,0.20437182363659212,-2.0582188457011164,0.40545614667539365,0.8397276142016075,0.917137447140691,0.20530917731421106,0.886072797359791,1.432884815293308,0.4835344303457898,0.7906337180060757,55.632,-685.151978,-721.752014,-5600.0,-2660.0,-700.0
-1.8025130526257578,-2.991268713348226,-3.1607128933640642,-2.709413036837656,-3.8059249940887048,-1.492815950030816,-3.1705182361327475,2.8725333779635296,-1.7937223206868396,-2.2370708706713867,-1.514479068636537,-2.0032017169867338,-1.266867723534201,-1.0391112820476902,-1.5663300158839295,-1.2544639461816565,59.048,-687.104004,-723.703979,-5600.0,-2660.0,-700.0
-2.674341633423583,-3.6920668336987617,-4.1539633167971814,-2.927622605852798,-4.86280396972504,-0.8156343291686294,-4.121938007786826,6.578089717108682,-2.8138321359973997,-3.9251333470475487,-3.089824680265063,-2.8128947851667263,-3.022736595503602,-3.3221033308668293,-2.7943214277843342,-2.7284652942895513,60.024002,-685.640015,-727.119995,-6160.0,-2660.0,-980.0
-1.4151573754319582,-1.3349432937384211,-1.668938741658817,-0.5579058992151209,-1.889832537261337,0.8871170932576429,-1.70806040122424,5.69957586117917,-1.654936408181694,-2.678966975823632,-2.4137615379125785,-1.426001035299178,-2.8242013717474226,-3.4610863711252744,-2.1034083038258196,-2.3374040591506953,58.560001,-687.104004,-725.656006,-6440.0,-2940.0,-1120.0
1.0522015661287867,2.1292799304167773,2.2309857129498454,2.208609020126738,2.636351071517037,1.7506414445485636,2.1383278000278674,-0.3274862195052304,0.9828853859581432,0.9227215189682159,0.37447962890080966,1.2096480421069398,-0.0865112658783751,-0.532978852448208,0.44617271296030303,0.12151768252961011,55.632,-685.151978,-730.536011,-6580.0,-2800.0,-1120.0
2.5868226923389512,3.5876227784713066,3.970922881206894,2.7694464774363916,4.702252939826922,0.6768147561241227,4.017572195445245,-6.625121327243653,2.753229350545456,3.873543152676306,3.034726575239741,2.7887422893779457,3.1224839004509306,3.3571145518538525,2.8791456921342853,2.7650712668204465,56.608002,-685.640015,-726.632019,-6720.0,-2800.0,-1260.0
1.7881330300940421,1.7799771836615865,2.0010524474199958,0.7933870248162704,2.5702745176920185,-1.1586622885448223,2.276243683955639,-6.796102150847983,1.8789442251063022,3.31415260363824,3.011989446834958,1.7884245092738382,3.536206448236035,4.372874840431605,2.7911264392578374,2.9921598227369026,57.584,-684.664001,-729.072021,-6300.0,-2940.0,-1260.0
-0.5031487469204565,-1.3560446388709533,-1.4809082414822554,-1.5431606893236878,-1.4969768486221797,-1.6237349574963265,-1.2440134412335815,-0.5042389808467043,-0.6673021829553196,-0.23060400741964893,0.23643161982876748,-0.7417503067681519,0.523626791205853,1.1956062540366865,0.09422458602063521,0.4051732230714353,56.119999,-684.664001,-727.119995,-5880.0,-3360.0,-1400.0
-2.0156311297736647,-2.744579670541778,-2.9270429803485496,-2.0401825452171516,-3.6293930525035387,-0.2754133306758826,-3.107396103832473,5.322115807261493,-2.076217997081784,-3.0950050977946733,-2.488827804204159,-2.1680202570548293,-2.6829617062717244,-2.942219562467977,-2.4721660979384357,-2.3558387956799653,55.632,-687.104004,-726.143982,-5460.0,-3220.0,-1400.0
-1.4589358854098506,-1.4229997437094402,-1.3510999548290066,-0.7035163343740511,-2.2811801249566503,1.1376854976759239,-1.8844623360185144,4.639037096303241,-1.0433415576111642,-2.5343190043053374,-2.4971100123628736,-1.2341708308735608,-2.6865918603131362,-3.724225388005629,-2.3121548386739246,-2.4771919168363206,54.167999,-686.127991,-731.512024,-5460.0,-3220.0,-1540.0
0.2201249308495905,0.7485838409586584,0.926243663804807,0.7539685206192099,0.6118120816859829,1.0062069523188195,0.6311797993820167,-0.3783177697881488,0.7149094850103763,0.2126870484409935,-0.2288359930472481,0.59625944908497,-0.06423342435964585,-0.8099754850108614,0.010052113832649923,-0.23673703335582663,58.560001,-685.640015,-730.536011,-4760.0,-3220.0,-1400.0
1.158749081234176,1.5316290632291918,1.4259237260682456,1.090804005876039,2.1708694981115695,-0.15101198871747812,1.803683518748999,-2.8267629843527473,0.8981020195427423,1.7674804937726287,1.543220125986588,1.1470809252538396,1.6415274625807559,2.018270828722885,1.6215335978378356,1.5361913876606255,58.072002,-688.080017,-731.512024,-4200.0,-3360.0,-1400.0
0.7254585285089128,0.7116437131974549,0.33820547404801005,0.5528300909002524,1.5164171494181478,-0.6789573165169793,1.0265377615774385,-0.5884228258369273,-0.2953557992192728,0.8888509448735953,1.1879370636009075,0.22612988331600192,0.7356441073525719,1.809608167898073,0.9930747302480345,1.1050165145240864,53.68,-687.59198,-732.976013,-3500.0,-3220.0,-1400.0
-0.11615371354379711,-0.2822203126545504,-0.4160347721644375,-0.05956979805144247,-0.03479886373182062,-0.16336363511616314,-0.22780882687976467,1.499220911569159,-0.7254109380816534,-0.4523964719041028,-0.12263661977169349,-0.509025678924786,-0.6850703236485991,-0.134974148484865,-0.42101770196600086,-0.26475796214497965,58.560001,-687.104004,-733.463989,-3080.0,-3360.0,-1260.0
-0.33694572043183957,-0.4644777082070217,-0.059828792447812695,-0.4457071005355009,-0.9355702813896087,0.24433444687498174,-0.6147496845720266,-0.4576224665856028,0.3970288456300821,-0.2707569839027033,-0.45791644768929274,-0.06686776592039223,-0.1966803185623789,-0.7197361841674592,-0.5443700868323269,-0.47701552839934575,57.584,-689.544006,-730.536011,-2380.0,-3360.0,-1260.0
-0.0344213106054605,-0.1690169180001646,0.3521094201960855,-0.6183251291315637,-0.8077342677686392,-0.18043209784858316,-0.26468966324981325,-3.3472839601119375,1.324983170033902,0.724080750407355,0.23378370396590853,0.622490184743441,1.2986452647155105,0.46194625558579716,0.451863566333671,0.4330480690925006,56.119999,-687.104004,-731.023987,-1820.0,-3360.0,-980.0
0.08078370312858407,-0.04631933353371753,-0.06663396076282924,-0.388053545853392,-0.1729726645890448,-0.5838888318175162,0.010996536411239433,-1.8150628075616417,0.4068027501655669,0.5553406485618153,0.4482071430309098,0.30180467121092924,1.0523802734843812,0.951143301006308,0.7021670722842792,0.6601199478235878,60.024002,-687.59198,-731.023987,-1260.0,-3360.0,-1260.0
-0.18843854955790196,-0.1093041774824628,-0.684229411586748,0.27962577302275404,0.34063353720616263,0.022406355972935277,-0.05151238350340148,3.3028738159406235,-1.3729760382477387,-0.9006292484215319,-0.4392599345852126,-0.7027212659262805,-1.221216306620013,-0.587394582514003,-0.4545794484307528,-0.501233815571422,58.560001,-684.664001,-729.072021,-840.0,-3360.0,-1120.0
-0.3900269708743247,-0.06486735139431055,-0.5102724733247577,0.7483276584193885,0.35257057815711157,1.009793059869621,-0.1531217064052277,5.451971983534129,-1.666630830432556,-1.6877207820567453,-1.2423395430732729,-0.9926939059744573,-2.6094598634968893,-2.203789493162448,-1.4703321633115412,-1.5329107097345396,57.096001,-683.687988,-732.488037,-420.0,-3360.0,-980.0
-0.16481109764837676,0.07478542246376896,0.26913617940299783,0.3508907863240407,-0.07161681888945992,0.8815927929654537,-0.0729454429182057,1.2335263151675697,0.02138310127906351,-0.5335196951315095,-0.6704447186325027,-0.08732059476852427,-0.9556718650102685,-1.3639365112023345,-0.7667317187876641,-0.8164930493642432,58.560001,-683.200012,-729.559998,0.0,-3500.0,-980.0
0.3316748158218843,0.17609771088003712,0.733674443276934,-0.4970928191605699,-0.3069363050820346,-0.47887363695259744,0.1876220918456586,-4.842286990825743,1.7189670551181866,1.4334916421593393,0.8849608635919779,0.9949974990219381,2.0958366448478465,1.4395326449298587,1.0729537243304623,1.0957425412810986,58.560001,-680.76001,-728.096008,560.0,-3360.0,-700.0
0.6753516131276616,0.3050158020994169,0.5858232089478133,-0.6417087925425067,0.19074931095477154,-1.4330856011318565,0.5370079940019032,-6.005666268742784,1.5837499030644766,2.124085108897109,1.790823221844155,1.1130637234903231,3.0884584670539557,3.112615397894519,1.990595256908839,2.096162487147633,59.048,-683.200012,-730.048035,560.0,-3220.0,-420.0
0.5006202806605549,0.36437871848054426,0.15597672599389112,0.12782352139255826,0.8498019912200725,-0.7604747851119562,0.6046688194724645,-1.1808827147453265,-0.04852915646322309,0.811623212595199,1.0031930287834374,0.21412431967354095,0.8998001056957392,1.6507078969327988,0.8840418712851061,1.001066996848722,57.584,-683.200012,-732.488037,1120.0,-3220.0,-420.0
-0.2875555345128813,-0.11133694699004315,-0.48695210417165224,0.5935688001383101,0.3480692713833786,0.6958944017426956,-0.1416496570473773,4.6603650707089095,-1.5342339016493423,-1.3956303378317887,-0.9164753179580298,-0.9346541005845594,-2.22856196571397,-1.6402125790012345,-1.2590050700331652,-1.2209294026345172,60.512001,-682.223999,-732.488037,1400.0,-3220.0,-280.0
-1.1909228021628033,-1.0688716740384425,-1.283937980604144,-0.09041654009453426,-1.3226598024168963,1.2129057263619383,-1.397243520448946,6.386234362267935,-1.7966674139426733,-2.687077656858579,-2.3088467777263455,-1.5085141712118872,-3.361518377244108,-3.6175180375129363,-2.440439977135723,-2.5115172545498243,60.024002,-683.200012,-728.096008,1960.0,-3080.0,-140.0
-1.1497791151099879,-1.2588294089029985,-1.271184681592358,-0.8741289135944266,-1.9798970307304424,0.42507114908705157,-1.574671566966714,2.8148764062510576,-0.7449185751181009,-1.7531758606403542,-1.7089773576288723,-0.9090982959612539,-1.5485448862965914,-2.3120400466459774,-1.4316356258040344,-1.5638480178163325,60.024002,-681.736023,-728.096008,2380.0,-2940.0,280.0
0.3674825462772935,0.36828349313064357,0.5350843305648318,-0.2085596222240489,0.1490408229940794,-0.48771287200083435,0.43092619081632955,-3.5869924357173186,1.1698297177307984,1.2193396235009246,0.8275743878979789,0.8601686627032494,1.8186915379959512,1.4009507440115545,1.1974125900735473,1.0923711691914668,58.560001,-681.247986,-724.679993,2380.0,-3080.0,0.0
2.1313717361930635,2.5137584012595235,2.8950684653125913,1.3482311848649613,3.1985480116293914,-0.6031208275985724,2.963947286238718,-8.224657273611637,2.758857772612516,3.9265997145796856,3.201627923312847,2.5170703538877524,4.1095517485699915,4.353459714883769,3.245079078059656,3.242252979347676,56.608002,-681.247986,-726.143982,2520.0,-3080.0,140.0
1.907941010574521,2.249627184900616,2.6647781044675476,1.4231365205356101,3.0065101525669498,-0.2634421824746682,2.6478127624946852,-6.362168596766524,2.205212255588349,3.237807400251431,2.7064825447003305,2.027319403099961,3.025416064340691,3.4685010884742464,2.4337554892402444,2.5466175833665785,59.048,-682.712036,-723.703979,2520.0,-3220.0,280.0
-0.7814592184151534,-1.1441729326338135,-1.1747797882005915,-0.7662559229127788,-1.3742884034174336,-0.10480477282662326,-1.26174094488994,2.535978383643595,-1.0108073372010686,-1.327616211712289,-0.9731441789485924,-1.0216026904181277,-1.3526557493699354,-1.2065128448836493,-1.199744469494048,-1.040389624729592,58.072002,-681.736023,-729.559998,2520.0,-3360.0,280.0
-3.2764277329005393,-4.193819076102935,-4.892195677572023,-2.681238158871646,-5.2278867734430055,-0.007250269614896165,-4.765354124869053,11.38405536970376,-4.277675010552343,-5.664952056629225,-4.423422439119135,-3.893741955209908,-5.4669211997429255,-5.525579653324043,-4.416379149157537,-4.323779984001959,56.608002,-684.664001,-726.143982,2520.0,-3500.0,420.0
-2.4137184121328916,-2.8456034527418965,-3.647283150333242,-1.4928819922420753,-3.3580149552250473,0.3726863239528444,-3.2669937050452758,10.228821297854555,-3.7162655776434956,-4.603268006487668,-3.5626772509388474,-3.061847966972005,-4.768217637549688,-4.665387045065537,-3.496118090701577,-3.5408341915424666,59.048,-684.176025,-726.632019,2380.0,-3500.0,560.0
1.395878439060792,2.1214122288349606,2.1270041476205312,1.84518702322231,2.891762164421337,0.6521091050575465,2.3500905182440768,-2.2877241888767372,1.1025542884438506,1.7881339903186333,1.4117416184547729,1.3825689616821721,1.1633393726232146,1.3684165384275548,1.3848063329394407,1.2346452809095614,54.656002,-683.200012,-722.728027,2520.0,-3500.0,560.0
4.032237091735573,5.233246710835537,6.20979851423044,3.334042997629632,6.394108828346015,0.19461639128429864,5.899744125719571,-14.39309940701972,5.5233655513257505,7.03304841080875,5.367059971837593,4.9368698167990255,6.777505578679729,6.604394247812857,5.403051776209963,5.256202060645702,57.096001,-685.151978,-722.23999,2240.0,-3920.0,560.0
2.3678259010191445,2.7228786566336667,3.733275023434122,0.9957158130006518,2.8108549851908187,-0.669374221434917,3.101066099426082,-12.551715893360624,4.528377241189758,5.117275863641115,3.754985695169413,3.501560006479001,5.830737197910966,5.153151831930611,4.013284415757637,3.973629569439247,58.560001,-687.104004,-722.728027,1960.0,-3920.0,560.0
-1.8270369521651344,-2.6919732090169237,-2.7021333832973364,-2.4382248977328764,-3.8082891810253994,-0.8243403350639644,-3.009756229407481,2.476115132654856,-1.220042670105748,-2.2171680285028654,-1.8606140416592192,-1.6229848006553311,-1.2600873826728005,-1.7849832626784758,-1.6240426431234898,-1.5246170910857524,59.048,-686.616028,-723.216003,1680.0,-3920.0,700.0
-3.8917937600887287,-4.9846681096231915,-5.99604267864544,-2.96552602087975,-5.918952016714291,0.03587042414727293,-5.615417424204516,15.039612628837144,-5.70316685457559,-7.079787434589399,-5.350240081576327,-4.968814440148771,-7.141014385417536,-6.760903944438285,-5.54140953692778,-5.363361854553846,55.632,-685.151978,-727.608032,1540.0,-3920.0,700.0
-1.806416605903383,-2.0120006059207713,-2.97804357998522,-0.31546486917357575,-1.6574499902874962,0.8044974553254893,-2.253488585905219,11.978165540606497,-4.321002676299425,-4.4913669003501155,-3.1272481479042327,-3.1578443545152854,-5.610408894718981,-4.520514448928664,-3.666264442466277,-3.535978286975714,57.096001,-684.664001,-728.583984,1540.0,-3920.0,840.0
1.698934846737413,2.3751497756164124,2.346581788547181,2.0804706666771877,3.4697224705557037,0.45424397867642563,2.7230822849944465,-2.5275704113254562,1.0305897179929238,2.1337001780665314,1.8869000749587581,1.4373787647030714,1.3356052887290701,2.018087726138903,1.6224776186245666,1.592979456015018,58.560001,-684.664001,-724.679993,1400.0,-3500.0,700.0
2.814202180541792,3.495812052899141,4.271040686969656,1.7258155464631,3.954608606930016,-0.47363396507179356,3.969048232299582,-12.580174279373312,4.5747583006555335,5.555652808374439,4.151960488151898,3.872428819993691,6.071754202284774,5.556348488220685,4.547015766237917,4.367187484190056,53.68,-683.687988,-724.192017,1400.0,-3360.0,840.0
1.049603975173869,1.156864593825498,1.91558311638145,-0.15793913806265936,0.5795838204223251,-0.6305827918129356,1.2521278707143948,-9.05029428614805,3.297453416850991,3.1033850141824413,1.98792790004536,2.289288683321418,4.2002401106281635,3.005945482249402,2.6035210903794255,2.431111934070701,56.119999,-682.223999,-724.192017,1540.0,-3080.0,980.0
-0.997139030964858,-1.2598416760419417,-1.0991142541578327,-0.9891499583921846,-1.9519877444337421,0.18131579402668097,-1.5218674592607386,1.7602986960412466,-0.46748133113425894,-1.3715918127607885,-1.3330538026894239,-0.7885762078739482,-1.138942219175414,-1.7424186051457058,-1.2537809469126842,-1.247549471744696,56.608002,-681.247986,-723.703979,1680.0,-2660.0,1120.0
-1.3297382728658729,-1.547946329456626,-1.9235275785221695,-0.36165598141431676,-1.4971846576145316,0.7253416736525788,-1.7774466903879327,7.837488589434972,-2.683846975460229,-3.125798401886282,-2.285796491635571,-2.165651041485642,-3.9584054501342916,-3.4062680424147347,-2.825511784914122,-2.6452277212102793,57.096001,-682.712036,-723.216003,1400.0,-2520.0,1260.0
-0.4943143903344458,-0.6135047719078566,-1.1337003411221578,0.12826419676505996,-0.09325682503443211,0.1473373005018539,-0.5914299150733582,5.23248392651951,-2.0683996390060297,-1.6740186650253033,-0.9183486745860847,-1.3634501100142415,-2.3485266703420056,-1.3535837236732728,-1.3647652996883792,-1.204682751299859,53.192001,-681.247986,-726.143982,1820.0,-2240.0,1400.0
0.07472104864262796,-0.07017363822207345,-0.40913750404854143,-0.2665988743683645,0.11352920505376218,-0.7631483785800013,0.06354201886676214,-0.4354709300836106,-0.28981663090245924,0.26738051121078965,0.4409776524393454,-0.02577834745939178,0.6410437720740578,1.023259994626338,0.6466746742536102,0.6191477802870095,55.144001,-682.223999,-721.264038,1960.0,-1400.0,1400.0
0.13386061888205436,0.0592705742064652,0.07439011656368066,-0.5068166713786879,-0.2536298641480119,-0.69216774207458,0.10059555619977245,-3.092329778540627,0.8795639744123278,0.9224233012075758,0.6101026130672853,0.6449599557521823,1.7282196040893325,1.281112677534816,1.1425491147835931,0.9858392819363531,54.656002,-680.76001,-725.16803,2100.0,-700.0,1540.0
0.301372065733978,0.49292706501066474,0.8802526242477553,0.21032297203503658,0.23771615939824287,0.3345044778396735,0.44496804458801287,-2.394659402081107,1.1620474371521565,0.7849565009426984,0.3195908918166239,0.7556217980564828,0.8695555160692123,0.2432904078059117,0.4441408319294826,0.3647149948037217,55.144001,-682.223999,-725.16803,2100.0,-560.0,1540.0
0.5872863105028827,0.9388090032849921,1.456864225536676,0.991255974973241,1.0929152677589649,0.9859611183792221,0.9242028334695018,-1.053545607241782,0.9229083735688874,0.650751459195819,0.31165977739798123,0.6426929257401541,-0.06655188219930253,-0.26744831240649525,-0.11543389545843041,-0.028459718494152533,50.751999,-681.247986,-720.776001,1960.0,-140.0,1820.0
0.3714593278227962,0.513161595967888,0.7111833898551527,0.6139772127246803,0.7872438382185862,0.4339723364454784,0.5597227813825898,-0.06613252670614855,0.21077517757465714,0.2910464472110066,0.2568328047400925,0.19692445397796998,-0.2278327669099216,-0.015126093595267065,-0.11839850776667404,-0.0004760461680515145,53.192001,-680.76001,-720.776001,1540.0,0.0,1680.0
-0.3736320891495941,-0.6013560132361768,-0.9807697458252376,-0.5575796759609655,-0.5853956665935751,-0.6093083083574564,-0.5691506949715268,1.1945991626007952,-0.812754565909902,-0.5422577956032425,-0.23774143207690912,-0.5355585123374329,-0.21476874911202515,0.08236575984702377,-0.05732733360601472,-0.07606207460140349,54.167999,-679.296021,-725.656006,1260.0,-140.0,1680.0
-0.8035809549550352,-1.1400762607612624,-1.7909373476754367,-1.0599083016762023,-1.3017613563215846,-0.9120233406069067,-1.1568448228689836,2.1813174344458517,-1.3357316605767853,-1.1125245784245126,-0.6776844876919821,-0.9215181434711468,-0.43663200881295694,-0.22909283778251677,-0.19415829622376712,-0.3194189644799362,55.144001,-682.223999,-721.264038,1120.0,-560.0,1540.0
-0.3487727474887645,-0.4534202880305136,-0.7159532973658882,-0.3560509272602759,-0.49638945625302533,-0.24879395640137458,-0.4715917370774758,1.250876571598317,-0.6263035800478658,-0.5709348339064418,-0.37899115417496176,-0.43242337572663736,-0.3955668229873517,-0.30387455420508047,-0.22293842385519191,-0.2702153959087282,55.144001,-681.247986,-722.23999,280.0,-420.0,1260.0
0.48933874938642763,0.6570343151418265,1.1135856279880363,0.5962643574559636,0.746453598503031,0.5319802353393466,0.672841013106604,-1.4891814938917953,0.8567163889008294,0.7039587911620224,0.4336625977398665,0.5586043435299999,0.2736798637260929,0.16212766535615053,0.07845487462510903,0.19453117927955735,55.144001,-683.687988,-723.703979,-280.0,-980.0,980.0
0.7899071837620415,1.0231000119138596,1.7936039228659162,0.7679403557572093,1.0264034439510006,0.6756925014337867,1.0426573698016826,-3.308276283411331,1.6654958785884224,1.3676331373075337,0.8297429759962185,1.0729269667925072,0.926300261332397,0.5679308224117037,0.4094089340442224,0.5537467761632605,55.144001,-683.200012,-723.703979,-700.0,-1540.0,700.0
0.26709387282815555,0.3906385747626716,0.6998720392467312,0.20324809090734552,0.2621889681092,0.2484108286881641,0.3723679037130714,-1.72928376255736,0.8319689892077085,0.6047018551729726,0.29188652160674167,0.53884152219696,0.5909392860478349,0.22736077305889602,0.2930627525057723,0.27737280438955,56.119999,-682.223999,-723.703979,-1120.0,-1960.0,280.0
-0.5693469682228987,-0.6083340601123266,-1.126836907942602,-0.4330841052702086,-0.6855461167998698,-0.24915987183480137,-0.6606237038756944,2.3088886928873027,-1.0382524745229649,-0.9884812326442599,-0.7234210770756366,-0.6440762138876508,-0.7000497377926322,-0.683591667012502,-0.31692252905933493,-0.49797750297044646,57.096001,-681.247986,-727.608032,-1260.0,-2660.0,-140.0
-0.9735550432114648,-1.1714929847592392,-2.0798100925150482,-0.7082789381194567,-1.0934332383732883,-0.5062591547342592,-1.2133436648296319,4.823433463634789,-2.1933690092399356,-1.9010453520696617,-1.2176817816843162,-1.4155677215544262,-1.6462864984306105,-1.1702613008562412,-0.8400025199021233,-0.9917568234772641,56.119999,-682.223999,-723.216003,-1820.0,-2940.0,-280.0
-0.48630891038337687,-0.7486357081269122,-1.1801975615389746,-0.4745675210415854,-0.5988413864259066,-0.4675036858508195,-0.7213363384324403,2.577343103613865,-1.2995222637577815,-0.9875761670044552,-0.4961216559475172,-0.8951465956610285,-0.9313083652936722,-0.37322405792929025,-0.5316576599198015,-0.4686441113780418,55.632,-682.223999,-725.16803,-1960.0,-3500.0,-700.0
0.6891329897106129,0.5990386920938509,1.1338489175667057,0.2722397202902962,0.7404336439400208,-0.13130572337575686,0.7276933591644792,-3.205957369585951,1.1586466328739284,1.3295610181005941,1.0898810807227246,0.7404163710739846,1.17796009356306,1.3441216465491959,0.6392256477929426,0.8924795200223193,57.096001,-682.223999,-724.679993,-1820.0,-3500.0,-980.0
1.5332984385057467,1.7964534989031558,2.8917707572442506,1.048334434986287,1.9024847686519912,0.3840132881993754,1.958100304366191,-7.019138913047834,2.9422006022746494,2.919566745750986,2.049010011221039,2.0473445179486154,2.6299768231325658,2.251881074373232,1.568311375142466,1.7788855862752009,59.048,-684.176025,-727.119995,-1680.0,-3640.0,-1260.0
0.9174308226278676,1.362148724939266,1.9984045892640836,0.9214985646921643,1.3030637039869148,0.7011621076415047,1.379856863896822,-4.083674864624695,1.989568133597599,1.6990312666279752,0.9663798578632612,1.4590583328627806,1.4949782930326005,0.8115012250458946,0.9493835236275796,0.879388353970459,58.560001,-683.687988,-725.16803,-1400.0,-3640.0,-1540.0
-0.9600154433194668,-0.7823747241905632,-1.2946996917710014,-0.3601836219016241,-1.1420338173117734,0.44505462664095363,-1.0157184897242446,3.8847423561071412,-1.225847247311421,-1.7652814605674245,-1.6096217132825963,-0.8604250340861235,-1.6124423846627565,-2.1455771053758035,-1.0172464286513545,-1.3636254849849656,55.144001,-685.640015,-725.656006,-1400.0,-3640.0,-1820.0
-2.208095862400018,-2.535406609568663,-3.78679225037864,-1.5655637655526666,-2.9672378767730336,-0.2786583310947437,-2.844797310899545,8.956173381406057,-3.5974585232669067,-3.9912356263932685,-3.016629388968732,-2.64950297567173,-3.543781918701214,-3.4765173380468433,-2.309509983514861,-2.6217577903050633,56.119999,-684.664001,-723.216003,-1400.0,-3920.0,-1960.0
-1.1735223359020495,-1.7202273284833303,-2.489893542245148,-1.1840616430268334,-1.680267111113042,-0.8519320869396836,-1.749075066859637,5.028897671824247,-2.4510216779655742,-2.140317971573098,-1.2566349452156516,-1.8093083592396617,-1.8804829145786748,-1.091240874955954,-1.2170287422104966,-1.135512578204717,57.584,-683.687988,-724.192017,-1260.0,-3920.0,-2100.0
1.287668274766454,1.0405673038297776,1.5465894860251472,0.5407574719260633,1.7133972176305807,-0.7193545160307648,1.4081300646886892,-4.480294277742701,1.2416995893489151,2.215303696825332,2.1612687177584373,0.9745586744261248,1.9335318588603734,2.9313650822585764,1.3403812922733476,1.8175677655632825,56.608002,-683.687988,-723.216003,-1260.0,-4060.0,-2240.0
2.4352112398035457,2.695261886274584,3.9424864193280005,1.6646841735506848,3.354261410242959,0.04820472795369479,3.105919155402587,-9.39966800547232,3.5931081764908708,4.310984937958957,3.418675627374837,2.716255834296436,3.7787721521095996,4.063783468548259,2.5389476077950333,2.954859062923773,56.119999,-685.640015,-723.703979,-1400.0,-4340.0,-2100.0
0.9304527472191273,1.4355188181575054,2.1201127822911694,0.9568150410788561,1.2986506901006116,0.8071752924315732,1.4277294548948418,-4.377846262851779,2.176480748197556,1.7713567203531693,0.9424034997089734,1.5821379390435109,1.5990311731611708,0.7389275774475834,0.9988248471222345,0.8837014786531724,55.632,-685.151978,-724.192017,-1400.0,-4200.0,-1820.0
-1.3962470452346674,-1.0577615800277638,-1.5389355872775603,-0.5567640272466896,-1.8741620392482705,0.9151696356046428,-1.4832796275882172,4.551110525521647,-1.1491064904975463,-2.348498770866712,-2.403987750455112,-0.9298015259394976,-2.031099977151978,-3.3198855038574377,-1.442178557374195,-2.003460155599692,59.535999,-683.687988,-726.143982,-1960.0,-4480.0,-1680.0
-1.8553377042769656,-1.8979655366281962,-2.8296773955669714,-1.0904406258699284,-2.4506480640680106,0.2587356613145295,-2.2514290747120067,7.28821169267664,-2.627913313124097,-3.3375046453655597,-2.7695034957713176,-1.9618382004470458,-3.0081435126985614,-3.455146270346879,-2.0017543002311857,-2.402905626553575,59.048,-685.640015,-726.143982,-1960.0,-4340.0,-1400.0
-0.29741500995903625,-0.6660890634052106,-1.0070265012042738,-0.4523943451669896,-0.38247398305355773,-0.6629973571798642,-0.5675985214046504,1.9455780494880806,-1.1810500017438805,-0.6675146426168747,-0.12803824397040842,-0.8212523189584076,-0.6720036879940832,0.1527937981831542,-0.37376440577871506,-0.1841059177101635,55.632,-686.616028,-727.608032,-2100.0,-4200.0,-980.0
0.9998993433469456,0.5474294080283703,0.8963752747596656,0.09596288426834576,1.1740004534866397,-1.0991828863338329,0.9175085498345383,-3.7580958449169817,0.7592078572032461,1.821604678284076,1.9643473401619396,0.5817047297921247,1.735647582736327,2.909037601918751,1.178050991627451,1.6909366831803836,55.632,-686.616028,-725.16803,-1820.0,-3360.0,-560.0
0.6270571648229284,0.4160049093980994,0.733758839586093,-0.012655467533198461,0.595469922030972,-0.6186243267874412,0.6010185648545139,-3.2982914858506582,0.9190347442889664,1.3574614456452638,1.235331994534297,0.6416669672462616,1.4958314352962798,1.8375122527658423,0.9474665059387952,1.1733443120469784,57.096001,-689.05603,-725.656006,-1960.0,-2940.0,-140.0
-0.2649942354337558,-0.026971926991909756,-0.09026567777164862,0.04381587436180556,-0.29709333664419013,0.4659197536916535,-0.16238883142888505,0.7157689106064531,0.014147256778649364,-0.4286457692609833,-0.6064758383771114,0.01251053926973178,-0.361389768592586,-0.9471395363891766,-0.24681683822108447,-0.4744845558243331,55.632,-690.52002,-727.119995,-1120.0,-1820.0,280.0
