2.3091572629429464,4.360663894930983,4.504429590610375,2.521488524308129,4.301472286966403,4.492520822627953,4.830958062483749,5.57637978521813,4.675593896264973,5.083091257865168,3.839771074405684,4.726308074162963,4.953298404217438,3.9124208769978823,4.131464680688126,3.9205903097216064
43481.98065029852,42132.72401744792,51533.61345100896,32875.04685343428,23780.61693989643,21913.07316077789,44578.91606681475,13135.4621732468,38202.61236354522,31591.58960916045,34567.417511731524,24268.27233832869,41007.04498620622,145.43566714865892,10539.871912554829,17121.555500884184
34412.48994889844,33379.538254154235,40826.08998740351,26041.373025419947,18856.082736342378,17332.484208812257,35314.420702715935,10422.98024696256,30252.56158288985,25011.781387245264,27376.24318568997,19231.68765547278,32468.03257761556,126.45745112511628,8358.570674035049,13571.4310352867
12698.795734467869,12247.21943837202,14980.668823854196,9561.4486627855,6886.207391361755,6420.631475608345,12963.629903253488,3784.0114038589263,11125.660947536488,9209.076726898693,10064.083585979086,7046.371614971117,11951.280426375994,23.425718961380777,3050.1143037522297,4965.552713176568
38801.46868007616,37580.76391492615,45977.36644648794,29322.67283670864,21205.334943346003,19559.981551059544,39763.57090618135,11704.419213944942,34087.59265482535,28190.546230020023,30834.20561323226,21643.706160280377,36591.05186443404,132.5260238727773,9395.507233605344,15267.338849459207
17772.501872016655,17280.696949601475,21156.293559775186,13475.70611492708,9783.790316198234,8928.854295729287,18277.080384634788,5427.856755550734,15659.259802998404,12939.65267414053,14155.76140874798,9960.5726495525,16796.964014884725,93.7183413200165,4333.945257517235,7032.208541865263
16729.601623532937,16127.56345126985,19724.113360616466,12590.005229625094,9064.493011698967,8468.800445466419,17072.059608516596,4966.949558232546,14650.857768631196,12127.4879090883,13254.8698331248,9278.972970332754,15739.432620453725,27.419236909609552,4015.21256604427,6537.539725122933
23147.71557277441,22410.98545518144,27443.366912870857,17482.277239777886,12645.372658528217,11671.025867196213,23712.07836481146,6970.03436728261,20345.06572296089,16825.209660133296,18382.811570797137,12905.116359071477,21837.248937615328,94.85526617674614,5597.100163572628,9100.34509201504
3682.1029752530217,3631.672236654921,4479.511855403082,2823.431760743161,2084.3157883232634,1820.2653279997733,3834.047795135195,1180.622951590097,3292.371453045618,2711.7383037392706,2951.782904459551,2098.1369027895557,3519.3023198374585,60.236865420975626,917.8815227963536,1484.8127569295068
10333.23076794094,9936.376881001215,12156.688436656092,7756.296972333611,5574.07844075323,5246.946812908223,10520.72044873802,3032.387515972071,9037.391992870853,7483.6456455781345,8171.502972165862,5714.207388368267,9712.108191643809,12.95024374121212,2467.121891059006,4022.278121147529
5878.752628719214,5679.151045062022,6994.3450688267785,4423.3455616199935,3204.594573990897,2967.791368100633,6007.930907078911,1749.8480638551712,5182.538253227151,4285.323492815092,4650.205617590289,3267.464028887596,5559.24695395725,49.60385811005576,1409.3484593651965,2299.6505271646697
1620.2541302281393,1528.3216076860926,1826.9450533449412,1201.5064794319055,837.656558936087,844.329820598631,1623.7579142089166,441.2551435692623,1375.7469902508676,1145.423113288275,1276.733793957389,877.2265437462655,1488.789507555373,38.27477885779401,378.74099658458,616.7909712418908
583.9233552855897,615.9817700224152,743.8386262950562,481.2978676298434,368.8032280927426,264.6311914178103,646.876367797657,244.2055719795189,536.2432010904082,437.6552370748798,495.3748809440325,360.4641291131595,569.2050667009705,9.764683704365824,167.58803176684842,261.46290592529914
4461.321544768776,4345.657054051841,5266.303526580272,3399.084661585958,2455.928301978114,2239.204865348279,4598.227222881977,1382.5643907748508,3904.8407936936583,3228.9146028626087,3573.4181244346933,2507.2487686403533,4194.635914111461,14.01168556072352,1099.8116527444286,1775.2610581015613
476.8865875998193,467.6933762949859,607.177760491357,359.5256011990394,271.2067763694206,230.9185936985867,491.9125783400959,154.26369406363162,442.2786376118816,363.4469910387207,372.87214219694914,268.3707649598512,469.0931682233549,27.981751524639712,113.3931193709796,188.03644444134167
8003.563408349007,7779.173361167108,9505.4861252549,6072.31215624258,4399.665479556178,4016.7899100755953,8228.221109927012,2457.647345487427,7040.310810910796,5819.88034861269,6379.481700989958,4483.1773931200805,7554.771686684406,26.10644907427216,1953.3768169443224,3167.137397774381
5870.767042973475,5721.897654240643,6963.983419283456,4470.021112111653,3239.6748368948047,2941.8772637010675,6052.505691393199,1819.5307521943716,5157.3164954574495,4262.50953783288,4695.523916890305,3300.478000484123,5535.643413799458,4.773051219278189,1444.227135326032,2335.0360350064725
3899.568641381535,3754.684149100003,4615.587685110322,2927.519869495782,2110.9674381915825,1974.926400949138,3973.086500525139,1153.3612056229883,3425.723587620757,2835.071485255713,3080.9989091723314,2158.978803060053,3677.60756933578,21.243041285213884,930.69605591881,1519.168827338688
8175.98108343467,7930.510527692799,9698.654902047714,6189.19585962088,4479.041964353923,4113.660383084385,8389.3765617797,2487.041993211469,7187.228552894676,5942.85035672938,6505.304690134763,4568.455325574895,7713.812779064842,28.00825567950688,1986.2607083153464,3224.577603976972
2519.374265730077,2479.289237038685,3018.7982928260944,1936.0246651465604,1415.0351425524505,1246.9996246857288,2620.2337026023392,810.2877856753909,2227.3717528966235,1837.900959974748,2027.6827363582715,1432.2883887779683,2387.073179923161,10.66092958583679,630.856826671485,1016.0582955446384
3881.624843099287,3727.3235673654335,4571.970864728058,2907.433066099159,2089.291701163973,1976.9309614368944,3945.54730275776,1131.717512174126,3398.303702335489,2813.855747200683,3063.905627008064,2143.065964087962,3651.070469836977,11.052691172153745,923.080629192133,1507.0444776634945
3388.703928414365,3284.4381874223754,4026.587288749891,2561.466846237096,1855.202959093604,1706.7450165385037,3473.9805695638265,1025.0321351000714,2982.739929478328,2466.038495772357,2691.9077963645323,1891.427206618532,3200.2814933692907,18.18519418930593,820.5533485573785,1333.8739605101352
192.7424136129663,157.7271942490864,188.9642602784752,124.08635416048708,74.46556381464677,119.00788368895448,169.59267355103634,21.18128443482631,150.72011883727734,128.23508679110932,138.65488404395148,88.66250930889125,166.73561199153855,11.697376903526996,33.680977226203595,59.17056717885353
390.7880060692247,352.4578036420038,437.4664545223736,273.8712990637365,187.0243600966224,218.14962658440737,374.4694843341508,81.0130236822093,331.72837471710864,276.8757629133871,294.5597296593781,200.83056006150213,359.1332775638212,2.415640775536985,81.54458327923773,137.69266245854763
1378.9966978510422,1341.751606062492,1625.160097695577,1049.7695154930675,757.3444387243136,692.5952563952407,1419.9951667941862,427.82248786471,1206.2378780547044,997.6828233974484,1104.2371488855165,774.132083598543,1296.3058990076258,5.58122985524704,339.3480521976788,548.1122124970783
67.0792473957093,56.35252723292015,55.324036063343314,45.51792779390959,24.85049078505495,47.61352050259829,60.59770641580421,7.530744059029946,46.57699395589516,39.74005877454192,52.88534373961311,33.25617576521263,53.335909762780325,12.5931254512852,14.527751799671972,22.977366576460614
3251.4336893793925,3162.89321022181,3867.0773805936497,2469.258636439819,1791.1475755047695,1624.1637093843838,3345.701658075439,1004.7762012804128,2863.152473706561,2366.829171879701,2592.143097453755,1822.1370826990317,3071.7625276956664,13.376369515420926,794.0060591678744,1287.6760567631795
2984.3500612452085,2905.972738279435,3538.45179599285,2269.885614767432,1643.709501384699,1498.8009036649398,3073.6863959307493,923.4593212351426,2621.706737645815,2166.945250396705,2385.4615939210257,1676.3121011953276,2814.519786758307,2.4842620918506717,732.744893175677,1185.5033514465524
1425.1624533470722,1368.7519008348213,1690.3358509390227,1066.9625927783395,770.3163733739958,715.5896209172539,1449.1074996063655,418.3633447206853,1254.037634593885,1038.455847668334,1121.1691717281144,785.1209120468636,1345.5191873742815,12.784578364410164,336.7734126001929,551.7861531749986
4170.074170844036,4042.881891697976,4948.027900023397,3155.1128755220952,2283.4035893380587,2095.6109255031097,4277.07568663923,1267.7017344024198,3666.96360365934,3032.401130937346,3315.5813210683427,2328.0764915791297,3935.5627925255376,16.667396369797956,1011.202118525797,1642.8369229384236
1851.2912043615588,1815.0568470130877,2209.0910225725647,1417.0831882959967,1031.7245546058928,925.7198179436951,1918.2938766961424,586.6793874125766,1632.7806277983298,1347.7665711298498,1487.1067882744026,1048.8217323605393,1751.21930037048,4.636597602508823,460.82566368779374,743.0902353404596
1860.047306835012,1779.0404111877865,2190.7797480804884,1387.5024603444583,996.2450969041492,943.6059597042836,1884.0757910375448,535.3214757271517,1629.115681538229,1349.984594160325,1461.2080356054694,1020.5760658843384,1750.1801225186446,9.852395790538075,437.0262776348762,716.4510879095512
2306.962847262313,2233.054942307049,2738.585106151812,1741.6080500802548,1260.0991929181428,1163.158087955088,2362.0892539116453,694.8327493527172,2029.600534754372,1678.3926415263186,1830.679971601431,1285.5120646602718,2178.1001640509667,12.288589421943078,556.9145563449151,906.101018109055
307.8128280753319,318.81202430232486,385.53812600157,248.1978269931168,188.0462451145087,148.07706584280265,335.0333183021282,116.85040460709774,279.5409484057989,228.3793563255276,257.7250810698786,186.72301380526375,297.48512127913403,3.911400631043191,85.61979928959407,134.3751221958199
499.9350645883183,462.06976989615976,576.804823817924,359.90064522167813,252.4509835470516,261.51781173637056,490.36422426466766,123.73609774467208,433.0902472170727,360.6861696321161,381.3939794374003,262.705601259846,466.9461037295088,3.6369196547645424,108.1876167021502,181.72409570384588
250.7109669148714,248.16231305189223,293.4743530448169,195.30565964117488,141.38314693552329,122.08578215626822,263.12922518749644,84.45864560608841,218.00745617165504,180.2407092183851,205.05288047292413,143.76415311545108,234.68626406951805,4.761559407142905,64.618194623585,102.91160173130795
53.79423818117039,41.21402503352692,48.82557941224445,33.25041856753512,18.40042005223983,30.950566426878,45.01967158972892,4.52052707420592,40.85064829343971,35.491538894997355,36.77514409917925,22.14440309474548,46.37324443741477,3.4494744327406246,7.186318505329705,14.193190132975596
1406.248955673993,1377.162871837589,1676.912947253638,1075.161503783059,782.9510535517037,700.6664250671669,1456.42690942792,443.9194772891472,1239.4360125618994,1023.4136882314872,1128.4942011810544,795.3478992943782,1328.7902578851065,3.0217931638344098,349.53825193234024,563.7886982301311
1554.7482227321564,1516.3596855373771,1843.7435586967451,1184.738742820679,859.1665618764423,777.0791821871313,1604.5460978317617,483.80187343182007,1366.3321428144973,1129.2341262097216,1244.390232626614,874.8050311199296,1467.2150148682144,1.0550495339529895,382.6320990796434,618.9978145406907
532.2688365094609,513.0581385179962,633.9370585535685,399.2922668505706,289.02952574290737,269.639682327734,542.6320331516196,157.53250824624124,468.6259168734528,387.5389820714903,420.450832808288,295.21882282153786,501.3822651490088,3.808998199294352,128.03741894048613,208.20692597676356
2236.6632619745264,2173.859635960342,2656.046628369492,1696.2967962491557,1229.7432270974962,1122.7573085481804,2300.015584720789,684.9691818879019,1967.3486747944323,1626.170222176828,1782.8865620394402,1253.156698972124,2110.8288890898293,6.847746210003772,546.1601442931129,885.474059904778
1290.1247351751492,1264.9329810840134,1537.1155429402586,987.8070744364404,719.7953577938306,641.9794674005441,1338.0911262486495,407.51181054886536,1137.6404729030094,939.262041649475,1036.1579942787655,730.6064818774544,1221.395951925406,3.4012401513693264,320.18278997137566,517.3310016167726
896.7262034686357,855.9311924411754,1056.582268093436,666.8531655802357,478.16396331799336,458.2906441199348,906.1741656742593,256.7891803423365,784.8597142608107,650.2823367814741,703.8603406486934,491.4814431549062,841.7945442829334,3.6371357004331744,211.19959579507352,345.4546595255058
1543.224613341063,1496.7054738517036,1832.5251489375648,1167.092351693937,845.8956528135077,776.1807423374306,1583.9190518991438,468.047702479184,1358.305547453298,1122.8721587767898,1227.2137050888591,862.4493686420346,1457.6526278808385,6.929098913221542,374.445749250116,608.610431384694
450.97844159661895,452.71920951863416,546.4765450649802,353.3690100341076,262.5428076497451,217.80650074242476,478.7571263642121,153.179297078569,402.68236266156055,331.20797219077366,368.33531246447177,262.6303283209164,432.2633850464248,3.7098009785715114,116.30912701896534,186.8129060659525
389.4101195104313,361.5533394463534,452.8872627129472,280.87728553387296,197.7171608522308,205.3697890928688,383.1765230270047,100.40063244724703,338.59125243346097,281.44041615571047,298.851299836677,206.6254862976388,363.40267918750624,1.9574285248800043,86.58953183533426,143.92015743257355
172.56871044580987,164.58789924687562,207.550709174676,126.98460947728157,93.0285472400096,86.7844214222152,174.81401329903656,48.36795342671509,154.81939824182842,127.93180938593508,133.84242029248742,94.47304491455915,166.32152638821776,5.043231252559784,39.07823317076381,65.73893402135992
36.32481226921126,44.9486660710767,52.76563326018973,34.882740044265134,30.82511097134647,9.046244377194594,47.943550699201936,20.92484576952759,37.6543874015661,30.080177326148203,33.73507158341048,26.479086144338645,40.51066704738836,4.156010624540691,12.04668265338889,19.300003673670197
586.2711684961204,580.326685108042,700.8636971518363,454.2214955963316,332.6568641855709,286.4867881034361,613.7134297794156,191.1667693032441,516.9258237567349,426.5772818556219,474.5435528598787,335.2216683547125,554.5578253561729,0.5627304250958213,148.49627455222853,238.28014212753936
758.8574462049293,742.9953831431272,898.6664571143626,581.4333823166921,420.6869087022984,381.9021620920525,784.976994406437,238.95071274242548,663.9578468368408,548.5670696713917,610.7903384067864,429.3068492117415,712.0645483875157,3.644030432661389,190.12501380358376,304.75348322389976
193.6275975159578,186.38593179130103,232.63160246598417,145.02303300371523,106.87027788315166,90.7985731915002,198.4807330443232,56.99521361930115,173.04911901154784,143.4013562603397,150.89993546395473,106.07988494158435,186.0398173403744,5.447326546575769,44.22949811700596,74.17377153979942
1179.5026223154423,1149.4294552186984,1400.698860367661,898.0051395388647,651.6952795854273,587.5906402220406,1216.2301756410614,364.81854016624976,1036.574025491816,856.9224997190415,942.3458022100014,662.3088651691522,1112.0948216599322,2.378503020160214,289.66182315479307,468.5935923054497
830.3089449435886,818.0647972929652,987.460214609108,639.976222281703,465.1373316050764,416.424255008065,863.967048290024,267.01313994421173,728.5342429946072,601.2026376756206,671.7695776876479,473.6066217455496,781.0151648975672,3.703953667776891,210.73858079307945,336.80629698758986
409.2580722923399,384.6452816644114,481.9743288129073,299.14305453365733,214.7549231624391,203.9987912623009,408.9251688160294,110.5763035360666,359.88640062098176,299.0334724646529,314.916191885484,218.88125998656216,386.6648768661131,6.647266251120063,91.01949278533654,152.51606979930807
971.4599571865494,943.2394096733042,1152.7867990599166,736.3573356661861,533.6692074008643,485.3739103585568,998.3882411485145,296.9475274669585,853.6656288486985,705.9601373201867,773.6106926166867,543.2016329428856,915.5963453768068,2.634750381681032,236.8432529725682,383.996001001413
414.07910513923895,418.4144355355968,497.3808527364821,328.17128748638913,241.26404570084324,204.0174451060313,441.05652406343984,145.82111523893937,364.6413988481588,299.87619804124466,343.09591238320445,243.80135322600523,390.3442535714552,4.365431138958536,111.4366834135541,175.06345446681428
240.7893914058747,215.7899968950425,279.7182346679922,166.37603224292673,117.1063032227452,124.20707317074825,230.49672651415943,52.15519223915962,211.03438203621928,176.2128465855813,177.16492763986983,121.43896743039862,226.8138046259558,6.617825037306291,47.47550832175308,82.99866175164432
258.4690386595176,249.4369658096646,307.68405685169364,194.09069739088645,141.2594781824801,127.95908088327246,264.69164862152167,77.42636826357683,227.99782891516287,188.6118758434969,204.332581024204,143.4628668070108,244.0494323874936,1.8395906848665853,62.12996468891461,101.4002603956031
84.94374636031594,98.18725484246822,107.23163325703727,78.53164187241462,60.69524380185504,35.23552915138406,102.70350422496507,46.08952441512919,75.8541596034154,61.412500861322734,79.95130317065575,58.61373470591143,80.55426482535255,4.2794465233078505,30.320640755693077,44.18761031329244
240.85268538564344,250.25320715722475,290.1560526062352,198.28197087317724,146.0310129614508,114.63855287127102,262.7337237766929,95.20602219401816,211.33296332005287,173.60006477877707,205.1315709082822,146.0794350769414,226.5819639279952,5.2731985802924015,68.73567782590797,105.88541306859588
357.94005163716724,350.29275582213745,423.5408754267474,274.50515740849494,197.74263369572992,181.743426526204,369.3304502353065,112.97401795059652,313.2362044480448,258.8448259319295,287.866464798859,202.2301544167535,336.65351132202136,1.1235293550024372,89.06961079806365,143.06050151607894
63.01201359235941,70.72401408491912,78.05451071834989,57.27436940073363,43.6405370754844,22.585147768071067,74.46217719741128,33.68491263325947,55.39638942660351,45.46789946410839,57.54098162219783,41.20390091295428,58.78260425221243,3.047812839426943,21.124901218915028,31.137281481470097
621.9036470700523,614.8333066465748,739.5563475289443,483.1680539714397,350.4238596770916,305.2904769182657,648.7898137697384,207.52251025098784,544.9784217898894,450.31633267643616,504.5472055343921,354.8159780106371,584.5493723624683,3.524707140721495,158.53743384373095,252.79710847401577
530.7682923695005,520.4690893256986,630.2585227053105,407.5033488607426,294.4481140503928,268.5015878878792,548.8627168980858,169.55079173301115,465.782193993044,384.6770847882945,427.4440404286667,300.7591155469861,500.14465732768815,1.1043951446893414,132.71278275969885,213.0524641061778
160.84435624196186,157.37007410534088,190.06201080888397,124.60010874498111,90.1574390999078,72.50670461586664,166.98290226737356,54.345519614850446,139.68984824679904,116.19992836147654,129.0427287791384,89.52425879427267,149.19092145270838,1.378990415896373,40.22272826268471,64.25952149890296
603.6620651394504,591.7800473340047,716.4373050392335,464.691757959722,335.76552081989723,297.21180015823694,624.8057675078924,196.6489669611805,528.575904053119,437.2936658381616,485.86565763357686,340.6870918030445,566.6820296986131,2.258534209843889,151.14447008872366,242.2071441839961
354.8516850815579,352.3020085869521,423.65468317037625,276.23150689722047,200.24383395219095,179.59966295206632,370.6478614498102,119.5052136968346,312.35842995513894,257.459071706894,289.22530431915044,204.37747781253623,335.48364925989534,1.5130731644826625,91.2254860751276,145.27637325535198
117.50526609948668,108.84727889614749,136.44831761232186,85.82845957022943,60.76179831156948,53.227759559876574,116.28785531105024,32.92453066502364,100.86448883841275,84.63485849629544,89.57918007343872,60.77298730358992,107.19875717168236,0.1265005398053656,26.220201808882983,43.16130295596848
252.88887089168645,247.70316929994357,300.2233603059386,195.0584145747759,140.37241751430753,123.13166731633494,261.2602240642564,84.43487984922203,220.91340142328085,182.99991163785657,203.5585462493687,142.26224622982198,236.35303588129509,1.577147041772418,63.60438327370952,101.47486801633576
133.08702407200684,138.05094228701927,161.07394828907445,109.01886178182546,79.65141535738245,67.59394033524347,144.02362641480374,52.58595123735958,117.94444367345302,96.6006542777814,113.18856805605364,81.0258089041465,127.1562465054937,1.792087188512927,37.42667928847256,58.10315117214799
104.9425708650533,109.9076145215358,126.9886055735681,86.16221016119906,63.70080276241431,55.631556761709575,114.79427604491757,39.47193092572424,93.80757232035818,76.42562159887714,89.83021078258457,65.0935714149591,102.04067267458616,0.6260573313768251,29.42244912637548,46.167089354391
128.35939989502722,124.65310512873864,151.96990134691657,96.72573501294488,70.53255933103331,66.0315048248664,132.18009763750388,36.94354481714503,113.29365805831708,93.4469818091437,102.13445693401589,72.17416481112788,122.11408962438604,0.9478660591572,30.89079359243753,50.61732490744983
51.291521000597136,57.38605060159722,62.2766504640201,46.21913520723761,33.85712220242493,26.167901391348117,58.99825224941886,24.6574520974038,45.169613750913534,36.68941308493012,46.90521313308653,34.071940293089,49.495945641241946,1.8022991720052883,16.43102804768356,24.562674925287517
324.93887937605825,323.6438853021744,386.0330113370763,254.1094146874742,184.53719878633515,163.70370202609934,340.86284902483175,107.69809894427895,285.2820556850983,235.1684276017532,265.3868106410789,187.61344643655008,307.50576471261326,1.4817215693418346,83.31754288349669,132.9833030287863
300.69672108310664,294.01651984827095,357.08441262334946,229.65857105780324,166.75153536208066,150.5615546764059,311.0068944162923,94.40478159470412,264.3898660023283,218.3793324153797,241.32409362335585,169.85779115320798,283.76202232553874,0.0711489126294173,74.59016381660324,120.34953293382635
69.55984771027819,72.55401505802978,81.10057257964003,58.29842183566896,41.79593785947245,35.16871810136994,75.47418564608917,25.43020926530315,59.43022028614348,48.95904171064011,59.42478992663087,42.03629598359019,65.02128180146788,1.8693764453118231,19.322620710736285,29.77470297323707
358.30590818943,355.55626114559453,423.9377863197598,279.5812173906052,202.5715210316751,178.66009937271824,374.9149684097707,117.41169000845228,312.82393977987664,258.2846776019213,291.8991736766852,205.5743303098901,336.5873923887532,2.8948809350756286,91.7512632391035,146.0616317968763
251.303832162122,248.2125627582695,299.658295701653,194.05349535427123,141.5608112367138,124.5026572230909,262.50593015512663,83.06781752882738,221.1831207053597,182.4493518460496,203.9445717211181,143.9192041770266,236.85022524127484,1.3878602214236944,64.3253810500383,102.73340915873906
53.26361001424111,54.38606724823927,59.731431856315325,44.22179928215261,31.032345681985085,26.38019556624332,56.729731741335264,16.731992646601793,43.63848660890894,36.31655331290766,44.66511883280912,30.932114064177064,47.874429431250135,2.182680938588701,14.215930412143711,21.78766468638281
191.8017644040978,193.6886113969872,225.9088844519024,153.07665279612945,111.41234615097667,93.60639469242892,204.33076498746368,65.88656464923326,165.6900177053208,136.7041465038255,159.400552615909,112.34878653069032,177.9381872518795,4.49801674443687,51.77277296816193,80.73841343628868
123.82210514071342,126.0018134316411,149.07175393218378,98.40227926514824,73.10459905502438,60.21244197701,133.4557822460492,45.43858143341631,109.34733635704536,89.71044889898181,103.82689440280316,74.0516729908888,116.50895378915015,2.5591255273583613,34.53669206399593,53.83252915135861
52.14711657332908,49.48266175816346,65.36449297540074,37.11957265174387,27.75576578815059,27.79904782813909,52.59757892595192,16.637970146743164,49.050439790711614,40.13182898182835,40.4693386278101,29.1787018412554,52.135750016948265,2.3285756581663644,12.04417076928539,20.526728749997574
34.49110213678508,26.630953768017005,42.05307250016882,19.632486698156477,12.732804845250568,21.059233469651403,27.845884440384783,4.30769687699359,32.831829370616575,27.512462618208428,21.19825550650594,14.35209414143211,35.83289669641742,5.300696714136018,3.207831199935668,8.371834272959976
45.390066052772205,50.15261818376938,55.448900977708576,38.92813591533435,30.425542704205945,21.401193431794983,53.52046479542143,20.0073014994976,39.996339711867606,32.256161350128785,41.70976712106376,30.60799344061664,42.04544097336699,3.299247795711784,15.776826649135302,23.21822219433717
177.36741091930335,172.45650545382148,212.16735537916975,133.86122320612336,97.170373529506,92.00329096382067,182.06206457222956,54.61681191923409,157.5297861279607,129.83582835402476,141.44754209941155,100.023897675146,169.17003479305427,1.5110124778813645,43.232812257994055,70.42004385554452
172.68570122694274,162.91701693817865,205.221665908043,126.98985709931448,89.85181525565274,90.80983970205016,171.17883521021866,48.98883321863087,153.2578915975544,127.07434712560249,133.07992569856629,92.89121222455115,165.56237519623372,4.517265643878627,37.99111805726436,63.91346976282812
30.683211011616823,35.04165058833509,36.38308387261996,27.19463169294255,21.624003520700985,14.66777556578791,37.68138258491995,12.574043520691056,25.89922845059365,20.742663161293525,29.382187947398634,21.68505078422777,27.05068701234429,3.702007325634296,11.752247026829428,16.718507607532345
220.20077328296628,216.2372508254726,260.5480178938924,169.17260374340685,122.10647271574318,113.72955998459328,227.8225661938961,68.39622107486849,192.75039316885653,159.03235297888745,177.65066758049684,125.22537057767494,207.4306293299602,0.6744494238193919,55.11150911875676,88.4129460045074
181.188855441781,174.84660831445396,214.7777329848597,137.16128829706656,97.34900060589118,94.51173202784511,183.31669749134085,55.73380213657668,159.70912059900235,132.19506657483865,143.17017906851802,100.26290825367148,172.70105371016018,2.2722993338012736,42.47321494561206,69.71071663373955
19.70384242207654,23.20155486923768,21.55770232451826,18.41803106407003,14.50855507536808,9.051729940918571,25.09917288204696,6.948906593416635,14.831434103850292,11.926246659823423,19.693535429327117,14.289808415062888,15.342334574027072,4.017851067937731,8.34538176693185,11.255269644411197
150.29005162257346,151.29171600273438,175.6759390462272,119.67990788909916,86.03256594786953,77.09610093539101,158.85387157186028,50.09412481239321,129.22489578955825,106.56223992225712,124.79775616483984,87.91516077264323,139.4726585868419,3.684182689044471,40.15782742339488,62.66495970299367
119.49945683270364,118.90414531166864,141.42901228375484,94.00776397726617,66.81470777100097,62.3085943297734,124.1259674721308,41.62744420289864,104.90548512876951,86.55594323089318,97.72923187818772,68.82460610493334,113.86417917682712,0.4489580553972266,30.239456164687574,48.37252792618975
29.402623524266662,25.35345128045788,37.84302835612052,18.85318414384578,13.224700854816012,16.756464374283258,26.39725980550533,8.369126428431848,29.242349881252306,24.15777220159474,20.163142841122838,14.316104050928931,31.80528856832716,4.26420260686965,4.254577524721837,9.078357883107376
26.80669609341629,33.82856923313159,28.369023664215312,28.83853464842272,20.41159600146048,12.312532237161268,34.717432109056496,16.790823024919277,19.81360935741163,16.13089352753135,28.8562421135094,20.408389356461576,22.043189891635546,6.218365011636785,11.862541559898244,15.732899283412348
64.13035889052689,67.68263021859391,75.79101431795544,54.15359103492816,38.7326164015595,33.063504967090346,70.28296030080134,28.22356944423329,56.10412608517443,45.957337062674654,56.13932900516649,39.97329838688563,61.27122676426885,2.480966027094035,18.744496367755147,28.766602204584384
95.80751129318156,90.35960013332912,116.73555653047916,69.19299472191054,50.09357265479324,51.45901706621045,95.2431652226593,27.52831821745377,87.54033838635505,72.13126404553087,73.55730243214734,52.18619771522207,94.22433086902409,4.1411355192255135,20.96099460627129,35.8926229602431
66.2289178956299,55.95361804085897,81.69710756960448,41.06543112516104,29.91050953985417,36.92499314834644,59.842430203887936,8.46158536146635,61.51734995172174,51.05934395374538,44.562319859083246,31.264893811417764,65.42141357129333,7.074919681876704,10.295188792447355,20.293114218558216
41.635702367983015,46.1209834091628,49.19040071442551,37.17397466742124,26.90577090729248,20.40802200860748,47.99249941564136,22.39674354820136,36.4186837114172,29.656145190265164,38.69070121419031,27.73877767080685,39.77306340183669,3.2228934985925517,13.80051732428936,20.547178809048084
127.5850242895446,121.75374134590716,153.6678909508982,93.80594087006568,67.9844955039553,67.67616948994447,128.49999236354864,36.37516762860723,114.51591369610505,94.41734446373944,99.43927721452646,70.36219775397426,123.02274161872332,3.317067770634931,29.30649300510594,48.89367548088741
89.83815660210607,80.52272519278334,108.69974643500149,60.78469923718011,43.90647707089289,49.85016162133723,85.30388356012563,15.888846080725465,81.01189268404576,67.10149640292605,64.81178174473035,45.56563833701202,86.6167986183001,5.94394813956609,17.078755400142608,30.4442029267259
30.00735570743772,33.283805144685005,35.375519236445626,26.873064783461164,19.64823189517182,13.075945464589072,35.04070015133811,17.492489933801796,26.28891800801353,21.47337250248721,28.130990374199072,20.03069230279285,28.467827847970028,2.859229792527004,10.22363508305254,15.176542856238584
98.89172235335388,94.57406588409424,118.36693096961932,73.1936624180017,52.91107274907931,51.64498912635003,99.87366891150916,28.28467054443768,87.93436353393398,72.61741115610131,77.35570834792158,54.507643946639526,94.34372401808788,1.815656675434856,23.03684647078918,38.057803543310335
64.21865045049488,58.44931455277143,77.1117304935674,44.580189109277455,31.799849208536784,36.52315172559676,61.40011115585269,11.65486209472061,57.06486106704249,47.252095399477405,47.1220205738425,33.10467817571666,61.17274448725378,3.5498892264126902,12.782292852159715,22.132622365482103
3.477098505785412,5.301736731548079,3.697333221104952,4.714158787135473,3.8084613883908265,2.064294090298281,6.209868264167344,6.69366402950421,2.9984122179888875,2.5157226808319333,4.953874077260776,3.3378989543711963,3.0959283246775104,2.0272803539990987,2.422913760509241,3.2750248655522123
32.1017913247704,30.23612793904339,37.78428193362831,23.79127182213827,16.85264575371758,15.282057462914484,32.04462575979228,9.809742467195653,27.94023940911663,23.315519613663653,24.87622966967485,17.086325116288982,29.797096102443405,0.0828217494638456,7.3955832998421585,12.103661606445003
31.55302176248649,29.203822857431124,37.40503290333925,22.878692326305817,15.45226630578343,19.203679012692216,29.854769271009506,6.649471980004555,27.157767750033976,22.54983192129804,23.71405935570704,16.454829595970025,29.193358610672483,1.0564636537951255,6.719528864802422,10.983487947442232
34.944582528884574,33.966686741404885,42.30254974228206,26.249568917792885,18.266842838160827,23.31623880346524,34.47042692792455,7.949427177315891,30.80559712857353,25.160095127672427,27.524862883920207,19.82501360930803,33.41926812632144,1.275498559005361,8.22268968952718,13.220075823852657
27.64675060703373,27.8126464670809,34.23507225039074,20.83121883176109,15.869958366509945,17.178780539573967,29.170782221799165,6.74143365366668,25.607657521443755,20.64745388290963,22.433360810770417,16.733396387497308,27.87114973497855,1.3036933033983686,6.846383958211193,11.3861680970338
14.816305178263146,14.310278920917382,17.047963081524582,12.124174337037289,6.870823739004043,10.455885293216902,13.443041019642466,5.480821214961172,11.578505218875158,9.736747787077682,12.00365155845553,7.947391240340047,12.393445536092662,0.7019775492417143,3.91161788543531,5.430392791733294
60.37503895859816,60.05264030099694,73.00222433704674,46.860367508230105,32.887205243388266,37.45527671549251,61.36220617992292,18.1678094374066,53.266615114762416,43.53751239182737,49.11098616804944,35.22573243898874,57.61987013782059,0.7778564492272391,15.369351109115442,24.22204589540841
51.67500932133272,51.618589239146985,63.4433980992887,39.05275584190019,29.507762309494744,30.05636624131338,54.365002299701366,13.829445305792582,47.52118480252721,38.5521439868959,41.76012537454136,30.729672923706737,51.638436289180085,2.025656677062393,12.674026260151267,21.09805041658145
8.634858507863205,8.879224685394316,9.686624860828434,8.27669319213794,3.5812946212305032,7.790471909273447,7.196196873642823,5.293530689519767,5.607954030110717,4.817047849179833,7.818200105067069,4.873745777612859,5.755361472438766,1.5979400752100326,3.1265080664446065,3.4989546673872534
54.791660797784616,55.56888680783129,66.81103252060892,43.44518754085711,30.443377593897544,34.95957875443135,56.38025327790575,18.169840032684142,48.56568217549455,39.52448690669703,45.54555054099224,32.89968126053707,52.57632883472299,0.389035885249714,14.65490360981779,22.73626652450773
43.454878147518805,43.95376988033337,53.81531093832906,33.05555101292075,25.35013225293553,25.323263431871368,46.42139819777575,12.396622093744064,40.80228142757587,32.95883440357289,35.478433732154336,26.405595506694183,44.67664704620659,2.1305628737713094,10.65699299717642,18.05357547587765
1.206328376730399,0.1004123041918205,1.6829873271396243,1.1132942947958586,1.3212914799380933,3.334099856310364,2.3267036199424247,2.1054796229125925,3.182632016049832,2.5824971621691635,0.4825728711461217,0.0690601809048931,3.947903812293331,1.9875218713647536,1.314373190636223,0.1706815226048972
24.367392340517533,26.609433960041397,30.780897260145416,20.70655806278764,14.38053052400267,19.17118724789177,26.0324641146118,9.622399376684548,22.00149993499798,17.460873497420557,21.914259693835056,16.46526788719819,24.01234221332645,0.1081482291419249,7.70771520373149,11.346153444464466
24.3027060914901,24.99474843483613,30.56314588422628,18.5407863996238,14.419043875394504,15.00859721569546,26.36971792917068,7.729329745086635,23.899128552660716,19.125047729597227,20.127257484195496,15.333041455530136,26.70702175619793,1.839285917825703,5.767950408585798,10.26466587962986
17.41604812188781,14.907088937457194,20.46179662311297,11.040451250032907,8.996235303087271,4.923665268544775,17.390864382912127,3.7447860024230577,17.103195061558928,14.36497792905694,11.726038124858928,8.11715413516527,19.106704614092013,2.245921697216451,1.9560992535131103,5.289903271914028
8.519241898284719,5.104788738229933,8.71036385653731,4.263203493931098,3.302202328959347,2.298478483270572,7.045501763205609,0.7196986316716494,7.073406122724694,6.642196447119089,3.887360007250608,1.5700506266959504,7.2879370816418865,0.8294493886683172,0.0533442665017269,1.1780587283554302
10.362877401521915,10.587869975417892,12.933000994450666,7.861077827762353,5.567226184004166,8.453066348313207,10.65732395034967,3.699468713835487,10.709401503061375,8.484973336101486,8.587617057248314,6.662319996573929,12.61497043117806,1.288843301682587,2.035137297000466,4.060213608706335
29.602166878570934,25.87055255567103,34.54067726083466,20.34137454107742,14.35500363113953,11.76049273931897,28.055724740752275,8.147121463957873,27.1788069684572,22.988286467603928,20.72735918809056,13.867574817689896,30.061051231869,2.468187611355203,4.329535174076181,9.076172171756063
25.56825230348269,21.762944595650342,29.94447442553568,17.227290030078564,12.82947781236046,5.85681366630608,24.554058893974396,6.879244949769416,22.89952270367762,19.69669733536087,17.289492573252474,11.105436897061477,24.369520837564306,1.71678135644493,3.843658389899315,7.800736658971105
3.12040824845942,2.949010705610357,2.984731988057882,2.7010946547033754,0.4092643738992318,6.1857453062191405,1.6678014454189736,0.8401607864830369,2.6526073763503657,2.103562365915508,2.5123619422095693,1.7883934933622,3.975803203248553,0.5240887177260604,0.1576745124041383,0.4578754083394729
27.48935793126899,23.68123512534336,31.92680299950208,19.08693261645113,12.737693557596508,11.325972158683754,25.09125038071424,7.658125394086423,24.809380668924437,21.154237656197527,18.845002170135928,12.304880409503154,27.56854986663863,2.533927541140732,3.6781670968546423,7.812119531339455
24.41810885078632,20.8511152098338,29.854405641744652,15.921772928129936,12.77891067702921,4.50437277939969,24.109210871283715,7.194859235512156,23.34429847176965,19.86814586915916,16.366801000217286,10.88172483983655,24.843765669073136,2.5447166367528427,3.460759224950719,7.690814373045299
3.416578790213918,3.0737567351116386,5.874492454715512,1.1666457618804031,3.3831092398923577,3.805617012102407,5.550423778194984,1.6374684497160192,4.806326899180919,3.866851138431601,2.415129981585753,2.074793938840071,4.008094181090446,0.3230495963969672,1.105045820213455,2.3557088043471057
11.978645618433433,9.409845384409303,13.843120186952367,7.747564619137497,5.047529448472247,3.658351475732533,10.126613001029304,2.665420936053418,11.2310795681485,9.772238592457512,7.06290955514743,4.327202176837979,12.892333127470383,2.3184805568056213,0.416771073001037,2.2895488138774622
14.42308691489527,11.23620913827014,19.09886271797115,7.320305840986299,7.80498437427765,0.2792948152753265,14.794627429877242,3.61086374407665,16.011514274812235,13.452549480515994,8.542132497660736,6.029694166385731,16.7665598035816,2.9536592847118754,1.184357219915058,4.427000076442369
11.59138906653998,9.915375841205698,15.907097839537762,6.010826791755212,6.854549972179861,1.2668754760560104,12.953979319354811,3.5688178775209805,12.7553629835781,10.383212324056933,8.171281324113972,6.1764498988575856,12.51998470854114,0.9135126844366038,2.4940907139334803,5.121352563793018
6.28814112778065,7.160760908864948,7.114798574207775,6.057007791034051,3.481582904754644,5.625170748172603,6.566879006122278,3.4354265060949998,4.179664689831414,3.362179461672394,6.455402950238435,4.458204916941842,4.004120583847856,1.8371090907048455,3.040037858888468,3.5225165763037785
4.996354073084122,2.070183213109436,8.367961905261046,0.9379919248077632,2.645080702841001,2.738089769625872,5.589913618303033,1.097201771914576,8.268269185809473,6.64660930421059,1.354094235924055,1.595839215020554,8.051281402916176,2.6122790750235287,0.5810536106755544,1.4725832543941602
17.164251982231434,14.406223636697288,21.83376116135194,9.655210209367342,8.4540108209456,6.8182371829731,16.971904207231802,3.8373654511865753,16.96338755702879,13.918903222359644,12.040811897516011,8.67625955456437,17.148445611148354,0.8794548332687211,3.4482335598680987,6.560069664376533
16.821416646410757,16.715723409015432,18.75446051542756,14.6189745478965,8.287794406857504,10.38708864247248,15.796376176093682,7.356434226952807,12.713762882714258,10.83910812972393,14.009736789768231,9.067495333791518,13.80052457628039,1.2195101737630187,4.590716659251553,6.290692693032409
1.1759069411950644,3.772479883158791,0.616380819492047,5.972118165437276,1.2293313235192276,1.8004758216907355,1.004031283309624,5.125472673107677,1.968252859398904,1.14859279343551,2.948705196340168,1.1200121680799429,0.8665278894030273,1.4623032257646291,1.2006400652316076,0.35213926805491
14.973497733643647,12.550629589272578,17.809361843977634,8.933528104346204,6.594902930389953,8.729320055902537,13.81462831560652,2.016975428610862,13.348857620423258,11.01269635298247,10.63921716122234,7.427222175485406,13.65072535319852,0.132308219264514,3.1086134582691667,5.3279816885243045
16.810218062454844,17.070719793606326,18.160242921907223,15.593774024021256,8.707384770242546,8.738785471149836,16.007280800786138,8.138255194555473,12.58794531634,10.951374636944047,13.90256113876046,8.742429585976877,14.428243326190854,0.6476920106743227,4.00566467849742,5.735195512011972
6.118834887250886,8.009292769562368,6.382772936334366,8.836363603131561,4.501605399231636,0.243154960958825,6.706816132697384,7.693379539150139,4.287012183969148,4.0995487079313175,5.979745081296555,3.3454597529391634,6.018997285090263,0.1098810473841886,1.4006058921381808,1.939088474098562
5.136886128473391,4.70704640482858,4.674781354988426,3.697590207638788,2.0995237298917333,5.104778390396826,4.658159132810896,0.7198398347538761,3.1536591173070256,2.585704303565974,4.21420442724134,2.860731079415032,3.343500800003984,0.9873291826531476,1.5176525973170354,1.946421629431172
10.557720212666606,12.197803982987786,10.742025603757687,11.694229530612349,6.980899005459226,3.150501889598344,11.645039800443875,6.903459753776913,7.8412669714681265,6.932560608398122,9.568419925994425,6.03353387312192,9.907337260259231,0.2856410785967522,2.53086994922561,3.830642648692818
11.1117590850866,11.877624819098848,13.566251603511764,10.807810334279436,7.341118340820024,0.5995390633617284,12.127872715827204,8.422655356777225,10.50633337010747,9.1342756657064,8.923194871982579,5.7492715315735765,12.44989482219692,1.4283031866669464,1.842231697522907,3.723945498856088
6.6931797527978425,4.40784752551097,10.103527334142116,2.888718687147,2.271340170521549,1.9946535076784384,4.952486205505236,2.4786357937014287,7.65537527391459,6.458372407275528,3.3278947262681964,2.198649187075977,7.612049922561611,1.9103617689203765,0.3434299423688651,1.4943464910149924
3.775457815812244,6.801949065327996,3.267674046423025,6.742412496816131,5.164414277082875,2.474159908628104,7.23360135117327,5.195383598529923,3.0855851002251864,2.715334437156338,5.022379254646546,3.472627270079501,4.887377477401119,0.2165388984178041,1.3684893220089087,2.3335620707824605
14.379998481468336,13.948239348445496,18.182984339249863,11.453527982005795,8.544848841263759,2.7909667042957134,14.992345985548674,7.25051721986194,14.089119878616971,11.947997872697776,10.668704259206914,7.242555086120371,15.733782764403395,1.9296973189019409,2.3274640344378383,4.860158590852373
14.143120592730464,9.962893636687696,18.64253936680828,7.298620680500514,4.289656812707946,8.619215991266795,9.995310790010436,2.3369892418385048,13.351495986829027,11.314751550132844,7.964778447643274,5.091857387493395,13.426209265473624,2.186331434131233,1.4842722902660972,3.194263777175336
0.838279256968077,2.549411818796392,1.4264644217303513,2.5773343740406585,3.4344583255907333,5.920525897667598,3.7597531266003754,3.7098366556700144,0.0568772128222736,0.1162878474087865,1.657463389122544,1.545106527955732,1.045314569730488,0.3648398381846663,0.7021029410052511,1.3866792888911863
13.309399334201403,12.121728718359428,16.781447882331413,9.678471576574651,6.9533156193041545,4.6539019168902325,12.80690114149715,4.758745963826102,12.514414899873287,10.574812828496386,9.41983939143782,6.371890058699461,13.51052190500145,1.525310034455602,2.2077145259837967,4.26519072120274
14.705032806653294,10.591736381637798,18.241891552067077,8.307504916745385,3.9198779247730906,11.753499441998086,9.623107944185136,1.0378583828639432,12.462565562887766,10.628299597335628,8.527327948042341,5.305593491846079,12.747585223070235,1.7375671632229062,1.69744288072787,2.9988440970178543
3.7015214269717056,1.311321638764003,4.289043937546042,0.8957886825147092,0.983299972849192,7.077307129906681,0.0766886461326699,2.3420158263913384,2.417436831764689,2.0677772821615665,1.233540822015339,0.5623408422715119,2.246568907502599,0.5406374329998558,0.0024526923033647,0.1649118681133661
7.631975797619349,6.544237466792303,9.216820405629589,5.644401095990359,3.058624677964028,4.48746342033975,6.075352895767093,2.169659533255513,6.242265402875885,5.404486089544239,5.158424232703309,3.1940384560155426,6.649173772024708,0.5972047653954501,1.2354106032547143,1.9611001492328135
10.335366414519491,8.224429427153172,11.904621348336184,7.04297033889153,2.6795774714095835,10.953694044571858,6.506756626507183,0.0979189754222522,7.667029727534123,6.544652876610641,6.594638146244931,4.124680766490522,8.348117153610668,0.8648752437110563,1.4330353728336842,2.000127958436525
5.870917499899123,5.1647619917952525,6.842256624399589,3.875167193951695,2.1396536750782307,6.798631624765245,4.6254862504406375,0.9354524289381868,4.805268396904454,3.8585759331477103,4.117026718248832,3.03822017854589,5.39725929691293,0.5997196524022621,0.9914943086820136,1.5942969749833704
0.087504210014746,0.0172436439498966,0.7355377694403131,1.0988599890643815,1.085966021586838,2.3908748016282813,1.6368435810094937,0.5892354228823962,1.3321862008314778,0.8590856202437287,0.0146117712529356,0.5313579822251597,1.0807733075936683,0.2905889661070353,0.1176855190983179,0.7714818523980451
4.777840088598527,5.270055990032121,4.669124041787905,5.061127775560618,1.7603237719351092,7.567196658849615,3.4628020759211786,0.2522195888630412,2.736098133750476,2.2569633934793725,4.151015365167755,2.813467220151086,3.851269649395107,0.095900963815353,1.0738274061840485,1.1479301192073548
7.315170732886322,7.663783762425373,8.941391835961058,5.589052894958583,4.475245483280583,5.506247962730101,7.996942712480303,0.2503181239793202,6.6722399659644624,5.267473056090155,5.995696614242812,4.702337391365461,7.467247920755497,0.5941858285980148,1.7886324836682488,3.004498318851413
5.685161191097082,4.43559979680504,8.199212979759412,2.06076336709336,3.483886712452346,0.074991511973959,6.512050746561659,0.1426598812382593,6.434787510705579,5.179576885822734,3.515144605011514,2.855277206809265,5.888118889343545,0.7167044488713896,1.140428789783595,2.500438934572138
0.6765965596806058,2.485649776961168,0.1517192134450482,2.839602799153125,0.981930810408354,3.4256790129555936,1.1679581208016463,0.8108333857735666,0.1934625915529118,0.2682298036274968,1.837047299862382,1.4463748688135638,1.0597052537687812,0.0874671617009879,0.4762420619423331,0.3901048887821927
7.219547456559196,7.041365895343152,9.24125538087582,5.057064739712809,4.388860899246751,3.351318227287764,7.811493052261945,0.8263739901763509,6.822541422029333,5.532402529186044,5.460372311442105,4.127195090745921,7.19162544067011,0.6779688057173988,1.6215952516721854,2.858784586366484
7.635676510825986,5.610144003634964,10.491472972272934,3.3178359324886277,3.6413943063727,1.6125462258815064,7.207927057259454,0.1276547311187812,7.368296847715131,6.136484103131242,4.526099342256698,3.1832683030672264,6.450060301650163,0.5276847090096293,1.5365975065634636,2.7479417454132
1.3514861742784756,0.6859999710329276,2.158450604781514,0.0369680544820099,0.5394638100303251,0.2133127494633901,1.3000452869955303,0.4607363333940126,1.174838614490909,0.9247655974302482,0.7860793450540271,0.5932212289167254,0.2986452869546117,0.4561606151571467,0.7096724283642235,0.8693206664718778
5.253985022001912,3.23940684581771,6.903846011295018,2.487608224223793,1.6818801108278605,0.8061774342058845,3.679490663752256,0.7925643553283219,4.749297192534787,4.238704062661566,2.4353174179257597,1.2370977493978463,4.4226189529917175,0.8540879795423739,0.3352528455518651,0.9130348775752236
6.127086479797884,4.717035246557781,8.161417318467063,3.5675808309666284,2.5515818679026863,2.0040739795247706,5.09231680925676,1.2991862429480276,4.9515502731492855,4.286345992350511,3.9076386290460174,2.3856796365830526,4.035138488318479,0.1565116330407661,1.5702543618121694,2.103345879798828
1.9176374010927968,4.319232564497529,2.624214527502584,3.1678345388330413,2.992019411676277,2.510643505760666,4.397541405512328,1.2676509477770606,1.3258966559778376,0.665797008351884,3.7321190133871394,3.2989759892698247,1.1996446433853123,1.3282261083747873,2.356736634355141,2.7294303629306125
2.158572990762744,1.544990257353378,2.58753503340974,0.3978448675431743,2.0667949466099653,0.9151982294619696,2.164706019260373,0.6483157974000475,1.1303852074272012,1.7273984954079251,1.322262715275743,2.3339033643952067,0.3757715117402185,0.8362270845283601,1.289671900256935,1.750283351939233
2.947960888931385,3.5405869224297284,3.714895937332418,3.84256462145386,1.494882419248885,1.9502961753346504,2.4107515420683647,3.3996550918495574,1.2626157339630684,1.2504437053239634,3.0213804122723147,1.6419803386083345,0.8611191575366437,0.9870102584140352,1.6075968204895403,1.3950792232236011
1.7216297529875728,7.087567163469188,2.783503013818088,5.447715158073207,5.310740246214765,2.996615348464041,7.071909131435433,3.34585888769353,1.5845015266171014,0.4865893858725947,5.864395018241636,5.519984377278313,2.1499401443091437,1.7498297148687618,3.617578301677256,4.340674329376909
0.7582069989056404,4.479101422072258,2.0291236077727994,1.6047859026962854,4.687266997648681,0.7838893046503204,6.56716389856939,0.9005432319309299,2.72040318393716,1.1995011767775896,3.5514928576974096,4.477533574450314,3.3253998041727524,0.2844356191655003,2.117668458876442,3.5497163876845503
0.1564641678568463,2.7889464152511945,0.4139438092928245,4.166396705026379,0.965009351950572,1.9488913266490089,0.4289280655100675,5.127645182221833,1.8770733662538743,1.4660107861039844,2.3494387205061944,1.3348511285666715,1.5218704187117371,1.4741508689174687,1.642734679756428,0.9199891028196996
1.0965526244486927,7.210465765816221,2.9747024729186986,5.204280528176444,6.002542410798128,1.5932375862791082,7.63686500107258,4.0055063787106935,2.1850259151550238,0.8105985040199926,5.7061571392321015,5.817316821917775,3.000427267719587,1.0849290869012602,3.51118740804264,4.565676095947444
2.523119545936611,4.222402325665508,5.331645460509062,0.4386635556099261,4.972636688608459,1.1591282352021066,7.6802662866602684,1.5621524175840964,5.615086437195424,3.6800194285872743,3.217389369366097,4.208265314219782,5.617166767084061,0.8003134068917336,1.6051943112061746,3.6245713574640512
2.296505759258343,1.9722962503048755,3.015773521013857,3.732507989072136,0.6264845486983841,1.97642392161515,0.8746655079182766,4.904814580901335,3.610754016610152,3.057838494035762,1.4700721738032527,1.0295807239191852,2.6815370927217312,1.2493552189727235,1.33239444100509,0.4112395567262386
0.1713818313085688,4.219672486184226,2.865041215730116,2.118545230414289,4.4624310794109725,0.8522132332370385,5.458765623010475,2.2706045352859894,2.799202248464711,1.444287511652016,2.956944065992653,3.809930292778299,3.3742505642914207,0.5788939914579518,1.8159201121788489,3.0272212192886974
2.9391453559398126,1.6621955122705394,6.565219715420088,2.055229819940596,3.2817323942747,3.482566642648691,5.858236428487572,2.1746218358480687,6.893780250179836,5.074023232336256,1.1147909713836537,2.199983888104187,6.235829698544142,1.928040653003218,0.2005679525231034,2.3151387832831043
3.351531420371378,0.5485185711555811,4.110702644211855,2.065845308231662,0.0564126733109286,1.6987688889834542,1.9117336438255776,2.356648505644123,3.977967108130097,3.471229820831418,0.0215611749395208,0.3017532216776182,2.8798380191070496,0.3753046274674748,0.499499289570275,0.3617397530355335
0.8336907031654501,0.3528782797965597,2.064664083172968,2.2580669052730045,1.503999031583252,2.867736605641986,1.631781789582499,1.1637844586903547,2.9015715967288784,1.828243396762048,0.9730161386078288,0.6269992807599998,3.016177316019803,2.354918750284589,0.5931108305432087,0.5340996912096134
2.4242239408308315,1.2103073048405193,5.921007119457455,4.155550811118852,0.9041664091953896,4.565655638334518,2.7883483684310733,2.3871261661406704,6.473758916763543,5.098548907336789,1.1144256826495766,0.0552711276145743,5.417257059465984,2.4810227872436124,1.1255197056249149,0.6526691201642478
3.521173988560797,1.0840148916299324,4.266332498939487,0.1150602290235855,0.6565188515308042,1.241062141380154,2.629529901297241,1.0889972328083428,3.511260188138301,3.1176768017935057,1.49191038826463,0.6039451407659673,2.5441930995263267,0.556462156513418,0.4956497758746021,1.1529944871942268
1.5531012604832064,4.035561374421274,0.6438965883178369,5.511482798529873,1.3209264451698717,3.0845540794790693,1.862821853064164,4.422105006364904,2.184945508236485,1.5286902458074003,3.913077470851242,1.960825764970422,1.937490595375705,3.1468885847960184,2.364714740044974,1.553401340860904
1.5770821656454057,3.0005048986699467,4.239716430056244,4.925524229918968,1.042163764206914,3.763987990093324,0.032000063742192,2.40864873645888,4.844054035996761,4.010569825292206,2.39431041755252,1.5184761214781926,3.684307511319256,2.2651785474564075,1.7490863471548193,0.5725232733768566
2.992413601604065,1.8214583795286323,3.9926356833680794,1.311237084676902,1.0220139995306194,1.0876881258414135,2.5833610953321227,3.1624847646289647,2.8503388953383557,2.554611751653482,2.0111056558985982,0.9766569775558676,2.0591203882877043,0.7802552441066182,0.9478078953521312,1.3968416559269494
1.6080711131908156,5.257274627886197,0.7874388042411802,6.144732875594629,2.902505516773505,1.3874915435799189,3.643305348544583,5.875514898889136,0.8778043020355373,0.6443979672369355,4.573367479659131,2.9061401886020093,0.487806560410462,2.5203485008855577,2.7149012474968703,2.368888122099267
0.8876426488817977,3.709573534050527,2.555455642732367,4.781343802213376,2.230663888171064,1.96925329198766,1.8197774336692056,2.8499775563192893,2.962036417004109,2.5865502229708497,2.862242860170205,2.190301700536107,1.8335322233229745,1.7513135330079672,1.841436737861712,1.2849904020236584
1.9170265969644331,0.9309161666493272,3.4644849894786667,0.517339754387514,0.7099841035654055,1.6850955285627365,1.5558167783288486,2.46324029304051,2.411742787897889,2.139945467714768,0.9054174577669408,0.3838699655339948,1.700135939722367,0.0695724409140979,0.4212901323551485,0.7845835702042594
0.8056693221025473,4.305411981315618,1.3613638714380727,4.55076230658767,3.2163523807721,1.0920529382006814,3.685938422477035,5.226746680163425,0.2209983151954588,0.1050923868874758,3.3467211127117142,2.514889255297417,0.6189483146026777,1.0875569073487297,1.9933567979222184,2.105524513284341
0.6495340207776419,4.173574357022133,1.7141590554896275,4.78010318919668,2.9690871880269167,0.5850641604720606,2.968532748472658,4.057789228182408,1.9023525610587733,1.8050594437570189,3.309216139394362,2.7025863728320187,0.82275758211909,1.716538291408495,2.0784930591417066,1.913172283829626
0.5344770791662601,1.1725436589645852,2.661922144247395,1.8467234274612585,0.1070988817455624,2.7382607190090544,0.055231286797321,0.4901661916981092,2.2323727274563634,1.9055354956060369,1.3342297567946204,0.8675852306803256,1.5655803533121873,1.6203850901656949,0.8399285402106704,0.4121555622763537
0.7409016629227345,2.746801322044341,0.5218953208988708,2.453886295423864,3.0139345504526656,2.725706018687732,2.9537735135929672,3.493986051782085,0.2035178042067134,0.1247831011956321,1.7594280896919656,1.9175891464007968,0.585982803345054,0.0643112910660089,1.2859807488013466,1.6519239713725191
1.0031275720448,5.001271965438956,2.0582511969893496,5.495371688330438,3.6692634157937647,0.3910291339896483,3.817095993834023,5.701608504270952,2.275717732771204,2.2538233698093766,4.245152453770716,3.5396276566206684,1.312216603867645,2.6162086476482567,2.9552020515855046,2.827457402469625
0.7201654422568655,3.2419231099642367,1.652193453814515,4.258027251869761,0.9607184564679354,3.4454078732279863,1.5352251604608114,3.778413382475789,2.083200225199743,1.674801801929556,3.4525565422200213,2.01895501462284,1.556265050378581,3.027391352671267,2.101250392071049,1.5584425854770876
2.5926902346665117,1.9856745679658176,1.5333641242681963,1.400556283516874,3.017761763000773,2.7732301049864096,2.4203400446022094,2.062278684816929,1.2344527152271194,1.6086355870735538,1.1196180032567329,1.995847668206049,0.8964873690047739,0.3092781477929247,1.4661802942443591,1.772131928160917
1.96211825781487,6.032418667844535,3.3793774895311017,6.528631194544303,4.499267478239632,0.7952495447306287,4.562810208007498,7.038303115506377,3.8589427120844046,3.7839499293473065,5.42714592808359,4.640282646372103,3.1932056527568644,4.20716327445531,4.370262179551476,4.025886814832338
1.2938345354376608,4.211109193331236,0.8305647739729984,5.316556365684246,1.5607699508169892,2.967260636235694,2.412027287673114,5.605237801072709,1.844705305581764,1.4205926835632692,4.391469733175682,2.535435085747803,1.573590604544565,3.6234601437964127,2.7604422990087527,2.205077656835124
4.143712933022703,2.3011706277468207,3.82002892448417,1.675461724276504,3.385955206120689,1.7221036737343232,2.447076297328451,1.7460626831830135,3.379295731641111,3.666209390869036,1.6436124731101298,2.761196797425674,3.1964524257993023,1.6717627704240918,2.5177453470770423,2.537017197800872
3.426213733596242,6.681838613767493,5.103789199534514,7.028620162309816,5.399634417985585,0.5525718318489661,5.2205840445963965,7.634045224945825,5.767480289024494,5.637218468164295,6.225522769514859,5.606100066937295,5.5760533000355945,5.760212568863582,5.768038438351695,5.2113084734157455
0.7613545787381373,3.95318085900573,0.7955033907378635,4.785475982119825,2.0043597632506422,1.1936725331377351,2.727454779760212,5.5438564762656695,1.7722383674484004,1.4268125561684233,4.034134715169548,2.4831413335759613,1.7596385844016496,3.423557857547798,2.7933183235259644,2.3792664954251057
4.894397310625328,3.0079931373030906,5.145831125971021,2.424726273840843,3.8202439700658575,0.8661011557995879,2.8371035922096297,2.4803435432927605,4.886791802904403,5.083933464492755,2.591832691880489,3.597358643375772,4.973813360631938,3.153658986129816,3.679719161564902,3.4531383800575552
5.150169774431239,6.597544784721267,6.659402325164642,6.555797264236704,6.2550150985263695,1.2588819934955753,5.759511473009702,7.737612826089572,7.100482552429527,7.018732528232796,6.24022088024854,6.12325749186431,7.381553953414501,6.611256327425887,6.622354716598854,6.086529455397229
0.8434432640309009,3.1106495293593994,1.9252362668321543,3.531085233402555,2.510695976636772,1.3263726137379177,2.7503705549209982,4.500513969985704,2.334038793563224,2.084061391504473,3.0413254497716125,2.268016338085351,2.470049464780738,3.00584239977174,2.6337005590891494,2.401656361878569
4.728530434474797,3.383959160615216,4.882664451007759,2.705565390750717,4.053841639679844,1.0579503226447846,3.325781605640642,3.678114737597487,4.754281242294704,5.001092915954898,3.165197912074884,3.983691430881235,5.079739440006076,3.7561215908157504,4.1820184348057134,4.004287266568311
6.726761029094009,5.960424194390654,7.6684240583782515,5.456861308376768,6.9457976109831545,4.304606372717139,6.14808901221264,7.935869777294061,7.478111716551633,7.535384222233374,5.617479368296637,6.1515361817486856,8.01871840487306,6.585946001863586,6.76414623359952,6.498798066782029
2.874948472369713,2.307755585679097,3.864387794788666,2.5520064143951924,2.9770436197120667,3.6165250014781023,2.539656382485905,3.653549027828487,3.633340666441344,3.351884049264658,2.1175260287346696,2.0797174881521023,3.8291906343906295,2.9034637268527965,2.6164699923496397,2.417916535025852
3.957374359293082,3.368956333774266,3.419692280018157,2.375790091601768,4.175583174498451,2.211535106557913,3.887824051898954,4.722809557730131,3.1287228318877336,3.612133480562312,3.1917777512650165,3.9572810075689135,3.4687455803900797,3.253925273120168,3.897396885255594,4.101652114459572
7.595060924373721,5.173831892514777,7.907552916028617,4.412565871794906,7.248225340747714,7.279066464927985,6.241262871392037,8.381977574564916,7.044593654581503,7.225231426470941,4.767099888100752,5.768962602460148,7.577202142199797,5.935840852248056,6.322920695142297,6.391118892588118
4.261711746558161,1.5253861084805074,5.47038569212398,2.0183880144148,2.8542907102761363,4.918097411676233,1.7913800897179186,3.344820841225912,4.979558204050305,4.485963783352354,1.3625016956268912,1.625743892844998,5.283500531068023,3.03442575101848,2.558325789514861,2.1725922668553883
3.088940971550734,3.473825329253124,1.822682073807261,2.085126797672535,4.478318603132973,3.3585720701444544,4.646091265745852,5.259393235579467,1.1881492265088198,1.9766210452740047,3.126488561432094,3.951832971323194,1.262998909540551,2.2868562475945,3.341174402029586,4.033103454824681
7.179595598816151,4.380045814860708,7.097424303161629,3.700284029330362,6.7750171185869945,8.564312923163694,5.761104247345699,8.422367755686075,5.991123547080182,6.176686182476662,3.9243288997157055,4.951864608805368,6.398217895987688,4.9517604220353215,5.4200582937208335,5.667967845346095
4.056191145716552,0.252623523811879,5.371598180116761,1.227574360137938,1.5448647033097205,4.786857443946964,0.1929440349314717,2.8830971806568284,5.126835157423132,4.353400435543014,0.3566224181711241,0.4432555524674981,5.692632101150563,2.740368190353246,1.8855013338022832,1.227052216145105
2.4389658986222127,4.068201010072993,1.000475470574404,2.457416996205449,5.0126910417721335,3.5865656970736604,5.499171654335122,5.177729484180301,0.1693727442270187,1.1407991696427953,3.4098129757381166,4.238323196313179,0.1462947728908581,1.702268621508782,3.094331726768035,4.066365155780525
5.144484019463585,3.293811912751785,4.9257349218579805,2.88766997567496,5.141035669315516,7.293976641165698,4.432664337452907,6.995192776929763,4.196859413855391,4.294117660515774,2.9330694619691737,3.5608917975562697,4.576535577120053,3.645519654463458,3.996869289281089,4.219700470125595
2.0238622596739955,1.8094343330407945,2.93556942648377,0.5675439464039442,0.9703363937522038,3.2923659231116966,2.0939602210074533,1.274767536340367,3.1950954165672005,2.307348891189738,1.2465312259284218,1.5216606076714534,4.129362294522862,1.4071119782452004,0.2363238885850798,0.5263321217381973
1.9188812437412484,4.821403488888624,0.9875119188632304,3.3346631084442238,5.309646189680562,2.5233470056514484,5.937769526899746,4.506034176841252,0.3398333613260949,1.2453079724058913,3.9227487431113257,4.540687384510612,0.2421186899228455,1.780848247457567,3.189650068363405,4.071013225955139
1.6947258543110877,1.537813859345352,1.3450920554467487,1.279967183119254,2.2944345073635333,3.6590296946416174,2.2484607588033647,3.5435132141660803,1.395176853836789,1.4408074044016068,1.5017794118041028,1.5588405679571569,1.939416124103527,1.8411452696543744,1.9458156971115184,2.073252466176561
1.1025965734737309,4.17319263483288,1.1432946876966916,3.2381653617409825,3.8409215376366417,0.838553403092515,4.250998890155278,1.748292586534304,0.4763638435247017,1.1530364545030594,3.148457315512044,3.621661550416321,0.7637461559079011,0.8452730451827111,2.027603147796994,2.569549191509398
1.1631650052957117,4.804239205442585,1.025166086885232,3.762638434302108,4.594319865040502,0.587367875611398,5.235366394259705,3.2927980611714496,0.8475741701172712,1.479862756933226,3.957470055077064,4.171227656836472,0.2690676069000268,1.9908650302937063,3.0344870047055927,3.553930227354484
2.3245780459144907,0.9080488799227524,3.0287474595708925,1.3584315901518131,1.2595467878955675,1.0478075697347666,0.4247312776274832,1.3687972182476278,2.2612555395848446,2.106374191971419,0.439592521316154,0.7967829787995413,1.4508525360405748,0.4719499875345492,0.5908400760227286,0.448889960935575
3.972855477991571,5.7349920721985725,5.10738419308321,5.667264071802743,5.724656505523567,1.711504142871008,5.212394678173947,5.280630553868103,4.316507713317138,4.495558066260992,4.487826163967069,4.831403288444108,2.9770857881951613,3.070934670336252,3.88704534585779,3.95184383836524
0.0618334177576542,3.196773996264394,0.2974499120949865,2.740139391802673,2.3675876795842115,1.5367254878854828,2.959862756226279,1.5723829236314737,0.537990876094204,0.838338409543633,2.7839350410534216,2.5776773802672253,0.1743710329519707,1.4846248441808312,1.913796274489771,2.0477435847985026
5.66488514365779,3.557724626594551,6.947902135894974,4.464297243292925,4.591870829208933,5.14773771350701,2.97004549618698,6.211667155932256,5.893572863597894,5.490045584291508,2.564069015441909,2.9985332268032057,4.886334841993881,2.88447466568475,3.107863124135407,2.79251701713554
5.367846707546752,5.548311607072936,7.219877792537726,6.519103530231903,5.62890427743534,3.3996810854423165,4.354893944125774,7.66485968875253,6.508007847810193,6.137640306435056,4.440421841002328,4.449386068723208,5.277869880003307,4.10448191624222,4.333505357773665,3.9109017307347735
1.5445913393830324,0.033782161909162,1.2678277212556637,0.0251182757106924,1.0979431706312734,3.151818214738752,0.6254111429115241,0.6331095434380156,0.989821438008974,0.934055595684594,0.2388639411223216,0.1643099499100095,1.111716157293511,0.1530378114157706,0.3526214553462807,0.4275243228172973
7.23508389518001,5.725247911346752,9.065116408183776,7.037157475286913,6.801267496250175,7.148100203540377,4.848313045703662,9.358829379016004,8.237174245204152,7.599929306446215,4.370826911771927,4.563895275006196,7.203213829626642,4.724500827862028,4.949302572771932,4.413915455249383
4.889451124839347,3.581146612374201,6.804325597163281,5.248278897570463,3.600845719419036,3.463304877978424,2.006170712034393,7.533355686932121,6.1793302672845805,5.467944201627761,2.899564848501555,2.6324174266685425,5.148488466894815,3.407103159659162,3.098423446685869,2.415393416545652
2.681419948339288,3.974674974673462,2.9115089657307145,3.611838807096669,4.751488621900235,3.908571186506824,4.52003743262979,3.2058904689239487,3.0529955652731378,3.1108145252510297,3.037093439853184,3.2788694829087257,3.0545300048115163,2.5135268092830194,3.1654796992677072,3.242741096681661
6.649048032065936,6.938880098476973,8.710131567713923,8.29507437928826,7.472593556095621,6.543705250805888,5.825678958713031,9.99857934756741,8.432816933850914,7.7590333790797565,5.481049557845564,5.286895434661492,7.517149115350184,5.46756167917408,5.695928806250209,5.066049018403136
3.0825121410968226,0.8061509739849306,4.523876446718706,2.490100402996056,0.7495973399129916,1.984816429925341,0.667923908067074,4.717536566633268,3.8666507311358647,3.1662065775046866,0.597607309944781,0.3318491471970972,3.003636214947809,1.4262911265507996,0.8701552667637364,0.2492804005625286
2.927928877119367,7.223514452555019,3.664008201652308,6.824465258674108,7.26525466910263,3.657006859727333,7.398072445544862,5.8144629508264005,4.4863092068661725,4.556136274321302,5.921167726451182,5.678236830829748,4.510293853142127,4.641423139309831,5.471694550134227,5.434381403898382
4.428435046845966,7.130103623605542,6.24118685015182,8.077335172953477,6.814355741354937,3.924276956135169,5.999046905570353,8.516555033987185,6.558304975358346,6.108995872653244,5.808508136628669,5.271083012246702,5.820388268739732,5.052962222986038,5.374477263487792,4.867499667783542
0.94964169242116,1.3790169131334815,1.6708759380342642,0.3665145534246328,1.4167866348380302,0.158182037145572,2.2734014152011355,0.4674042973519769,0.9017543500744872,0.5277992100353419,1.317956317768802,1.2946133049969228,0.1383269451555175,0.7670202627302479,1.1814734742072623,1.472747204377126
2.2663822994874767,8.555753756364684,3.1814524417786,8.368377516084212,7.708706672586481,2.597301255290064,8.181563559877922,7.849816331956689,4.598583310489426,4.630901857982231,7.332587872027213,6.511365628416279,4.722420847126164,5.659286648973701,6.39215428528905,6.2217060121538585
1.6724709822452386,6.482803129450923,2.773905533453057,6.71862730064555,5.423853461724841,0.8473689795665988,5.607268642109146,6.098509530684428,3.4940143816356244,3.4587853468520238,5.434931465496267,4.746224820215268,2.93760227841914,3.815973634342533,4.347309317904347,4.158522736897501
0.776541898767471,1.9635347659866584,0.8043444648793745,2.031781972453965,1.8624161933993069,1.6178038531527168,1.948469183707786,3.22298287543668,1.6193322003459638,1.492115168957545,1.9802503184859628,1.5642750495986366,2.317199465402197,2.241762511161588,2.157932385632371,1.963887801049192
1.310019503540255,7.446816097115889,2.001717142888907,7.615827507450549,5.987486897888809,1.1316726103316626,6.542901748591287,8.592711700183596,3.609170600659507,3.577392756237563,6.722012659266261,5.550404312872992,3.849619567294084,5.256181206824142,5.666998634956901,5.383749359154641
0.5534950720631304,5.218133581735756,0.525983511596877,4.696182063654591,3.901990974260139,1.0954705535237936,4.869779331931674,3.9326112821698382,0.2943729189157107,0.7094551289318272,4.47097340917499,3.8793769882182296,0.0776924342381359,2.191703142999619,3.0098096396117926,3.242092874903164
1.990896156902119,0.795635076022025,2.76254442075626,1.938827709132408,0.5469590987896442,1.5716738711535951,0.2119434913631508,4.721932098356223,3.3887727631701647,2.762743908569375,1.2075665999350689,0.5812786793050329,4.011625653687998,2.698349904566176,1.9028163879551367,1.1861039646478275
0.8808862239484174,4.231298207944082,1.0992588152202458,4.718361865578983,2.846340446238803,0.0401977449943515,3.0594255785984874,7.541013858919024,2.3108996955362238,2.212824104547929,4.241191703275584,3.2304370278707006,2.66444401496066,3.71218430865847,3.688332577011825,3.330525566236491
1.7025790437723618,3.49529464243628,2.9179821256785985,2.384855803549808,2.586859864977294,0.979799353134668,3.888323017732649,2.523948100253283,2.286984911344,1.5220126634351452,2.987517314705453,2.724820880426525,2.449747267777296,0.4900339090459996,1.6052300330529028,2.256996240566147
2.958130124107376,1.4272945048661487,4.4389032048458965,0.3982485218017721,1.653119927397821,0.1541267230189218,3.181850687375716,3.657869838238633,4.548558171899943,3.578317168823208,0.4762017153378703,0.9402363351737232,5.054310128801147,2.390690906574416,0.8879680421477874,0.2520537557743241
1.4008087071236393,0.0459055287790093,1.0907826156214109,0.5331887675231641,0.5196067927975099,0.3281391739826533,1.0061498409078702,4.762677100551584,1.36580457052397,1.2260030762719811,0.6774131179107474,0.3922789388106835,1.8191150733310408,1.6169275686989046,1.1910186934234206,0.830830382785452
1.738191862345429,1.4497487552431032,4.068846343196736,0.0515161947360578,1.4952261416163353,0.8458801386968267,2.6303102369498674,1.591584403766782,3.781999592481741,2.874928598548779,1.1070185984384224,1.3117148736173814,3.6819910740634594,1.0360543465508238,0.2681015960103332,1.2064002856035758
3.673421885356161,3.5431133967923856,5.673011627073894,1.6523474995573562,3.483562437526041,1.5022284240845396,5.473986602693525,1.0073799535337151,4.988390360197554,3.951047027154683,2.188305942861348,2.1566923244155785,5.282843694527282,1.658058386091403,0.2639134053310616,1.542885720809231
2.569109814869032,4.059821222026667,1.8530412957192937,3.672651625228316,3.0338523932167973,0.5481763178483972,4.3032905353698006,0.9672783932678924,0.938683432232363,0.8008128459649253,2.887844544018245,2.1205892998946805,1.4581963224374448,0.4373568102444317,1.103203687197044,1.3621601592970265
0.7439276035461635,0.8218453088112199,3.647160429775768,2.13236420517538,0.4134725721689598,3.1781395741697507,0.8882859647290964,0.4970711622617862,3.692588944791092,2.922516788596182,0.9879570817550132,0.2675887936129388,3.22391199126262,2.020608865519447,0.8115243279656967,0.1101372602139889
3.5073146924518817,4.4128102511713045,5.561178290021964,3.053005244317914,3.971657400010315,2.224501555762905,5.793161296094553,1.6070787525742918,4.076302841164871,3.2904479865481555,3.0708378876397813,2.536725320089224,3.99261420375278,0.6051732595576207,1.1988117958529672,2.1723536429371197
3.6496728916114254,6.74362145797525,2.777027409619894,6.684065585557801,4.212431477270592,2.143656764743051,6.039131558752663,2.74927779092956,0.8813780077007536,0.7458457231088431,5.48133721550146,3.7841436337936902,1.436522902696442,1.9631547067510775,2.6999309841729584,2.806148198810816
1.4370939197806418,3.3044977695053817,1.1660176368320414,4.133421918633107,0.9379242327348916,4.59403824187484,1.634149942242903,1.1019221826137335,1.461267448553622,1.140226140425158,3.089951016108968,1.8346714343413115,0.4490856420492637,1.9855425128334725,1.3542769775129275,0.9104374403450076
1.5519955479101617,3.386183392479115,3.0639605385022435,2.895444825238052,2.864234367167194,1.5556504650576557,3.6655132197939793,2.9597580098934886,1.213873637347172,0.93099709127317,2.636488573638019,2.0335918299807982,0.5669558601087559,0.8082224412163194,1.8720113323682552,2.093024119662876
4.105502950221949,7.714014024102209,3.437672812925598,7.853289293435933,4.279322577762216,3.5337466328565794,6.3200988009435655,5.38735644465087,1.164546226181777,0.9565251741234791,6.60759991214564,4.480196264741833,1.7857963438780349,2.5819966253678075,3.349597963185606,3.3969805178879744
5.053850210641686,6.034585875497605,3.64548206496934,6.0817607604375095,2.7027392495142166,4.436178564332812,5.074858088738274,2.907315228126044,3.049009560045432,2.687123407618765,5.058537639978569,3.175296791513997,4.785613658450176,0.6672729324536805,1.15700859972784,1.6507099563063583
2.4753356869466945,0.5484650443564902,1.9174309068481428,0.9000076440822635,0.641729049362401,0.2711385013122855,0.3355939264013976,2.826406988670571,3.292544663760518,3.0055804214120965,0.8731987033714894,0.9214315353471187,4.5663134003873775,2.38270504433874,2.283719883974306,1.549740851285102
4.031469662983275,7.2636589910915745,3.942543069676553,7.310320680315129,3.845527516131895,3.613079561459225,5.854031276961687,6.402694321635504,1.99118218454532,1.596125049964941,6.290766147250706,4.320311461273525,2.788749494282808,2.0538663843957763,2.990591782741989,3.218383977777527
9.844985711378314,8.89561345239122,10.080741940572748,8.102251254747388,4.735612699757446,2.96942385075596,9.061075866198948,4.177517417938984,8.896291710201567,7.822385411437905,6.778335911570212,4.115595640756054,11.390028503688,1.594913145092048,0.348355264079796,1.9813043423436296
7.572550422827755,3.3564765253309137,7.883397977930949,2.463205107016023,1.8785754970400248,0.2916375135945754,4.899358066152436,1.7982888020941674,7.88896925543964,7.165623315804166,1.8291761011160383,0.5329071166733392,9.612921333405955,3.4684349905860405,2.2020081079094105,0.7066670365499208
3.9274569871834384,5.956315170042377,4.662427192989529,5.722205871117209,3.3761989793587848,1.857827264876799,5.263616608966835,5.826430313946104,3.45581597147301,2.847178432175019,4.879867575418233,3.4114287876167566,4.538091752786391,0.4343252736274615,1.7174440079134952,2.3544074036314617
14.524222759231842,11.465647176489473,16.126983321093007,10.09624046857403,6.620641116506425,1.1736488251895605,12.647649448445826,4.410633242767944,13.97502267387626,12.443034453681896,8.127324222758245,4.6139718593629855,16.970937056435304,3.762852280002764,0.5254519077823776,1.9909022885786056
11.720168860932956,7.347197436705837,12.321136140078275,6.263159943640295,4.069298088614854,0.895419898008833,8.726219284100878,0.5013464431267245,10.482894964321131,9.572815233384285,4.949431707234863,2.2907086935863727,12.268974447888292,3.2040269827844723,1.2000662946198406,0.537513305853567
4.03829372642589,4.153123145265457,5.535057431703292,3.7713421163994982,2.8754586590185083,1.4736434264613374,4.541157964923773,4.158048850064097,5.0780666964448855,4.408138361350133,2.750748570778006,1.799245022080992,6.418775348217789,1.7907733734952922,0.1643567464523849,0.8989789879058572
17.064732479138055,13.112349448703284,19.10499555558655,11.686898029466962,7.895888853859787,0.1678602905419062,14.690604379699996,3.9444896362555415,15.866450557801924,14.332423574335929,8.95961406746217,4.800906831158003,18.84298364544874,4.545062545356823,0.713162149934707,2.0175372436690298
13.08471552435259,10.63839434556624,13.218700635885266,9.575002241530454,5.755666855710137,3.592954120547705,11.139883869796687,0.9780112199800994,9.772335152235962,8.889746137544211,7.997433909093759,4.424033992127748,11.20719459085109,1.1469878422673645,0.9704943131173356,2.386332272270628
3.9048358084628862,1.9447228253108904,5.761029083716878,1.8489423705631296,2.0512731677697342,5.302439008888239,3.200766169650617,2.2347066651236998,5.803451870262679,5.382983110230942,0.2665371097829201,0.3357188919839338,7.185250034346593,3.748049385826532,2.099646161868121,0.8942029682192327
15.82143837232864,13.348906381738342,17.20202457898249,12.442051164639432,8.311449075142237,0.8569101492657216,14.502816098471785,3.924854733888176,13.268906928068832,12.201769624628604,9.198661989053576,4.899407113516732,15.65046602832703,3.158437235621609,0.2779975204852567,2.4325735030943294
11.248440966981084,12.782520848028248,10.467560841064326,11.782864907693762,7.012003940826462,6.506221834670341,12.155994568719072,2.9398219452899017,6.220119356514443,5.461684092401363,10.508763266981118,6.744687446028552,7.073388622216379,2.2018787851321937,3.929076730366455,4.705273541987936
2.682027079551217,0.52201149713723,4.275738299963331,0.1391352887340957,0.7876907280274583,8.41590314658399,0.9472937066797976,1.0101149786109973,4.620068747256086,4.747354667990062,2.109668870235902,2.4746830087756724,5.728482780300313,4.521300546561393,3.3770029782364865,2.486303844095157
10.76862168970202,12.093260897508358,10.789633867024625,12.103855761769656,7.889166774215731,1.3823669985039784,12.219499552891628,5.412281606156645,6.980163096109068,6.648367749997127,8.819126962208486,5.005186350455836,8.405799927128243,0.0580940422671942,2.268121728163004,3.316224298567935
7.493946323718952,13.451683113861227,5.938194678428765,12.506524924595936,7.726052750891621,7.995663484971387,11.982292182213572,5.317345395870536,1.8370811708718888,1.1929703622872552,11.8671444682363,8.535598658975752,2.1415235878689867,5.419782006704847,6.576077698137979,6.760690928891734
0.0162078675536871,2.723020330494883,0.7628989265318467,1.119537260484634,0.5649480454179852,9.88177158273321,1.7487077291645612,1.1772384189850174,1.3980088697050963,2.1767574190670107,3.735179738654054,3.848952716939351,1.9954275802764323,3.6248480604851503,3.429218180435017,3.224416684943336
3.79121275577023,9.6276120007085,2.50049066097678,10.630155048294627,6.746963057876162,2.18830821519692,8.630690733314214,8.27619497158291,0.3540505196732884,0.0327862065802513,7.7734192581652,4.901868491937945,0.1077783947012474,3.680989446006795,4.342258495648233,4.23412345080246
3.8617827978514665,12.277790290776167,2.1861405504497675,11.453387325333038,7.426434025113672,7.281603063764511,10.57472768284067,7.214654773350481,1.0909152210511142,1.6428593501230129,11.369941288480709,8.77505625761083,1.113067834191941,6.868294752739484,7.5581410536440625,7.447145181809028
3.4932869454037583,3.924466124275813,3.768605328306908,1.636174637705338,1.397125862012187,9.504017830079302,3.822260565964168,2.658995459415182,2.789522462609577,1.535344817702569,4.069575146848356,3.884098441396345,2.754205774830817,1.344524364941547,2.182906057978391,2.7326252049816064
2.3060365165854524,6.341906010504058,4.239507985166981,8.078449393133244,4.933498140195735,3.289825630949813,4.6363988180357225,10.846903885524796,5.699233840848793,4.84466280374096,5.913534948716688,4.130056922964911,5.912678461390142,5.920474674423128,5.294449001348947,4.413280093925167
1.7650456898060796,9.071656922166486,0.7155227596788691,8.526527534796024,5.653027239900368,4.740173986560931,7.718417015290475,7.335907720865629,1.4348914835066149,1.8752944647133576,8.619186054614175,6.8249498290998245,1.4975757959418845,5.650545775895689,6.095798634367373,6.008470829840891
6.229540737727522,3.7195278161496015,7.384106034118931,1.3323806510463818,1.3608976633836587,7.604435512828825,4.372371394818453,4.443984253727643,6.173126086011389,4.79921286448389,3.070285390541615,2.6551488779960213,6.587045522319612,1.339593156410687,0.2147384966374663,1.267519961809767
5.440289283770641,2.6387630645516538,7.167302140763772,4.6433409735649445,2.518870594548291,4.093014694981799,0.8949101793168808,10.936935306187957,7.300213390767857,6.307351704962493,3.186009805171196,2.3766562370685165,7.760638269816453,5.635461178429121,4.346293861773932,3.2505062352717724
1.2023600601931097,4.33194389830307,1.1875997795558746,4.208481692092125,2.579489186249276,1.6721166404185093,3.620730572533127,5.104020567799586,0.2313924230632142,0.0483787303504392,4.087046155925167,3.0974793069543765,0.3966238027384374,2.221601553883562,2.5992014702197688,2.705698783250736
6.851483535658316,2.432821552586926,8.437908280129836,0.5471519270559337,0.6881712210292257,4.944841702310019,3.37201255543739,5.09650395556234,7.31971608747544,6.174838819348231,1.3822757463132227,0.9369785009442476,7.988443494217213,3.2134930498682195,1.4876364331266303,0.3436958744097245
5.334764688375786,0.9354646665734538,6.319503323597942,0.8584906957569167,0.1245773264756113,4.076211879171383,2.147874874257393,7.572316638011672,5.472898650470318,4.622032143673788,0.0755828306082317,0.1005111263737621,5.737917278696587,2.973914453286881,1.7003950691234997,0.8579951508352499
1.1054104633770283,0.5713095884634765,1.993690626050032,0.2883809221527968,0.7400353993015187,0.7188773755289306,0.694698198859065,1.3991563130453573,2.2340682648852117,2.112739210507506,0.7870044203753324,0.9224250896795336,2.832513537695222,1.8063517414475887,1.400071135730114,1.0957611643298666
5.076371445325385,0.9173347772360004,6.601365092118199,0.1685431862218589,0.0072144997569498,2.316773026804661,1.64564152886334,3.8064084410688777,5.920256890339985,5.177492070750931,0.0328285271454671,0.2792655656804648,6.601387650005917,3.452430606303801,2.053615540527506,1.1740562371183678
3.3681458312492367,3.571412410837034,3.564816411532739,2.3057746171387983,2.217308868765798,3.1941101611725653,4.0250338397678345,2.0684632449115474,2.0608988644132484,1.5159501608071455,2.999505418538236,2.4059646415996543,1.7438938795317078,0.7287295530598571,1.491947426796203,1.8417911110233536
0.3742471405208594,3.916272353537659,1.6709477936410764,3.4559492965353407,2.868212109117714,1.8440184466493688,3.69595376300623,1.827656877881482,3.028921357350386,2.9748282675646465,4.179688779766533,3.4540320130824727,4.126048870793971,4.539411289175882,4.0639162174709496,3.6427413738533536
1.8835648016990716,0.072559699965037,3.020273471841985,0.483237059587033,0.2584864313110593,0.4769256021117369,0.21306641359633,1.1225884320424546,2.855920561765428,2.491335124326783,0.5132799428458892,0.4501438003335121,3.238896596557004,2.024974791607632,1.2457000601402486,0.8093423965810294
1.4100338535906063,4.4638698359220434,1.1121253838894771,3.8111151244482286,2.9068351808737827,2.1270337055306348,4.289771961307078,2.642556845009928,0.8819206931538126,1.056685678779676,4.54187970288462,3.4825154088722226,2.025373732781194,3.742873992499188,3.7602264532632033,3.5867447118258857
1.231266063163682,4.64810961326981,0.0427016681294176,4.36095536563032,2.9243143547415578,2.0000480614060505,4.297364904627184,2.904301906596584,2.1331090728467768,1.9995325873374163,4.9491158173105365,3.529701395532646,3.552048467574416,4.862219049943385,4.304867460338603,3.843859308864336
1.132502594127752,0.3941222000138431,0.5092757918894897,0.529262158139586,0.1067475605863599,0.2364113139808159,0.4463208740982267,1.3139294621052795,0.4285823894986382,0.5473525763501481,0.1365858522854193,0.1842839233306925,0.6864602741639345,0.3113171258124031,0.403789251340132,0.3927310211265444
0.5942060324793683,3.3661587959210166,0.0840784396166824,3.2222323753812585,1.8811301596045844,1.6531746793701885,2.863868424147684,4.028114169831984,2.252127167226204,2.074254149396902,4.138643520578928,2.8396532195020754,4.186531048534727,4.8978724941961,4.182239908143113,3.583910669164154
2.988270937402412,3.072391142271861,2.148088327053447,3.226717032976877,1.225243152167807,1.8137232083233883,2.645742409308303,1.6052689155795687,0.2416235847617969,0.0574039310959957,3.327341952934232,1.616364393768304,1.5499089551788767,3.0044446430454306,2.410591971285956,1.965655838242804
2.7415834712959857,0.4275986626918904,2.614724213229493,0.6550850984103196,0.0285740243919274,0.1187089626266901,0.5425038746191237,2.0168541293445266,2.7212996855214246,2.702033975327195,0.4778482721121744,0.8790248936634963,3.825123510149293,2.4540084173711225,1.9371406338608352,1.5710663636022435
0.8134133467938529,0.9832550880309974,0.1628384424566498,1.154373374351012,0.2531908770123099,2.1901364185348635,0.3947134036101829,1.8105608247341305,2.1914481686600595,1.7492656713565715,2.223796476765189,0.9902476619608898,4.511467653970184,4.152545810360257,2.908642338301677,2.0488939186092407
3.83243886832547,0.6288390728836148,3.293324896894923,1.2206098982566598,0.933831151726296,1.8595159425522607,0.0790645678505548,0.7957394200972265,1.4372439621480613,1.846997923214012,0.740921275099959,0.7434373737511324,0.744662228525117,0.2944470169863985,0.2217006779479624,0.5935005939493445
2.6955165846850075,0.5499380092400674,3.01519941392942,0.9671591541450972,0.1678697888800009,0.9935595396776522,0.5461285601544574,0.8559840417816038,3.555469899151669,3.438315719867747,0.7470138163061062,1.0381426019732505,5.358291934180661,3.5569089112187062,2.603356980098761,2.015619305806486
1.1642410784029398,1.316673548675389,0.2832315303490773,1.04145046279878,2.2395565564476296,3.3455181426825806,1.9077074268389431,1.901096888724059,1.5546849181396496,1.0223572755953685,0.0224598960333555,0.8307678454582401,3.5956395019958176,2.4241682385452394,0.9950347612970024,0.0850196572295667
3.2167261176675144,1.172274221933712,2.825125039507389,0.4493793122401808,2.230242689175274,2.170527648546469,1.8331836410109157,2.646736892907664,2.058878751900128,2.394673363449669,1.2368565668921274,2.057142926162971,2.241370001515488,1.7640626217411628,2.0584864682587014,2.283116785317783
1.680508249618459,0.6955511913498462,2.3633310457816616,1.1345367947932896,0.5485589251336966,1.779403928207924,0.6178744491931809,0.8093020469478072,3.1994284777774435,2.997011538363214,0.6291212525361711,0.6951714476325659,5.157671180863643,3.4506194140778623,2.311062025137522,1.6577326428820571
0.8581305313520726,2.3689017644421373,0.2361422447142906,2.191954024924728,2.997144661142693,4.323732235783116,2.9528708908814494,4.30195834899891,1.054161565529876,0.6540714297250325,1.2535207829211237,1.5327668166638402,2.2262858434132067,0.8543757111112142,0.3812080851232551,1.1109733488246167
1.5542137396820106,1.7650837217408686,1.2802098344597646,1.333308334110857,2.255220719332457,2.483893457130072,2.3645409608042307,3.169369165135432,1.6624499169305214,1.74519989521613,1.9085772667962877,1.9079733441694469,2.514423999337316,2.423374823406653,2.43489522412551,2.459528617448127
0.6885597691730094,0.4887565953540509,1.569316395118836,0.7387594789387446,0.6299801243625964,1.955901505537284,0.5117734695159513,1.3215417142954855,2.281856053420375,2.06098602812472,0.5139594083566621,0.380948656132853,3.710034620805653,2.579575189810398,1.5741719843612008,1.0316017288986077
0.0752540167069693,2.02849317785828,1.0989061484722704,2.117119726774451,2.392096200125728,4.375745472470912,2.5333835427578717,4.076896171208273,0.7619945393365857,0.6808272356254363,1.276662100141154,0.9826474776080474,0.9107186335827784,0.0202432029718869,0.7349046547502525,1.0995135642490288
0.0397603782154867,1.6908685389611442,0.0858926036108549,1.79609570814198,1.6761028823107882,2.481176371844289,1.9904328531258884,2.818843345442043,0.9901396004689448,0.7786617970150012,1.716254900852702,1.075336499244692,1.939993427686879,2.004997505738473,1.8278693486643416,1.669972133464479
0.2991100118165111,0.2376413781325617,1.080593340341245,0.2027330485155385,0.1080187307522901,1.4546838318843731,0.0389551978766036,0.221106518790469,1.3289480931262716,1.2056284595690716,0.7175996002706295,0.5214112551265622,1.8289463256355865,1.568629344979798,0.9930237247611772,0.708051397887969
0.8325147632015728,1.1648877702216345,1.33432166140976,1.587742150560807,1.2969107854644166,3.5292210078684336,1.4353300860538951,2.234945423513801,0.2549061500525926,0.5277835484725379,0.7045229037034328,0.0478947421533,0.2389458276070595,0.2901344609603941,0.4982933804926368,0.4545806473464013
0.5666810097134292,1.7917771770625848,0.2814967069449636,2.3281791467934045,1.491940744340008,2.2962101208431767,1.7066600213785588,2.4923673407263007,0.8194887947252862,0.4480273678487716,1.514021438472696,0.6604233697475603,1.32567504995089,1.3850762939524506,1.239415702038111,0.999483218842432
0.3397885191033047,1.093736983290844,0.7149819889636184,1.0922820096786374,0.746502629741201,0.5485244649924645,0.8580139645925424,1.2557697111282795,0.5534246700824621,0.6111801956954857,1.0578970320895564,0.9544005049782474,0.2945396677307066,0.7704634927117671,0.7584852493422325,0.7682877281686418
0.5592023996377744,0.8031434470077343,0.2907319117968185,1.4708011558574263,0.8092239248328514,2.5025137793272583,0.7541647108380012,0.9761782535080928,0.7619263699208219,0.27728528621682,0.4681063363447659,0.2225899301469383,1.2631871431539778,0.6295996210637986,0.4559189612935492,0.1415262525220777
0.1016142556362922,2.260719765499473,0.6240279036926708,2.8667117210447177,2.032346557231504,2.2640489853702848,1.9946657442070013,2.476495669159661,1.311800211262698,0.9673020791619572,1.6544962357919406,1.0180216787912002,1.2658180807466444,1.16744974094537,1.2343189138651276,1.028178098441602
0.1957073944798253,1.4208946677451486,0.0558386906568593,1.257041140873831,1.2494013481269022,0.120664611223205,1.372203459842268,1.271244312138248,0.0454375191150671,0.1393525709315817,1.0539341453350222,1.0833150214729752,0.4509798971411047,0.1892353074425025,0.607445035461029,0.7820584877446892
0.789727842841069,1.1178405876861213,1.5970797353050763,1.808405799118484,1.2398890344021425,2.259615437763988,0.8950099918107064,1.5720542426641253,1.9549586943687205,1.4962249037859203,0.8080092218328225,0.3934594567953731,2.047940031373779,1.1849511318792534,0.9092314857884608,0.5784648802081973
1.1088502997367602,2.4200577286903897,1.599701207859319,2.779571406300468,2.6020135626533136,2.59551737660522,2.3330242622175152,2.1427679066371987,1.9151151452014457,1.683137760092281,1.6688079811566787,1.4502259055321218,1.7118574161943505,1.2238044988548311,1.4897980905280694,1.3588180935363248
0.513306908721205,0.9433142369504016,0.90822509231781,0.6261536857194656,0.9420402063920356,0.08362915885158,1.131094904676571,0.8521747661015473,0.4170530372435284,0.2854332380328372,0.4718385967592073,0.5226851229338649,0.3874154285166344,0.2722441405663148,0.2419667757924291,0.3393748550165751
2.222489765174915,1.2550632850313406,2.906479163538757,1.7418155099573127,1.7566809071321483,2.926647616537561,1.1954479592001483,3.18464563810486,2.4398607199061004,2.1764484543507887,1.049208867465591,1.0381500578510785,2.2223414695619645,1.5146996149417982,1.326832488640643,1.1919192767205082
1.3120728659704444,1.4492989821425084,1.5081778276419442,1.5478930154212076,2.1129591590743413,2.8656455140069133,1.7461741202523946,0.7197586830891245,1.8472772218398088,1.6439761637484889,0.8635010300060042,0.9347188318423624,2.033982215528246,0.9599998601155434,1.1935758062518316,1.067416523161156
1.4466645803777904,0.132429992784095,1.5909879243162948,0.0917021186322841,0.1106228856791951,0.6082581412591788,0.3332051158942946,3.7581793821759057,0.3736017631052526,0.4849772440303344,0.3142949074204875,0.422157327977704,0.1818401330743313,0.5575090164574029,0.2755187207946998,0.4556058139774865
2.3779321961651885,0.1676001697159996,2.287894480927111,0.3597171889261066,1.0808117557509034,3.540093354058606,0.5208902309875292,3.631170954482053,1.463665707333428,1.4081024219576452,0.2757544400986997,0.5566575351011522,1.4095403360607186,0.9570015126785278,0.8448175343493243,0.945804860264058
0.2261894976192877,0.7050377598561184,0.0772452994893804,0.5924560954090641,0.1544936378993089,2.4617689362677604,0.1796144415014176,1.717350492176677,0.7605793222722212,0.4418237709274724,0.8898065264307302,0.8316130238462165,1.5339579248452022,0.0545158773248237,0.1177860870538656,0.3407487178519046
1.76266018776718,0.1963054057497526,1.2494416736102956,0.0377390290798018,0.3746684358245744,1.0245468844051526,0.2709436494645807,5.052306617245214,0.2163746246427322,0.1829479315556881,0.6605103513581128,0.9906462255025108,0.831462667543768,0.5261106466235407,0.5686028037392008,1.0202950980097212
0.6528981823566831,2.2508445541979487,0.4017426107918957,2.275403174390324,1.2975069277054798,2.5668202959234963,1.5924649405267353,1.4439113791596307,0.8921382136997877,0.8491310758451132,1.6507630970556004,1.3504622977245724,0.3966419402249972,0.6543193383433211,0.8486648996857733,0.6491042395665199
1.5577711830672367,3.1153729515861226,1.9140655913742428,2.703163017893745,2.490264884485721,1.161549205795259,2.72981516318144,4.073859361802215,1.0078116159968449,1.4812640854080623,2.8991379085347067,3.0592742411949025,0.0270642395106222,1.6722229708928775,2.0922636479580854,2.412279659577392
0.8938934797739844,0.3070375442090309,0.2191868679343755,0.9256220561327312,0.1485200643434776,0.0597794795010839,0.0406791647251605,3.389060858454955,1.1166900885382915,0.5636838710172452,0.3123730447458861,0.7197855993444398,1.1701191817918293,0.2229404126581465,0.4039783528263001,0.8898625326922458
2.186447722955005,4.851381395561518,3.804607957753024,4.955418372202148,4.455244522607677,0.5444922809115447,4.327020315384168,2.6949549718857915,3.597474058883135,3.5420165097431795,3.799785876690725,3.696528460813948,2.6460978665479367,2.6888740167537795,3.0640767530878303,2.9370824631561545
2.898036248771554,4.615010012577915,3.324076660600795,3.916547031797556,4.397780266470944,0.3117634534980773,4.553803504374169,5.188241693540101,2.7533561283094663,3.22410859622933,4.245602265574243,4.521011009601514,2.249792747508064,3.323741156245047,3.850350565846514,4.091578046158461
0.7833588538427758,1.0870421207915015,1.96137019052868,1.9349432665950117,1.4259393956250772,2.655684575758907,0.8857155266852779,0.1565744272763796,1.704436694913868,1.2193784110883286,0.2305726264182723,0.0300890643729925,0.9576779665801656,0.0170737624188221,0.0378301681127108,0.2363369841843212
4.482991569541268,6.074545111175949,6.021673863048527,6.218716742414057,6.607237727309902,4.663391818588258,6.080404125826854,6.4121644575008485,5.354422832219383,5.256459070179407,4.856942339858072,4.947510093158956,4.484441015465743,4.118031422208869,4.57223935052345,4.55965164243473
3.0877481868545704,4.756314245786649,3.6485752802250886,4.149614681241346,4.664587879310096,0.9568653165111192,4.743696097019951,4.935860122399273,3.983171823739577,4.194201943094459,4.541512521843647,4.591600786613273,4.387358589788631,4.484387914980546,4.721761307307062,4.618576170446811
2.1115871034646023,1.164562484132755,2.692412599542502,1.8547085287876843,2.397366254705533,5.925602317472876,1.6536961557711862,2.840687623969867,1.3748271698799908,1.103799247665103,0.1664601683412616,0.3717285670886685,0.180963793549056,0.3394181360597407,0.044453514106332,0.2152413705001397
4.964501673808851,5.274688383275706,6.024092052163248,5.572841041842169,6.511322910921802,7.443632091321233,5.763676402906476,7.613161139354392,5.525961813670261,5.262846348709675,4.262425967071335,4.322584912704132,5.269054620635332,4.306265052020377,4.582902278641042,4.546667249429299
2.421859413286759,4.089648480224739,3.3335958762612634,4.057022127771907,3.607399402522013,0.3298979831371333,3.5616910020840926,4.338832009769456,4.670731694121118,4.451236280133717,4.176540596302869,3.698757016944498,5.7943857895239255,5.003447398348667,4.699740873855911,4.088493664664569
2.0948973033224494,0.1350236064268948,1.7946188414508055,0.400795646914073,2.14483788001628,7.720334499267342,1.4675452532259872,2.5695657852400147,0.129759813667567,0.0697394616552458,0.7866101273837955,0.2170218039640072,0.8747609496850615,1.2364236273585592,0.7105306141831678,0.1020080261651212
3.711873913265196,3.280592019546619,4.395220978616191,3.884318277697793,4.497596126060885,7.226804271539971,3.7216293353062433,6.11548482612366,4.55555687870662,4.055279776889234,2.673694475896381,2.4707615221618777,4.974221676591926,3.4668026740611877,3.3845116965890423,3.129741203171808
1.7749908787220416,3.458346165286189,3.1738086904929226,4.194873557219888,2.3363641557320314,0.8328947826901434,2.087371322290279,4.409032848856153,4.993563615221591,4.402890744356567,3.748986997853578,2.7644763504581125,6.191248301663274,4.992178416511448,4.227986396757469,3.206449873027922
0.8442157144312752,1.240647631541508,0.0481664295428103,1.3726808320661696,0.8370026469263401,6.57471424638233,0.4305129162679009,0.1895758060597501,1.2332800936705954,1.1912230614591497,1.9219197696246564,1.246618823187097,1.6778056486476185,2.152802627990272,1.5990101959261125,0.9607719240562148
1.9778237944892787,1.658951140138342,2.666317791822255,2.559731064002124,2.151578480755413,4.237818108819326,1.4569618673693157,3.544318091558355,3.457010081041375,2.8034904109353924,1.3766179181942384,0.885037372409343,4.097316496093887,2.4034145135267666,2.0328490911126917,1.4894833559994671
1.6242971290329518,3.040541463775341,3.324362135350423,4.255812070357749,1.5995258536641046,1.3905006036589969,1.1658468706855487,4.887350590401824,4.843889426524585,4.12767486156624,3.3482827068096945,2.2105125707987288,5.569172826359969,4.488361516386698,3.569407724564954,2.472662863209657
0.4300289214352197,1.5647621219336685,1.294826496244088,1.844447912560291,0.2915222590808852,2.9856394489131555,0.4544158590877103,2.7299028170099917,1.6183125254273882,1.5562024317751106,2.05307634767356,1.5300172947546518,1.6890226741419865,2.274090355169627,1.7778623219489251,1.4108663879295342
0.971550540305712,1.2682295996816375,1.882513941184428,2.204273221612439,0.8778068649707134,0.4992788553024931,0.2951958150640745,1.6575776572153291,2.828122270021529,2.2482660280100983,1.078552442920328,0.5328375023782908,3.1457813554211054,1.737243223310556,1.3630239767620211,0.678525796267567
1.477329561699074,2.100012570129227,3.0161983917488406,3.197379824063912,1.0477325809886082,0.7450053198909039,0.6298798808884616,4.21727333070456,3.733723881857559,3.1520002519943624,2.376349547260503,1.5162381815988963,3.9946360096751383,3.290028924013136,2.4633770148293044,1.671120434184898
0.462315770186299,0.080476394338488,0.8892908840710909,0.2723473718002225,0.0539467580221462,1.0086716110622165,0.1933800313755576,2.4408463523711643,0.562989077562813,0.4619419273677092,0.57707279064409,0.2798339618439325,0.7706421113456479,1.209635906310107,0.6523541786456146,0.6448427509040764
0.760238289023146,1.4714970724287184,1.6400483510675912,2.058503239199013,0.6510038367457884,1.9392541517416728,0.2407693345529011,0.8026551265728816,2.271263976147692,1.977271203930396,1.276238710058589,0.9643417697084667,2.1482768768719787,1.3575737817665914,1.2171915226643,0.6644648837275087
0.380928044962344,0.1650751635806422,1.3068629046298916,0.3410343060326255,0.287530753735389,0.4947866145995352,0.3600010766335746,1.0599102416822976,1.3114394288133138,0.9544008054320764,0.25502172383481,0.1582114764029949,1.615838235036687,1.2460193678898983,0.4836382748105281,0.1863786733562058
0.850558885443041,2.403140191772046,0.7194313761729312,2.329163313810229,1.4579369366374149,3.262080619955799,1.129862845442949,0.8155940406769098,1.2064595902599056,1.441091388234744,1.7658290904960054,1.969857260594376,0.5638071698188867,0.5218502846117492,1.328042805767962,1.128483092582158
0.3302278313367566,0.8028012655429642,0.6186647030667309,0.8086457767200077,0.1935465743539044,2.364767256043516,0.0934981012156814,0.0743620251301777,0.8796897411452083,0.91866788496408,0.7765212632042253,0.7853719186818093,0.7550069367297496,0.6242240350927271,0.6885353846575755,0.4711036841273115
1.9252910254596929,3.4357513334488665,1.6878732140394348,3.5372091275396667,2.6934678234487635,1.2496703788836028,2.190015302497617,3.990408938971597,1.8886205208798312,2.12493753057848,2.6630776782173786,2.8214077906982737,1.047271825814759,1.2482554794652134,2.1665556146728164,2.0624567424069857
2.2617121612313,3.954534722445203,1.82861470517415,3.835851333909956,2.772986615977116,3.2245871838031706,2.2669718904464844,4.4701967071696975,2.1960410653217366,2.6157615148010045,3.3110386931961493,3.5852439699764727,1.3776427492580865,1.7542032464026898,2.821111774058376,2.6522399370935554
1.1527683040126906,1.3549815016869378,1.846721219069284,1.826658587271188,1.4764215250966135,1.7507025484356804,1.129228803367031,1.8810107254376849,1.5585211977179083,1.342501562194883,0.919054911984814,0.8014065543259257,1.0730327889816618,0.7480783795171806,0.7497700618927681,0.6557495479627704
4.316868723225815,5.91155461744852,4.364477989213047,6.212075060172074,4.961341926001115,0.8461649408927236,3.959450732924285,8.142088680663917,4.292260995438456,4.583976556454768,4.822581694690091,5.095965785126108,2.94397785655554,3.0585070809471846,4.262335123692631,4.048081061426052
2.300708880697401,3.139635979195072,1.0351640237593536,2.7934375838885472,2.375807388020891,1.9656155068030028,1.9225656267274476,5.416942459427166,1.424002482168408,1.9650985913659105,2.8164304523726926,3.200211116605881,1.0775964913352016,1.604195248473739,2.6940006116093542,2.686559073845887
3.088031791809531,3.6225092745343375,4.517871064854269,4.21834019795933,3.5510573738477174,1.4789363687132724,2.8054638165797847,3.873194700477328,3.70466741335313,3.5338291095766534,2.6761455819468605,2.7670975908980786,2.387631033393836,1.938683749170756,2.226112377356544,2.0675485037250168
4.909093491887093,5.400341613201384,4.5567706546501086,5.420903575070268,5.042249523297549,0.3243612799947097,3.9495897115859258,8.183512421162582,4.116940080524417,4.532881607231191,4.383198340492664,4.9951801968546015,2.863981328792072,2.8440522859951254,4.1481508429707,4.114294799211501
0.8105387393474768,0.5473626355905523,1.2530184220745395,0.0784245641978582,0.3719966282147897,1.129504427409212,0.2109814551242372,2.835287652815229,0.4662443593128209,0.0413561791980701,0.757663925802925,1.1511251974606296,0.1578294611213699,0.4142150174233399,1.216524712170922,1.298419064817911
3.463630330026879,3.2078337847620872,4.707755015544784,3.618038900884722,3.558287966315013,2.1961428968578,2.735515974165768,3.692282305006904,3.174663393283316,3.165140835016283,2.159577192899558,2.603918198972424,1.4415830155316345,1.1973015478445503,1.6741659823968429,1.7815651589989736
2.5959396672272224,1.1147308567018577,1.2912508344581148,0.6700735111413394,1.799422691424402,1.3923130679193312,1.1035640483582636,2.994484655216501,0.7503932123566361,1.1974382249438236,0.6740689341068098,1.5570835744690878,0.3109862004562238,0.0513733970462472,1.050094332898159,1.3344514371855194
0.587075957979426,1.2604758465392614,2.7082130225873087,2.0831152306852214,1.1367463404292284,1.3429973837988545,1.0225389867067245,0.8146454731473307,1.3083244884272904,0.9564345008704116,0.7081837459092934,0.3937984296951509,0.1989381909276915,0.1942774647795158,0.2313636775558007,0.19266098285987
0.3959505924640041,1.9388412622293725,0.2606891217751013,1.7434321989896056,0.7130417819360026,3.2422533899529817,1.1272899037746598,0.8346006431019113,1.7381470426280217,1.6583603614490912,2.384652862412562,1.7498701630338909,3.1207167223435395,2.909079936150286,2.6413832457646675,2.0340179406851533
1.7962866884078237,5.304400886861643,4.17033914511731,6.024375899146163,3.68591837461844,1.6771821791804271,3.736025386220087,5.219345398524041,4.479711140094546,4.170354934321955,4.926471775953847,4.029301103173797,3.836508850353825,4.375178250651851,3.9866414571442985,3.432523260409358
0.32075911095788,0.4154571874443835,0.7920740262369108,0.4854075717427886,0.4133692173973884,1.9505178442974165,0.4829255922332436,1.551165456234772,1.0511317503544948,1.2385580984154814,0.7587458281903849,1.0186001845577837,2.8103257307627345,1.6025094240144775,1.875702014897147,1.511676031755094
6.073028327907242,11.100716872361712,8.398954387145796,10.903639785001582,9.02054877948442,3.4686365213144468,8.658528951962154,9.608078494072837,10.37179743966918,10.360313559524483,10.419151461733042,9.899715784818154,10.858509713835378,10.08018706642925,10.38847442922811,9.240916725663745
5.89980688556834,10.6158048520767,8.955951695790766,11.267744151557826,8.569890067877763,1.2793115137474222,8.120945619715872,12.180685424223874,8.924265419801632,8.836088736108218,9.649928811389094,8.93999162723575,7.572781041959026,8.317148434267212,8.474301006465991,7.805535823569074
4.356568796941199,6.096291922032137,5.046553893266676,5.202858247477159,5.746285034221212,1.6676345840011215,5.357662602443444,2.8821499026342403,6.886987522761372,6.997977675481426,5.6938998097651,6.002040609928198,8.20060794923734,6.280139924594835,6.738289583499346,5.973057386633191
13.509355988252675,20.6520488826315,17.998691376507324,20.251891379585103,18.19306649621268,2.102723976778728,17.021083392806776,19.647564047349366,19.544802687159297,19.682582292720294,18.881509576632435,18.662647605728992,19.18688251430876,17.881754499388073,18.769835085835226,17.231259657946087
7.516025876041036,12.146090157634868,10.591149022315062,12.52380343238303,10.25831797926666,0.6459170553267075,9.69022531915467,14.423163379639607,10.345818147559864,10.417641124401896,11.11437923412133,10.628048414185349,8.978466928049274,9.756495782642082,10.094060266925322,9.476878016245983
9.935037592429296,13.308206791076229,12.46726320190233,12.490167097971932,12.691032463968304,0.0302526928928026,11.664424511584862,10.93978794972076,13.919979605652872,14.02519540675435,12.06556434215318,12.446632609016795,14.528130476220388,12.214322865698676,12.97539894150198,11.88821219173796
18.535346037255213,26.17947050862931,24.272822328846598,25.611393834081724,23.987962542452976,0.5322869311841751,22.31104230810874,26.677913349576485,25.26919259203144,25.47259297907317,23.912018161741983,23.92492700980316,24.59915250948981,22.93533952100945,24.011182303948434,22.340633367985
6.25382065145914,9.637152306560772,8.727109286479585,9.78857471258216,8.310765022788248,0.1529601601087353,7.92130101464387,11.648632034021745,8.425959618273193,8.514328244161227,8.958139197854758,8.629792741672857,7.508117840038531,8.13310687386852,8.301257583575824,7.849682087413794
13.981782107576722,18.07414870436333,17.602861752606792,17.40370784380722,17.460649117567883,2.504116962564983,15.99970660818516,18.070218635832745,18.58313370742406,18.674068559882357,16.428212851414056,16.778979226869957,18.784446132760078,16.461090181383963,17.310973006858042,16.094706894988395
19.05418000978232,25.29605687282844,24.665343682243083,24.79820658393058,23.886539169502527,3.399636980428736,22.124019732176063,27.74050219843832,25.187027840263557,25.30016004078807,23.26376619065149,23.330482681400994,24.752736634821964,22.94680252601024,23.748575436855717,22.23026429138296
3.655094674161107,5.23735026616964,5.242592366288935,5.371278793779996,4.606224736711665,0.3260724790125033,4.385736256329327,6.661384160133891,4.86683423414979,4.873778805853959,4.941484191142403,4.746078881911879,4.336527696964192,4.679096328478679,4.618817543060463,4.3794952620779455
14.139190727437695,17.673342597104277,17.65082592215704,17.16887255432313,17.32980875327746,4.291640346655575,15.906969978901069,19.880085526244773,18.352048163316283,18.378520320406206,16.29005913701635,16.485183522434184,18.68890006676498,16.667161906601685,17.261471894738516,16.14856552668688
15.48219195654175,19.031353710032523,19.74889371360602,18.80704686677626,18.597625463123187,5.269606087895625,17.055739286528812,22.89788522670806,19.89778593428038,19.842044083836196,17.666060370034508,17.711409919240836,19.871717462278603,18.130360797942217,18.47738098407769,17.33834312194674
1.7733597562204757,1.7296340312105976,2.6153587538234966,2.057748463991368,1.679826847060248,0.996688492847186,1.3814753189259503,3.0219523083290936,1.9955160738034896,1.90594988462599,1.536300762760927,1.495291919076216,1.423573715936989,1.463640026643304,1.3613252408305412,1.3047237276675574
10.403934677340796,12.464279080621155,12.74081697971566,12.00150380369632,12.525649455100968,4.335541240196933,11.58664612366625,15.170189244898449,13.408514273124595,13.389714247557084,11.788401431648223,11.856294629566872,14.234276547064017,12.675305193262046,12.87040321963096,12.06628152075866
10.059300901285733,10.795619932737496,12.45413017626102,10.827237273180383,11.182110607048728,5.487814172056692,9.974030488362914,14.786546252043184,12.283370256784211,12.130954447544298,10.080950373333184,10.199970762539706,12.456631069092449,10.937735493747072,10.99985777042014,10.344605243430836
1.4919685682585406,0.4918099101915096,2.047433409207528,1.1343957764323882,0.7542647066892059,1.8552246736443372,0.1481813805885501,2.32364645672262,1.0573467646632793,0.8953179068987449,0.1101143001365745,0.2056826311164403,0.0668511605427131,0.1278353149150452,0.0995047460849027,0.0659863545422805
4.920362731357866,5.425269173839492,5.61013753160465,4.7701673290174735,5.834425715230658,2.5740178726046423,5.584426818957905,6.6038711429789325,6.377958094943462,6.419742705096335,5.476531587153554,5.585201292515359,7.674155707540008,6.622400432433372,6.569307762386583,6.175903616213401
5.039589644122611,3.941600229155807,5.8394376453752805,4.033170922189047,4.723804420206639,4.036311762138329,3.8807109634938826,6.623616272635823,5.440425358887346,5.322124360449345,3.62762295140201,3.912747713656765,5.530834558312305,4.362757252346701,4.395232075370233,4.167992979580569
2.0645777863415606,0.8443490722489742,2.777003093056429,1.7843197308033787,1.126744767624258,2.3977653734733977,0.2332424977362848,3.303013292587053,1.489350188846435,1.2626179144768983,0.2224956034730656,0.3472971184163089,0.0448303260743614,0.2569266718828575,0.1257929815560645,0.1042726937745666
0.2359740824379397,0.1033427594436684,0.424577740031733,1.0894755311176798,0.4178209912545689,0.0354584723989033,0.7894177971601319,1.372242198164285,0.468316448083991,0.6639208192689452,0.4024275984552385,0.6603003955336408,1.9924234160107213,1.4289626131409332,1.362873587821193,1.32530357387677
1.3288921690849076,0.17161334874557,1.2757666435481667,0.2174903702744348,0.5165610907641573,1.5652230054525562,0.1095079052803669,0.2806568374967595,0.8369470076818288,0.8295675867477499,0.2773933056599151,0.1110274277517806,0.7714238613037789,0.0797106819205637,0.1619859392150728,0.2048737797382944
2.076249885107446,1.0563554010654492,3.016966326414749,2.07777087612018,1.215666153746349,2.119019700326929,0.3084988752293789,3.279208193230837,1.6323879369889127,1.385337174996108,0.3586638819165166,0.4523304199722915,0.0067353607202171,0.2503641428148283,0.1288892445962544,0.1247684037731282
2.3760227360448294,2.5796079595637345,3.5946482818574133,3.748151789555351,2.2640230526574285,2.0251423631479826,1.475164721116247,5.561022386640248,2.571718819798773,2.2728191379878293,1.8855637599563373,1.6227836954835535,1.0371988650940978,1.1411306353568873,1.187112136488849,1.060430123023548
1.4529555756007522,2.320734586770918,1.819111896226616,2.6291223954767418,2.0135538778304447,1.077805104920734,1.84881623693566,4.204256287464757,2.113674536538813,1.996514412333907,2.2300121259070256,1.8958786146442144,2.1963644804315567,2.238795448621656,2.188014458945127,1.985911041175406
0.8012084076524726,0.0175389480156411,1.493543752495519,0.6504409196907108,0.10403147007748,0.8188121200757736,0.4609408074929089,0.6067407037865999,0.1667823450376762,0.0549716831842062,0.5970892437415323,0.4013621484243082,1.3630403175268349,1.3279505258810724,1.1709219830212336,1.036560655043778
3.269919618215191,2.810627141803373,4.320824803965172,3.807383451906048,2.87036829112062,2.719611279544906,1.8766693649614157,5.798535672497011,3.2262820207327145,2.9792805126531974,2.038729442754983,2.042637974186132,1.7911112367438466,1.4636583527499996,1.6543036467407326,1.54040971071863
3.941683591887609,4.080659129471677,4.7650661098407845,4.80345908888618,4.032822415039597,3.0439274175355564,3.209297911609216,7.715764657016888,4.951645324814464,4.633999006859959,3.741646124980347,3.4449306831324424,4.922592146975804,4.101785547029046,4.047333902873639,3.6012796890403544
1.3042145101654672,2.076014254389282,1.596262151759035,2.243207358896667,1.7987107667732154,1.082233035442299,1.8007943950635266,3.9329897286019113,2.811477938917001,2.5476634924825614,2.468937779086861,1.8962627369933076,4.056333518902848,3.512314407527992,3.053983584376774,2.5762111869127287
3.4635862879756854,2.7343201586710557,4.248260631890247,3.36089392394355,2.9636589100194177,2.029511165949738,1.9256925713416295,4.361422040969077,3.363323186440189,3.23720194862314,1.9086828317249616,2.21468988589527,2.152393521878091,1.4020221344123178,1.804045275830498,1.6765894641132206
6.140817867822184,6.256419760570562,8.162350843424733,7.641970403351934,6.016796459995457,3.957491343739158,4.60849002533803,10.73147862271233,8.545017621761913,7.834266798702245,5.711298251242171,5.142896231560089,8.467077481256494,6.613391624511115,6.242787083253269,5.302818353885954
3.2015029764113567,3.797272093246152,4.884076785018053,4.965100672015298,3.3590289453000546,2.9781336071006725,2.7959150173357425,7.782225741143359,5.851752713368258,5.095796222569806,4.0261395207941,2.99506867908571,6.717925827591868,5.547007486855999,4.580441677233637,3.708743160448505
3.499708051520093,3.640071620672188,4.59677116985249,4.143871259136375,3.4507644348047286,0.489110224833694,2.5135793260301504,3.777740649676951,4.498858300765862,4.307934004981333,2.87749905641884,3.0247800357741887,3.794418914278147,2.631301298990296,2.933263476697743,2.507096799399979
7.439783107226958,8.314208839998852,11.25499855973605,10.535953544252488,7.469675117278774,3.889608893179431,5.749809470760535,12.76093682389038,12.163872424680344,10.880522639317968,7.745077707112353,6.52194477845962,12.245704900867938,9.435318242770434,8.346827912908143,6.737579603514653
4.234156069920671,4.07529444910989,6.909276607272098,5.830320741372974,3.831741987177711,4.335325374577597,2.8732586323892164,8.722827899486155,7.225038655546487,6.175963162182866,4.125107515916037,3.015474790229081,7.540225328787088,5.9087465726399735,4.623722114579875,3.633269010535881
3.1172369092351087,5.192794366056946,5.231516740844064,6.112160338927311,3.98265834738445,1.084642483430457,3.307501308429492,4.788356467253749,6.545293566097792,5.952246475861532,4.760262006722916,4.030387359649802,6.756290692958379,5.238188188727593,4.866753748639577,3.803876735953407
7.272135176394391,9.045833645115833,12.560462082575054,11.89345860363214,7.621610240908675,3.3682657045008044,5.970825934923331,12.875221798389564,13.978779269409822,12.210925669225706,8.652281825139168,6.743873237428395,14.354279480580397,11.070317017506545,9.199268328266555,7.100845912734084
4.495861484711016,2.98085560182696,7.138203441998147,4.511212677671652,3.4518393307264725,5.056013956868914,2.3088667889817778,6.68392336213196,6.217362664723764,5.355461540812868,2.705342130368752,2.2275624100223483,5.659416831914767,4.063080587818763,3.0806944469512816,2.481876730608893
1.8509140679524645,5.924956433204777,5.009282400659686,7.542925542370588,3.5932246346656083,2.1617526878589457,3.3582044523429886,6.020702754051386,7.960708707360397,6.786468002770315,6.13237778953526,4.140214516432577,9.414330701284763,7.717291906621717,6.287363496218793,4.524843429419344
5.688205092648383,7.814674705064476,11.09045463177548,10.613137484953016,6.301801231710304,2.8418273968479726,5.079822739362971,10.79970720143957,12.547511666793516,10.733489577428482,7.666517195191821,5.547422979885207,13.093752010725188,10.209070900864756,8.040631794210531,6.018718017806466
4.424897478997741,1.734411827818473,6.106982658994054,2.4265969017835456,3.0875792744968464,5.184665933807625,1.9338021723887628,3.8345919285971126,3.604576515131974,3.3658867503251466,0.9156834653142134,1.5407449052416349,1.814865372801988,0.953829377522572,0.9262218808307284,1.1240012084941542
0.2233891851022775,4.634115537078488,3.047025795227942,6.550418165991553,1.8235017568659824,2.513213409437638,2.1505693314013463,5.428249447063615,7.173232176371352,5.64999646474778,5.628467321166275,2.776274735120273,9.89387278403684,8.287798797127065,6.0004359962805935,3.919622424775056
3.3137383285611737,5.273177111272821,7.2353669635855375,7.237851221931363,4.212595019478316,2.496190006305277,3.6434471413635503,7.478665971669919,8.105053851271576,6.82140828761484,5.240696403357407,3.578681029363484,8.457684989523253,6.940234557315799,5.272185540112048,3.979737061658044
4.165378189108372,1.712829363320779,4.783960987636899,1.6794817241115414,3.3889734940548983,4.78980818457691,2.3491827372151377,2.8355693871691674,0.9826318608730809,1.429180628386442,0.2032264923116606,1.667531390988488,2.2189052958055324,1.7103216058226989,0.5843501919961973,0.4011960888598151
2.3206444754082174,1.5272821981301696,0.2923013357359174,2.817986154883769,0.6995441707462158,2.283209419424028,0.1858894530495014,2.235745773360189,4.037989374314147,2.7093043826557626,3.175295388217611,0.4748154612553339,7.681413864878922,6.418097949861988,3.990148378570322,2.228223231427955
0.904698179796771,2.9803471648057567,2.5924041721417943,3.7624849521675614,2.4389768270695225,2.0348498541734434,2.5844141723981124,4.574834492105956,2.5701609497443965,2.144649258696367,2.819364478880569,1.921653164139565,2.3181580391039347,2.8247946615134114,2.223823547135233,1.9786661545820232
3.43533779739332,3.339645890892534,3.744801859640772,3.3682648694659907,4.216720374028144,3.669129181643706,3.4138541528321227,4.7183295309923965,0.4564952322753814,0.3075861971968958,1.2021684151903482,2.556168975712799,4.910853899032682,2.7138359493372217,0.8539341575362762,0.4802171339662653
3.478561094032912,1.863020699727187,3.456423761448363,1.973480318247672,2.6798684569481424,1.6145363172518588,1.4075141957109167,2.3041956181395884,0.1085853725059511,0.5432864921199645,0.0614192150031147,1.531135947284687,4.081424582351572,3.2394719224659485,1.424291998728687,0.4709066770885348
1.007123413756979,2.195545330305704,0.953762433841721,2.1289427393117126,1.6649153809826365,1.118817095424844,2.423951535091909,3.251169588939129,1.6626573902124413,1.3591048203824592,1.7085912926602038,1.2961498587335312,2.7481581550611267,0.2119571058175024,0.2132513737415982,0.8054571950333553
1.9801061208376731,5.725698425055036,2.9545608178381397,6.645161131042421,4.811939732810551,1.6877880720099414,4.358143596277909,8.09449094377782,0.6065923310438706,0.0256550233611179,3.2535873312071466,3.5202801872727854,5.802715017060233,2.088431724291626,0.2252792546716451,0.8880029970033751
3.1953962611334408,3.873799812447485,4.771227221435137,5.402530378363852,3.165665464039467,0.6719980425495846,1.809263969449443,5.870674498884515,2.5032382644239792,2.407381799953507,2.097320110809232,2.294393815303173,1.166666640309851,0.5928105900969716,0.3278802054058238,0.4311755522157083
2.0660054397630088,2.879219538769316,2.2114881547907963,2.697270161258116,1.735527718600066,0.3692264734118611,2.8476425845867297,3.357833433732499,3.147638989812057,2.5850606434894363,2.080005967223233,1.5954207870909016,4.982171393365062,1.1620451820240654,0.3058042117977697,0.5528003588007531
0.0995411290181955,7.37499572736991,2.1438989043848835,9.382212780114015,4.500290127036344,1.008503259877215,4.438967013221113,10.373394856381498,0.1367143756726374,0.0171811618351291,5.001740066037753,3.871326424741696,5.331895887953275,0.7745555586354507,0.5208235917630031,1.058862815908162
1.6409505782891678,4.041752924890773,3.532056354438879,6.221086768839774,2.298138325274845,0.5061275037301636,1.241932542565678,6.893196684082507,2.6324398569532903,2.13973582948076,2.669682039396344,1.8664310796042225,0.252763852887611,0.4218008709683737,0.7496183953881159,0.3673695557576932
1.9268976037882872,3.703910038531905,1.0513061317448482,3.985733382351684,1.8783856299956696,1.8938587335067067,2.900741733075595,3.703365208241821,1.959977588299635,1.6076329263211324,2.856736452250173,2.053984661790934,4.152781790354908,0.404019704950046,0.1514485143380906,0.721094291258007
1.3921498812886846,7.327108109791778,1.324074372297094,9.84999414508006,3.302734870705473,3.6115403646524618,3.536140442625163,9.87361070576005,0.3551405849235198,0.0943624621273375,5.448173862300429,3.456582063729856,4.058298831908354,0.3290324727323766,0.9201869774051974,0.8805372502625213
0.6217841289840056,3.40559531026833,0.4036623587123777,5.240987995317908,1.186606030286078,1.775462027559252,0.8174657461186108,5.63425256167797,0.7518393036414306,0.3474440488916723,2.400718003964389,1.1794307947182103,1.1378493986966485,0.1275035016273932,0.4437718991165322,0.0438334235558643
