-14.4409,-7.91776,-3.76596,-7.21397,-1.11786,0.15054,-1.69945,-1.79606,-11.2844,-7.75677,-0.0116946,-4.64494,1.64467,-0.996268,-4.43512,-2.17332,-126.392,-811.544,-565.592,3640,-2100,-1820
-19.5148,-16.2701,-8.93555,-9.33709,-8.49238,-1.36033,0.0118695,-1.98512,-15.3944,-10.1004,-3.6214,-8.82516,0.757341,-3.55206,-2.32036,-4.13345,-125.904,-813.496,-563.64,3780,-1960,-2100
-11.7753,-13.4169,-4.41767,-6.9837,-3.53209,-0.615917,2.25682,5.15496,-13.304,-5.97896,-6.66524,-6.5838,0.056304,-1.92239,1.32455,-0.0542359,-123.952,-815.936,-567.056,3640,-2100,-1960
-3.3191,-9.04522,-4.39967,-5.05596,-2.00191,0.234602,1.04989,4.53888,-6.51487,-7.74119,-4.26021,-5.3201,-0.847809,-0.142839,2.43962,-0.901054,-123.464,-814.96,-562.176,3220,-1680,-2100
5.97487,-0.0597257,0.318477,-2.30728,1.99449,0.750752,-1.44223,3.21469,2.3553,1.38394,-0.828911,-1.12138,1.6207,0.782888,1.46492,-1.7083,-124.44,-815.936,-560.224,2940,-1540,-1820
9.55351,2.26934,3.33399,-1.92561,2.62341,0.726453,-4.58648,1.77059,6.08304,8.00937,2.9819,1.35355,3.06002,1.2102,-2.10185,-2.51592,-128.344,-815.936,-560.712,2800,-1400,-1680
7.23287,3.02224,1.63609,2.18954,2.89233,1.82961,-0.987732,1.50022,7.21146,5.00469,3.8886,2.05102,1.659,2.61304,0.82216,-0.226996,-125.904,-818.376,-564.616,2520,-1120,-1260
4.77461,5.72465,1.79133,7.35114,5.88434,0.242208,2.46577,1.62534,7.48608,2.6525,1.93257,4.47994,-0.865107,1.94053,4.07968,1.58488,-124.44,-821.304,-562.664,2520,-840,-1120
3.57516,4.23934,-1.71644,8.50262,5.80295,-0.2121,1.59119,0.0514356,6.76219,1.32215,0.852497,5.52428,-2.58557,1.01384,3.60264,-0.235199,-125.904,-819.352,-564.616,2380,-700,-700
8.39974,13.8797,3.17829,15.9345,14.532,2.45831,6.75402,6.61783,13.1627,4.96064,2.7407,12.2291,-0.983184,3.72305,9.76181,4.01287,-127.368,-818.376,-567.056,2800,-560,0
8.1221,10.9463,3.01934,16.1336,13.0483,2.49463,7.57501,2.96579,11.9538,5.21799,2.5527,11.8752,-2.45952,5.48001,8.79323,2.67358,-127.856,-815.936,-565.592,2660,-700,140
3.21617,4.73267,2.83192,11.481,7.3032,2.60119,7.8371,-0.645327,5.2237,0.991295,0.540611,7.91715,-0.978484,4.7533,4.43959,2.32979,-125.904,-817.4,-565.592,3080,-1120,700
-2.6264,-1.56183,0.381241,-0.685703,-3.66162,-1.33037,0.0296601,-5.56246,-1.99115,-3.30043,-0.923479,-1.26603,-1.13597,0.323956,-7.62996,-3.43444,-123.464,-815.936,-569.008,3220,-1400,1260
-5.70687,-5.99737,-1.58875,-8.09616,-7.48721,-3.34599,-1.75157,-6.03457,-7.70817,-4.10102,-1.14087,-7.82798,-1.66812,-2.66303,-10.4978,-5.07969,-125.416,-815.448,-567.056,3780,-1680,1960
-7.10072,-7.81806,-2.72388,-9.0746,-6.62107,-3.79318,1.03177,-2.92404,-9.23691,-2.17392,-0.958294,-10.4782,-1.92692,-5.15813,-6.51449,-4.36954,-122.976,-813.496,-568.52,4060,-2240,2520
-6.24501,-8.07549,-6.71764,-11.835,-9.46185,-3.69859,-2.54094,-3.14326,-8.38497,-1.34481,-2.23536,-9.46241,-2.3812,-6.8731,-9.93774,-6.4396,-122,-810.568,-566.08,4480,-2520,2940
-0.111765,-4.51828,-7.21798,-9.41557,-12.1463,-3.00354,-5.44696,-4.31896,1.14239,0.196837,-0.462343,-5.06218,-0.505989,-6.09268,-8.12158,-5.95881,-122.488,-807.152,-568.032,5180,-2660,3360
6.59876,7.00171,2.67363,1.10599,-1.67143,0.986666,-2.02077,0.255934,8.81417,7.41433,1.49035,4.20903,2.44423,-2.35448,0.694968,2.05838,-125.904,-805.688,-565.592,5180,-2940,3640
-0.751104,-4.46245,-1.06194,-6.67592,-7.32306,0.193063,-7.19434,-3.8862,-1.52672,-0.829998,-0.874388,-1.3616,0.0950808,-0.705508,-4.23195,-1.5737,-125.904,-805.2,-567.056,4900,-2520,4200
1.86439,0.920252,6.00887,-6.53265,-4.02126,-0.0709904,-7.60543,-1.81626,1.98075,4.22659,0.5081,0.522459,2.12067,-0.66588,-5.74714,-2.04245,-123.952,-806.176,-570.472,4060,-2660,4200
4.90267,3.65698,8.2695,-0.188589,0.451039,1.47525,-1.39852,0.294273,3.40114,5.11559,2.1073,2.87052,4.0201,0.276312,5.70088,2.09228,-126.88,-804.712,-571.448,3360,-2240,4480
0.683612,-0.506618,4.09994,0.529354,1.39848,1.01331,2.75248,2.50516,-2.79298,-0.50517,0.320107,1.33929,3.43922,0.867087,9.78399,2.4915,-125.416,-801.784,-570.96,2380,-2240,4760
0.254832,0.559286,1.53718,0.985005,1.20133,-0.232259,2.43228,3.52948,-1.5197,-2.12673,-1.36457,2.17381,2.48053,-0.201729,6.79278,0.655402,-129.808,-798.368,-579.744,1820,-2100,5180
-0.444738,1.90873,2.33677,4.00585,3.7463,0.522182,2.61947,2.72276,-0.52476,-2.37484,-0.514632,2.72421,3.18066,2.5278,6.43901,2.55072,-127.368,-797.88,-578.28,980,-1820,5740
-0.609643,3.7354,4.78192,5.06219,5.30567,3.29908,4.26359,4.66534,-0.886091,-1.08635,0.273957,3.34792,3.67024,3.0572,6.14874,5.92437,-128.344,-798.368,-581.208,420,-1540,6020
5.45679,7.09988,7.47868,7.43419,6.99764,3.35998,5.12511,4.605,5.45843,4.75176,1.25726,5.9106,3.11241,4.59513,6.01627,7.07385,-135.664,-799.832,-580.72,-140,-1260,6440
4.67766,6.35165,4.50583,7.14562,6.31087,2.60841,2.70191,2.21767,8.1717,1.22081,2.62538,5.24017,1.15628,4.07983,2.39032,6.15443,-135.176,-796.904,-580.232,-700,-420,6720
-5.35821,1.34216,0.886517,2.90476,4.56109,1.53805,-2.85277,1.43407,-1.45993,-4.6212,3.11292,-1.11946,-1.95759,0.79009,-3.20905,5.23985,-137.128,-797.88,-584.624,-980,-140,7000
-12.7771,-5.82146,-6.01953,-3.60264,-4.32701,-0.551001,-8.4481,-4.56668,-9.85737,-7.64102,0.38278,-7.5948,-5.32217,-1.45161,-7.10857,0.254321,-141.52,-800.32,-585.6,-980,280,7140
-9.6914,-3.03022,-3.02323,-3.28776,-3.29376,-1.43581,-5.31599,-2.77256,-8.60165,-5.23321,-2.86405,-5.57004,-4.8044,-1.55217,-5.02333,0.570463,-140.544,-799.832,-585.6,-560,420,7280
-6.89353,-5.73252,-4.77252,-6.13435,-4.35942,-3.73449,-6.84478,-3.06063,-8.27657,-6.92722,-3.85748,-5.15709,-4.31843,-3.66346,-6.81047,-3.59086,-141.032,-804.224,-584.624,-280,280,7280
-8.0761,-12.4952,-10.3197,-6.74195,-5.45016,-3.70935,-3.78752,-1.08186,-12.1395,-7.94246,-6.0941,-8.80486,-4.91613,-3.84286,-3.32194,-4.24139,-144.936,-805.688,-583.16,420,560,7140
-7.58343,-12.8566,-7.00572,-4.0445,-2.40328,-2.7033,2.28653,3.7835,-12.7377,-3.21759,-4.83409,-10.263,-3.75001,-2.06162,-0.265716,-1.64387,-142.984,-808.128,-583.16,980,140,6860
-3.77653,-14.0642,-8.03288,-6.47548,-6.71816,-2.30852,0.255188,0.0472443,-7.87542,-2.19045,-1.83962,-10.9765,-3.27301,-0.835216,-3.22887,-5.45478,-143.96,-810.08,-579.744,1680,140,6020
5.2304,0.71507,-0.973747,2.4375,4.32022,0.861289,7.02982,3.51509,2.92456,4.0617,0.416475,-2.57353,0.352981,0.876561,4.24363,-0.585722,-145.912,-810.08,-578.768,2380,-140,5460
9.0504,2.56477,-2.19649,1.91507,5.06694,0.5071,4.82886,0.653549,9.18035,6.93946,1.46639,1.40151,0.444166,0.154448,2.53205,-0.270968,-142.984,-815.448,-577.304,3360,-560,4760
9.38054,3.06875,-3.79392,1.43202,2.01326,0.440001,2.97812,-0.415781,11.6432,7.55811,1.85931,4.42968,0.885099,0.21694,0.301487,-0.315772,-137.128,-816.912,-577.304,4760,-1260,3640
9.70935,6.89692,-2.03948,2.79228,0.00177928,0.105038,1.2557,0.843877,10.9711,7.39988,1.645,6.37946,1.24291,0.453461,-1.21145,-2.18717,-136.152,-819.84,-575.352,5600,-1680,2940
6.03535,7.65116,-0.897199,5.68048,-0.195276,1.29446,1.51932,1.18175,7.63272,4.01957,0.24859,7.64662,-0.541136,1.33617,0.498737,-3.05671,-136.152,-821.304,-574.864,6580,-2380,1960
5.28575,8.63472,2.79407,10.1041,2.76707,3.30518,5.22084,0.832232,6.45772,2.86166,1.38349,10.3254,0.128071,3.18748,6.6867,0.179563,-131.76,-820.328,-575.352,7560,-3360,840
7.07057,9.6415,6.4398,10.2867,5.60179,4.05307,7.51669,0.563357,7.60898,5.12706,3.87514,10.8215,3.9051,3.26196,9.43886,3.2785,-129.32,-820.328,-570.96,8400,-3640,0
7.94137,12.0211,7.33866,9.59112,6.62202,4.28223,5.29886,-1.43266,9.89962,4.26379,3.74855,10.3719,6.32712,3.27597,7.6725,2.77022,-126.392,-818.864,-571.448,8960,-4200,-1120
-0.737788,6.25328,7.16304,2.46957,3.94941,1.09951,-2.55376,-2.02099,-1.0583,-0.0366967,0.996287,5.77401,4.34471,2.22564,-3.1952,-0.930564,-123.952,-818.376,-576.328,9660,-4620,-1820
-9.68758,-12.9847,-3.92877,-13.495,-12.5615,-4.55671,-11.9746,-10.3779,-12.2215,-8.06145,-0.28308,-7.0689,0.216931,-2.99248,-13.492,-12.2566,-122.488,-816.424,-575.352,10220,-4900,-2660
-0.360254,0.265521,4.56098,-4.99747,-0.794401,-1.56373,-2.02207,-1.44187,0.972169,1.15048,1.94485,1.98093,2.59196,-0.0302461,-2.96278,-2.60861,-116.632,-815.448,-575.84,10360,-5040,-3220
-3.69691,-1.94421,2.24205,-1.54978,0.620274,-1.23266,1.73443,2.66324,-1.40832,-1.26062,-1.07011,1.97331,-0.23523,0.340621,1.9154,1.57868,-115.656,-813.496,-574.376,11060,-5040,-3500
-2.97909,-1.2374,0.531163,1.76009,1.2584,-0.878822,2.99516,4.49083,-1.15562,-1.78484,-1.59833,1.23201,0.702602,0.547653,5.53017,5.79168,-115.656,-811.544,-579.744,11060,-5040,-3920
-0.710808,-0.24333,0.81163,0.240156,-0.904002,-1.22714,1.63436,3.78194,0.127624,-1.84723,-1.52385,-1.66039,1.42434,0.628032,2.81274,5.44562,-112.24,-810.568,-576.328,11200,-5320,-3920
0.660042,-1.14783,1.28659,-1.65009,-4.02447,-2.57097,-1.78485,-0.0497264,0.487724,-3.46178,-3.24922,-4.13292,-1.05878,-0.203028,-1.88104,1.19084,-111.752,-809.592,-579.744,11480,-5040,-3920
4.42833,5.48385,8.02055,-0.756761,1.67134,-0.122755,-2.59739,-1.21889,6.30922,1.67469,-0.379758,-0.75132,0.123119,-0.0447959,-4.55846,1.19935,-112.24,-806.664,-580.232,11480,-4760,-3640
2.85485,2.96348,6.36535,-5.72019,-0.0733333,-0.552263,-4.4282,-3.59745,2.38409,2.06916,1.07846,-4.83175,-0.765627,-1.35254,-7.88455,-0.436511,-115.168,-804.224,-577.304,11620,-4760,-3220
-2.14547,-1.8933,-1.52167,-9.24526,-5.63899,-0.344188,-3.90281,-5.80414,-5.2798,-3.58643,0.699613,-8.36994,-2.47227,-2.494,-7.87597,0.160507,-111.752,-805.2,-583.648,11620,-4340,-2660
-1.42897,-1.29793,-1.70854,-4.9732,-0.946548,1.34571,1.29076,-2.50809,-5.01084,0.0198361,1.04688,-5.95681,-1.18309,-0.926159,-0.423233,3.1257,-118.584,-803.248,-579.744,11620,-3920,-2240
-5.67117,-7.23578,-7.09073,-6.49635,-4.2596,-0.543385,0.243191,-2.93317,-6.81073,-1.40184,1.31362,-5.3982,-2.73152,-3.90053,0.608345,0.852477,-116.144,-805.2,-578.768,11620,-3360,-1400
-6.44472,-4.57339,-5.67147,-2.78169,-0.315629,-0.0232454,0.166438,-1.53123,-4.57648,-1.18989,2.27017,-1.90207,-1.81501,-3.13449,2.8709,2.80456,-117.12,-804.224,-574.864,11480,-2940,-700
-11.7024,-4.47494,-6.26867,1.24984,1.19475,-0.667167,-0.524401,-1.07842,-7.96715,-4.7715,1.70579,-3.16037,-2.30798,-2.68263,4.45851,1.87524,-119.072,-804.224,-576.816,11200,-2520,-280
-10.383,-6.72129,-6.20177,-1.2797,-2.7108,-1.41324,-4.82301,-1.09383,-6.7074,-2.5241,-0.525027,-4.08691,-3.44141,-3.16537,0.34279,-0.321392,-118.096,-807.64,-572.912,11200,-2380,700
1.44817,1.06073,-1.14028,2.73611,1.01802,0.00734059,-1.1392,4.55818,4.21516,1.64345,-1.87417,2.5361,-2.43257,0.0105547,2.96449,2.04382,-119.56,-803.248,-572.424,11060,-2100,1260
5.68764,-0.0758776,-1.47351,3.52571,-1.20129,-0.478244,-1.1062,3.42381,5.25964,-0.80635,-2.36022,2.50932,-2.27409,0.700912,1.62265,-3.10301,-120.536,-805.688,-573.4,10780,-1820,2100
8.14522,8.07357,6.37803,10.2216,7.87289,1.82385,3.50754,6.13424,9.23543,4.44679,-2.19901,5.99776,0.639768,1.76128,5.74666,-1.79111,-121.512,-805.2,-572.912,10500,-1680,2800
3.69789,0.173641,0.483537,4.86564,4.62352,1.98087,-0.976234,0.157958,2.35415,-0.161676,-2.17866,1.72942,-0.00489354,0.548665,0.100393,-7.60222,-122.976,-811.544,-567.544,10360,-1540,3220
3.56504,-0.475763,-0.0757327,8.53981,6.42882,2.12432,3.15939,2.70627,-0.716559,-2.00282,-0.134362,3.31933,1.68834,1.27349,4.14568,-3.46872,-122.976,-807.64,-569.984,10220,-1120,3780
3.10802,1.05941,0.1782,8.78818,5.53184,1.05641,4.06927,3.79218,1.04164,-0.914928,1.20078,4.00505,3.67018,2.82538,2.58296,-2.26074,-125.416,-809.592,-568.52,10220,-1400,4060
5.63655,3.08234,2.58819,3.58566,1.9414,1.70324,-1.44478,2.34183,5.99919,2.93111,1.89957,6.08307,5.56641,4.02864,-7.34219,-4.859,-125.416,-808.616,-564.128,9940,-1260,4340
1.09732,-0.22083,2.53924,-4.01667,-3.05309,2.12133,-3.70951,3.3958,0.855612,2.10754,0.632781,2.74001,3.43608,2.72806,-10.0433,-3.08251,-130.296,-808.616,-567.056,9940,-1400,4760
-1.23735,0.01788,4.81002,-3.09267,-2.1213,2.38967,-0.72976,5.75404,-4.87294,2.05022,-0.643174,0.386384,1.40975,2.87204,-4.29668,2.8567,-132.248,-810.568,-568.032,9800,-2100,5040
-8.69042,-5.88496,-0.317408,-5.52772,-6.3071,-0.568473,-1.01139,2.46856,-14.2227,-4.09712,-3.6685,-4.11504,-1.09739,0.476928,-2.44084,3.77436,-133.224,-810.08,-567.056,9520,-1820,5180
-8.62504,-6.86555,-0.837018,-7.5726,-3.62855,-1.08912,0.336811,0.747876,-14.3537,-4.06279,-4.80204,-5.33487,-0.943369,-1.25547,-1.63747,3.55555,-131.76,-809.104,-568.52,9520,-2380,5320
-3.32451,-5.71723,-3.24176,-6.1146,-5.24506,-0.654294,1.29179,-3.77416,-6.91968,-2.07035,-1.00918,-3.25364,-0.42525,-1.16031,1.23609,1.79022,-135.176,-810.568,-564.128,9240,-2660,5600
-1.31164,0.0890529,-2.08917,-1.31333,0.48635,-1.2776,3.84629,-2.57066,-3.61383,2.65188,0.202074,-0.616469,2.17809,-1.01617,6.03543,6.69565,-136.64,-811.544,-565.104,9100,-2940,5320
-0.293912,-1.58574,-4.90922,-3.89084,-1.72741,-3.97843,0.578626,-6.86732,-0.376526,0.0392153,-0.388441,-3.16538,-0.360536,-1.62927,2.12705,1.5476,-137.616,-811.056,-567.056,8540,-3220,5180
2.62541,5.44251,-2.47388,2.21024,3.8999,-2.93653,4.18471,-4.94094,6.56928,1.02263,1.40523,-0.0872578,-2.0568,0.640775,7.09943,1.70476,-138.592,-812.032,-563.152,8260,-3220,4900
3.00815,4.6228,-2.31077,2.49859,2.17142,-2.16018,3.44302,-4.28682,9.32374,1.03147,1.57754,-1.59177,-1.84124,-0.260097,6.52821,-0.644878,-140.544,-812.032,-565.592,7560,-3360,4340
3.85282,-1.02875,-3.50392,-4.25999,-4.19076,-2.9038,-2.99491,-6.8499,9.60307,1.45777,4.01725,-2.81911,-1.19633,-2.31959,-2.54568,-5.22528,-137.616,-812.52,-566.08,7280,-3220,3780
9.59074,4.74373,2.282,0.652499,0.437566,-0.725366,-0.940171,-1.9048,15.6454,6.9956,6.39931,2.33789,-0.8364,-2.78107,-0.164425,-1.07469,-138.592,-812.032,-569.008,6860,-2940,3220
11.2293,5.8848,3.41938,0.428172,1.23839,0.49667,-2.13003,1.55815,14.7112,7.33404,4.85379,1.50978,-3.28893,-2.21466,-0.0895908,1.71124,-141.032,-810.08,-568.032,6580,-2660,2520
12.3441,9.50711,3.65301,5.24347,2.88907,2.03717,0.822701,3.28667,14.7031,6.22772,3.67987,4.88129,-1.91022,-0.894628,3.31968,4.27607,-140.056,-808.128,-569.496,5740,-2100,1680
12.6738,13.7894,7.84366,8.58754,5.36227,3.13618,1.86038,5.27565,12.4782,9.34431,0.966865,8.75179,1.5607,3.51626,2.2579,3.30191,-140.544,-811.056,-566.08,5460,-2100,980
4.31258,8.42658,5.26317,3.90358,-0.643848,4.10369,-1.03734,1.75871,2.46677,1.9333,-1.27791,5.93404,2.48186,3.88867,-6.29903,-3.00837,-140.544,-810.568,-565.592,5040,-1960,0
-7.82708,-4.52354,1.78407,-3.43742,-6.38334,2.90007,-3.87339,-0.74154,-10.9147,-4.19431,-2.19406,-0.486668,2.7431,1.6172,-12.6455,-7.53527,-139.568,-807.64,-569.008,4760,-1540,-560
-16.2212,-11.7269,-1.21782,-6.88493,-7.30225,0.868013,-2.19866,0.457958,-19.3477,-7.61515,-4.07011,-5.89584,1.45121,0.499754,-6.91584,-4.49067,-139.08,-808.128,-567.544,4480,-1540,-1540
-13.601,-10.8807,-3.54815,-5.0008,-5.78922,0.0025062,-1.6275,-2.61852,-13.4673,-8.50582,-4.4968,-7.32827,0.357617,-1.73842,-2.98887,-3.24121,-138.592,-809.104,-567.544,4200,-1400,-2100
-11.037,-4.0261,0.253769,2.6764,5.54079,1.44425,4.73633,-0.309027,-10.6452,-7.55155,-4.71662,-2.27525,1.30568,0.955349,5.80068,3.79041,-134.688,-811.544,-568.52,4340,-1400,-2520
-8.56164,-2.95322,-1.16532,3.64771,5.39368,1.74017,6.07238,-3.93103,-7.86351,-6.15477,-3.07386,1.54171,1.08215,1.55937,7.81571,2.41474,-139.08,-809.592,-573.4,4620,-1260,-2940
-0.193572,5.47505,1.46789,5.71447,9.84303,1.35522,4.87835,0.206493,1.27319,2.95166,0.341881,6.36237,2.03448,0.668416,6.41611,4.46479,-137.128,-813.496,-569.984,4620,-1260,-3500
-6.46776,-0.721373,-4.91231,3.35954,3.53888,-2.88733,2.7236,1.06148,-4.19068,-5.30622,-0.0485257,-2.78741,-2.28847,-0.340525,6.38737,3.03506,-135.176,-812.032,-569.008,5040,-1400,-3780
-7.25692,0.375378,-3.88765,1.97759,1.81233,-4.92675,-0.0807283,0.345471,-0.0489091,-6.87646,2.65779,-7.01225,-2.58212,-1.12825,4.29199,3.11707,-133.712,-810.568,-564.128,5460,-1540,-3780
-3.02827,2.29083,-1.35928,4.83541,1.7276,-3.2841,0.0936625,2.26577,4.13712,-2.53448,-0.460567,-4.48729,-2.59685,0.458288,6.43254,5.58184,-133.224,-811.544,-568.52,5880,-1260,-3780
5.54419,2.97709,0.887162,6.13293,0.279349,-1.19974,0.139838,2.50289,6.79691,0.193689,-0.938023,1.33975,-1.52684,1.11336,4.64763,6.25227,-133.224,-810.568,-566.08,6160,-1400,-3780
11.3259,0.46304,0.652011,-0.824104,-2.41823,-0.794456,-5.35676,1.17558,5.50033,4.15594,1.96208,5.5019,0.23096,-0.0642805,-4.80563,1.2918,-130.296,-811.544,-566.568,6440,-1400,-3500
8.22841,-1.37918,0.293071,-6.00069,-4.70281,-1.43934,-9.12793,0.507726,1.36318,6.43579,0.92858,4.72075,0.347877,-0.70313,-10.8112,-5.41051,-129.808,-813.496,-562.664,6860,-1540,-3360
-0.867904,-6.40274,-3.61184,-8.41819,-6.26214,-1.51684,-7.53749,-0.532316,-7.21394,-0.06958,-1.21261,1.40397,-2.71291,-1.32992,-8.55053,-6.868,-127.368,-812.52,-565.592,7000,-1400,-3080
-3.08532,-8.89908,-1.75432,-6.48724,-1.70269,-0.858643,-3.11726,2.14767,-8.87614,-0.10337,-1.35158,0.291231,-2.8828,-0.864708,-3.27757,-6.36018,-127.856,-814.472,-564.128,7000,-1260,-2800
2.36171,-10.4109,-1.44797,-10.1421,-6.80888,-2.49771,-5.13114,-1.07697,-1.60652,1.06904,2.47758,-2.30972,-1.13756,-4.97329,-8.34778,-10.7326,-127.856,-813.984,-567.544,7000,-1120,-2380
4.84328,-6.2079,2.49239,-5.35622,-2.11071,0.436764,1.14103,3.17889,-0.0093596,2.52115,2.32179,-0.500021,0.425262,-3.35319,-4.51565,-5.52035,-126.392,-811.056,-565.104,7280,-700,-2100
3.82326,-3.74227,2.4219,-2.76127,-1.16851,1.11193,1.66744,2.25448,0.305397,-0.643641,1.62564,-1.36966,0.600001,-0.703758,-2.51923,-3.21676,-125.416,-810.08,-567.544,7140,-840,-1680
4.44223,-1.13985,1.27259,-3.08045,-0.914866,0.699649,-0.0605134,1.48979,1.73994,0.577272,2.11156,-1.85126,2.29521,-2.14783,-4.60004,-3.1423,-125.416,-812.032,-564.128,7420,-560,-1260
5.8962,2.59882,1.04051,-0.360689,-0.536046,1.74024,-0.341981,-1.97675,7.22142,3.30223,3.31972,0.939305,3.26715,-1.13219,-4.01172,-4.19134,-124.44,-811.544,-566.568,7700,-420,-840
3.01693,4.93238,0.717073,3.38597,0.149568,2.154,2.27179,-4.35122,4.41538,1.4106,1.62553,1.7289,2.85037,2.14871,2.10078,-2.03849,-125.416,-813.496,-567.544,7560,-420,-420
-0.340374,8.93495,2.40611,7.61134,5.38938,3.60683,4.67604,-0.417388,1.28357,1.81117,-0.999484,2.15951,3.27294,4.19499,6.70029,4.01728,-123.464,-811.544,-564.616,7420,-420,-280
-3.42052,8.92098,1.78009,7.67512,5.31838,2.46677,3.36505,-0.477875,-0.949441,-0.165272,-3.89912,0.459481,2.09613,4.11988,4.92814,6.55035,-123.952,-813.008,-567.056,7700,-280,280
-6.33635,5.22853,0.557698,3.72393,2.4052,2.16563,3.65796,-0.905488,-2.95344,-3.87882,-4.27209,-1.73988,1.12239,1.82488,5.20172,8.61487,-126.88,-810.08,-564.128,7840,-280,700
-5.59854,3.39753,2.24581,-1.83528,1.51167,0.404817,-1.41258,-1.50855,-3.62542,-1.89442,-3.49305,-1.54098,0.836132,0.282357,-0.00571769,6.21091,-126.88,-811.056,-568.52,7700,-280,980
-6.11197,-0.464358,-0.747163,-0.665048,3.49193,1.02311,1.80839,-0.500919,-6.50918,-3.46018,-3.78747,-0.417697,-0.578515,-0.180598,5.20828,6.52362,-126.88,-809.104,-568.52,7700,-420,1540
-6.97751,-5.76668,-3.02427,-3.26706,1.11421,0.563113,2.14389,-0.524035,-5.72425,-1.73665,-3.02571,-3.28242,-3.55873,-2.47204,4.73717,4.96367,-128.344,-812.032,-569.008,7840,-420,1820
-0.883875,-2.52834,-4.08192,-5.91813,-3.90506,-1.38498,-1.3429,-0.953801,5.93539,2.29269,-1.13807,-3.95961,-3.9944,-3.80018,-0.444888,-0.385506,-130.296,-811.056,-570.472,8120,-700,2100
6.4691,5.06082,-3.11468,-0.0961363,-2.63854,-0.56405,-0.942281,-0.988025,15.034,6.77599,2.17755,1.55002,-1.12977,-0.569188,1.21886,-1.57654,-127.856,-811.056,-568.52,8400,-980,2380
3.66897,5.11205,-0.596745,2.75614,1.4911,-1.48793,-0.594496,-1.34462,7.04999,6.2904,2.35207,0.428417,-1.14415,-0.663883,0.212716,-1.89725,-129.808,-810.568,-565.104,8400,-1120,2520
6.11653,2.66589,-2.05387,4.51913,1.29045,-1.03162,2.70232,-3.37126,7.17208,3.93934,3.88981,-0.705011,-1.83203,0.832159,3.12154,-0.818864,-128.832,-807.152,-567.544,8680,-1540,2660
15.2167,15.3677,7.54335,10.412,10.0749,0.95679,8.18931,2.75194,16.854,12.1164,7.6912,7.20443,2.96512,3.98841,6.29722,4.80405,-133.224,-811.544,-570.472,8680,-1400,2520
13.1495,11.3866,4.79091,7.36912,4.47585,0.631318,5.31048,1.3221,13.0111,7.45511,5.29588,6.80332,1.9463,4.54673,3.80182,1.81049,-129.808,-810.08,-569.496,8820,-1540,2520
6.76886,3.5925,3.54675,6.2656,2.55094,0.666932,3.8367,2.84963,4.85136,0.666523,1.36248,5.63512,0.412615,3.82128,4.41594,1.54992,-130.784,-811.056,-567.544,8960,-1960,2240
-2.18695,-10.0076,-0.363101,-3.66543,-6.4486,-1.37635,-4.51145,0.794887,-4.83284,-5.36637,-0.0662428,-1.54396,-1.83247,0.849863,-3.52039,-2.9572,-130.784,-811.056,-569.984,8960,-2100,2240
-7.95642,-10.8446,-1.4496,0.020121,-5.00025,-0.414025,-4.48582,-0.0326886,-11.3018,-10.5361,2.13143,-3.23003,0.104892,1.98372,-2.02375,-1.65242,-129.32,-809.104,-568.52,9240,-2100,1960
-15.8353,-3.89602,3.22674,8.21897,4.77408,0.918629,2.34152,5.26881,-19.1798,-10.682,1.23442,-0.79033,2.30998,2.5237,3.96889,3.12655,-129.32,-808.616,-569.008,9240,-1960,1680
-25.2114,-15.7054,-4.07564,-2.06614,-5.8705,-1.11835,-0.045947,4.29239,-31.1442,-16.5634,-6.37943,-8.82838,-2.40648,-1.78282,-1.3615,-0.836481,-127.368,-808.616,-568.52,9100,-2380,980
-12.7563,-12.8998,-4.42078,-5.08065,-10.623,-0.687905,-0.746276,2.85252,-16.6629,-12.6345,-5.23622,-7.00893,-1.24889,-3.12901,-0.683536,-3.11891,-130.296,-810.568,-569.496,9240,-2380,700
5.11187,1.76992,4.20116,1.76469,-2.56133,1.15473,-0.0560729,2.72032,3.92944,0.0736538,-2.83436,3.92138,2.65876,0.773222,0.848824,-1.61955,-128.832,-810.568,-569.984,9380,-2100,280
1.81294,-3.49994,-1.75264,-6.54373,-7.26345,-1.75267,-8.52074,-4.9256,1.45419,-1.6281,-5.21838,0.75103,-0.415251,-2.85341,-7.26741,-5.89058,-129.808,-808.616,-566.568,9380,-2380,-280
-0.775053,-1.88476,-1.43536,-8.90526,-4.02625,-3.52351,-6.07862,-2.85705,-1.19487,3.50411,-3.39742,1.25607,-0.132275,-3.97672,-7.18241,-3.09928,-128.832,-810.568,-567.056,9660,-2660,-560
1.70004,-2.2011,-5.47144,-13.6027,-5.46005,-5.19757,-9.41353,-6.42216,1.22677,5.91256,-0.26773,-0.302625,-0.832887,-5.20522,-13.5016,-7.75456,-131.272,-811.056,-566.08,9940,-2520,-700
6.98743,5.44735,-3.11115,-7.54443,0.0245214,-3.37098,-6.42546,-5.06131,8.58484,9.33076,1.90088,3.20682,-1.17598,-2.47695,-8.49949,-6.0027,-130.296,-810.568,-566.568,10220,-2380,-1120
5.82856,9.25143,-1.65207,2.23424,7.27335,0.0135551,0.279662,-2.66425,6.39918,5.26859,1.44192,3.17059,-1.13455,2.7171,2.28076,-0.870661,-128.832,-810.568,-564.128,10220,-2240,-1120
-1.44348,3.2268,-5.84997,1.77058,6.93382,1.6904,0.144466,-2.52013,0.114876,-1.60694,-0.477582,-4.05889,-2.37695,1.08746,1.90962,1.44656,-130.296,-811.056,-567.056,10500,-2240,-1120
-4.43493,-1.58635,-3.82321,-5.70354,5.91556,1.54186,-4.29009,-0.249748,-1.74962,-1.27779,-1.67941,-8.27184,-1.79303,-4.24538,-10.2198,-0.636984,-130.784,-811.544,-568.032,10640,-2240,-1120
-4.62119,-9.22423,-3.66285,-16.3377,-2.42833,-0.539567,-10.4029,-2.72268,-5.01117,-1.68434,-0.858669,-10.4954,-1.84712,-7.92793,-21.0363,-6.05106,-129.808,-810.568,-565.104,10780,-1960,-1120
-8.47563,-11.8942,-3.49921,-6.36443,-1.64283,0.152151,3.3893,2.13728,-10.7994,-6.41834,-1.70323,-5.72715,-2.00982,-4.22438,-1.50179,3.51017,-131.76,-810.08,-565.592,10640,-1540,-840
-3.0795,-5.10743,0.0610736,4.92245,4.83301,2.06772,10.2843,7.46285,-2.8409,-2.72855,-2.75076,2.05694,-0.571601,2.5202,10.1606,11.6498,-131.76,-810.568,-568.032,10780,-1540,-420
7.47478,2.60626,4.68402,10.3281,2.9801,3.20695,8.80363,7.37092,12.2252,1.60354,1.16129,6.68882,3.00593,4.75501,11.6303,9.51999,-131.76,-811.056,-560.712,10500,-1400,-140
15.0556,12.15,12.8231,14.3159,7.18583,4.17359,10.2506,8.89114,20.0889,10.3426,5.99549,12.5826,6.86031,6.31657,15.5346,8.39987,-132.736,-809.592,-564.616,10500,-1120,140
11.1907,10.1005,8.80835,9.54881,3.39124,2.35456,6.21307,2.69379,14.5189,8.99748,6.64623,7.74761,5.49614,4.2468,9.63002,4.30622,-132.736,-811.544,-565.104,10360,-980,560
6.30941,6.61817,5.57084,7.62538,1.94785,1.07162,5.3703,-1.13139,6.42876,4.43602,4.47399,4.43616,3.76458,3.94669,7.1732,2.384,-131.272,-811.056,-566.568,10220,-840,1120
6.50756,8.50011,7.60078,10.2433,2.9298,0.77525,6.93494,-1.52593,5.38639,4.52404,4.53834,6.84383,2.9709,2.50082,8.68165,2.28991,-133.712,-814.96,-563.64,9800,-840,1260
4.73111,1.03085,1.60852,4.19306,-5.96837,-1.152,2.02799,-6.54682,3.14662,1.42389,4.5165,1.26808,0.437985,-0.745938,3.9584,-3.56118,-131.272,-811.056,-564.128,9380,-980,1680
7.06642,5.06711,4.54611,4.16586,-1.56864,0.254163,2.62607,-1.62064,4.08014,4.8869,2.6663,2.97186,0.743991,2.33966,2.81909,-2.17598,-133.224,-810.568,-564.616,9100,-840,1960
7.46758,2.05932,1.59754,-0.782716,-6.5318,-0.341429,-4.39991,-5.8791,3.28576,1.23704,0.822546,-2.16392,-1.01537,1.136,-3.65448,-6.14517,-133.712,-810.08,-564.616,8680,-1120,2380
6.8651,5.9251,2.06596,4.02458,-3.3567,1.93541,-1.46919,-3.86728,6.40935,3.13075,1.59056,-2.17271,-0.531406,-0.145593,1.44105,-4.37079,-134.688,-811.056,-562.176,8260,-980,2660
3.40076,11.9144,1.35329,11.7965,3.90756,2.91025,4.66505,-0.173105,6.65532,2.08625,-1.06954,1.5852,-0.352531,1.80836,10.4494,-1.01784,-134.2,-811.544,-561.2,7700,-1400,3080
-5.40153,4.8638,-1.96926,5.08281,2.25046,1.01379,1.67901,0.239656,-2.79726,-5.29326,-6.23397,-0.947959,-2.81585,-0.581279,6.39737,-0.416982,-133.224,-810.08,-562.664,7280,-1540,3220
-13.5802,-6.44684,-4.50026,-6.376,-4.19416,-1.91982,-7.04645,-3.12477,-13.7967,-10.2154,-8.00397,-4.32983,-4.92171,-2.16868,-5.32122,-4.62183,-132.736,-813.008,-562.664,6860,-1960,3360
-16.6087,-13.1449,-6.56781,-18.1203,-6.87652,-4.39293,-16.5162,-5.41513,-20.329,-9.61781,-6.26376,-5.85058,-3.32925,-2.92939,-20.1807,-9.22602,-132.248,-814.472,-562.664,6580,-2380,3640
-26.9007,-20.8799,-10.1153,-19.8627,-4.5723,-3.27831,-11.0215,-1.28847,-33.5262,-14.2337,-6.90459,-8.02561,-2.71132,-3.08327,-16.7075,-5.26175,-136.64,-814.472,-564.128,6160,-2940,3640
-23.4426,-14.6746,-7.33134,-12.4928,3.87273,-1.44568,-3.33612,5.50051,-29.7586,-10.9956,-7.09507,-4.98404,-1.91481,-0.721718,-8.44687,3.97255,-136.152,-814.96,-564.128,5740,-2520,3500
-11.5036,-17.0986,-9.95968,-15.947,-3.57532,-2.33031,-6.95001,1.09119,-15.2542,-8.56448,-2.27522,-8.78088,-2.81486,-3.88669,-10.9873,-0.682985,-135.664,-812.52,-560.224,5320,-2940,3360
0.736392,-6.75412,-4.15007,-7.18892,3.58611,-1.11888,0.994759,5.57511,-0.967702,0.409258,-0.0341542,-4.48295,-2.26692,-1.70371,-0.261088,4.49559,-137.128,-816.912,-558.272,4900,-2800,3360
9.1533,0.24488,-2.52065,-1.82685,3.34767,-0.56786,1.69937,2.70436,10.2513,4.86239,2.46125,-1.049,-1.85859,-1.34377,1.73281,4.06957,-137.616,-817.4,-559.248,4340,-2520,2940
17.1965,10.6232,1.90599,5.46815,4.42194,0.433188,2.52791,0.765133,20.7992,10.9982,4.90912,4.26872,1.60368,0.858096,0.947016,2.08973,-138.104,-816.912,-558.76,3780,-2240,2380
13.1546,12.8304,0.984581,11.2579,6.13432,0.10717,8.19143,0.707024,18.095,10.316,2.79948,5.48415,1.82327,1.76401,6.66551,1.6602,-136.152,-817.888,-557.296,2940,-2240,1960
5.17178,5.43208,-2.64294,8.43764,1.56841,0.488022,9.03029,0.403423,8.96489,4.73483,1.63901,2.34004,0.390711,0.534437,10.9933,0.873118,-138.592,-821.792,-555.832,2380,-1960,1400
6.82424,9.0924,-0.773215,9.0443,1.96203,1.46616,8.81678,4.84293,9.65485,7.99998,3.72391,4.14262,2.62556,1.05648,12.1879,6.04641,-137.128,-822.768,-557.296,1960,-1260,840
4.74734,3.87073,-3.06496,4.01259,-4.47132,-1.45248,3.18319,1.06576,10.0679,2.77183,5.43586,1.74074,3.56896,-0.624492,7.72588,3.65854,-138.592,-823.744,-556.32,1680,-840,280
4.49894,4.56599,2.95114,1.79315,-3.94171,-2.14314,-2.20244,0.0450691,13.4729,1.7256,8.99582,3.27805,5.88345,-2.49951,-0.687499,-0.336153,-140.544,-820.816,-561.2,1540,-420,-140
2.63499,6.68675,10.3946,4.25989,-0.573364,-0.0626539,-4.00669,-0.318907,8.66537,3.28221,4.71537,6.92983,4.49001,0.357857,-3.56746,-2.65048,-136.152,-822.768,-561.688,1820,-140,-560
-7.47465,-0.365126,7.24647,3.05602,-2.84065,1.55426,-5.20305,-0.935706,-8.84028,-8.67727,-4.29323,3.0362,-0.29693,1.92587,-7.11068,-4.1736,-134.688,-824.232,-560.712,2380,140,-840
-15.6627,-9.15298,5.88271,-1.45965,1.19563,2.4686,-5.4876,1.23975,-25.259,-13.0852,-9.65357,-2.13881,-3.14778,2.7346,-9.82263,-2.15298,-134.2,-819.84,-562.176,3360,420,-1120
-15.1369,-17.2932,1.66002,-14.0854,-6.04618,1.50139,-11.8641,-0.578312,-23.7005,-10.9617,-8.65879,-9.45065,-5.56987,-1.38149,-16.053,-6.25464,-135.664,-821.792,-561.688,4480,420,-1260
1.54715,-7.48469,3.59669,-12.3896,-7.74815,0.0514984,-12.3407,-1.84409,-1.44249,3.68634,1.39076,-6.55404,-0.739754,-2.36672,-16.1825,-7.42161,-137.128,-824.72,-561.2,5180,420,-1120
15.6437,8.97186,7.54491,3.92986,1.70803,0.178221,1.7569,-0.698699,16.7237,11.9108,4.92359,2.60397,2.82201,0.876642,3.27621,0.549857,-134.688,-823.256,-559.736,6440,140,-1260
16.6041,5.85921,3.26576,3.84476,-2.06428,-1.03589,2.20514,-6.46223,16.7149,8.41666,5.8348,1.17214,2.28418,-0.0624792,5.16059,-0.785391,-136.152,-825.208,-560.712,7000,-140,-1400
13.4201,11.3023,7.84739,11.0354,5.95191,1.2973,8.09974,-0.99385,15.5531,8.57854,3.8873,5.31564,3.14551,2.50076,11.0574,7.84099,-132.248,-823.256,-564.128,7700,-420,-1400
1.41976,4.20613,0.830902,10.0905,6.24121,1.81029,10.9459,0.0868392,5.63891,-2.89088,-1.33394,2.10496,-1.30649,2.6776,16.0726,8.09766,-130.784,-820.328,-563.64,7980,-700,-1960
-4.9094,-0.378463,-2.95319,4.01271,7.65019,1.3593,10.5942,3.15444,-3.21084,-6.75232,-3.70756,1.27705,-2.4396,1.40962,14.0732,5.97738,-129.32,-825.208,-565.592,8260,-1120,-2380
-6.08038,-1.01006,-7.94258,1.62136,4.5214,1.27544,11.0063,1.52255,-5.43355,-4.98579,-3.79252,1.23837,-1.81381,2.80335,12.562,2.51071,-129.808,-822.768,-566.08,8820,-1820,-2380
-4.65552,-2.64976,-9.17352,0.871085,0.951181,0.513525,8.43321,-1.71106,-5.45868,-2.4473,-0.940402,0.41892,0.928565,1.84851,7.43175,-0.979631,-129.32,-820.816,-566.568,9380,-2380,-2380
-3.31292,-2.23515,-6.18868,0.201993,-1.69616,-0.0887922,3.029,-3.15817,-4.95267,-0.563536,-0.367325,0.298196,-0.136798,-2.28838,1.53946,-1.52233,-129.808,-822.28,-565.592,9380,-2660,-2240
-1.53277,-1.54272,-4.58274,-2.24094,-1.95476,-0.962344,-3.40872,-4.29364,-2.58562,1.69596,0.843499,1.1995,-0.302429,-0.668093,-5.78368,-2.57923,-128.344,-819.352,-560.712,9380,-2520,-1960
-5.57545,-5.14607,-5.58177,-5.69273,-4.09889,-3.22095,-6.76532,-2.39856,-4.10338,-1.72968,0.0911572,-1.65008,-1.54766,-1.81966,-9.13827,-1.42748,-129.32,-819.352,-561.2,9520,-2660,-1820
-7.71256,-2.43114,0.194681,-1.42168,0.947395,-1.2409,-1.56488,4.53953,-7.66696,-1.7935,-1.71456,0.0684887,-1.97558,-1.00083,-2.68041,6.41418,-129.808,-813.984,-559.248,9380,-2800,-1400
-6.51776,-7.27436,-0.125867,-4.88971,-7.81055,-0.197365,-4.64914,1.19212,-8.33475,-5.2045,-1.94673,-3.0128,-1.47208,-1.95362,-5.85083,1.27328,-129.32,-811.544,-561.2,9240,-2660,-980
-1.00992,-2.35884,4.56019,-3.72195,-4.62399,0.672288,-5.49253,3.04525,-3.28992,1.9942,-1.136,-2.58698,0.880528,-1.29146,-7.70802,-0.329828,-130.784,-809.592,-556.808,8680,-2380,-840
1.34922,-1.31468,1.64589,-4.26391,-2.72022,1.04644,-5.53441,0.325385,-1.59667,2.10308,-0.036039,-4.91853,0.755189,-1.36352,-7.18519,-1.10544,-128.832,-809.104,-555.832,7700,-1680,-560
6.18795,8.54166,5.21362,2.62658,3.2622,1.86889,-0.642764,2.70489,2.68318,4.40652,1.05008,0.384772,2.05512,0.177889,0.129465,1.39812,-130.296,-812.032,-554.856,7000,-1400,-140
1.3553,7.13105,1.49683,2.22629,3.64657,0.854001,0.374179,3.0388,-3.00203,-0.0532884,-1.06122,-0.0807961,1.33217,0.552572,0.454603,-0.292001,-129.808,-807.152,-553.392,6160,-1120,420
-2.26974,-0.591585,-4.05936,-2.13462,-1.64108,-0.580501,-1.44571,-1.58811,-5.03386,-4.83876,-1.95663,-3.0555,-1.24285,-0.490379,-1.18271,-2.91566,-131.272,-809.592,-560.712,5320,-420,700
0.891632,1.92102,0.410723,0.0308247,1.43309,-0.0988166,-0.345758,1.36651,1.56,-0.196309,-0.76597,1.47979,-2.36428,0.325684,-1.08478,-1.01887,-131.272,-811.056,-559.248,4620,-420,980
2.36768,-1.33574,-1.07551,-3.74703,-0.58481,-0.753561,-3.35512,-1.07355,3.37541,2.43844,0.219183,0.266275,-3.43956,0.83293,-5.2296,-4.43152,-133.224,-814.96,-559.736,3780,280,1540
4.87212,5.34563,0.0914803,-0.377735,3.11953,-0.756169,-3.07736,0.263464,8.17933,2.96265,1.29975,3.32243,-0.926626,1.66584,-4.13363,-5.04609,-135.176,-812.52,-558.272,3360,420,1820
6.2994,7.84323,0.612035,-0.485099,4.81081,-1.04511,-6.08697,-2.43781,9.54984,4.86456,3.45027,4.87922,3.20031,1.45236,-5.123,-8.91476,-138.592,-813.008,-557.784,3080,700,2520
4.92121,1.36871,-0.419271,-3.56215,1.33818,-0.51329,-4.90688,-3.41445,6.6412,3.59142,4.16068,2.08079,4.63792,-0.717027,-3.09477,-7.99849,-142.496,-814.472,-559.248,2660,980,2660
0.923563,-6.16874,-3.09729,-2.25305,-1.17811,-1.72766,-0.0853514,-2.59067,1.08997,1.92323,0.440999,-2.13416,1.23669,-1.26647,3.80512,-3.38605,-143.472,-817.4,-558.272,2800,980,3080
4.67684,-3.7632,-2.09271,6.3353,-0.404891,-1.903,3.82279,-4.4834,4.14786,1.9401,0.866962,0.0567113,-0.702217,-0.367047,11.8414,-0.938367,-147.376,-814.96,-561.688,2940,840,3220
4.02648,-3.42866,-2.66789,6.11593,0.277475,-0.75181,4.4975,-0.701143,4.27012,-0.133662,0.384445,1.55024,-1.39204,0.396151,10.1518,1.0345,-147.376,-814.96,-559.736,2940,700,3360
-2.87559,-8.52189,-3.14829,0.226449,0.683088,-0.000668135,4.36984,4.96577,-2.05929,-1.6373,-1.1141,-2.18204,-1.39036,-1.25121,5.44517,3.44947,-145.424,-813.984,-563.64,3500,560,3500
-4.07466,-11.1001,-2.58132,-3.69455,-4.38581,-0.954968,-0.13345,2.84109,-1.66693,-3.9943,0.0238613,-3.84912,-0.599567,-2.41124,-0.385657,0.189514,-145.424,-814.96,-560.224,3780,280,3220
3.52244,3.15251,6.23287,2.64107,1.92145,0.916907,3.25655,5.92288,7.22331,4.33752,2.84275,5.43109,3.68061,0.26361,1.61824,4.5228,-144.448,-815.448,-561.688,4060,140,2940
3.31266,5.40758,4.71889,3.68157,-0.837336,1.85703,5.48793,1.35561,6.12407,2.11569,1.86659,4.02525,3.20479,1.76724,3.4698,5.18924,-143.472,-816.424,-558.272,4340,-420,2380
4.91038,11.3803,5.38218,4.32457,2.08857,0.0693175,4.42994,-1.34364,8.16034,3.62172,0.527984,3.57887,3.0756,1.37725,2.53672,5.62331,-141.032,-811.544,-559.736,4340,-840,1680
-6.36606,0.637029,-1.58296,-4.3599,-3.38965,-2.94106,-3.18034,-4.23935,-4.01895,-4.98474,0.768872,-6.87249,-1.3364,-3.69725,-5.67787,0.366009,-138.104,-817.888,-560.712,5040,-1400,840
-15.4568,-0.453433,-4.90033,-1.03859,0.117695,-0.860626,1.45453,0.527317,-10.2457,-9.89685,0.991152,-8.18976,-2.63786,-1.86043,0.612078,6.52774,-139.08,-813.984,-560.712,4620,-1960,140
-12.2064,4.60584,-1.67422,8.45322,5.36972,1.72261,6.3528,2.73148,-8.01498,-8.30084,-2.18987,-1.42947,-2.19877,2.1481,7.92863,8.30307,-137.128,-814.472,-560.712,4620,-2520,-700
-11.3258,-2.49868,-0.393595,2.46428,2.63741,1.7262,0.544441,1.11658,-16.2098,-12.0054,-4.79863,-2.0561,-2.88581,4.18891,-2.5176,1.56258,-136.152,-813.008,-564.128,4340,-2940,-1820
-4.57065,-1.63009,6.02036,-8.25278,-1.58315,1.49519,-11.4189,-2.37458,-12.8857,-3.97978,-2.51589,0.589569,-0.90712,2.58071,-20.0351,-2.6475,-133.712,-813.984,-560.712,4060,-3220,-2380
-7.03056,-6.03318,6.35112,-13.6878,-4.06307,0.126549,-13.7415,-2.99943,-17.2841,-1.07343,-4.86197,-3.63399,-2.16173,-1.4554,-18.8954,-4.87622,-131.272,-813.984,-565.104,4200,-3500,-3360
-11.0586,-11.6581,-2.24943,-8.72302,-7.81726,-0.0102816,-3.86386,-2.60796,-17.2272,-6.68297,-6.17227,-8.83329,-4.22872,-4.27363,-3.8157,-2.06077,-129.808,-814.96,-563.64,3920,-3500,-4200
1.98381,-0.221457,4.63437,1.49761,-0.598178,2.22827,3.3649,1.29299,1.0163,4.29939,-0.0529435,0.870883,0.48298,-0.765546,3.63184,4.08936,-130.784,-814.96,-565.104,4060,-3360,-4480
11.1737,3.8136,5.74738,2.72743,-1.03853,2.18701,2.73609,-0.466691,11.5324,6.69493,3.31775,5.23196,2.90179,0.464092,3.84573,2.879,-131.272,-817.4,-562.176,4340,-3360,-5180
14.6727,3.82218,4.42565,3.44598,1.05312,0.965416,2.56435,-0.417834,15.3896,8.04466,2.21,5.65462,3.13909,1.16835,4.31396,1.59048,-129.808,-817.4,-566.568,4480,-2940,-5180
11.1147,0.293081,0.186995,1.10204,1.31996,-0.554511,1.62182,-1.5467,12.0772,5.42013,0.894375,3.83084,1.66186,0.485602,2.07828,-1.33079,-130.784,-815.936,-563.64,4480,-2940,-5180
6.44351,0.973707,-0.285117,2.92526,2.18177,1.74924,5.24175,1.12038,6.67246,3.67774,0.331241,5.0046,1.39796,1.3294,6.32792,1.83801,-129.32,-817.4,-562.664,4620,-2520,-5320
6.06513,5.05913,1.00877,5.88306,5.57872,2.82926,7.67635,6.80143,6.14381,6.57514,2.27378,7.77222,1.60944,2.58185,8.87713,2.58076,-131.76,-820.816,-559.248,4760,-1960,-5320
4.21121,2.5488,-2.04155,5.33562,1.5724,1.40724,6.00751,3.54177,5.48497,5.97462,0.275484,4.34317,-0.212583,1.5404,5.94369,-3.35776,-130.784,-820.816,-558.76,4760,-1120,-5460
3.1522,3.67026,-1.91413,5.66928,2.88762,0.0339434,5.94969,1.47448,5.12841,5.69725,-0.0858881,1.9462,-0.747448,-0.22898,5.28087,-3.65874,-132.736,-819.352,-564.616,5040,-840,-5320
-1.13572,-4.61866,-6.37587,0.617458,-3.09328,-1.83128,3.11372,-2.42904,-3.1767,0.227155,-1.45528,-3.94071,-3.84582,-0.80917,1.9731,-4.10354,-130.784,-820.816,-563.152,5180,-420,-4900
-4.03763,-4.38353,-8.13869,2.51766,-4.45779,-1.65666,4.29276,-0.40122,-5.15478,-4.63223,-2.07016,-2.41924,-4.6001,-0.0411732,4.4673,1.38697,-130.784,-820.816,-558.76,5320,0,-4620
3.76782,3.81317,-2.29795,4.8179,0.525732,-1.34055,1.52328,1.6588,5.66217,1.19801,2.27082,3.25314,-1.18019,1.30919,3.94261,4.41195,-129.808,-821.792,-557.784,5460,140,-4480
1.31914,-2.41723,-5.4457,-2.60973,-3.42227,-3.79608,-5.53978,-2.97495,2.38157,-1.64628,2.24979,-3.07693,0.404083,-2.26674,-2.70649,-1.54995,-129.808,-822.28,-558.272,5460,560,-3780
-0.874365,-3.42123,-6.27586,-3.24738,-2.57883,-4.82101,-7.20418,-4.79875,0.297896,-2.75724,1.24802,-6.48978,0.583971,-3.61144,-3.1024,-4.48935,-130.296,-820.328,-556.808,5180,280,-3500
-3.07012,-2.5449,-5.33557,-1.59682,0.0783159,-3.54729,-3.42329,-0.832698,-3.78041,-3.26221,-1.32749,-6.96279,0.581306,-1.09837,0.665241,-3.5403,-130.784,-818.864,-554.368,5040,420,-2940
-7.0372,-1.66513,-7.80699,-0.668536,-1.97155,-2.3783,-2.35475,-1.87819,-9.10812,-7.42525,-2.53704,-5.56938,0.798284,-0.533689,2.58071,-4.84702,-130.784,-816.912,-558.76,4760,280,-2800
-0.912563,13.4058,4.64342,8.03519,8.67407,3.39442,-1.46878,1.81009,1.08627,0.862151,-1.16828,6.83744,5.1595,4.52159,0.10388,-2.31243,-130.784,-817.4,-558.272,4620,560,-2520
1.02421,8.35441,4.30433,-7.42613,-0.814857,2.42247,-17.6708,-6.42929,6.88556,1.66775,0.448978,5.82372,2.85344,1.3256,-24.4226,-12.419,-127.856,-816.424,-559.248,4200,280,-2240
1.24895,2.63847,3.69024,-16.5642,-3.26349,0.0541819,-18.1823,-6.63909,7.81649,3.0548,6.31852,0.395882,1.99919,-2.88573,-25.648,-11.2163,-129.32,-815.936,-561.2,3780,280,-1680
-7.03754,-7.00427,-3.79346,-17.2252,-10.2912,-4.26828,-11.4989,-6.27617,-1.39564,-2.17436,7.68754,-11.2047,-0.758716,-7.13858,-12.3009,-8.87533,-125.904,-814.96,-561.688,3920,-280,-1120
1.5718,-0.454331,0.293892,-4.93581,-3.96419,-1.11356,3.13373,3.34712,5.71228,2.43042,4.86077,-5.37752,-0.4594,-4.35289,7.4007,2.41513,-126.392,-816.424,-564.128,4200,-420,-420
10.3786,6.09304,3.84281,2.49815,2.09755,1.91839,10.7057,8.02249,11.2869,1.38249,2.44112,2.69936,-0.116724,-0.284113,14.2634,6.79319,-129.808,-817.4,-566.568,4620,-560,-140
9.13482,5.91447,5.8138,8.54023,8.29932,3.7277,16.3056,10.4089,4.26823,0.292813,-0.692607,5.14398,2.20045,5.27232,19.4744,11.6332,-125.904,-816.912,-560.712,4900,-980,140
10.2126,10.9907,10.6795,18.6608,15.1518,6.93543,22.0648,12.3454,7.55948,5.39757,0.159461,11.1061,5.61834,10.4083,26.9375,18.2179,-124.44,-815.936,-564.616,5040,-1400,560
5.27707,8.45389,10.592,13.2216,11.3371,3.87607,9.21336,6.02539,4.39292,7.39488,-1.40149,9.47808,2.96458,7.01307,10.9055,10.709,-127.856,-817.4,-568.032,5180,-1820,840
-5.70506,-5.09677,1.13558,-3.30217,-0.766131,-0.765036,-8.51416,-2.17481,-6.00866,-0.312993,-3.82288,0.757393,-0.531601,-1.52882,-13.7583,-2.70384,-125.416,-818.864,-564.128,5320,-2100,980
-0.929453,-5.10961,4.81376,-12.5626,-4.93885,-3.72419,-18.6259,-4.7746,-1.69715,5.25028,-0.252172,0.769643,0.528837,-5.70101,-28.6564,-7.49499,-123.952,-819.84,-567.544,5180,-2380,980
-6.72622,-9.16483,2.19143,-8.82366,-5.17728,-1.82823,-12.5324,-5.47182,-11.7031,-1.69567,-3.64231,0.715704,-0.712985,-2.69995,-21.9539,-5.4725,-126.392,-820.328,-569.496,5040,-2100,840
-26.6036,-9.45048,0.945899,8.8007,7.14684,3.99366,4.08769,-0.398217,-38.5963,-14.9195,-11.389,3.24632,-3.10319,4.75363,-0.23943,4.63765,-132.736,-823.256,-564.616,5880,-1680,700
-44.4721,-26.2871,-6.72578,6.42113,6.16105,3.91109,11.0772,4.38729,-60.0757,-24.7562,-15.8934,-12.4697,-7.61546,4.04031,11.6142,11.4331,-128.832,-823.256,-564.128,7560,-2380,840
-24.1196,-27.1773,-11.8194,-6.80312,-7.34441,-1.19762,4.87389,0.436542,-27.4457,-17.1,-7.59255,-19.1341,-8.4539,-2.31941,5.89924,7.3413,-129.808,-828.136,-570.96,8260,-980,0
8.4343,-2.85349,-0.495794,-1.15821,-5.51733,-0.223864,2.52386,-1.26336,13.0906,2.79478,3.24919,-3.4277,-3.00574,-2.07913,1.91318,4.65183,-125.904,-808.128,-572.912,4760,840,-2100
7.12281,-3.33424,-2.41767,-1.4565,-10.2091,-0.51241,0.0580622,-5.30113,9.3785,0.745876,3.86658,-4.61891,-3.26963,-3.69045,0.102539,-0.488656,-173.728,-825.696,-549,4760,11620,-3780
8.6584,-2.59908,-2.54729,-3.22473,-8.02445,-3.96802,0.574911,-3.61861,10.6515,1.94054,3.83153,-4.78534,-3.38143,-7.41065,3.77319,-1.08652,-137.128,-827.648,-559.248,10920,-7420,1260
14.8756,0.418535,-1.52083,-4.51435,-6.07725,-5.98418,-3.34371,-5.80126,19.0154,5.96348,4.85127,-1.70035,-3.47958,-6.56763,2.74003,-5.92763,-135.664,-815.448,-559.248,14700,-9240,2520
19.1583,10.8978,1.01107,2.78697,0.821735,-2.46234,0.0357061,-3.29334,24.9704,7.40329,6.25917,4.8393,-1.32081,-1.26563,8.06406,-3.35073,-137.616,-815.448,-559.736,12040,-3920,1540
16.0362,19.2989,0.449424,9.80577,7.53335,0.857464,3.35377,-0.693959,21.3659,7.14149,4.55156,8.69082,0.282594,3.00923,8.67583,-0.406959,-136.64,-816.424,-553.88,10500,-3360,700
9.4018,14.6517,-2.18983,3.81786,2.68336,-1.86819,-3.3957,-4.95703,13.3945,1.60469,1.30138,6.75872,-0.31078,1.57647,-3.98239,-8.162,-138.104,-822.28,-556.808,10640,-3220,-700
0.60455,5.61527,-1.83561,0.0176801,-0.5633,-1.88489,-0.72358,-3.07899,-0.722711,-0.677394,-2.28782,2.14246,0.997689,1.00624,-1.09624,-6.4197,-137.128,-826.184,-559.248,10080,-1820,-1820
-0.693088,6.02609,5.6563,4.70969,3.42675,2.04886,6.79526,3.95982,-3.60332,4.28238,-0.146457,4.44489,5.44557,3.66779,6.45861,1.71061,-141.032,-825.208,-562.664,8820,140,-3220
3.37087,2.617,1.89827,-2.72927,-3.4963,-0.202158,-4.71345,-2.25013,3.76905,5.23138,3.52348,2.33881,6.23833,0.0895336,-6.56626,-5.40338,-139.08,-830.088,-571.936,7140,1680,-4480
12.1315,4.52493,2.5203,-7.47141,-3.64844,-0.659436,-9.90456,-1.50945,15.2835,13.1616,6.13859,2.13369,7.5587,-1.607,-13.7544,-5.68686,-137.128,-830.088,-570.96,4340,3920,-5880
11.4539,3.76588,-0.476854,-3.95281,-3.61559,-0.38197,-0.849859,3.00892,17.1106,7.74358,3.82995,0.634681,6.51371,0.0981756,-2.06465,-0.598096,-161.04,-820.816,-555.832,5040,7000,-6160
8.30221,11.464,1.58103,8.1807,4.79588,1.32164,12.1712,10.8547,13.7135,4.77893,1.63225,4.91328,6.35408,4.0872,14.6124,8.34586,-132.736,-822.768,-566.568,9240,-3500,-3640
4.24183,5.83908,0.986771,5.79685,1.63821,0.778863,8.96156,6.5421,3.08366,2.95287,1.59011,2.99313,4.04533,4.5234,8.28761,5.50015,-142.008,-819.84,-561.2,9940,560,-4200
-6.84955,-4.72117,-3.79764,-5.77825,-3.98202,-0.116357,-6.32252,-3.06841,-15.0608,-2.48445,0.303257,-2.56778,2.21621,-0.135939,-11.5854,-3.96249,-139.568,-819.84,-557.784,10360,140,-4200
-20.2613,-13.2382,-7.81562,-11.9869,-4.95944,2.29806,-13.2996,-6.06659,-27.3659,-10.9345,-5.37751,-5.82477,-0.260232,-0.235083,-21.3304,-8.00963,-139.568,-814.96,-561.2,10500,700,-4900
-26.2934,-9.72641,-6.46544,-0.97925,5.04096,6.82982,-1.77018,1.85634,-26.4097,-16.2683,-12.3014,-4.74361,-2.72374,5.40737,-6.65716,2.72381,-136.152,-822.768,-562.664,11340,420,-4900
-17.0452,-1.81586,-6.80462,7.37348,10.2925,5.54108,5.63519,6.48466,-13.2703,-10.9127,-9.41213,-3.54146,-3.87443,3.83746,5.8401,5.72736,-138.104,-819.352,-560.224,10360,1260,-5460
1.02239,7.4176,-1.24445,6.93186,11.2346,2.8789,5.33442,6.83505,5.5114,2.52589,-0.783918,2.07197,-1.75851,2.97694,7.55551,4.5455,-135.176,-815.936,-569.496,10780,700,-4760
6.21059,5.42488,0.589561,1.25774,4.25835,0.917047,3.49798,4.45846,10.094,4.62352,4.05321,2.40347,-0.880661,0.221434,7.29362,4.45663,-136.64,-811.056,-564.616,10080,2100,-4760
8.96149,6.32796,3.49676,0.375701,3.42196,-0.268351,2.39642,3.87571,11.4337,9.81935,5.11679,1.3043,-1.57708,-2.27683,5.9793,3.16566,-131.272,-819.352,-566.568,10920,1400,-4480
6.60849,0.381061,2.64148,2.38226,0.816897,1.19329,5.60611,3.76044,6.64409,8.30634,5.18326,2.85166,-2.30708,-0.657261,7.27477,1.85584,-129.32,-822.768,-572.912,10920,2240,-4900
1.18068,-5.1656,-0.00236297,-2.2589,-2.43128,-2.40678,1.62532,0.798653,0.248027,1.92933,1.55333,0.62322,-4.72578,-5.03678,2.38487,-3.75184,-131.76,-812.032,-572.912,8540,4900,-5040
-3.90426,-11.7292,-0.952982,-13.1617,-10.0783,-6.77561,-13.7025,-10.4019,-7.05396,-4.79195,1.1548,-5.03813,-6.79462,-10.1242,-13.9531,-15.5629,-133.712,-811.056,-570.96,8120,4340,-4480
-12.0487,-23.1672,-4.55693,-18.903,-16.0074,-7.40612,-19.7148,-15.1916,-18.6792,-9.19818,-0.524543,-12.6624,-8.13306,-10.1525,-19.9785,-17.3441,-126.88,-813.008,-574.376,9520,2380,-3500
-9.2522,-6.78386,2.97417,-0.151957,1.54764,-0.468761,-1.84406,-0.273392,-9.96871,-8.22229,-4.78015,-5.79997,-3.00662,-0.298127,-1.8502,1.33095,-127.368,-824.232,-575.84,8960,3780,-3640
-0.993476,1.12984,8.34541,4.59561,1.78249,1.69149,5.11355,4.69574,0.777359,-5.19231,-3.12293,0.852225,0.844482,4.27553,4.03117,8.12019,-124.44,-819.84,-580.72,6580,7280,-4620
11.4042,3.40839,11.9051,4.67909,-0.404601,-0.109043,5.00846,5.22865,7.28052,7.66745,6.51138,4.73696,4.19679,1.51934,5.37561,8.16188,-123.952,-815.448,-578.768,4620,9520,-5040
14.3923,9.89287,10.6906,14.448,0.470525,-1.5506,4.31724,-3.01642,10.9358,5.93568,6.1418,9.14965,3.38777,1.98225,10.7654,4.04252,-121.512,-825.208,-584.624,3780,8960,-4760
-2.58119,2.14789,3.22685,8.33316,-4.681,-4.69248,-6.0112,-11.7774,-2.00814,-10.2189,-5.20161,2.7416,-1.57525,-5.42961,-0.595767,-6.10989,-123.464,-818.864,-579.256,2240,10360,-4480
-10.5404,-9.63096,-0.244012,-4.85267,-9.27879,-4.88407,-9.74859,-10.0544,-11.1823,-13.5899,-8.62853,-5.09565,-2.77997,-6.82532,-10.2399,-6.94031,-129.32,-797.88,-561.688,2380,9940,-3920
2.42801,-3.51863,7.1613,-4.42344,-2.89023,-0.257447,-1.6141,-0.310316,-1.63715,2.98606,2.68138,0.914688,3.91803,1.93278,-5.89229,3.30302,-119.072,-815.448,-572.424,5040,4900,-1540
10.3106,7.36131,14.6218,8.77713,11.766,6.10156,11.8487,10.0948,5.82679,12.6115,10.2982,10.529,9.57461,10.5579,11.1514,12.6907,-120.048,-813.008,-572.424,1400,8120,-2240
6.66335,7.19629,9.96895,10.1124,13.6409,7.50039,17.3973,14.4117,7.49065,8.31787,3.29466,9.19738,5.86967,10.6217,18.9513,17.1725,-127.856,-802.76,-560.224,-3500,10780,-3360
2.58302,4.15321,-1.03108,5.68998,7.05466,3.69963,10.8895,9.36794,9.47248,-0.0203197,-4.3654,2.49891,1.41957,3.84231,14.8328,11.7339,-128.832,-806.176,-558.76,-2380,8260,-3220
1.74554,8.44588,-3.62805,6.58126,8.82524,0.0361259,3.60397,0.573721,11.3196,-0.409533,-7.46904,-0.12768,0.21462,0.517205,10.9827,1.63498,-122.488,-807.64,-554.856,980,6020,-2520
-11.4175,-7.62127,-16.8859,-4.93674,-2.80699,-2.50577,-2.25909,-4.01895,-4.10036,-9.90552,-12.1789,-12.1834,-6.69598,-3.00223,-0.851598,-5.35472,-126.392,-808.128,-556.808,2240,7420,-2940
-1.52964,3.7397,-7.9758,4.04452,5.94309,1.57534,7.78257,2.12401,1.598,1.47758,-4.93334,-1.22213,-1.55719,1.85438,5.22232,4.24023,-132.736,-805.688,-547.536,1260,9660,-3360
8.90009,7.98259,-3.2023,4.85783,1.39914,0.327537,1.80237,-11.6114,8.76151,9.06117,5.82181,1.51083,4.50789,1.07999,1.70625,-5.50942,-129.808,-800.808,-541.192,1260,6860,-3080
8.53385,8.58159,-6.1478,6.26226,-1.50754,2.73331,4.18986,-9.34135,10.4088,3.04807,3.40403,1.51451,3.10284,2.67114,8.89147,-4.23496,-127.368,-802.76,-540.704,2240,5180,-2660
7.46011,10.3148,-3.22257,0.231146,-1.43651,4.58405,-4.40307,-1.78117,3.85799,6.41062,5.44743,6.58452,4.24163,4.02241,-9.27382,-3.53563,-124.44,-804.712,-541.68,2100,5600,-2940
9.2404,4.98657,-6.3069,-26.2842,-18.3899,-8.29471,-41.2685,-21.2036,-0.394795,12.9513,14.0211,2.28618,3.4581,-10.6011,-54.2194,-29.355,-124.928,-810.08,-544.608,140,7140,-4060
-14.9851,-20.8769,-20.0266,-34.2944,-18.344,-7.79179,-23.1097,-12.1747,-30.0156,-5.38089,2.99344,-15.3239,-3.07238,-8.74919,-34.414,-15.2336,-120.536,-810.568,-553.392,-3780,8540,-5600
-31.5984,-28.2751,-30.9798,-21.038,-6.49847,-0.210905,7.24537,15.0784,-41.2639,-23.7936,-13.8488,-24.0555,-10.4203,-0.205208,-3.89348,13.0327,-115.656,-798.856,-552.416,-8820,12320,-8540
-11.255,-9.32856,-23.6544,-4.67593,-1.73356,0.898557,7.8763,8.67979,-16.3578,-9.88429,-1.13188,-7.49702,-3.90565,1.28763,2.66129,6.65147,-164.456,-817.4,-540.216,-8400,18900,-9240
-4.06511,-6.65143,-12.0664,5.95194,8.08058,4.6583,17.0961,12.4654,-10.7019,3.4853,5.63612,-0.314812,1.68547,5.84185,17.4028,9.56497,-110.288,-807.152,-552.904,-8540,700,-4480
4.26481,-0.524658,-4.92209,8.20588,7.10955,4.04314,19.6195,17.7549,10.9648,1.03691,1.188,1.69429,-1.91239,4.31414,23.1902,12.8663,-119.56,-801.296,-552.416,-11480,5600,-5600
16.3159,19.0885,19.6125,17.2869,8.34782,-0.460949,13.0401,9.87571,31.1438,8.8047,3.99035,12.9358,-0.459415,0.817236,21.3125,5.85814,-119.072,-809.104,-549.976,-13440,6300,-5320
15.7559,16.8201,26.5634,4.11721,-3.2477,-5.02562,-8.95263,-1.50952,29.6913,10.8789,3.92041,12.3066,-0.708365,-6.86873,-6.33596,-9.75877,-119.56,-812.52,-549,-15260,6720,-5880
-14.6873,-8.205,9.70783,-13.1494,-15.7393,-3.87785,-18.3635,-3.32025,-3.07563,-16.273,-14.7015,-8.55682,-7.57198,-10.7422,-20.4192,-13.6435,-115.656,-807.152,-552.416,-16240,6580,-5740
-20.2611,-4.46546,8.71772,-4.32966,-8.2242,-5.52855,-18.2506,-7.73502,-6.27651,-20.1171,-18.5566,-10.2025,-7.41939,-13.5493,-12.2393,-16.3333,-113.704,-801.296,-556.808,-18760,6580,-5320
2.0297,-1.09591,17.1576,1.20617,-0.986104,-3.69082,-14.1761,-12.7523,4.74921,3.2792,3.35234,1.85111,1.02938,-6.80029,-7.42918,-16.6219,-113.704,-798.856,-552.904,-21000,7560,-5040
11.37,4.31418,22.0053,2.35803,6.58727,3.0346,-4.3056,-2.13624,11.9689,12.5229,6.77676,8.86725,5.4779,2.18234,-3.57703,-3.91975,-120.048,-798.856,-556.32,-22960,7980,-4760
6.86307,11.8404,14.633,15.1551,11.1773,4.65784,10.6065,3.71037,11.2585,3.4089,-1.55603,12.081,2.65318,7.88559,13.832,8.26771,-121.024,-801.296,-552.904,-26180,7700,-4060
8.45828,22.265,14.5753,24.9654,15.2493,3.16787,10.4242,-2.61059,8.39826,5.52632,3.15684,18.2205,3.09716,9.33816,16.8946,8.52641,-118.096,-807.152,-550.464,-27580,6860,-3640
5.72683,7.28614,11.9088,5.8042,9.62821,5.02538,-3.61296,-5.02609,-6.24614,11.2018,8.34941,12.8231,6.69175,9.14765,-8.70041,4.47049,-120.048,-805.688,-560.712,-27440,5880,-3500
-10.253,-21.0643,-3.97439,-9.99523,1.21764,6.85902,4.34402,8.63075,-27.6101,-0.199625,2.67288,-8.16589,3.07968,5.65613,-6.98353,14.2131,-125.416,-786.656,-560.712,-27860,5740,-3220
1.12541,-12.6882,-10.1564,1.11507,3.31676,2.72814,18.1449,10.1235,-7.27953,3.98636,2.1011,-7.3454,-0.914611,1.93431,18.6285,16.7339,-123.952,-807.64,-566.08,-29540,3640,-980
15.2047,9.08935,-3.89755,22.9069,16.5251,5.88656,30.1912,16.3615,12.6509,12.7732,2.4306,6.87654,0.142946,9.94634,37.359,25.1742,-115.168,-820.328,-566.568,-32900,560,560
1.50602,-5.58228,-9.58144,-3.64914,-7.0807,-1.35776,-5.81669,-4.53729,0.651954,-0.598765,-2.53446,-5.96991,-1.39503,0.305678,-5.30692,-4.06355,-120.536,-809.592,-569.984,-31080,2800,-420
-2.82292,-6.71611,-8.57635,-22.3559,-19.7801,-10.1397,-36.9607,-22.075,-3.99977,-1.51732,-0.335479,-10.0446,-0.438026,-10.7861,-37.7565,-28.3654,-118.584,-798.368,-576.328,-23520,3640,-280
-20.925,-17.0612,-18.8959,-25.4972,-25.7934,-12.166,-35.3317,-16.5282,-24.4678,-20.6927,-7.35482,-18.7793,-5.73686,-13.6586,-39.067,-24.0459,-118.584,-800.32,-570.472,-19880,4480,280
-22.0024,-15.4471,-9.95263,-0.879245,-3.61991,-0.965638,6.60023,8.56542,-32.4787,-20.0224,-8.55236,-13.2981,-1.58091,-0.430138,7.54008,7.51875,-120.536,-801.784,-563.152,-19180,3920,1260
0.479208,-3.37407,-0.627897,19.3219,12.6395,4.38067,36.7734,19.8123,-6.85048,-3.80756,1.42155,-2.51657,3.16277,8.44958,43.7974,25.985,-122.976,-799.832,-558.272,-19180,1400,2660
15.3965,12.9542,2.33258,23.6417,14.0521,3.70289,33.126,13.55,21.7855,2.60398,2.34252,6.69658,2.4756,7.17697,41.5341,20.2115,-123.952,-796.904,-555.344,-19460,-1120,3920
32.5108,36.5134,13.7163,27.733,15.8361,3.67896,13.9147,-5.1301,48.2796,15.2913,9.62889,23.2268,9.70434,6.27662,23.1353,3.19503,-118.584,-838.384,-564.616,-20720,-5460,6020
14.7674,4.77942,4.34732,-9.35288,-6.96608,-2.48381,-17.0909,-21.5675,20.2111,8.06651,7.9783,6.52019,6.8363,-3.71757,-18.6188,-19.1459,-116.144,-846.68,-567.544,-23380,-3360,5040
5.62647,-1.60568,4.44997,-6.1556,2.35361,4.55119,0.617697,-0.386756,6.01368,5.05082,2.20487,6.10496,4.92563,5.15275,-2.8954,1.09105,-120.048,-833.016,-567.056,-20440,-280,3920
2.12403,13.0161,8.26989,15.1255,17.9824,9.23384,20.9581,14.3539,4.51555,1.35063,-1.44723,14.2512,3.98805,12.9786,20.9789,17.6011,-123.464,-827.648,-564.128,-15120,-140,3500
6.47094,11.8841,6.49352,4.80042,7.80511,2.97438,0.1056,-2.02842,7.68355,8.02133,8.73382,13.0493,3.15224,2.55169,1.32132,-2.19008,-129.808,-833.016,-558.76,-14280,-560,3360
10.6322,1.70388,-2.43738,-24.2546,-15.4877,-10.0167,-34.571,-16.3797,13.3627,14.3675,12.1462,-0.455439,-2.44504,-16.3972,-40.1475,-26.0937,-131.76,-813.984,-548.512,-13440,-1120,3360
-7.79647,-20.0098,-17.8294,-45.6308,-35.3165,-14.3139,-48.8171,-21.8258,-3.56293,-3.51527,0.0270228,-19.1078,-11.2262,-24.2112,-55.8563,-36.0761,-135.664,-811.056,-540.704,-12880,-4760,5180
-19.0767,-27.1074,-14.5883,-35.8882,-23.3757,-8.00455,-26.2342,-6.82595,-21.3195,-9.57495,-7.10179,-18.9518,-9.77545,-13.9234,-33.3374,-16.2824,-147.864,-811.544,-532.896,-14700,-9380,6860
-21.2588,-25.6111,-10.6257,-27.476,-15.0025,-3.72067,-18.088,-0.878987,-26.935,-11.2973,-11.8724,-17.0619,-8.09456,-5.88243,-28.2439,-8.34697,-130.784,-869.128,-538.752,-21280,-15400,9100
-28.2048,-19.1582,-7.24306,-9.09694,-2.03971,2.99582,8.16973,9.60055,-30.9836,-19.3664,-17.1869,-14.5723,-5.92405,4.42569,1.10021,11.5137,-128.344,-859.856,-542.168,-25340,-13020,6440
-10.0866,0.591038,3.92601,10.4069,11.3683,6.15392,26.3577,12.6473,-7.21702,-6.18904,-8.73359,-0.575423,-0.0756193,8.47842,28.5958,20.2771,-131.76,-842.776,-541.192,-21840,-8540,3920
7.35153,16.922,3.3325,14.9646,7.72438,0.881746,11.9712,-2.9374,21.8455,0.995944,-3.87944,8.85797,-0.454243,3.83164,19.3703,2.80722,-133.224,-836.92,-539.728,-19460,-7420,2940
10.561,38.241,6.63961,40.7957,24.4479,2.08679,32.712,13.718,23.6919,4.44135,-3.15331,18.6568,-1.39801,6.14218,44.7009,21.0376,-134.2,-840.336,-542.168,-19880,-6160,1400
-13.1964,25.088,5.6073,56.5021,37.7488,10.8599,58.6152,30.3272,-22.1148,-6.14056,-6.61397,13.5262,-2.49467,19.8347,67.9846,41.4571,-135.664,-836.92,-544.608,-20720,-6300,280
-50.5535,-20.9365,-14.4018,18.9093,9.17829,2.01843,20.2366,10.5007,-70.2248,-29.6968,-13.7193,-17.1115,-8.67654,4.74651,19.7537,11.8924,-129.808,-840.336,-549,-20160,-6860,840
-16.6867,-26.9387,-13.2317,-33.7463,-26.3962,-8.03743,-44.4993,-21.1287,-27.6735,-6.92575,0.510328,-19.0761,-4.40977,-14.0207,-62.4012,-33.9669,-128.344,-836.432,-556.32,-21140,-5880,700
3.36907,-16.223,-6.03219,-33.5065,-25.439,-3.78133,-31.5346,-10.7666,-2.89486,2.45771,3.35596,-10.2158,-1.56954,-8.37948,-56.1092,-20.571,-125.416,-838.872,-562.664,-21140,-3780,280
5.03405,-0.644996,1.43142,-0.00955496,-3.17996,4.00261,3.91843,7.46488,0.973293,2.0105,3.62568,1.20987,2.4619,4.13737,-10.6623,4.9694,-127.856,-830.088,-558.272,-19600,-2800,-140
1.96237,-14.9696,-8.19053,-14.0075,-14.8861,-5.77089,-10.8999,1.64051,3.41424,0.512219,4.6669,-14.5553,-4.20435,-11.9156,-12.8632,-9.544,-129.32,-817.4,-555.344,-16940,-1540,-420
25.0955,1.81775,-6.41401,-9.12883,-17.4991,-12.6089,-18.6799,-10.0338,38.1919,12.6233,13.3917,-6.91355,-3.48034,-20.8148,-2.96432,-20.6441,-126.88,-805.688,-558.76,-16660,-1400,-420
40.6464,26.3274,17.2706,5.50462,7.25893,3.26506,-5.37437,-0.14874,52.812,25.7132,15.5423,21.5123,11.8712,2.78293,-0.862578,-1.84233,-124.44,-823.744,-553.88,-18620,-1400,-700
26.1844,6.00519,15.8748,-12.4898,-6.8457,2.04398,-31.9515,-28.0252,26.2624,16.8566,17.5684,14.1418,16.5296,2.13329,-25.4667,-26.8049,-127.856,-803.248,-552.904,-16800,840,-420
6.3403,2.5256,15.2036,2.45959,6.8095,7.07565,-9.0439,-13.721,-2.86525,4.40326,7.41515,9.40353,14.8103,7.74888,0.860332,-8.74323,-126.88,-794.464,-557.296,-16940,1540,-420
-18.8665,-7.87495,6.95097,14.9801,19.7925,15.9915,21.9454,12.707,-33.4794,-14.2433,-9.40932,3.82715,7.8242,19.8969,25.4598,20.2923,-120.536,-810.08,-568.032,-21140,-1820,-560
-0.776369,6.07669,7.74846,23.2124,23.3059,12.9678,26.9903,16.2332,1.53913,-3.46596,-7.03503,10.7957,3.84905,18.5846,31.8948,26.011,-121.512,-794.464,-565.592,-20020,-2100,-280
40.3112,33.2001,15.0365,24.3411,18.9067,1.45988,20.4581,13.143,64.0553,25.9188,6.71525,20.3231,1.98978,4.56008,31.5262,22.8179,-125.416,-792.512,-562.664,-20020,-2660,-280
29.9974,31.567,13.2493,36.1816,19.3527,-1.3026,33.2378,19.527,42.9788,20.3104,4.42451,16.5093,-1.09126,2.82946,51.9768,28.85,-129.32,-801.784,-560.224,-19320,-5040,140
9.20087,13.1979,3.6984,26.8634,13.4681,-4.10858,33.6964,22.1293,9.17174,9.81613,3.00883,2.80568,-3.72865,-1.67888,46.7759,27.9087,-133.712,-786.656,-554.856,-18620,-6580,-280
35.1551,12.4951,6.81707,5.47903,2.69864,-10.9162,12.553,6.30587,33.9362,29.8061,18.2603,3.45539,1.28959,-9.26123,18.1594,8.79593,-128.832,-800.808,-558.272,-18900,-9240,140
57.622,15.4817,9.69112,-7.73289,-6.61793,-10.938,-5.27186,-8.75279,63.783,41.3711,26.32,7.10241,7.11888,-10.1537,-1.30604,-7.35551,-125.904,-810.568,-566.08,-19880,-8120,-280
46.3959,16.669,14.9127,-21.6493,-13.0602,-6.77238,-40.035,-32.5005,52.5074,33.2384,19.3266,12.6048,12.271,-6.4454,-42.6805,-34.3479,-135.176,-813.496,-565.592,-21140,-3920,-1540
-16.5463,8.10126,4.68764,-6.43562,-1.15599,4.28878,-31.6552,-21.8692,-18.6599,-13.7652,-14.3327,10.2832,3.74493,7.28688,-42.0678,-26.4311,-131.272,-802.76,-569.496,-19320,-1680,-3360
-81.0419,-18.8397,-11.6468,-23.1015,-6.20684,4.05665,-50.0318,-27.3768,-94.7719,-55.4714,-38.1559,-8.33043,-5.69043,5.61389,-74.4397,-36.9349,-132.248,-801.784,-567.056,-15260,-2940,-3920
-134.741,-96.3208,-42.6726,-66.5195,-29.9057,1.96275,-34.0984,-4.54612,-161.533,-93.2206,-55.8274,-58.4912,-21.8475,-2.27384,-66.3576,-17.3905,-134.688,-801.784,-569.496,-13580,-4480,-4480
-94.952,-82.7679,-45.4746,-37.2298,-23.8494,-2.14633,16.6149,17.961,-108.65,-69.098,-37.9399,-55.5401,-24.5283,-6.78338,14.3094,13.6706,-134.688,-798.856,-560.712,-12740,-5180,-4900
-44.284,-1.10731,-15.9575,34.3933,11.6591,1.33755,44.9141,19.0323,-46.5513,-34.2627,-19.6398,-5.04138,-12.0298,2.97069,62.8493,25.423,-136.64,-804.224,-557.784,-13020,-6440,-5740
-22.8152,-8.89819,-5.52468,16.9219,2.65298,3.12281,23.3308,7.22118,-34.161,-11.8854,-1.38716,0.0714228,-4.14275,4.1202,24.5932,12.1694,-135.176,-812.032,-563.152,-13160,-6720,-6860
5.79863,-24.7634,-7.54092,-26.9561,-19.0055,-2.48333,-4.90034,1.48402,2.04204,5.01557,9.27771,-11.381,-3.03284,-8.37378,-20.7008,-2.0644,-142.984,-813.984,-568.032,-13020,-7700,-7280
26.1742,12.6295,-4.25277,2.94244,1.0812,3.60916,16.6753,10.6113,35.4776,13.3571,7.17982,6.75838,-1.04888,2.68409,11.6239,13.422,-144.448,-817.4,-576.328,-11900,-8960,-7840
35.0446,24.7126,-1.50747,20.5359,7.00988,-1.72785,23.0425,5.15389,42.5901,25.7402,19.2405,8.05272,-0.239798,-3.73453,37.3994,12.9735,-146.888,-809.592,-571.936,-10500,-9520,-7980
44.7475,28.2181,6.26026,19.0389,7.25056,-3.38724,11.9024,-0.690127,58.6076,31.0263,22.2624,10.404,4.23898,-3.15292,25.9762,4.75441,-147.376,-819.352,-572.424,-10640,-9240,-8540
54.4329,36.6555,18.0118,10.2927,9.8279,2.01422,-5.60698,-9.64361,70.9345,38.1165,24.1812,22.9806,13.521,4.1127,-3.48521,-7.66285,-149.328,-824.72,-571.936,-10080,-8400,-8820
59.5758,34.5521,20.0469,-1.29073,0.831764,-2.02787,-29.8501,-23.1476,75.1841,43.445,27.0624,22.9096,13.8393,-2.62006,-33.3184,-25.5107,-148.352,-826.184,-571.936,-8260,-8540,-8960
72.2912,49.6184,34.1386,-13.0587,-1.74987,-2.78059,-62.246,-34.9056,88.1814,54.214,32.6842,36.963,20.2518,-2.38697,-82.3954,-43.1067,-148.352,-826.184,-564.616,-7000,-8680,-8960
29.4453,32.4706,19.9523,-2.44891,3.74083,1.40526,-26.6532,-11.0426,37.2695,19.5773,9.57918,23.3184,9.79629,2.68355,-38.3869,-15.7481,-147.864,-829.6,-561.688,-6020,-8120,-9100
-49.4545,-9.85931,-5.28854,28.9042,18.7014,8.16596,34.7038,23.5478,-62.1677,-34.1552,-25.9769,-9.06372,-9.04132,9.99707,46.3935,26.7417,-143.472,-831.064,-551.928,-4900,-7140,-9380
-77.8999,-50.0974,-19.8918,0.469357,-4.03979,4.39023,17.6722,20.802,-97.9399,-55.2718,-33.803,-32.4849,-16.4018,1.05939,17.5836,18.7553,-143.96,-830.088,-553.392,-4060,-6580,-9380
-66.1381,-63.5809,-23.366,-47.2636,-31.8127,-5.59607,-21.9977,9.63144,-83.1961,-45.2373,-26.5968,-41.9243,-14.8976,-13.712,-39.7645,-1.05859,-146.888,-831.064,-539.728,-4060,-6020,-9940
-53.723,-56.8324,-26.3242,-39.6321,-26.4613,-7.88151,-4.32439,10.384,-65.5869,-37.7383,-19.6188,-41.5071,-13.0804,-13.5244,-7.60232,4.41318,-142.984,-830.088,-534.848,-4060,-5740,-10500
5.49205,-13.398,-6.66301,10.8845,4.41979,-2.35526,37.0989,16.0935,4.18706,3.51922,5.49295,-12.5026,0.0936975,-0.887346,61.619,22.6474,-143.472,-828.624,-540.216,-4900,-6860,-11200
53.9904,36.0773,9.44063,36.3575,16.4114,-0.446595,27.7989,4.4748,67.477,31.6907,20.2205,20.5394,9.34482,4.09899,56.4937,10.7987,-144.448,-827.16,-544.12,-5880,-7700,-11340
51.1154,44.9749,9.30512,22.041,8.73236,-1.45045,-1.83103,-7.26948,70.9096,27.2734,14.3315,25.4126,6.15135,2.27816,8.20476,-8.3516,-142.008,-824.72,-534.848,-6580,-7000,-11060
20.753,11.5327,3.19575,-7.42364,-4.24597,-1.50721,-9.18157,-1.12861,28.142,11.5448,5.78077,4.7579,0.789733,-2.74645,-16.4249,-5.66523,-146.888,-828.136,-550.952,-7700,-5880,-11620
-12.1723,8.51632,4.19817,22.7447,11.8611,4.16026,18.4141,6.61517,-19.3329,-6.14398,-6.72729,5.23117,-2.7005,5.2043,25.1818,11.2891,-144.448,-825.208,-547.536,-7560,-6160,-11760
-62.0093,8.33455,1.27827,59.565,31.9394,11.4991,42.0691,14.3306,-83.073,-37.0008,-26.0708,6.66196,-6.38758,16.38,61.5122,25.5977,-134.688,-823.744,-549.488,-7140,-7000,-11480
-72.5408,-23.9493,-7.0922,2.19029,3.32378,1.271,-6.85534,1.13755,-94.1454,-40.5728,-26.3439,-14.7301,-9.31347,1.11706,-21.1343,-1.75444,-136.64,-833.016,-542.656,-7700,-7140,-11620
-9.1088,-63.4175,-18.8739,-103.997,-66.8579,-23.2685,-90.1036,-31.839,-15.708,0.972203,6.31581,-42.163,-10.008,-38.1844,-136.555,-56.4867,-132.736,-840.824,-547.536,-7280,-7280,-11900
84.6976,-2.07902,5.96797,-75.4771,-49.3809,-19.7387,-69.163,-28.282,103.079,58.6584,36.2712,-0.41967,7.1121,-29.444,-98.1074,-45.0367,-136.152,-834.48,-544.12,-5040,-7840,-11620
97.6602,48.1547,26.0001,-3.64922,-3.57923,-3.16015,-15.4667,-16.2793,121.171,64.7135,34.3927,36.6729,19.2701,-0.559422,-16.5435,-15.3418,-132.736,-845.216,-524.112,-3640,-8960,-11340
73.4782,46.9234,31.9035,23.8157,21.5469,10.2807,11.3033,-8.06614,89.2201,49.0495,22.7785,44.1235,23.4616,19.9159,20.8112,1.85605,-134.688,-906.704,-549.488,-1400,-8960,-11620
31.0631,37.3632,26.973,48.1173,40.4106,16.7225,37.3749,6.57707,35.7261,20.438,5.82852,36.8393,16.9187,28.1841,55.4543,21.3805,-150.304,-898.408,-673.44,10920,-4340,-9520
-42.4273,20.9598,8.77364,75.1669,54.9059,20.5907,64.1161,20.0327,-58.9927,-29.7755,-17.8145,22.0808,3.88757,34.3388,91.5982,41.4424,-151.28,-741.272,-590.48,18900,-3780,-3640
-107.741,-28.1597,-15.4255,56.6398,48.2233,19.1651,75.3185,40.4666,-142.7,-68.6128,-41.091,-16.9637,-11.8088,28.6156,93.9393,56.3334,-89.304,-770.064,-682.712,6440,-14000,-1400
-79.3634,-65.9881,-30.7245,-9.60321,3.91973,4.66428,30.6935,27.5313,-96.6149,-52.7687,-28.5542,-46.7706,-17.1917,4.0484,34.2468,26.0702,-117.608,-769.576,-660.752,1400,-6440,-3220
14.4598,8.1924,1.64758,3.01875,11.4313,0.966114,9.60167,7.06408,32.153,6.7542,7.83439,1.79971,2.42643,3.09075,13.7016,6.58944,-91.256,-847.168,-634.4,5740,-6440,-1260
20.3778,24.1923,2.9167,15.2203,10.0753,-1.49819,4.87602,0.0556326,29.9037,12.9768,11.1582,9.93111,2.92521,-0.329584,10.8987,0.199463,-113.704,-865.712,-600.24,16800,-140,-3080
-2.84855,-12.4999,-14.6085,-21.5318,-20.4223,-8.47968,-24.9332,-10.7158,-1.18974,-5.15754,-0.0540743,-14.3377,-7.12346,-13.8644,-30.5466,-18.8702,-106.384,-844.728,-602.192,25060,-980,-2800
26.9967,3.93589,-3.1372,-32.2661,-24.0269,-6.05668,-39.3551,-16.0115,40.5748,9.11428,4.80349,-0.101196,-0.544828,-11.1686,-57.8651,-27.131,-108.824,-806.664,-566.08,28140,-700,-1680
43.5133,17.4528,9.9326,-28.1571,-17.0308,-4.64206,-47.7071,-26.823,48.9603,27.1511,19.6032,11.8629,10.0304,-9.54722,-66.1662,-34.7135,-117.12,-780.312,-596.824,21980,840,-5320
13.3731,-16.6847,-2.25283,-53.5065,-38.902,-10.1786,-63.7772,-36.1587,8.61274,9.92118,13.1635,-12.265,4.52025,-20.6772,-80.3637,-46.3594,-99.552,-777.384,-656.848,18620,-4900,-4200
-4.08493,-11.0449,-4.66083,-40.9642,-28.9683,-3.89661,-39.76,-15.6357,3.56653,-5.82602,-5.59457,-12.8482,-1.29254,-9.82168,-55.7674,-21.0273,-107.848,-799.344,-611.952,18900,-5600,-1960
9.50474,13.0429,-3.16504,-1.12344,-11.311,-4.58533,0.0276735,-3.8436,24.4571,3.32914,2.86009,1.18932,-3.23836,-4.26702,2.03067,4.3068,-108.336,-834.48,-618.784,22680,-3780,-1540
35.2293,32.1233,13.7896,35.1958,19.1382,4.51185,39.3489,12.816,41.2694,29.2761,14.4081,22.9832,5.55915,9.66551,53.571,30.4036,-103.456,-832.04,-606.584,32340,-1260,-700
5.17637,11.5756,1.44418,31.8087,15.8954,7.62811,42.5622,18.8463,9.4732,2.4379,-6.25145,10.8018,-1.51942,11.0315,56.6927,31.275,-105.896,-780.8,-600.24,38500,-560,0
-18.5602,-2.83496,-8.17267,13.8492,5.12777,2.75922,19.954,14.8409,-13.1991,-16.4767,-16.2935,-0.682687,-7.5988,0.266325,25.1412,16.2738,-100.04,-798.368,-632.936,36260,-2800,840
-47.5834,-8.79464,-8.36563,24.0307,14.5401,3.45851,26.9255,17.5104,-56.274,-31.2155,-21.2836,-3.34162,-10.585,4.41738,31.5432,21.0949,-109.8,-800.32,-674.904,38080,-1960,2940
-59.6113,-32.8979,-11.9505,-3.37635,-2.82471,-4.17222,-1.44374,1.49067,-86.5414,-32.6445,-13.1291,-16.4318,-10.7226,-5.16202,-5.30834,0.390395,-103.944,-757.864,-569.984,39760,280,7140
-63.7392,-67.3969,-22.7302,-46.49,-29.4567,-13.1203,-23.2599,-7.43421,-86.2063,-38.2318,-14.4021,-44.2316,-16.0058,-21.5999,-29.4984,-14.635,-90.768,-801.296,-649.528,35140,-280,5600
-33.019,-27.246,-10.1391,-10.6192,-10.6617,-7.40596,-2.15305,-4.6795,-41.1272,-20.3407,-8.87075,-21.6209,-8.12034,-9.47487,6.1751,-5.34946,-97.112,-806.664,-633.424,41020,1820,5600
-19.8186,-14.2948,-4.32331,-6.29256,-5.07653,-2.64482,2.20623,-0.135689,-25.3438,-10.1543,-4.35855,-12.1016,-2.32407,-3.50635,2.07957,0.26819,-98.576,-790.56,-559.248,44240,840,6860
12.6304,-1.21076,1.13056,-0.452189,1.17418,-1.56579,12.9948,11.8395,17.6242,8.14391,0.821457,-3.39574,-2.41542,0.342174,11.7344,11.7034,-89.304,-842.288,-640.256,46060,-980,3640
27.0647,7.21514,2.44745,-14.7027,-10.2699,-5.10123,-23.9667,-7.19783,36.4619,13.5018,5.77505,1.64173,0.365333,-6.0126,-31.9115,-17.1409,-113.216,-753.96,-696.376,55160,1540,4060
15.169,-3.15309,-0.384736,-29.7422,-20.4186,-7.34503,-38.32,-13.0004,18.6426,9.24764,6.44153,-5.94526,-0.397008,-11.125,-49.7811,-28.8723,-71.736,-769.088,-699.304,49420,-1820,6580
33.999,14.8119,5.50661,-18.9356,-12.6846,-5.61315,-32.675,-12.6092,37.5777,24.3603,15.02,7.25436,6.22463,-6.51279,-41.7613,-27.6272,-89.304,-807.64,-630.496,50820,-3080,6440
11.1367,5.3033,-6.4312,-2.19491,-6.04155,-3.99753,-0.468345,-1.75699,8.29714,6.09699,3.36823,-2.45407,0.161412,-3.57526,4.73768,-8.36355,-89.304,-815.936,-654.896,52080,-980,6580
8.5498,27.3899,3.117,46.9794,27.7164,6.99991,43.7821,17.9732,2.80314,6.77214,-0.278349,13.6955,3.16568,13.5723,62.6634,23.5762,-90.768,-808.128,-533.872,41720,9100,2940
33.9983,27.9963,10.6219,17.5006,10.6319,2.30545,-3.60568,-6.8163,35.8296,25.8598,16.3603,19.377,11.6019,3.84761,-1.21392,-8.43499,-93.208,-877.912,-682.712,34860,9520,-1540
53.3871,30.4167,23.895,-4.09485,4.37023,3.44598,-27.0731,-15.5606,66.5562,40.2261,25.3804,28.6619,20.1388,2.85397,-34.9074,-20.5788,-105.896,-793.976,-600.24,46900,9240,140
34.763,27.2782,28.8104,11.8314,18.6781,15.2769,-8.47223,-7.70194,48.0181,21.3513,7.5011,34.83,20.358,20.3673,-9.05221,-6.38706,-102.48,-772.992,-669.536,36260,3500,2940
36.9204,43.3574,35.705,44.9077,40.0499,23.5896,24.8196,12.9631,50.7998,22.6378,5.90893,47.809,20.656,30.7474,30.3765,19.5091,-115.168,-866.2,-569.984,38500,3780,5600
21.7708,26.9327,15.2767,38.452,28.8132,13.9639,29.7165,18.9628,38.2289,7.52129,0.250411,24.986,5.53369,18.4914,33.9756,21.9946,-121.512,-866.2,-706.624,42560,8260,6580
-41.8794,-4.33119,-9.35879,42.318,27.0704,7.9782,49.6301,26.0223,-52.4045,-31.5186,-17.224,-6.64765,-10.9807,12.5761,60.3545,34.1962,-132.248,-833.504,-628.056,49280,9240,10500
-87.6654,-46.4856,-23.6994,26.2148,17.587,5.99749,52.005,27.2976,-121.855,-55.3762,-24.2512,-34.226,-16.9333,8.7781,60.2213,37.8024,-159.576,-789.584,-548.512,52640,11340,12880
-30.6528,-40.1661,-14.248,-11.6052,-2.18498,-0.0804625,20.7937,12.7235,-45.6325,-17.625,-0.221658,-26.966,-7.24653,-0.380015,16.84,19.6604,-122.488,-757.864,-538.752,45080,7840,15820
-4.43319,-8.82407,-9.66733,-13.01,-7.54085,-3.05838,8.4454,6.06088,0.695458,-6.06215,1.90199,-11.7092,-4.60228,-3.78165,5.24355,12.4373,-128.344,-787.632,-692.96,31500,14420,9800
2.6132,-19.9331,-12.0993,-40.015,-31.1853,-12.5891,-26.3549,-9.39448,8.38089,1.65099,4.49748,-23.5035,-6.18111,-19.6667,-34.9009,-11.9031,-136.152,-787.632,-585.6,33180,17920,12460
33.8957,9.07548,4.5716,-31.2795,-28.615,-11.8261,-42.1049,-25.0422,44.2484,22.4579,15.5529,2.47582,2.29152,-17.6319,-51.6041,-26.2831,-155.184,-806.664,-473.36,35000,13860,13720
-8.21172,0.841637,3.42169,-24.3258,-15.5306,-4.6763,-39.0449,-21.2935,-11.6706,-2.6831,-6.14265,2.30094,-0.682918,-7.4584,-49.7461,-23.0182,-132.736,-801.784,-543.144,47880,5040,11480
-43.8431,-28.099,-10.2528,-22.6006,-11.2041,-1.61957,-13.8807,-7.98671,-53.5837,-26.7319,-22.0351,-16.1827,-6.13171,-1.44489,-14.9744,-6.06856,-126.392,-794.952,-579.256,59780,-5040,13860
-10.9409,-7.51109,-5.28751,5.54129,3.43725,-1.45125,15.7306,1.81192,-8.68605,-5.93242,-6.72406,-5.85578,-2.38343,1.51072,31.0394,10.0514,-145.424,-808.128,-546.072,53060,2940,12600
22.9427,1.55509,-7.44517,-10.9777,-12.7731,-9.62538,-15.1035,-13.292,35.911,14.2176,10.5475,-3.90505,-0.817987,-12.8508,-6.36655,-13.3651,-155.672,-824.232,-540.704,48020,5600,11760
48.7485,31.557,9.67359,-7.145,-5.46515,-5.04307,-29.2579,-20.7464,67.2009,29.8416,16.1984,18.6572,6.16824,-6.84355,-29.9987,-21.8385,-147.376,-796.904,-570.472,47180,2660,12040
31.4135,29.9921,14.8539,-5.87823,1.81285,1.76919,-22.6634,-14.4666,38.9733,21.5445,8.92019,19.8744,7.40094,1.37744,-34.9007,-12.8128,-151.28,-796.904,-555.832,44240,3780,11760
11.4163,12.4251,6.19826,-8.59046,-0.0936272,2.00329,-8.03188,-3.59269,13.7742,4.69274,-3.56424,7.50138,-0.32502,2.18037,-20.0334,-0.374204,-137.616,-806.176,-536.8,40740,-1400,12600
2.41353,2.92379,-2.36968,-3.09365,-3.74218,-3.18814,2.63812,1.69942,1.82074,-2.24867,-4.3086,-3.029,-4.37101,-4.64504,3.54884,1.43208,-117.12,-825.208,-535.336,41160,-1540,11200
-34.871,-9.78675,-14.2598,21.3292,6.35339,-0.141011,31.4955,14.7702,-47.6132,-24.6127,-16.7639,-13.243,-9.94584,0.339811,47.418,16.8882,-137.616,-843.752,-515.328,38080,7000,9800
-44.3772,-18.4733,-13.5292,35.0675,13.8494,3.8036,47.5716,20.1051,-67.7745,-26.779,-14.4617,-11.7597,-9.80633,6.79683,66.4641,28.5433,-123.464,-827.648,-510.936,36680,10640,8260
-34.9325,-29.7799,-9.45906,-0.896725,-5.78998,-3.02242,8.58171,4.98093,-57.6469,-16.0559,-4.83504,-15.8611,-4.63138,-2.86494,7.07259,4.53557,-125.416,-803.736,-566.568,32900,5320,5040
-19.0795,-26.0348,-4.28358,-12.8318,-9.66287,-1.34592,-4.59839,-0.0200943,-31.182,-7.9199,1.66717,-11.9858,1.56772,-4.31922,-13.2807,-6.32413,-126.392,-838.384,-528.016,26880,4200,5880
-17.174,-8.14277,-4.32754,10.2859,3.01812,1.63922,12.9042,6.074,-15.8919,-13.3396,-5.13,-3.25343,0.803632,3.21855,15.4711,2.017,-144.448,-850.096,-519.72,22400,6300,6020
1.21773,2.4343,-0.190512,8.07416,3.92912,-1.10672,2.71103,3.46232,11.0223,2.09823,-0.0835908,2.27842,2.3548,1.85499,1.17721,-6.17373,-136.64,-830.576,-503.616,24640,3360,8680
33.6534,3.16097,1.34348,-25.1986,-15.4935,-6.69572,-40.0868,-14.3664,53.2382,20.3588,13.0274,2.53722,3.90373,-10.4648,-55.9363,-35.1519,-138.592,-825.696,-502.152,25900,-420,9240
45.4738,10.0871,11.4196,-33.1768,-12.9984,-4.10153,-44.5094,-11.5988,59.0337,31.9971,19.8809,9.11025,8.70753,-9.75743,-62.9332,-33.7066,-128.832,-810.08,-490.928,26320,-5600,9940
6.87153,-10.2486,-6.11168,-22.6917,-15.7351,-3.62835,-18.3347,0.201055,9.76704,2.39853,3.50714,-9.02624,-0.297407,-8.35068,-21.0932,-15.848,-135.664,-819.352,-487.024,22260,560,7980
-19.1973,-0.590692,-4.78725,18.4356,12.5301,6.50393,25.1199,18.0044,-20.969,-16.3707,-11.7982,-3.21759,-1.64179,8.12764,34.2658,16.804,-138.592,-875.96,-512.888,24220,1820,8400
6.45933,14.0834,6.33904,26.7823,20.2507,8.93363,24.6917,11.7668,5.0329,3.12476,1.04947,11.9654,4.67571,12.3979,37.2834,18.3787,-150.304,-821.304,-503.128,20720,6720,7980
21.3827,23.3778,10.3069,16.961,11.0609,6.05227,1.91076,-2.21677,25.3866,13.5451,5.08896,17.695,3.92057,7.23757,13.0738,7.23951,-135.176,-803.736,-509.96,15960,2100,7980
15.4395,17.1394,10.1164,1.29038,1.8932,2.50622,-13.1139,-11.7248,17.9662,11.341,4.96114,15.501,1.98586,3.8562,-12.6507,-0.684639,-134.2,-830.088,-533.872,16800,-1120,8400
-5.28111,1.01336,4.05976,-3.43329,2.14382,3.38879,-1.94809,0.200431,-8.0413,-4.68922,-5.35758,5.44187,-2.91163,6.62026,-8.58387,11.106,-139.08,-813.496,-534.848,14700,2800,7840
-18.0322,-11.3327,-0.787399,1.94358,2.43683,1.11435,9.69658,7.69107,-27.6701,-11.5521,-6.40405,-4.00733,-2.85543,4.71019,8.56283,17.5639,-147.864,-831.064,-520.208,13160,2520,8260
-20.3024,-4.26664,1.80673,18.7871,14.6113,2.17573,26.5661,13.8407,-30.2614,-11.6974,-6.08094,-0.610951,-0.838051,7.26952,31.8789,25.9559,-142.984,-837.408,-521.672,11760,2240,8400
-30.2372,-6.58469,-2.15175,22.3896,15.4415,5.48129,30.723,9.71944,-38.7684,-21.3934,-10.1525,-2.2207,-1.87869,9.76808,36.3275,22.7396,-140.544,-860.344,-494.832,7140,4760,6300
6.06847,-1.42688,4.97154,-9.86535,-4.70875,-2.75931,-8.11583,-6.20551,9.12112,3.03954,4.8771,-3.68635,1.76287,-4.55472,-13.1186,-6.99415,-139.568,-865.712,-564.616,1680,10220,2940
37.2034,15.3143,11.3597,-11.5753,-7.16162,-2.26294,-13.3644,-7.75189,50.4135,20.3686,12.1992,5.49204,4.77491,-4.83532,-21.9087,-10.2905,-132.736,-837.896,-517.768,5320,6300,3500
35.5386,26.3991,11.8708,3.85592,1.00022,0.350341,-3.44252,-4.33857,48.3766,19.8929,10.9098,11.9036,4.93881,-0.249656,-6.98537,-5.38833,-127.856,-846.192,-549.976,4340,4340,1820
10.3408,13.2262,5.10849,10.8849,4.9468,-0.0547379,8.58479,-1.72121,13.7364,9.20512,6.32601,1.63785,0.215227,0.188401,11.3118,-0.163502,-129.808,-833.992,-537.776,3920,10360,-420
-17.0455,-6.2427,-6.20558,12.0477,4.58217,2.03229,15.702,2.24039,-23.6545,-10.5435,-5.59964,-7.91729,-4.4065,2.70858,22.0698,5.95939,-122.976,-829.112,-540.704,2660,9940,-1680
-13.195,1.5864,0.615432,15.1482,14.3405,6.61117,14.7823,7.10984,-20.0659,-7.26565,-5.84525,4.89842,1.70749,9.03002,17.2019,9.5393,-124.928,-852.048,-586.088,3220,9800,-2380
-15.5547,-14.4887,-8.39847,-13.4102,-4.89996,-2.91242,-12.855,-4.24617,-22.6738,-7.89122,-4.44738,-6.75176,-1.80127,-5.57967,-18.4642,-11.2596,-124.44,-780.8,-509.472,6860,7700,-140
-15.7485,-33.7025,-19.6098,-42.0421,-26.516,-11.7948,-32.1521,-11.9094,-20.6263,-8.09263,-3.01477,-25.6491,-8.28784,-22.2453,-38.7396,-23.7003,-108.824,-817.4,-570.96,2380,3500,0
16.4352,-0.396799,-7.04364,-13.7165,-9.7555,-4.77428,-9.83453,-4.64838,24.939,10.522,4.84085,-4.10184,-0.998536,-10.244,-7.12579,-8.67944,-113.216,-786.656,-501.176,6440,5740,-1260
26.6657,25.4441,6.27123,11.0368,7.03256,4.04303,7.08986,0.0967094,41.9592,16.0584,8.11738,17.3773,7.47042,4.36718,12.1328,0.628913,-106.384,-818.864,-574.376,1540,8260,-3360
26.5471,31.1402,14.7654,21.9746,17.4037,6.97629,15.222,4.68889,37.4497,20.4941,9.68912,26.2752,10.6256,11.5135,23.0936,6.85513,-121.024,-796.416,-508.496,5880,10500,-4340
-0.835335,-9.59186,-3.51439,-21.62,-15.3059,-5.00068,-23.5455,-9.18225,-0.636861,1.14466,-0.488935,-2.70133,-0.0246404,-6.32008,-27.7693,-17.7994,-115.168,-802.272,-547.048,7420,5180,-700
-14.2996,-20.4006,-13.9775,-26.7559,-24.0135,-11.3446,-30.0284,-13.6778,-15.3446,-9.02251,-4.814,-16.1818,-6.78429,-13.4416,-31.444,-21.6712,-116.144,-807.64,-590.48,11900,5180,560
-6.04593,-9.70398,-9.83941,-10.1131,-13.3984,-5.45398,-16.3377,-5.19401,-6.36905,-3.19014,-1.70917,-8.84976,-6.7349,-6.76917,-17.6133,-9.84917,-119.072,-783.728,-517.768,17780,5740,3780
-20.7262,-17.2349,-11.801,-3.95121,-10.8112,-0.969536,-10.6084,-5.29555,-27.1232,-13.6825,-6.05673,-11.4995,-6.95942,-1.38911,-10.3966,-6.29347,-125.904,-813.984,-599.264,13720,10080,3360
-39.8386,-8.01934,-2.71645,24.7624,18.2292,8.78597,23.5346,16.6239,-53.7281,-24.7661,-16.1716,-2.42649,-4.63455,12.83,25.031,22.7361,-125.904,-804.712,-570.472,19040,12880,5880
-36.0215,-35.4114,-10.6567,-13.2324,-8.56265,-2.33319,2.41264,5.90861,-49.5819,-23.0937,-9.32607,-20.2656,-8.37771,-3.19588,-4.68754,7.01856,-122,-789.096,-513.376,19460,12320,6720
13.0004,-8.87148,1.1258,-18.2697,-15.065,-6.41617,-7.94444,-2.30611,16.5012,8.13673,8.55345,-6.62851,-0.274337,-8.13541,-11.9749,-4.61502,-121.512,-793,-558.76,16100,12180,5460
-14.5647,-5.74684,0.570043,9.12738,4.3607,2.86438,17.4149,8.14284,-20.4831,-11.6616,-7.2065,-3.65928,-2.0034,5.82876,21.2081,10.9838,-110.288,-778.848,-536.312,15260,9800,5880
-27.4661,-3.42308,2.21915,38.9271,26.7713,7.95975,47.7726,19.7442,-39.7635,-19.0404,-11.6316,-1.07389,-2.0235,15.7556,64.3505,29.9046,-116.144,-791.536,-543.632,12740,9940,4060
16.9557,18.2918,11.9817,18.4948,17.4908,4.05467,18.176,6.58283,19.9853,10.1133,4.69867,11.6416,6.26911,8.7937,20.2024,7.73419,-107.848,-804.224,-543.144,16380,7980,4620
33.0308,28.1355,15.669,3.32123,9.27856,1.54554,-5.66825,-4.25494,41.871,21.8783,9.34099,19.0505,10.1431,3.40922,-10.3022,-8.83382,-112.24,-816.424,-541.192,15400,9800,2660
18.0241,8.14873,5.5817,-11.5555,-2.53814,-3.36488,-13.8069,-7.03552,22.692,12.2367,5.10383,5.06663,5.15996,-4.75412,-20.2457,-11.6692,-127.368,-812.032,-549.488,16380,10500,2240
28.7741,14.1686,8.15717,-12.5876,-3.96164,-3.53661,-14.1378,-8.28476,36.8498,18.2337,7.96521,7.67252,6.06598,-4.30279,-23.7408,-10.0464,-127.368,-802.272,-546.072,18200,7560,3780
32.1462,21.2391,10.061,2.41622,2.24682,2.17259,0.0577897,-2.6218,41.0287,17.4522,9.21443,15.3838,8.48916,4.17209,-6.49193,2.31768,-124.928,-812.032,-528.016,17360,4760,4900
20.1338,16.3773,6.49102,4.1742,2.54919,0.222323,-0.618482,0.728499,23.5775,14.8031,9.03893,9.74387,6.47311,1.02785,-2.18255,4.81628,-123.464,-821.792,-523.136,14280,7420,4340
-6.88637,0.173153,-6.2185,0.487504,-4.6521,-2.05786,-1.50381,0.604141,-5.06706,-3.80523,-1.0448,-4.55739,-0.510212,-4.17332,2.99956,3.62599,-127.856,-812.032,-529.968,13720,8400,3640
-10.6655,-6.41691,-8.04656,-14.3985,-12.7775,-3.08278,-16.5032,-4.12067,-7.36947,-9.61273,-3.22359,-12.3153,-3.44174,-8.36633,-17.1726,-5.13529,-122.488,-802.76,-548.512,13440,6580,4060
0.608899,3.56319,0.908147,-3.91594,-0.401699,2.41346,-7.78904,-0.0700943,1.34896,-1.94605,1.45406,-1.66779,-0.0910799,-1.34663,-8.61999,0.947215,-129.808,-804.224,-517.28,9940,7000,4060
-1.6005,-7.04434,-2.93941,-3.28479,-3.07898,2.78048,-2.25003,-1.45074,-5.08377,-0.50242,1.37373,-3.36956,-0.293484,-0.689053,-1.66672,3.27895,-130.296,-825.208,-572.424,7700,8260,3360
-5.6475,0.984168,0.710329,15.575,8.88824,7.5777,16.0719,4.0979,-10.9966,1.39404,-1.18595,5.75977,1.32982,8.22541,22.2687,15.2914,-128.832,-806.664,-528.016,9380,6440,4900
-10.9253,-0.706152,-2.27824,25.3874,14.0504,8.14757,28.0472,9.49126,-14.8399,-4.45607,-5.44819,6.66736,-1.37497,10.8908,39.1009,22.0065,-134.2,-821.792,-556.32,3780,9520,3780
3.60795,7.91994,-0.625787,14.4875,6.45194,2.43367,11.071,2.47553,7.73473,2.26747,-0.452426,7.09251,-1.92096,0.611143,16.44,5.98956,-140.544,-832.528,-561.688,3780,10920,4480
-9.84918,-4.80113,-5.86188,-2.34647,-7.49224,-4.9123,-7.84988,-6.96075,-8.12763,-6.21085,-5.27,-6.12914,-8.98004,-8.67909,-5.66335,-12.1906,-147.864,-813.496,-579.256,10080,8400,7560
-16.681,-16.3143,-5.01346,-9.38661,-10.4621,-2.60254,-13.2174,-7.55571,-20.541,-11.907,-5.42266,-10.7592,-10.2921,-6.75929,-11.7564,-16.5943,-136.152,-771.528,-537.776,11200,6580,10500
-17.0776,-15.424,1.5161,-7.70131,-2.29354,0.77278,-8.65651,-1.42552,-26.4459,-12.0114,-4.40825,-8.54491,-5.05212,-0.696706,-10.9855,-11.9093,-144.448,-791.536,-544.608,4900,8960,9240
-17.2714,-18.2771,-2.70999,-8.91842,-4.85052,-2.22223,-6.94057,0.544616,-25.1415,-14.338,-5.68512,-9.68856,-3.50956,-1.58358,-8.25502,-10.3817,-140.056,-806.664,-520.696,4060,11480,8820
-23.2614,-24.8954,-11.4606,-8.24062,-5.65306,-4.06413,0.719841,3.62885,-32.0895,-19.4221,-9.01221,-11.0897,-6.49702,-2.41381,2.03865,-4.16777,-140.544,-811.544,-522.648,280,13720,6160
-4.39747,-18.5756,-8.63066,-21.5237,-11.2845,-6.17793,-12.8495,-1.55726,-7.18958,-6.07305,-2.01045,-7.73619,-4.2279,-6.4258,-18.6541,-12.2038,-140.056,-803.736,-521.184,-420,11900,4340
24.1484,8.71754,3.79983,-6.55278,-0.274952,-1.44031,-6.37034,-3.10809,30.1634,12.7748,7.35373,10.3906,5.13557,0.705162,-12.5049,-8.65491,-149.816,-807.64,-589.016,-2380,10500,3220
22.5452,16.0878,8.50392,0.864363,6.77329,-2.17661,-8.37907,-3.12696,28.9805,19.9899,8.90104,12.2558,7.50553,0.775084,-11.0629,-9.62857,-153.72,-783.728,-519.72,1680,5600,6580
7.01238,8.05673,1.75588,-1.46022,4.99706,-2.65456,-9.32936,-6.48075,13.1671,6.83613,3.14271,5.57487,4.63421,1.63818,-11.533,-10.4228,-144.936,-808.616,-535.824,0,2660,8820
17.5532,27.008,12.776,27.2828,24.7188,6.24707,27.9633,10.3014,23.4245,13.1951,6.62103,18.25,9.81596,14.0208,31.1884,20.7965,-148.352,-822.768,-536.312,-1120,5740,7420
19.896,22.6306,10.4926,19.4772,12.7428,3.52423,23.8909,7.7293,21.2719,16.5597,8.40136,11.9136,7.44921,9.34085,25.6959,21.0203,-145.912,-820.328,-528.992,560,7000,5740
-1.09691,3.59559,1.45756,2.86958,0.0517411,-0.543183,11.0412,1.90438,-4.61967,1.28534,0.615574,-3.88635,1.22394,1.03412,9.35018,12.6296,-140.544,-824.232,-523.136,560,7280,4480
0.88224,0.0395068,2.27033,-10.9791,-9.43319,-3.99542,-8.16158,-4.30819,0.674801,2.85882,3.49432,-7.38637,0.408795,-4.49983,-11.6316,0.97384,-133.224,-836.92,-542.168,280,6160,2660
0.579076,-0.253035,0.912843,-13.2825,-9.54568,-3.52631,-15.6426,-5.53172,2.56231,-0.389468,0.0573981,-6.41144,-1.12097,-4.83082,-21.2865,-4.2451,-139.08,-819.84,-545.584,2520,5040,1960
0.0469138,0.737965,-1.76714,-7.6949,-4.89803,0.176785,-11.1838,-1.71437,6.44885,-2.65822,-2.85873,-1.66241,-2.01221,-1.7057,-16.8542,-2.15364,-119.56,-810.568,-549,1120,1680,2380
7.0024,4.38082,1.76134,0.783772,1.12565,2.32188,0.54717,2.05701,12.8568,5.15573,1.18472,4.37366,1.94687,2.52204,-0.526172,5.06977,-118.584,-816.424,-550.464,-2800,1820,-280
-0.0546681,-1.41948,-0.20665,2.07206,-1.62931,4.96524,4.39438,0.20321,4.804,-0.842493,-0.233591,3.56552,3.32226,2.23428,5.83273,1.81144,-106.384,-818.864,-532.896,-2940,1120,-840
-28.0911,-18.0815,-8.31479,-7.35909,-5.2617,1.84059,-0.620545,4.35835,-33.1194,-16.8653,-11.0498,-12.0005,-3.50141,-5.36877,0.714754,-0.750761,-107.36,-828.624,-522.648,-4480,980,-3220
-55.6852,-43.0578,-22.4698,-18.0366,-14.7961,-2.59137,-3.42973,4.97922,-66.0757,-36.5758,-18.8802,-32.2731,-12.6818,-10.5538,-0.269196,-1.93963,-102.968,-837.408,-545.584,-4200,-140,-4340
-16.0568,-12.4133,-10.2856,-0.639104,-3.76615,-1.05276,4.44029,5.09819,-13.2654,-11.7025,-5.21607,-10.9564,-6.30639,-2.44714,11.0941,3.73313,-100.528,-825.208,-541.192,-3220,-2800,-4200
30.9123,28.4092,8.68753,23.8807,14.3078,3.66866,14.55,4.18593,40.5926,19.5017,9.93511,19.2731,4.86954,7.86151,25.6875,9.03313,-102.968,-827.648,-548.024,-4340,-4200,-3640
24.3998,22.8043,7.7193,20.5222,11.3582,5.40679,13.8798,2.12342,28.2099,15.65,8.44597,16.7331,5.48696,8.29196,20.1306,7.56487,-104.432,-834.968,-539.728,-4200,-4620,-2940
7.21617,4.61968,2.93137,0.665471,-1.50513,0.704879,-1.59952,-2.78546,4.61726,6.94348,3.94536,1.61961,1.01177,-0.954575,-3.40657,-3.02331,-104.92,-834.48,-532.896,-4200,-3920,-2520
2.57446,-6.7707,-2.32317,-14.3887,-13.5666,-5.9518,-14.8365,-9.80904,-1.62825,1.8917,2.37253,-6.3361,-4.78651,-7.75894,-19.7593,-14.2852,-106.384,-836.432,-532.896,-4760,-3640,-2380
9.84375,1.20062,2.37497,-6.32569,-5.01994,-3.24767,-10.0569,-7.54986,8.12214,7.1923,5.72659,1.59176,-1.32255,-3.30626,-12.5012,-9.00849,-110.288,-832.528,-536.8,-5600,-2800,-2240
5.02077,3.03271,1.44784,2.85831,2.7458,-0.845774,-1.57282,-1.58191,4.83084,3.72839,1.97214,2.33354,-1.02149,0.310962,-3.44906,-1.66007,-106.872,-833.504,-535.336,-5600,-2100,-1680
-9.42925,-4.43305,-2.36358,2.2868,0.517522,-1.69375,-1.38102,-2.84535,-14.9167,-5.67207,-1.90472,-4.1103,-1.54784,-2.18136,-2.12762,-3.48897,-108.336,-827.648,-537.288,-6440,-1820,-1260
-9.34115,-4.45863,0.429387,4.64028,2.84079,-0.491133,-1.40677,-2.65864,-17.4804,-4.16963,-4.52565,-1.78315,-0.375944,-1.18725,2.03296,-3.74054,-110.288,-832.528,-537.288,-7280,-980,-980
0.027071,-3.92864,-0.149546,1.77863,0.665329,1.8182,2.53178,2.89088,-5.28208,-1.95814,-3.87103,0.622785,1.33911,0.0600366,2.49592,1.8006,-110.776,-831.064,-541.192,-7560,-420,-700
5.6912,-0.595148,1.28808,-0.799323,-1.41313,1.20142,-2.94068,-0.220265,3.67079,-0.0278381,-0.847549,2.86795,2.59864,-0.174044,-3.42629,-2.83028,-113.216,-828.136,-543.144,-7980,0,-420
0.699844,3.7846,0.2048,8.38644,5.87428,1.39197,11.0502,7.76424,0.673173,-4.89527,-3.09409,2.46677,-0.298951,2.64909,13.6124,8.55678,-114.192,-828.624,-543.632,-7980,420,-280
2.91918,5.18245,0.366539,6.09217,3.97443,1.17151,9.90184,2.91034,3.37944,-2.12592,1.95332,4.62896,1.92604,2.91031,13.3662,7.84459,-121.024,-828.136,-547.536,-8260,700,-280
4.83062,8.82937,5.41848,8.18228,9.42567,2.29456,9.78763,5.59304,3.04081,2.923,2.0039,6.81247,4.59839,3.57959,9.30897,9.1785,-121.024,-825.696,-545.096,-8260,980,-140
-8.44021,-4.49307,-4.26814,-1.64745,-0.865112,-1.0178,-0.295677,-3.04183,-10.0695,-8.9068,-2.34249,-2.23552,1.13419,1.99383,-5.27439,0.0107623,-125.904,-824.72,-536.8,-8400,1120,-140
-2.13678,-5.52806,-1.61057,-12.4911,-4.01742,-3.79325,-15.0742,-8.57652,-2.75863,-2.40787,0.310691,-0.881299,1.92667,-0.462642,-24.1373,-8.02867,-130.296,-823.256,-549.488,-8960,1680,-420
-0.0321814,-6.83125,-1.42554,-17.1886,-7.80003,-4.99355,-20.8185,-9.35228,0.836478,0.913055,1.28636,-2.52655,2.45318,-4.31696,-27.7108,-10.0521,-129.32,-822.28,-547.536,-8820,1680,-560
-0.55554,3.77813,5.1126,-1.82222,4.94548,1.84674,-5.90355,-1.74915,0.692297,3.65248,0.545913,6.18042,4.31089,1.86542,-7.27156,0.698339,-129.808,-816.912,-548.512,-8820,1540,-560
-2.10047,4.3653,6.5295,-0.792587,7.42986,5.78903,-2.97754,2.8734,0.690129,3.02725,-2.21645,5.44368,2.8406,5.73873,-6.32832,2.38249,-132.248,-823.256,-546.072,-8680,1680,-700
3.99993,8.35307,4.90313,6.52582,6.9131,3.60204,5.66151,4.02224,9.75694,7.57098,0.848741,4.45205,0.47386,4.70613,8.83937,3.76137,-135.664,-819.352,-551.928,-9100,1960,-840
-0.622039,3.85303,0.974472,9.96672,6.3357,3.67501,15.2842,8.88396,3.49912,4.89582,0.700277,0.961421,-2.16933,3.16916,22.5936,10.3742,-134.2,-817.888,-548.512,-8960,1680,-700
-1.99067,-1.83743,-4.23704,-3.1232,-4.58393,-0.546259,0.627529,1.50615,4.84419,2.30591,-0.659255,-5.10388,-5.18571,-2.42183,2.26515,-0.874668,-138.104,-818.864,-556.32,-9240,1540,-840
3.88502,-0.236352,-5.53158,-1.67998,-8.95622,-2.55707,2.76094,-1.2326,10.9734,4.0431,2.43538,-4.19865,-5.03927,-3.45184,4.16908,-3.32754,-135.176,-818.376,-549,-9380,1260,-840
9.04501,6.3706,4.37496,8.09868,-0.301129,-0.549156,7.43156,0.966409,12.9176,9.90567,4.35394,2.23045,-0.749346,0.827255,13.9934,1.08059,-141.52,-818.376,-551.44,-9660,1400,-840
8.81036,2.31485,3.70626,3.61195,-3.12996,-0.746352,-0.192577,-2.78181,12.7557,3.77229,3.35784,0.836091,-0.197626,0.184934,4.79002,-6.10233,-139.08,-809.104,-542.168,-10080,1540,-1120
-3.44843,-3.76528,-0.840494,-2.40916,-3.70324,0.417413,-1.76712,0.871655,-2.22379,-8.72506,-3.26334,-3.31808,-3.48048,0.427659,-1.89654,-3.05687,-140.056,-823.256,-546.072,-11760,1260,-1540
-18.1972,-15.8014,-5.70314,-9.6723,-8.31698,-1.69515,-3.81155,0.154169,-25.8259,-16.4363,-5.73393,-12.4353,-7.69802,-3.87247,-6.98135,-3.93883,-141.032,-821.792,-558.76,-11340,1400,-1820
-26.441,-30.8118,-11.9402,-26.2935,-20.0604,-7.54093,-16.1246,-5.99713,-38.8613,-19.7093,-5.29268,-22.4763,-9.81125,-12.529,-22.086,-12.1816,-141.52,-819.84,-546.56,-10500,700,-1960
-4.855,-11.0222,-0.621338,-12.3704,-2.84468,-2.56191,-4.61638,1.91019,-13.846,-5.48249,-1.11046,-5.98128,-2.73336,-4.54711,-8.08166,-2.25541,-139.08,-821.792,-551.44,-11060,0,-2100
7.93647,4.94087,2.76336,2.32602,8.01029,-1.25664,5.34242,3.01242,6.56039,0.687053,1.69809,4.2124,1.16251,1.49789,6.207,0.548302,-140.056,-819.352,-554.856,-11060,-140,-2100
13.2763,15.1655,4.7766,10.5243,15.1384,0.238337,7.90747,4.05284,16.9502,6.28216,3.7377,9.42193,4.14955,2.97591,11.5802,4.85893,-139.568,-816.424,-549,-10920,-420,-2520
6.31081,7.40934,1.45498,6.35408,9.84329,0.720049,3.37085,2.77285,6.83601,3.21917,0.372981,5.49775,2.34429,3.48412,4.59387,3.24761,-137.128,-813.984,-547.048,-11760,-560,-3080
-7.73181,-5.44402,-7.50221,-3.38774,-2.64347,-0.419811,-2.53757,0.112206,-10.1341,-6.68571,-4.72151,-3.4295,-0.808677,-0.665151,-6.73372,-0.65646,-137.616,-812.52,-549.976,-12740,-560,-3360
10.1889,11.0138,2.82173,3.81053,3.91244,2.56023,-1.03383,0.228424,11.8951,7.99245,2.65137,9.09623,5.73816,2.77761,-6.33301,0.00352477,-138.592,-805.2,-545.584,-14280,-700,-3640
13.2568,14.504,5.36221,9.98651,5.29084,3.77983,5.00399,-0.14843,18.9315,11.0421,4.94473,12.8054,8.06052,4.84233,4.16921,2.33637,-135.176,-799.344,-543.144,-16240,-1540,-3920
5.2471,3.58375,1.9277,7.59011,-2.40841,1.15772,5.91767,-0.0192963,8.5992,4.98703,2.42524,6.84837,7.56906,1.85553,8.82579,4.82175,-123.464,-819.352,-544.608,-18900,-700,-4200
2.93208,1.81834,4.78339,8.58077,-0.762293,0.319524,6.23909,-0.871333,5.45109,3.57529,0.6469,5.71818,8.28988,0.729201,9.48522,6.85425,-129.808,-825.208,-546.072,-20440,4620,-6160
0.508946,0.72729,2.17202,11.0432,1.61954,2.41039,9.06996,-2.23503,2.3449,2.50453,1.3592,3.77574,6.48382,2.50125,12.6641,7.99333,-125.904,-863.76,-569.984,-21420,2800,-6720
-1.7746,0.816789,1.43864,3.98855,0.248183,2.2218,0.105687,-0.741464,-4.47369,4.54028,1.68646,0.118477,2.37552,-0.780106,0.412798,4.25539,-134.2,-829.112,-549.488,-18200,0,-6720
-12.308,-13.5018,-9.73878,-9.97544,-12.8071,-1.0201,-10.7593,-7.02924,-18.906,-6.28476,-2.83601,-13.7031,-6.19421,-5.93083,-12.4572,-6.82872,-119.56,-810.568,-545.096,-16940,-4340,-5880
-1.07273,-1.20794,-6.20384,-0.736427,-5.08547,-0.157445,-2.13981,-1.68271,-1.58916,2.61393,0.444136,-8.28485,-6.61886,-4.13037,-1.70769,0.101339,-119.56,-814.96,-543.144,-18340,-2520,-6020
-2.88871,1.81071,-5.04414,4.88947,0.0233637,1.30514,2.708,1.32229,-2.99103,0.936097,-1.90111,-4.46307,-6.30233,-0.513188,4.02752,2.34759,-121.512,-817.888,-543.632,-18620,0,-6860
-9.38079,-2.02989,-2.53754,0.363622,-0.115039,1.31513,-0.0204438,3.80867,-11.9567,-4.31145,-4.12539,-4.40908,-4.59007,0.972189,-1.02524,1.38299,-121.512,-817.888,-544.12,-19040,-1400,-6720
-7.35614,-7.43051,-4.4633,-12.121,-6.17866,-1.40551,-8.30819,0.907001,-8.78359,-3.95044,-1.54932,-6.91033,-3.94771,-2.57653,-10.7586,-1.99882,-119.072,-813.984,-542.656,-19740,-3500,-5880
3.29689,-1.05007,-1.52149,-12.5619,-3.31656,-4.18237,-13.4294,-5.36051,2.35595,1.7875,4.24718,-1.98451,-1.91437,-1.9884,-12.9128,-5.13778,-119.56,-815.448,-548.024,-20300,-3920,-5740
5.22278,2.91362,0.108941,-10.7353,-1.07403,-6.17031,-14.729,-6.77528,4.6429,2.38379,5.18552,-1.71727,-0.90107,-4.79291,-12.7242,-7.51283,-120.048,-813.984,-545.096,-21000,-4060,-5320
0.171699,0.0565124,0.293625,-6.70708,2.62807,-4.3737,-6.49156,-1.39044,-1.3441,-5.43252,-2.39813,-1.5038,-2.82588,-2.01791,-2.8422,-4.1019,-117.12,-812.032,-546.56,-21560,-4480,-4900
7.8792,5.54295,5.96342,-1.71599,5.07582,1.09023,-3.40646,-1.25549,10.0787,-3.74781,-0.886346,8.07917,2.72723,3.96977,-0.941437,-3.60522,-115.168,-812.52,-547.048,-21840,-4760,-4480
5.41419,12.3263,15.0897,6.67603,17.2723,8.05264,5.60385,6.47108,8.69624,-0.883751,-5.13418,15.3856,6.59736,12.3369,2.67143,3.42765,-115.168,-814.96,-550.952,-21420,-5460,-3640
2.85806,11.5706,11.3003,14.8865,17.8133,7.66097,19.1966,10.8444,9.39579,-2.34797,-5.47228,12.8641,2.31935,11.2362,15.8772,10.8858,-117.12,-814.96,-549.488,-21280,-5180,-3080
4.32291,2.1218,1.05088,4.58367,-1.3204,-3.30582,7.24464,2.02147,8.76422,1.02513,2.57421,0.172965,-3.18951,-3.20359,4.7871,-0.134308,-121.024,-814.472,-550.464,-20580,-5740,-2380
-5.79389,-7.84164,-4.83301,-1.51435,-10.0311,-5.37422,-0.672217,-1.14406,-6.73985,-2.79979,-0.127899,-7.95675,-6.73502,-6.39593,-2.0147,-4.87706,-120.048,-812.52,-552.416,-21000,-5320,-1820
-13.4087,-11.7912,-8.03866,1.85785,-6.59675,-1.60734,5.24046,1.07169,-14.7165,-6.88865,-3.86615,-10.0673,-4.23564,-2.34209,4.87951,-2.51621,-117.12,-810.08,-555.344,-21700,-4760,-1540
-4.77929,-6.08544,-3.21478,4.94962,0.851639,1.30309,8.40123,2.49587,-5.83934,0.11361,-1.66555,-3.71776,0.762743,0.440028,8.24184,0.921398,-120.048,-813.496,-554.856,-21700,-5040,-700
2.45195,-2.00925,1.44211,5.07813,0.960732,3.62271,4.06228,-3.13044,0.40044,4.3731,1.41149,3.39696,5.14652,2.63767,4.9841,1.32098,-120.536,-813.008,-557.784,-22260,-4480,-420
6.71854,2.7998,5.53938,7.63237,5.72944,5.30999,5.95231,1.31786,3.56249,7.12547,2.69232,8.14434,7.68818,5.73213,8.3276,7.48706,-120.536,-815.448,-558.76,-22400,-4060,-560
5.28959,0.994955,0.553672,4.1952,3.02505,0.827014,4.50226,1.46937,4.21236,3.93903,1.23383,4.21783,3.1174,2.23122,6.68827,6.67364,-122.976,-818.376,-564.616,-21980,-3780,-420
-5.01544,-5.26982,-5.02638,-5.71561,-5.38733,-3.55282,-7.39647,-5.8291,-5.51722,-1.87168,3.43357,-1.98902,0.135568,-4.86123,-8.23634,-4.41242,-125.904,-814.96,-558.76,-21840,-3360,-560
-1.41157,-4.99581,-1.03209,-13.8002,-9.27448,-4.91893,-17.3484,-10.9861,-2.65976,3.46326,6.24523,-0.399915,2.27398,-4.82967,-21.6643,-12.451,-128.344,-812.52,-557.784,-20580,-3780,-280
-6.95478,-10.35,-2.33446,-13.0177,-9.01055,-4.18461,-11.9659,-6.38555,-7.05679,-5.14595,-0.799258,-3.97961,0.248594,-4.04527,-14.2743,-7.90258,-131.272,-812.032,-558.76,-19600,-4760,0
-1.1644,-1.4842,-0.171326,1.51432,-0.072167,-0.0155698,4.49163,2.47185,-0.0412826,-4.9655,-2.14329,0.658799,-0.565199,-0.628075,7.22592,3.73009,-137.616,-794.464,-545.584,-18900,-5320,420
7.48347,9.48988,4.79257,7.30423,4.39919,1.72467,7.84767,4.97887,9.07272,1.77016,0.316754,5.33556,1.21237,1.55406,9.8242,6.15776,-146.4,-801.296,-539.728,-15540,-10080,2380
-0.725417,1.3072,-2.82177,-4.35256,-4.33946,0.221986,-1.85341,2.50808,-0.572975,-3.21454,-0.634368,-2.79018,-1.10396,-2.29544,-1.50076,-2.86046,-143.96,-803.248,-537.288,-11760,-14000,3780
-1.64112,4.44888,-2.30162,-4.33357,0.0741438,1.07841,-0.338436,6.05283,-1.39953,-0.485557,-1.61885,-3.93563,-3.46786,-1.90607,-0.45171,-0.243728,-132.248,-816.912,-546.56,-11480,-15400,4200
3.1473,4.42404,-1.19944,-5.08402,-0.38205,1.98067,-4.00394,1.95636,3.15265,4.0625,2.24666,-3.55971,-2.96496,-0.329328,-4.59502,-3.04076,-129.32,-823.256,-555.344,-13020,-11620,2380
9.49679,12.636,4.92082,1.57305,5.74095,4.05096,0.78324,5.32828,9.95844,9.30863,4.17538,2.01597,1.62891,1.29665,1.35937,2.47141,-145.912,-825.208,-569.008,-14280,-4900,-980
-0.0403717,0.889652,-0.685883,-2.07449,-2.13575,2.26101,1.31722,2.00504,2.37447,1.21452,-1.25559,-4.63131,-1.34034,-0.198383,2.61729,3.06729,-154.696,-814.96,-569.496,-16100,-2100,-1680
-1.29203,-1.95693,-0.633335,-1.28179,-4.4792,-0.331631,-1.02538,-1.74184,1.36245,1.74294,-1.0443,-4.70094,-0.778322,-1.38558,-0.367492,-1.00944,-155.672,-805.688,-562.664,-17360,-4480,-980
0.297002,-0.926501,3.40653,3.16749,0.21012,-1.25029,-0.16257,-0.974662,0.838514,2.2432,0.390165,-1.99247,1.02965,-0.141921,0.196236,-1.6069,-148.352,-809.592,-562.176,-12740,-10500,1820
-5.70565,-5.33949,0.419915,3.85239,2.70814,-0.603165,0.847958,1.51149,-7.02104,-2.19162,-0.833646,-3.86477,-0.633168,0.910951,-0.107421,-1.67934,-150.304,-799.832,-540.704,-9100,-11900,2240
-8.0667,-5.54852,-2.21536,5.42328,3.75808,-0.409547,4.18697,3.94243,-9.37529,-6.74547,-3.7011,-3.07949,-1.21784,0.852893,2.61678,-0.693575,-149.328,-828.624,-561.688,-3920,-15260,2660
4.22591,1.22269,2.49457,5.87441,5.76197,-1.5343,2.75235,-0.183658,2.85713,1.71679,-2.71221,4.09956,0.0800662,2.18409,0.606969,-1.89952,-135.176,-824.232,-560.224,-10080,-12320,0
1.93591,-2.36304,-2.16464,1.30322,-0.817172,-2.2214,-0.856034,-3.99718,1.69653,-1.20629,-2.36839,2.63533,-1.84832,-1.27896,-2.50301,0.0132372,-154.696,-802.76,-546.56,-14840,-8120,-1960
3.8354,2.64515,-0.636698,2.81735,1.30023,-3.81068,2.67787,-3.80582,2.34782,0.871732,-0.228127,4.45519,-2.61143,-0.344121,1.65978,5.07935,-151.768,-797.392,-544.12,-9800,-12740,-280
3.99019,2.3852,-2.34555,1.64096,0.321628,-3.43093,2.84137,-5.24758,1.21039,-0.669975,0.0855478,2.87746,-3.23872,1.10859,2.67154,5.96613,-136.64,-820.328,-556.32,-8680,-16800,560
5.75374,7.5765,0.96518,6.34458,5.9284,0.935847,6.52057,-0.346775,4.30076,2.39315,0.120786,6.50188,-1.50563,4.4593,8.29216,10.0363,-139.568,-812.032,-557.784,-10360,-13440,-1260
3.22899,4.89781,0.274314,3.00794,5.0457,2.13974,1.89311,-3.17132,3.05173,3.19335,0.568603,6.82302,0.0662281,4.34604,5.57521,5.68908,-130.784,-823.256,-556.808,-10920,-11620,-2380
-3.87852,-5.98978,-3.07539,-8.84277,-3.007,0.490749,-9.18977,-6.80884,-4.43842,-0.357479,1.1579,0.291837,0.964595,-0.515575,-6.59806,-3.68549,-135.664,-819.84,-550.952,-13440,-10500,-3500
-8.51447,-10.3331,-5.81664,-14.8372,-9.16352,-1.80822,-14.4147,-6.32451,-7.8778,-4.53481,-0.916494,-4.91336,-2.55548,-5.29142,-14.7054,-7.75642,-129.808,-834.968,-560.712,-13860,-12460,-3080
-7.63634,-11.536,-6.8723,-11.3381,-11.0968,-0.474264,-11.1809,-3.97916,-7.23338,-6.88777,-0.539709,-5.09067,-2.61146,-2.50128,-11.5718,-5.94572,-123.952,-811.056,-559.248,-16800,-10780,-3780
1.03685,4.29763,5.3317,7.25478,5.06666,5.07108,5.42027,6.12648,1.12063,0.603568,3.28757,6.08837,4.09738,4.52347,5.51822,5.09088,-117.608,-805.688,-560.712,-17780,-9380,-4200
0.522412,3.29576,4.97304,9.37693,3.73547,4.07447,8.722,4.57336,0.721622,-1.77132,2.79667,4.75217,6.21945,5.27155,8.39271,4.99124,-122.976,-800.32,-557.296,-19460,-8960,-4060
0.958747,2.18966,1.02018,5.25498,-0.231095,2.31704,5.66627,5.44161,2.96001,-1.61797,3.10159,1.82394,7.51155,2.54857,3.51488,1.68682,-120.536,-799.832,-541.68,-19460,-10920,-2380
0.208934,1.11007,-0.479511,-1.85323,-4.64466,-1.53641,-2.55069,3.12532,0.324858,0.216049,2.17729,-2.94075,4.88186,-4.59558,-3.31398,-6.71583,-120.048,-801.784,-537.776,-16240,-14140,140
-4.36885,-2.52767,-4.18529,-4.09422,-5.56788,-2.27,-4.50113,2.33632,-5.99825,-1.70635,0.106901,-8.12488,1.83792,-6.30484,-4.13161,-10.3802,-116.632,-794.952,-531.432,-14420,-16380,1260
-8.37038,-5.13232,-4.95285,-3.19366,-3.3778,-0.802687,-0.734125,5.48902,-8.13345,-4.00475,-2.0871,-10.6893,0.358468,-4.26145,0.726568,-5.03493,-115.168,-802.76,-530.456,-12180,-18760,1820
2.03549,2.9071,4.80951,2.99055,2.24232,1.63146,3.27914,5.96699,3.1169,4.22841,1.85372,-2.84733,3.1026,0.681122,6.7794,0.315301,-117.608,-800.808,-523.136,-10500,-20440,2520
3.76319,1.35725,3.88854,3.68762,-0.568784,2.28513,1.59156,2.20843,6.059,2.98595,1.8768,-1.21366,1.62898,2.03635,5.3699,1.33691,-124.44,-802.76,-533.872,-8960,-25340,4060
0.802508,0.847703,3.52437,5.15515,1.49841,1.54143,4.97351,5.18869,3.18954,0.0989996,-2.99633,-1.79267,-2.17541,1.89929,5.98904,5.5088,-106.384,-798.368,-546.072,-14420,-27160,5320
-4.07164,-7.8131,-5.00323,-5.01584,-6.03843,-3.22335,-2.66001,-1.96075,-1.71702,-7.11191,-3.96917,-7.57048,-6.44187,-3.57114,-4.79244,0.19836,-119.56,-809.592,-541.68,-18060,-22540,4480
2.01223,1.5506,1.87978,-5.4892,2.72595,-2.60569,-5.20528,-3.90933,3.18822,0.502196,-0.475272,-1.21182,-2.22592,-2.17604,-8.77685,0.171708,-124.928,-839.36,-553.392,-19600,-24500,5600
2.14048,2.5903,2.35258,-4.67853,4.6362,-0.976646,-3.02026,-7.1775,1.2514,4.54284,0.224136,2.49641,-0.918059,1.62856,-7.20298,-1.66516,-110.288,-814.472,-566.568,-23800,-26740,6160
4.69475,5.28282,3.54952,-0.235467,6.87589,0.0122631,2.02118,-5.32113,5.30917,8.24174,2.52746,9.12564,1.2525,2.30632,-1.58515,0.255892,-114.192,-801.784,-566.08,-23380,-21420,6720
4.46215,5.57348,4.2662,2.68636,7.43177,-0.924345,5.35062,-2.52084,6.3355,5.07591,-0.568239,8.43865,-1.66159,0.661761,4.16999,1.07412,-122.488,-834.968,-565.592,-18760,-20440,8120
0.561255,0.588382,0.625797,-0.521638,4.19856,-3.39749,2.55889,-1.60565,1.86192,0.756412,-4.95745,0.933851,-5.68302,-1.17818,3.01441,-0.801689,-111.752,-854.488,-591.456,-19880,-20860,7700
1.10893,-0.285427,0.980826,-1.51353,4.42753,-1.48051,1.43274,2.06903,0.812379,3.50751,-4.45126,1.19566,-2.6534,-0.824296,0.43227,0.344977,-109.312,-827.16,-598.776,-28840,-10780,5040
2.24437,1.44937,2.65062,-0.473333,3.69663,-1.21121,-0.278776,2.20994,-0.636475,2.20876,-4.42674,4.38838,-0.76628,0.0270571,-0.76617,1.0586,-123.952,-830.088,-594.872,-30240,-4760,4620
3.57956,3.17581,1.69449,2.09581,0.0992522,1.88569,-2.47894,-2.28841,2.00164,-2.50597,-3.2391,8.91026,1.06929,2.87883,-0.190071,-1.35112,-126.88,-811.056,-574.864,-25760,-5880,6440
10.1604,9.44582,7.27465,10.1614,5.27448,4.98856,3.77217,-1.1355,5.70853,4.93596,0.699068,16.1713,2.92639,6.18242,6.99444,5.36185,-122.488,-842.288,-585.6,-18480,-12180,9100
2.28155,0.225438,-0.179364,4.60335,0.032074,3.02875,1.23126,-2.52824,-1.8694,0.780935,3.14488,7.64662,-0.496111,0.709122,3.30503,3.60835,-122.976,-834.48,-589.016,-18340,-7280,7840
-3.33672,-4.56688,-3.44767,-3.65279,-5.12996,0.19778,-5.19595,-4.30979,-5.02268,-0.890601,4.7046,-1.60138,-0.882023,-3.53578,-4.83073,-0.187588,-123.952,-824.232,-588.04,-19600,-1120,5180
-0.695377,-2.14893,-2.82987,-3.04619,-6.56801,0.144348,-3.0719,-2.33676,-2.48221,-0.140224,4.16595,-5.46977,-1.72771,-2.0353,-4.31918,1.97695,-134.688,-805.2,-577.792,-20440,-840,4480
-4.39085,-3.39014,-5.03071,-1.92173,-9.07978,0.657164,-0.819205,0.00327993,-6.88298,-7.11631,-1.36986,-10.7485,-3.35791,-0.833301,-3.54302,3.43153,-135.176,-821.792,-572.912,-19180,-4900,5320
-3.9039,2.30976,-1.119,2.00147,-3.85932,0.290357,1.28532,3.47777,-6.16523,-4.95289,-0.28903,-8.53496,-1.50697,-0.625111,-0.155409,3.687,-134.2,-819.84,-572.424,-17360,-5460,5460
-12.5823,-3.92569,-6.42507,0.618398,-7.52868,-1.48068,1.62482,2.24821,-10.4645,-10.4763,3.19024,-12.4884,-1.15956,-1.39631,1.28063,-1.01244,-140.056,-812.032,-568.52,-17500,-4200,4900
-11.0469,1.07005,-3.32039,5.82658,-0.146812,0.124039,6.32224,6.72725,-6.17672,-5.69053,2.7789,-6.18565,4.04955,1.10395,5.18373,1.42331,-136.64,-812.52,-562.664,-18340,-4060,4200
-7.09698,-5.43999,-7.68571,-1.63863,-4.21898,-1.80422,-1.11103,2.23627,-4.81397,-4.22374,-0.0658412,-6.56987,1.62238,-1.8841,-1.52947,-7.60662,-155.672,-800.808,-561.2,-18200,-5040,3780
-0.436579,-2.94307,-4.72634,-2.42297,-2.9722,-2.12871,-1.39696,-1.00411,0.0320973,-3.8599,1.24357,-2.08791,1.44576,-3.1986,0.17937,-7.97997,-148.352,-804.712,-562.664,-16100,-9100,5180
6.23084,0.628041,-0.366819,-4.14019,-1.53767,-2.41979,-3.74238,-4.82198,5.18997,1.06905,1.87714,1.13159,1.57049,-2.29226,-0.0828027,-8.3157,-143.96,-808.128,-563.64,-14420,-11760,4340
5.79414,-1.04006,0.800493,-4.00978,-0.946717,-0.469581,-1.5249,-3.32291,5.41262,0.536381,1.08595,-0.419088,1.69537,0.049217,1.14024,-5.00775,-146.888,-799.344,-549.488,-13720,-10500,3220
3.17568,-3.35472,0.80799,-3.03457,-0.311045,1.91867,-0.642753,-3.16808,4.87603,2.25988,1.50622,1.56282,3.28851,2.42422,1.91763,-2.21018,-142.496,-822.768,-558.272,-10500,-13580,1960
5.16578,3.38932,4.67754,4.26616,6.6518,4.35352,4.66886,1.47874,9.5838,7.60967,0.715854,8.27828,5.35486,5.95151,7.31889,3.92505,-155.184,-776.896,-554.368,-12600,-11760,700
2.67119,2.98372,1.77097,2.91846,6.93539,3.78724,3.00015,3.04558,7.12189,3.67908,-1.85283,5.53457,0.992922,4.83951,4.72515,2.75195,-144.448,-814.96,-561.2,-12600,-15260,840
4.01962,4.73628,2.97389,0.249787,6.91366,0.303175,-2.66024,3.09546,5.37057,7.62606,-1.49192,3.60991,-2.62535,0.942085,-4.0998,-1.70278,-129.32,-805.2,-559.736,-15260,-12180,-3360
1.732,-1.53186,-0.732908,-0.663462,0.6792,-1.52882,-2.96938,2.12038,2.72956,4.69042,-1.08158,-0.620533,-3.22289,-1.97049,-4.68006,-2.09028,-170.8,-790.072,-530.944,-19740,-5460,-6300
3.75081,0.38065,3.22482,2.16939,2.99059,-1.72935,-0.504385,5.31256,3.39449,6.48434,0.45367,0.189098,-0.206013,-1.18858,-0.392389,0.539833,-154.696,-784.704,-542.656,-26460,-10920,-5460
4.49461,-2.1918,2.68,2.35127,2.2194,-0.850792,0.863004,5.2477,2.43863,3.95133,-0.750747,1.25036,0.345374,0.597091,0.50688,0.402001,-155.672,-773.968,-549.488,-35000,-13440,-6020
-4.58574,-10.9655,-1.65272,-5.68039,-2.71609,-0.999999,-1.95147,4.59104,-8.37563,-3.57353,-4.77272,-5.48987,-2.11224,-0.554914,-5.11262,-0.461879,-136.152,-801.296,-528.016,-39200,-6300,-9660
-10.5178,-14.7126,-5.53058,-8.90507,-6.06275,-1.17215,-3.02146,3.12111,-13.205,-6.55102,-6.39042,-9.8151,-2.88057,-1.71665,-7.77085,-1.1653,-149.328,-768.6,-528.504,-36400,-8680,-12460
-8.94761,-11.8957,-4.33712,-5.00932,-3.58067,-0.344993,1.21551,5.8146,-10.9087,-7.4759,-6.21084,-6.90488,-3.50556,0.843582,-0.110884,3.99543,-151.768,-772.992,-514.352,-40320,-8680,-14000
-2.95686,-2.00252,3.48645,1.1876,0.644398,-0.27862,1.9646,5.03982,-1.73898,-2.72194,-2.29663,1.2662,-1.18297,1.41163,4.06257,8.38315,-156.648,-793.976,-525.576,-34300,-17080,-13160
1.48883,5.57554,4.95419,2.14166,1.72164,-1.67116,-2.64553,-4.13963,2.64289,4.41131,0.984262,5.84842,1.95214,-1.40272,-0.321661,5.70583,-156.648,-764.208,-517.768,-32900,-18620,-12600
1.39842,6.50597,2.56783,-2.38889,-0.30825,-2.54169,-4.75942,-9.1508,-0.403785,3.25387,1.65019,3.85639,2.01247,-3.98742,-3.98077,2.42604,-153.232,-741.272,-528.504,-31220,-24780,-10640
5.09748,11.4259,6.51021,-0.162498,2.09299,-2.16278,-3.24072,-10.5587,3.73476,6.49992,4.29211,6.22355,1.08389,-3.47475,-2.69762,1.14902,-145.424,-790.072,-543.144,-24500,-32900,-9100
6.52105,12.9323,4.34913,3.3604,2.53867,0.417433,0.294944,-10.4869,7.14327,4.78482,5.59944,6.45843,0.73895,-0.754302,0.77191,2.33443,-158.6,-823.744,-587.064,-17220,-32900,-8820
6.51281,14.3485,2.50499,6.687,6.41362,3.38391,4.68236,-5.8332,8.34509,3.96017,5.37331,4.96641,2.50585,1.20251,5.11254,7.94529,-95.16,-740.784,-620.248,-24500,-28980,-10080
5.20022,12.3138,1.23074,7.60914,6.43743,4.59935,5.23661,-4.37598,7.67611,1.45301,3.1633,3.97045,3.87414,1.32671,4.72361,5.99094,-159.088,-799.344,-619.76,-28560,-10780,-13720
1.47526,5.87019,-0.799941,4.85937,0.877288,2.45238,-0.00839216,-4.6308,3.6898,-4.89218,0.211791,-1.02025,1.32957,0.270924,-0.0614315,-1.19456,-141.52,-811.544,-642.696,-12880,-21140,-9940
-4.82554,1.02142,-4.27776,2.89586,-1.42445,-0.0903285,2.24794,-0.631145,-5.75409,-9.55497,-2.92792,-7.35914,-3.23699,-1.86016,0.59854,-2.08165,-102.48,-792.512,-671.976,280,-29820,-4340
-3.97322,-1.9244,-4.91218,2.86087,-1.99192,-0.491011,7.9941,4.00555,-6.30462,-8.69415,-2.72581,-5.97623,-3.79325,1.37413,6.05738,-0.278819,-128.344,-782.752,-655.872,3500,-12600,-6440
-2.62656,4.59905,4.57565,7.61713,5.12631,0.251641,11.2947,10.8962,-3.68769,-1.3115,5.31078,0.745879,2.29159,5.14639,9.96136,3.93824,-128.344,-790.072,-652.456,10780,-20720,-4900
-12.308,-6.98991,-2.67691,-3.08415,-6.24522,-1.79567,0.211603,3.32426,-11.9696,-7.31381,2.23485,-2.77434,1.54451,3.5107,-2.89217,-4.17852,-121.024,-787.632,-675.88,6580,-19880,-5460
-8.25935,-9.65573,-4.60453,-7.41545,-9.85943,-0.267018,-6.09992,0.139613,-9.1944,-7.87061,-2.77465,1.48864,1.29599,1.37043,-8.70261,-5.48011,-124.928,-754.936,-636.352,-9940,-7280,-4340
-2.32876,-11.8021,-4.60392,-6.01415,-8.41346,-0.154097,-5.51341,-1.65827,-5.64015,-4.62817,-3.42488,4.28759,-0.0248639,-1.8107,-6.68256,-5.14587,-112.728,-761.768,-620.736,-10080,-18900,-560
2.68243,-10.2611,-3.57032,-3.80064,-5.58225,1.68861,-2.51287,-0.44771,-1.86054,-1.35901,-4.30188,4.87029,-2.41319,-0.958909,-3.23482,-2.87371,-87.352,-811.056,-661.24,-7140,-20720,-840
4.82433,-11.2577,-5.12755,-6.18455,-5.75843,0.835831,-3.55974,0.185814,0.0322589,1.89266,-1.1447,3.54383,-2.699,-1.70408,-3.66232,-2.91249,-106.384,-798.368,-667.584,-19180,-3080,-7280
6.95135,-7.93699,-2.64485,-3.85927,-1.26462,-1.0118,-2.38225,-0.273523,5.55667,6.9077,1.95211,3.42663,-1.04191,-0.664964,-1.37744,-2.69952,-114.68,-791.536,-658.312,-25620,2800,-7420
5.92157,-3.49916,1.65175,0.210793,2.40479,0.097817,-1.49137,-1.32735,7.86126,6.47039,3.11726,0.481371,0.908434,1.08839,0.64084,-3.39709,-123.952,-792.512,-636.352,-24080,-3920,-2800
5.60055,4.444,8.31135,0.0300885,4.4808,-1.55755,-4.52833,-1.9959,10.1157,6.6337,1.39403,-1.09235,0.189605,-2.09846,-1.13509,-6.10094,-124.928,-808.616,-618.784,-14700,-10080,2660
-1.44605,-3.16372,-1.17654,-6.71506,-6.01139,-4.40844,-8.06604,-6.08463,4.8344,-4.82436,-3.86688,-11.6569,-6.68269,-7.65786,-5.36135,-13.7563,-132.248,-834.968,-619.272,-7420,-8960,4200
-1.43581,1.66651,1.46001,-1.20494,1.86763,-2.00983,-0.580815,2.58985,5.21265,0.515128,-2.62216,-8.25983,-4.15691,-3.84443,-0.238951,-6.87125,-147.864,-825.208,-590.48,-1960,-4060,4760
-3.60004,-0.234992,1.24976,-1.68342,1.79806,-0.0246508,-1.19771,3.05328,1.82474,0.115849,-1.32211,-7.0418,-3.15882,-1.42477,-2.26181,-7.47337,-146.4,-854.976,-585.6,3500,-6720,6160
-3.3911,2.36065,3.04602,3.07032,5.80475,1.28395,2.50071,4.46728,-0.989348,-1.20706,-0.93496,-2.17872,-0.771505,1.94914,1.76281,-3.36066,-160.552,-870.104,-594.384,7560,-4060,5320
0.168365,9.26713,6.70344,5.47377,9.81332,2.25061,3.52563,5.25575,0.589486,5.08835,1.38673,3.76347,3.93744,5.17664,4.57376,1.62454,-171.776,-867.176,-598.776,560,8260,2660
2.28301,6.16512,0.953225,0.822687,3.23918,1.01017,-0.46129,2.39443,1.08198,7.49479,2.85857,2.20071,3.3781,3.17516,2.36423,-0.226804,-182.024,-860.832,-589.992,-9940,11900,1540
8.1432,14.7924,5.03766,6.96175,8.16441,2.44674,4.89522,6.43163,6.48394,10.8691,3.8235,7.46814,6.74235,4.19181,10.3499,8.30337,-176.168,-859.856,-587.552,-13300,8540,1260
3.91154,8.46853,-0.381217,4.90923,2.644,0.744159,3.75197,3.16681,0.493838,5.282,2.08304,3.14193,4.80827,2.89257,9.39547,8.27265,-174.704,-855.464,-587.064,-14000,9100,280
3.19988,7.19473,-2.69787,5.83483,2.21682,2.55551,5.90043,3.45447,-1.03427,3.83327,2.17711,3.77761,3.2106,3.68753,9.27,10.5374,-174.704,-845.704,-590.48,-14000,10360,-2240
0.683276,6.20197,-3.28531,5.93092,2.63983,0.26006,4.00371,3.11318,-3.2643,4.29369,0.370308,1.21567,-0.331325,1.09361,5.62062,8.77176,-178.12,-838.872,-576.816,-13860,10220,-4900
-9.99434,-6.53693,-11.2427,-2.08734,-5.39246,-3.80739,0.0279498,-1.7893,-11.6093,-7.45198,-4.78628,-7.41313,-5.34089,-3.85657,-1.08462,3.39774,-179.096,-836.92,-578.768,-12460,7420,-6440
-10.9094,-8.27562,-8.48768,-2.95729,-2.92924,-1.04391,-0.128049,-1.74398,-9.69866,-9.0466,-5.84563,-5.29363,-3.02735,1.16229,-2.19412,7.46006,-173.24,-831.064,-581.696,-9240,3640,-7980
-3.61143,-4.74402,-2.95025,-3.75605,-2.04727,-1.44135,-1.97677,-3.60011,-2.88075,-3.41734,-0.280858,-1.74476,-0.291319,1.08376,-5.11375,7.46448,-168.848,-821.304,-585.6,-7700,1820,-10360
-0.593418,-2.20741,2.27153,-3.77566,-3.16188,-1.01328,-2.77993,-5.95215,-0.854264,-3.45696,2.07625,-0.503818,2.10318,-1.58834,-8.7093,4.60702,-168.848,-817.888,-583.16,-7700,-280,-13720
-0.790418,-1.21644,4.59417,-1.36537,-3.05124,0.0547804,-1.95033,-3.73059,-0.639205,-3.47661,0.826561,0.0549375,1.74267,-2.2959,-7.99762,3.0037,-162.992,-813.496,-589.992,-6580,-2940,-15680
0.692439,-3.32938,1.04399,0.420208,-3.19022,1.26815,0.702085,-3.02717,1.18322,-4.44487,-0.72997,0.397152,-0.736151,-1.74734,-3.42456,3.12135,-152.744,-797.88,-596.336,-3640,-4060,-16660
6.00826,3.54099,4.21468,8.1499,4.97926,1.99672,6.814,1.64066,5.46773,1.74898,1.25853,6.72347,1.3925,-1.13487,5.07553,7.6889,-144.936,-793.976,-594.872,-2660,-4900,-18200
4.04392,-5.01353,0.957471,0.0713305,-2.97702,-1.21332,-1.46619,-3.63959,0.486445,1.20953,3.84325,1.289,2.59421,-2.63811,0.825941,-2.43696,-138.104,-795.44,-598.776,-2240,-5320,-18760
2.84027,-8.35556,-1.17208,-3.65704,-5.3672,-0.546204,-4.27791,-4.06772,-0.158307,0.0200881,2.67203,-2.68544,2.2899,-1.2212,-1.62875,-5.84074,-133.712,-789.584,-600.728,0,-5320,-18760
-0.457895,-7.8071,-0.42079,-4.81682,-1.96067,-0.68844,-2.1021,-0.574812,-1.37875,-1.77965,-1.92319,-3.27206,-0.682561,-0.879479,-2.41153,-5.77137,-127.368,-782.752,-602.68,2520,-5320,-18340
-8.80453,-9.76167,-1.63871,-6.66859,-0.2125,-0.375989,-0.52507,-0.0491345,-7.92943,-7.70533,-7.8951,-4.009,-3.9506,-2.9617,-3.68214,-5.07941,-123.464,-780.312,-604.144,4900,-4900,-17360
-5.1497,-3.6636,-1.16494,-4.3054,1.79101,0.84779,1.86927,0.0670854,-2.87177,-7.11156,-5.41682,-0.551229,-3.72599,-2.48782,-0.528221,-4.05273,-120.536,-776.408,-604.632,6300,-3500,-16240
3.39662,4.15328,2.7784,-2.09451,0.623814,-0.290692,-1.86234,-3.13262,4.37418,1.25495,2.29162,4.33212,0.23265,-2.05488,-1.841,-6.91176,-114.68,-782.752,-598.288,7140,-2520,-15120
5.00042,6.8615,3.07994,1.15808,-0.185149,-0.364553,-1.1548,-4.6635,5.56584,3.17715,4.54199,7.9143,1.70831,-1.43195,0.801177,-6.03363,-113.216,-773.968,-589.992,7000,-700,-13720
5.82235,13.7405,7.17393,7.92869,7.87937,2.04206,6.6723,2.25482,8.33708,4.87932,1.61161,9.73017,1.34722,4.07781,8.97218,2.76739,-109.8,-780.312,-591.944,7140,700,-12040
3.99764,7.80072,4.14767,2.78013,3.14101,2.0488,5.07096,1.57894,6.90693,-0.0728416,-0.561171,5.29437,-1.95624,4.4344,3.57765,0.976018,-104.432,-780.312,-581.208,6440,1400,-10500
5.15275,7.4665,9.59157,2.80405,4.68876,1.67995,3.47247,5.1434,7.77663,3.29348,0.480636,5.81989,-0.223746,5.55169,-0.196017,-0.0658205,-104.92,-783.24,-586.088,5040,1820,-8680
-1.00685,0.362632,5.37534,0.598907,-4.51008,0.169264,-2.69352,0.446525,1.53487,0.989019,0.0239853,-2.6032,-0.935398,2.44691,-4.28951,-4.33136,-106.872,-785.68,-578.28,4060,2380,-7280
-4.82019,-0.688125,1.18655,-1.3405,-8.61472,-0.0192066,-4.3383,0.512049,-3.31123,0.176395,0.880519,-5.99113,-0.892594,0.872772,-4.58659,-2.87761,-107.36,-787.632,-581.208,2240,2800,-5600
-5.11495,-4.69256,-3.89808,-6.01281,-11.9073,-0.756031,-6.96068,2.34188,-5.16565,-0.100389,0.425293,-7.85333,-2.26925,-0.380429,-7.7495,-2.33783,-106.872,-787.144,-571.936,840,3080,-4060
-3.20866,-4.52167,-7.51715,-5.14769,-8.97027,0.83942,-5.93218,3.74723,-2.48709,0.932754,-0.995972,-5.84402,-2.88523,1.48329,-5.40032,-1.15009,-108.336,-793,-575.84,-1680,2660,-3220
0.298262,4.24308,-5.90834,1.03546,0.277491,1.07512,-2.83702,3.87937,1.87962,5.72393,1.47982,-0.283388,-0.0326729,0.749936,1.30097,1.56974,-111.752,-794.952,-574.376,-3780,2520,-1960
-1.31869,-1.93691,-8.61684,-2.38684,-0.627245,-1.7556,-6.08116,-1.17634,-2.35083,1.16534,0.735811,-3.75194,-2.02964,-1.08656,-1.14472,-4.12325,-111.264,-799.832,-572.424,-5180,2380,-1260
-0.385401,-5.74354,-8.02954,-4.24854,1.14198,-3.25137,-6.99325,-3.52898,-3.64761,0.238941,1.55392,-4.75662,-1.50651,-2.55363,-2.04374,-5.215,-114.68,-801.296,-570.96,-6720,1960,-280
-0.0139371,-6.3061,-6.84401,-1.55206,4.76494,-3.70266,-3.37535,-2.07876,-4.51269,0.908548,-1.24807,-2.95471,-1.36634,-2.83598,0.952227,-1.90289,-114.192,-802.76,-580.72,-7840,1400,420
3.32507,-4.10436,-5.78912,0.0213295,4.5521,-3.14339,-0.117694,-2.74424,1.34733,0.150208,-0.441921,0.960079,0.587968,-0.807123,2.65057,-1.07961,-118.096,-804.712,-575.84,-8680,1400,1120
8.00602,0.255156,0.106078,3.04488,6.89995,-3.13008,0.96626,-2.26573,6.72949,4.38149,2.79778,5.59322,3.85916,-1.4277,3.05374,0.131038,-115.168,-805.2,-584.136,-9240,840,1400
3.41822,4.42087,3.86221,11.3453,9.9267,-0.205231,5.40267,0.261538,1.88819,1.40267,0.998025,7.54086,3.73795,0.588085,8.80786,3.30175,-122.976,-807.152,-582.672,-9380,700,1540
-5.12683,1.7802,5.79021,11.7638,10.1399,2.51425,8.91014,2.65882,-9.72998,-4.55466,-0.42955,4.95874,2.96374,1.93481,11.6473,5.00089,-124.928,-805.688,-587.064,-9940,560,1400
-12.7181,-6.86,3.49991,4.03099,7.35559,3.41207,9.92877,5.84582,-18.8345,-7.55142,-4.23085,-2.39921,1.46367,1.91632,5.31401,5.22726,-122,-808.616,-586.088,-9520,0,1400
-11.6345,-15.0188,-3.33046,-7.11038,-5.2689,1.22751,2.49669,-0.269046,-15.6479,-9.47453,-2.71309,-9.98326,0.15497,-3.19228,-5.01995,-2.51743,-125.416,-809.104,-593.408,-8820,-840,1120
0.31445,-1.36396,3.48818,-1.53059,-2.25586,3.56184,3.94171,4.63474,2.26381,-0.850548,-0.771924,-2.46586,2.99075,-2.28558,-1.70776,2.81939,-131.76,-809.592,-589.016,-7980,-1120,700
6.70658,4.24759,2.52714,1.18616,-4.5476,3.78661,2.63957,1.37557,12.2324,0.870958,0.165596,1.08218,2.75973,0.727499,-0.188177,3.14233,-130.784,-810.08,-592.92,-7280,-1820,980
-0.248171,1.95884,-1.22742,-3.35161,-6.46666,1.00184,0.178893,1.92993,2.89663,-4.55732,-1.3906,-1.78118,0.923954,-1.23992,-2.27607,2.25601,-129.808,-811.544,-594.384,-5460,-2100,280
-3.88603,0.383974,-1.79683,-4.31505,-5.90826,-1.15912,-0.0478561,2.23837,-2.95642,-3.91309,-1.57121,-3.64118,0.868352,-0.892296,-1.73005,0.578101,-133.224,-809.104,-593.408,-3500,-2800,-280
1.99718,8.19261,1.88373,3.41676,1.08952,-0.858757,5.39997,2.20069,5.7479,3.26601,0.043453,1.7793,1.46366,1.33761,6.77274,2.81785,-138.104,-805.688,-594.384,-1540,-3920,-1120
6.48686,14.9029,6.65918,6.8813,6.01395,-0.581145,7.56108,0.722896,12.7422,9.53149,2.07627,6.10484,1.20042,2.80574,10.0065,7.73711,-138.104,-804.712,-593.408,-700,-4200,-1820
5.75916,11.1518,5.78944,2.24987,2.10219,-0.920365,2.18443,-2.15607,11.0798,7.54077,0.66488,3.63752,-0.87386,2.66899,3.13425,6.60738,-142.984,-810.08,-595.36,-280,-3920,-2660
5.03336,8.22947,3.72483,-3.82138,-1.83927,-1.05403,-3.82675,-2.73472,9.24583,5.59627,1.31142,-1.63588,-2.69888,0.12576,-4.68004,4.44194,-144.936,-805.2,-591.456,0,-3500,-3500
9.81582,9.99907,6.36735,-2.11319,0.109358,-1.20321,-6.6896,-4.87518,13.38,9.86866,5.08567,0.252701,-2.31764,-1.69406,-7.59725,0.704631,-144.936,-804.712,-592.92,700,-3220,-4340
3.76255,1.86701,-2.48824,-3.08722,-3.73476,-1.06018,-7.56944,-7.84551,3.70633,-0.264244,1.52245,-3.02488,-4.71383,-3.15266,-7.12008,-3.62846,-145.912,-806.176,-590.48,1680,-2940,-5040
2.27887,1.39535,1.07706,-1.10975,2.26894,-0.5665,-1.98382,-1.93024,-4.58771,-0.31618,-0.597012,-0.568845,-3.25978,-0.236272,-2.00285,1.37718,-148.84,-804.224,-590.48,2800,-2240,-5740
-1.01613,1.5387,-1.09715,1.07569,-0.0979349,-1.18462,-2.41904,-3.63241,-6.03065,-4.58645,-1.57903,1.93586,-2.94009,0.540768,-0.588882,-0.647131,-148.352,-804.224,-594.384,2800,-2240,-5740
-4.18618,-3.66567,-3.94682,0.322434,-2.45876,-0.168301,-1.96547,-2.5429,-7.83623,-5.33076,-0.127024,1.95941,-2.30294,1.25697,-0.546344,-2.2972,-149.328,-806.664,-590.48,3780,-1960,-5880
4.02745,-7.99217,-3.72035,-5.11269,-5.03183,-0.498071,-7.1283,-3.12527,3.06361,2.98166,3.13258,1.19719,0.180966,-0.593518,-8.39794,-9.18323,-151.28,-804.224,-592.92,5040,-140,-6440
4.12692,-4.73426,-2.82555,-4.74793,-2.61077,-1.87866,-10.9497,-6.32658,5.62829,4.45513,2.29036,1.31376,1.63849,-2.643,-10.6508,-11.9056,-150.304,-799.832,-593.408,5040,-140,-6440
-2.41434,0.000895029,0.0231971,1.65851,5.18071,0.868658,-2.46582,-0.0586888,-2.39042,0.456606,-1.23699,7.28007,2.50994,1.08754,-2.34993,-2.73545,-151.28,-800.32,-591.944,5880,1120,-6720
-15.6117,-14.8163,-6.16354,-2.32115,-0.813222,1.54948,2.35172,3.96845,-20.5895,-10.5423,-5.67117,-1.02615,-0.264216,3.32431,2.23972,-0.838487,-150.792,-795.928,-591.456,6440,1260,-7000
-19.1261,-22.9226,-9.41491,-11.4003,-9.65588,-0.472688,-0.903502,2.16421,-21.3073,-13.2184,-6.08537,-8.08923,-2.39327,-2.59692,-2.95741,-4.61557,-147.376,-794.952,-590.48,7000,1680,-7000
-4.7482,-11.2484,-4.07004,-10.8006,-10.2577,-0.270846,-6.5249,-2.4355,-2.43414,-3.27916,0.245485,-4.02921,0.895309,-3.56804,-7.25454,-8.18788,-145.424,-792.512,-593.408,7840,1540,-7280
7.87403,4.41982,0.436514,6.50611,0.159865,3.46442,5.852,2.93529,13.3976,1.21613,1.96021,6.35934,1.31416,3.30364,8.90377,0.183534,-142.008,-790.072,-595.36,8680,1820,-7420
9.19878,10.6895,5.33124,17.2473,12.0394,6.16767,16.4285,11.4818,12.2252,3.34898,0.905089,11.6488,0.993204,8.29273,18.1105,9.75246,-141.52,-787.632,-598.288,8820,2100,-7420
-4.42443,-0.73527,2.95025,10.5069,7.93175,3.36308,8.55497,4.72006,-8.68478,-3.165,-2.12682,3.40039,-1.62897,4.06777,7.62971,4.40006,-142.008,-784.704,-601.704,8960,1680,-7140
-18.3263,-8.05343,-3.02711,9.61143,8.22468,1.89638,9.17585,3.47453,-25.3987,-11.2284,-6.37813,-2.91796,-4.22165,2.41709,7.84487,4.9306,-136.152,-784.216,-600.24,9240,1540,-7000
-18.813,-14.2637,-3.61632,4.97504,7.98996,1.41085,9.59952,7.31045,-26.0448,-8.96483,-6.73726,-7.92079,-2.59743,2.53151,9.83717,8.43369,-131.76,-783.728,-600.728,9520,1120,-6300
2.99275,-6.52089,0.358601,-6.92016,-2.49465,-1.59347,-4.00317,-0.14783,4.87029,3.6193,0.765994,-3.8738,1.39068,-2.11734,-5.85025,0.910777,-130.784,-784.216,-602.68,9660,1400,-6300
