9.53636,12.5305,6.9065,7.71821,8.3037,1.9669,5.69801,-3.03275,8.76184,4.21866,4.15321,7.02605,4.25538,-0.011326,7.685,0.881423,-165.432,-733.952,-666.608,-1960,-1960,-4200
6.49424,9.59783,3.85865,3.10617,4.00262,1.20477,2.6128,-5.47764,9.17921,3.78536,4.32853,6.33591,1.66494,0.146806,4.62664,-3.68471,-165.432,-734.44,-664.168,-1400,-2800,-4200
3.79973,10.1487,2.14635,1.19823,4.50928,1.73056,3.4147,-4.48129,7.99219,6.85671,4.32886,7.85613,1.02292,0.406973,5.26493,-2.92731,-162.992,-732.976,-664.656,-980,-3500,-4340
-1.53149,5.67997,-0.899878,-3.57222,0.136289,0.664213,-0.262479,-3.30246,1.52606,3.96146,1.56628,3.32427,-0.660677,0.269241,0.363289,-5.05835,-162.992,-733.464,-669.048,-840,-3780,-4620
-4.9134,2.0267,-2.58992,-4.32532,-3.44468,-0.205472,-1.91067,-3.02903,-3.72422,0.510155,-0.375023,-0.142707,-0.562311,-0.483059,-1.99648,-6.72726,-162.016,-735.904,-663.192,-840,-4200,-4900
-2.80306,5.05719,0.247895,-0.279189,-1.80617,-0.464938,-1.89461,-1.92818,-3.35751,4.32562,-0.810427,0.945747,0.709141,0.68182,-2.25476,-3.92714,-160.552,-736.392,-665.144,-840,-4620,-5040
-6.53606,-2.31051,-4.38049,-2.77023,-9.11161,-1.45198,-5.32567,-3.1114,-7.49559,-1.47507,-1.45242,-3.87072,-1.84464,0.655496,-3.14774,-3.29508,-159.576,-734.44,-668.56,-980,-4900,-5180
-7.73426,-1.00462,-2.83038,1.09329,-4.2267,0.0171606,-1.5152,2.36497,-6.40229,-2.1209,-3.24126,-2.48835,-2.69238,2.29504,2.36825,2.41137,-159.576,-739.808,-665.632,-1120,-4760,-5320
-8.58663,-6.17295,-4.26287,-1.25571,-3.8089,-0.393968,-4.08584,2.53029,-8.12793,-3.31968,-3.41797,-4.11341,-3.05413,-0.148872,-0.327655,-0.616559,-158.6,-733.952,-661.728,-840,-5180,-5460
-1.93358,-5.64912,-2.27068,0.559644,-0.245378,-1.0523,-4.67886,0.0765608,-1.68365,1.69905,-0.602863,-0.925094,-1.09802,-1.19353,-2.22304,-1.01734,-156.16,-736.392,-664.168,-700,-5180,-5320
2.52514,-3.89635,-0.448681,1.8456,1.33785,-0.480906,-2.70015,-0.39064,3.48622,5.85436,2.1537,1.35292,-0.613655,1.42826,-2.64767,-0.462972,-155.672,-736.88,-662.216,-700,-5320,-5320
2.76457,-2.10166,-2.18091,2.75399,0.575684,-0.642242,-0.507164,1.47865,3.72085,5.12793,2.50762,1.3975,-0.946435,1.41694,0.492109,0.374405,-161.04,-731.512,-662.216,-840,-5040,-4900
2.35224,0.812708,-1.82629,4.98088,1.68775,-0.667341,2.68907,5.12458,3.07332,3.15991,1.5565,2.51139,0.767646,0.7204,2.33925,2.36858,-159.576,-730.048,-660.752,-980,-4760,-4760
-0.940011,-5.22745,-0.809541,1.58628,-2.70976,-0.0354169,3.93429,7.01722,-3.03667,-1.71863,-1.26628,-0.525249,-1.63694,-0.0413319,1.08405,3.70304,-159.088,-730.536,-662.216,-1260,-4340,-4340
-2.73141,-5.85228,-0.537725,0.436631,-3.13644,1.47749,6.32779,6.40315,-5.05788,-5.89833,-2.15291,-1.32416,-2.5517,0.383298,0.824209,7.70602,-163.48,-729.072,-657.824,-1680,-3920,-4060
6.73581,3.82008,4.51301,2.37517,2.69423,2.63804,6.30681,5.73124,1.89471,0.974293,1.17869,2.35104,1.00854,2.74976,-0.331893,7.99192,-162.016,-728.584,-660.264,-1540,-3640,-3500
8.09524,4.77335,5.00482,0.844001,3.52369,2.41893,3.98802,1.68833,4.28388,3.05828,2.81858,1.11649,3.0548,1.53871,0.395903,3.2947,-164.456,-726.144,-658.312,-1820,-3080,-2940
5.32981,4.74787,7.42176,3.18398,6.65247,3.10265,5.22817,3.62776,2.56159,2.80391,2.35148,1.31634,4.39014,1.11172,5.28841,4.28243,-162.992,-726.632,-661.24,-2380,-2800,-2380
0.484468,0.170918,2.73433,0.0339859,2.66483,1.24791,0.746427,0.927234,-1.75846,-2.21907,0.0442129,-2.41355,1.64669,-1.14778,2.18093,0.205486,-164.456,-725.168,-660.264,-2520,-2100,-2240
-5.79912,-6.1884,-2.98135,-1.55255,-0.86788,-1.15605,-2.43865,-3.38638,-8.1512,-6.25516,-1.85806,-6.5165,-0.386497,-1.82501,-1.06288,-3.55115,-166.408,-729.072,-665.144,-3360,-1540,-1680
-2.26472,-0.203931,-2.30794,1.949,3.33852,-0.288142,-2.42787,-3.71257,-5.02873,-2.61435,-1.14477,-3.70114,0.930154,-0.689412,0.469644,-3.73911,-171.288,-730.048,-665.144,-3920,-1120,-1400
0.0905455,-0.249414,-4.60983,-5.80105,-0.631951,-1.16521,-10.5588,-9.83939,-1.13575,-2.7644,1.37334,-3.90144,1.07154,-4.01243,-7.02631,-11.43,-171.776,-731.512,-662.704,-3780,-1120,-840
2.84831,1.98788,-0.555646,-7.34869,-0.538936,-1.83317,-10.7879,-8.18853,4.33419,1.17843,1.42837,-1.33144,2.03639,-4.89504,-9.79413,-10.3579,-173.728,-732,-666.12,-3780,-840,-560
-0.824357,-4.08508,-0.360769,-6.43634,-4.16842,-2.72166,-7.21538,-6.13003,3.02692,-1.21865,-1.1974,-1.29236,0.30091,-3.31999,-7.78502,-7.92475,-174.704,-732.488,-663.68,-3360,-1120,-140
-4.51872,-0.826305,0.68327,-1.75059,-1.50262,-1.82831,-0.320528,0.490363,1.02654,-3.61731,-2.55391,2.77675,-0.811404,-0.110327,-0.0613096,-0.417991,-178.12,-726.632,-662.704,-3220,-980,0
-4.32976,5.73437,0.190041,0.814112,1.27881,-1.1959,3.55928,2.11388,1.23811,-0.782015,-2.59663,4.10097,-2.18179,3.28624,3.64808,2.42892,-180.072,-724.68,-665.144,-3220,-1120,0
-2.72261,5.46711,0.630567,2.65305,0.385947,-0.603139,4.90107,0.506722,2.78021,2.08927,-3.25581,3.15823,-2.50739,3.29369,3.82609,2.62638,-179.096,-727.12,-663.68,-3780,-1400,-280
-1.02849,1.19997,-0.428487,1.14658,-3.36543,-0.69192,3.50486,-2.10526,1.65968,-0.174633,-3.75373,-0.000448465,-2.66828,2.19005,3.61847,1.44471,-178.608,-730.536,-660.264,-4340,-1120,-840
1.51363,2.01881,2.44964,2.09603,-3.50458,-1.20421,2.18206,-0.499007,3.07892,3.10906,-2.23476,1.54379,-1.90978,1.79678,3.6406,2.36904,-179.584,-724.192,-662.704,-4760,-1540,-1260
-0.970841,-2.21814,-0.197474,0.844285,-4.44121,-0.156803,0.129842,0.517173,-0.308042,2.44718,-0.922002,-0.759033,-0.226361,-0.11729,1.28655,3.6817,-176.168,-730.048,-662.216,-5040,-2240,-1960
1.85911,0.119758,2.78827,2.75336,1.24228,1.81201,1.33755,2.82118,0.320892,3.77163,1.63726,0.909712,1.38704,1.28706,2.41304,6.70934,-178.608,-728.584,-663.192,-4900,-2240,-2800
-0.341242,-4.49311,-0.69137,-0.864228,-1.8646,1.50318,-1.20279,-0.464483,-0.526749,-1.9333,2.04673,-0.980973,0.65696,0.160086,-0.40065,2.72719,-174.704,-728.096,-663.192,-5880,-2380,-3920
4.2666,1.15473,1.56703,1.78602,3.66668,1.87885,0.20183,2.231,2.12316,2.2509,2.25107,1.5135,0.878015,0.296021,0.772913,3.43703,-172.752,-730.536,-664.656,-6300,-2660,-5040
6.53088,0.677275,-1.59784,0.772403,2.65698,0.71719,-1.55431,-0.234777,2.96587,0.467478,1.39761,1.50441,-0.627576,-0.109219,-0.00241431,1.09722,-170.8,-731.024,-665.632,-7000,-3080,-6160
3.18514,-0.863107,-3.28859,-2.2583,0.0818052,-0.788073,-1.95712,-1.24751,0.0132282,-0.855605,1.09801,-1.65453,-1.24312,-1.3005,-0.756835,-1.05787,-166.408,-731.512,-666.12,-7420,-2800,-7140
3.76147,2.37541,0.678188,0.128321,1.26882,-0.157422,0.324809,2.30372,0.940225,3.50754,2.63926,-0.0935586,0.371998,-0.11374,0.594716,-1.19728,-166.896,-732,-663.68,-7000,-3640,-7980
2.48542,-1.12049,0.68132,-2.3771,-2.15504,1.10851,-1.23849,1.19087,1.28263,3.73912,3.72578,0.310675,1.78142,0.0777777,-2.39408,-3.45546,-163.968,-730.048,-664.656,-6580,-4060,-8820
0.712222,-1.9727,1.04983,-2.53736,-0.998994,2.50587,1.98915,3.78124,-0.893139,0.496537,2.23626,0.371872,2.81127,-0.26338,-1.41018,-0.579515,-163.48,-728.584,-664.656,-6860,-4340,-9240
-5.116,-7.15101,-1.67414,-3.49997,-0.228653,1.2543,3.86771,4.07343,-6.95505,-5.31944,-1.32121,-2.08971,0.827871,-0.408675,0.977092,-0.0215458,-161.04,-732,-665.144,-7280,-4480,-10080
-7.43264,-3.65953,-2.10411,1.11079,4.71779,0.884719,8.41734,5.29623,-6.29098,-5.20613,-2.67537,-0.459469,-1.02559,0.210639,6.74959,4.51025,-162.016,-732.488,-667.584,-7280,-4480,-10360
-6.79902,-0.617,-1.74472,2.7575,6.15438,-1.13669,7.50127,2.80049,-5.58022,-3.42881,-3.07943,-0.0514646,-3.4355,-0.64905,4.99878,4.14855,-159.088,-732.488,-667.584,-7140,-4200,-10780
-5.05535,-0.924097,-5.68779,0.258771,-2.70899,-3.2684,0.810444,-5.04861,-2.69721,-3.24084,-0.175424,-0.450086,-3.57378,-3.0429,-2.71104,-2.502,-158.112,-729.56,-665.144,-7420,-3920,-11340
-2.34533,-1.34073,-5.93746,0.177068,-6.46262,-3.07117,-3.80292,-5.54209,-0.12782,-2.91966,1.81386,0.489769,0.00264688,-2.7673,-5.99798,-4.74174,-162.992,-729.56,-668.072,-7420,-4340,-11200
1.71878,1.74749,0.164672,1.07328,-3.4467,-1.32107,-6.52361,-0.540678,2.97377,0.691506,2.06708,3.4,3.06348,-0.139825,-8.24002,-3.53964,-161.528,-734.928,-665.632,-6860,-5600,-10640
2.29448,4.04833,4.02183,3.28701,0.350965,0.53485,-3.87887,1.48421,2.57401,-0.521992,1.31145,3.40858,2.26732,0.734404,-5.114,-0.723613,-161.528,-731.512,-666.608,-6160,-5460,-10360
3.11491,3.91263,9.02161,6.01234,4.49725,0.800347,-0.491395,0.775338,3.87832,0.360866,-1.0009,2.97078,0.921242,2.55864,1.58181,1.23981,-160.064,-728.096,-668.072,-6020,-4900,-9800
1.74715,-1.78493,6.6617,4.31262,0.954847,0.485436,-2.28378,-2.73711,2.26308,-1.9528,-3.05251,0.236373,-1.05913,1.92012,2.0183,-1.75564,-159.576,-729.072,-668.072,-5320,-4760,-9380
1.41876,1.31458,6.79209,3.67647,5.10651,0.351074,-1.61362,-0.498191,-3.05585,-1.0746,-3.12976,-0.702165,-0.611826,1.1453,1.11436,-2.45511,-158.6,-729.072,-664.168,-5740,-4480,-8960
5.06149,2.37837,4.9284,-0.758694,4.23016,-0.40027,-3.20907,-1.65204,-0.512926,2.59956,-0.953896,-2.39686,0.891997,0.0701592,-0.712843,-4.35412,-160.552,-730.536,-663.68,-5460,-4060,-8680
2.31702,-1.71457,-1.90307,-7.65596,0.463751,-1.06309,-5.6338,-3.33076,0.646236,3.40692,0.395008,-5.71553,-0.587865,-4.10407,-3.47262,-3.19315,-160.552,-729.072,-663.68,-5600,-3920,-8260
0.654711,2.44134,-3.8133,-4.3948,2.76584,1.8828,-1.76151,-1.91812,1.02333,5.1635,1.83342,-3.84752,1.00273,-0.285077,2.20597,1.86435,-158.112,-729.072,-668.072,-5040,-3780,-7420
1.87564,6.81081,-5.59137,-1.11283,-0.0635759,3.10006,1.54941,-1.97986,4.36275,2.83619,2.77573,0.0595574,1.2067,2.07184,7.09163,2.72608,-158.6,-728.096,-663.68,-4760,-3920,-6720
1.71084,5.18735,-7.6725,-1.95966,-2.58454,0.79077,2.16499,-0.570214,3.80772,0.84507,1.8531,1.11649,-1.06972,0.447657,3.62166,2.72248,-158.112,-725.168,-666.608,-5040,-3220,-6440
-3.11063,-2.51993,-8.52184,-6.5896,-6.90603,-1.90185,-1.72393,0.0164898,-1.73468,-2.5053,-0.557214,-3.21694,-4.24152,-3.42729,-1.87566,0.312243,-160.552,-725.656,-668.56,-5460,-3080,-6020
-3.55136,-2.5133,-5.11267,-5.40695,-6.4908,-2.07592,-1.39308,0.552119,-0.442815,-1.8388,-0.312119,-2.94425,-2.71154,-2.35852,-1.49276,-0.272656,-159.088,-724.192,-667.096,-5460,-3220,-5600
0.356663,3.55851,3.84659,5.20946,3.78577,2.17411,6.61664,5.69894,4.1142,5.559,2.43129,3.88711,2.09898,3.83918,6.42496,5.62839,-158.112,-724.68,-668.072,-6020,-2660,-5180
-4.17239,-6.02469,0.0611478,2.38283,-0.208549,2.69694,5.21908,0.830505,-2.32866,-1.12841,0.13704,2.16612,2.358,3.7859,2.0539,3.58489,-159.576,-725.656,-664.656,-5740,-2800,-4900
-4.60458,-2.63561,3.58067,4.64377,2.33074,1.8272,6.17949,2.25601,-3.70642,-1.32407,-1.873,4.81857,3.73752,4.93974,1.40279,6.17924,-161.04,-726.632,-666.608,-5880,-3220,-4340
-3.76929,-2.92525,3.1504,2.63885,-3.4547,-1.23652,0.152622,-0.0182986,-3.27818,0.623597,-2.46711,1.37047,1.64511,2.57879,-3.42149,1.39491,-162.016,-728.096,-666.608,-5600,-3360,-4060
-0.746893,-0.326041,0.694059,1.79169,-4.10422,-3.49992,-3.37079,1.07587,-3.41648,3.40672,-1.17517,-0.524739,0.0628422,-1.8827,-6.05463,-1.61026,-165.432,-725.656,-670.024,-5180,-3360,-3780
-3.56523,-3.66982,-2.82195,-1.72038,-3.10705,-3.35991,-3.89649,1.48442,-5.63167,-0.711124,-1.01547,-4.58874,-0.656235,-3.26411,-4.81583,-3.64399,-161.04,-723.704,-664.168,-5320,-3500,-3360
1.41933,-1.03927,-0.742999,0.713118,0.226564,-1.17827,0.0680731,-0.216955,2.72567,-0.142205,0.484677,-1.60781,0.609577,0.58194,0.507197,-3.21018,-163.968,-724.68,-667.584,-4900,-3360,-3500
8.45374,6.31537,4.13558,4.17511,3.27351,0.160421,2.94819,0.266556,10.912,3.8246,2.71752,5.40688,0.83648,0.619385,3.94363,-0.972709,-164.944,-727.608,-667.096,-4760,-3360,-3360
8.91804,2.91507,6.32554,0.131392,-0.551191,0.418834,1.30702,-0.978591,8.69587,3.92126,1.8579,4.25709,2.00306,-1.6308,0.333521,-2.21914,-166.408,-727.608,-669.536,-4620,-3360,-3220
4.39263,0.0950983,2.87352,-2.61617,-3.24466,1.50103,-0.434112,-0.372208,1.97905,0.996833,0.017938,1.29224,1.13045,-3.38517,-1.46502,-3.50901,-169.336,-728.096,-668.072,-3920,-3360,-3360
-2.66499,-0.34837,2.22838,-3.03312,0.0873617,1.34518,-0.387729,0.326461,-5.90788,-1.75227,-2.75933,-1.67442,-1.28469,-3.46117,0.577009,-3.88796,-166.896,-728.584,-670.024,-3500,-3360,-3360
-4.95021,-0.169411,0.433947,-4.79418,-0.220413,0.262013,-0.777409,-2.22272,-6.43872,-5.40266,-1.65537,-1.84389,-3.248,-3.24349,0.673759,-5.19738,-169.824,-726.144,-666.608,-2800,-3500,-3500
-1.37017,3.08005,3.07125,-4.27785,2.51044,-0.413076,1.49291,-2.09806,-3.48457,-2.85776,-0.744161,-0.0788371,-4.03793,-0.999464,-0.195807,-1.38575,-168.36,-723.704,-667.584,-2100,-3780,-3500
-1.04598,0.207886,2.36433,-2.82568,-0.19065,-1.21344,2.57163,-3.10869,-2.37588,-4.7045,-0.853345,-3.71752,-4.46178,0.567112,-0.320821,0.896736,-169.336,-725.656,-668.072,-2100,-4060,-3640
3.09314,0.575612,0.728162,1.58225,1.31536,0.420601,1.80273,-1.36809,1.78585,-2.51453,0.752445,-2.45646,-1.30427,3.53367,1.27201,3.71231,-168.36,-725.168,-670.024,-1680,-3780,-4060
4.8646,5.01896,4.13956,6.72597,7.75242,3.09591,2.23747,3.25405,2.67948,2.2986,1.34996,1.67755,2.17004,5.27079,3.10709,7.50437,-169.336,-728.096,-670.024,-1120,-4060,-4480
-6.97262,-7.75647,-5.72348,1.88662,1.31102,1.22525,-0.448147,0.379468,-8.46342,-5.67976,-1.92851,-5.41277,-3.39846,2.41127,0.429927,3.42931,-168.36,-729.072,-667.096,-560,-4480,-4620
-6.50969,-6.26002,-5.63662,2.57828,4.69522,-0.36353,1.24645,3.33529,-5.36485,-3.1717,-1.67375,-2.8274,-3.62859,0.717877,2.08342,4.20164,-168.848,-721.264,-666.12,140,-4480,-5040
-2.08352,-5.17496,-6.91544,-0.555675,1.23229,-1.20585,-5.32481,0.849631,0.149184,-0.643693,1.33571,-1.13617,0.132194,-1.76819,-3.28676,0.081588,-167.872,-724.68,-672.952,420,-4480,-5180
-0.53757,-4.41633,-5.69292,0.776304,-0.845927,-0.154659,-5.98845,1.19867,1.14161,1.10149,1.35217,-0.494149,2.9609,-0.815974,-3.10577,1.03563,-170.312,-722.728,-667.584,700,-4480,-5320
-0.138582,-2.74675,-3.10512,0.32468,-2.49121,-0.205698,-6.41605,1.46103,2.61286,-0.332144,-0.0984081,-0.13175,3.99977,-0.783207,-3.66714,-0.138661,-169.336,-726.632,-667.096,1400,-4480,-5880
1.93296,1.16775,-1.61114,1.32111,-0.484748,0.546858,-4.07261,0.390988,5.34527,0.90219,1.04756,3.65946,6.20726,0.106405,-2.52798,-0.849607,-167.384,-722.728,-667.096,1820,-4620,-5880
1.26929,0.839989,-0.48004,-2.06404,-3.20415,-0.409815,-4.01015,-4.3937,3.13658,-0.830399,1.8715,3.81811,4.53136,-0.784325,-3.7636,-3.4628,-165.432,-720.776,-668.072,1960,-4340,-6020
0.563352,-0.436775,1.38336,-6.66032,-3.39498,-1.25796,-3.74409,-5.12775,0.0412036,-0.870243,1.13553,2.82531,1.62343,-1.83307,-7.4393,-5.10425,-166.408,-720.776,-664.656,2240,-4200,-6020
1.39949,-0.645329,-1.65639,-4.93229,-2.30987,-0.986157,-1.14532,-2.53579,0.434576,-1.33983,-0.309481,1.84533,-1.03516,-2.03782,-4.52679,-5.21096,-163.48,-723.216,-668.072,2240,-3920,-6020
2.95469,2.42594,0.532585,-0.305795,1.92705,-0.876454,1.85589,2.36534,-0.496314,2.36629,-2.353,1.52909,-2.00571,-1.18773,1.33073,-1.64612,-162.992,-723.216,-662.704,2240,-3920,-6160
-1.51695,-2.37512,-2.57914,-0.971533,-5.42228,-1.53038,2.91865,1.28807,-3.17901,0.583425,-2.70914,-2.90537,-3.57601,-0.931624,3.27605,-1.20825,-164.456,-723.216,-664.656,1960,-3640,-6020
4.17273,5.53121,3.70513,5.32513,-0.93235,-0.415867,8.82729,5.78591,3.23599,7.9933,-0.0035093,1.53532,-2.16723,1.66053,8.06374,4.30107,-160.552,-725.656,-664.168,2100,-3500,-5880
7.59676,5.56671,4.1544,6.60156,1.00597,1.25054,9.86917,3.20987,6.31492,8.28604,1.65036,3.40022,-1.12542,3.89267,9.68593,4.34341,-162.016,-727.12,-666.608,1960,-3500,-5600
5.77842,6.58618,3.64723,9.12289,4.94447,1.52275,8.91059,0.37334,6.50884,3.70291,2.41548,3.72626,-1.03935,3.95153,11.6066,4.88971,-161.528,-727.12,-665.632,2100,-3360,-5600
2.85342,6.10854,2.81016,7.81397,6.01452,1.16607,4.89107,0.83829,3.79169,1.021,1.03984,1.87895,0.034197,1.35332,6.53741,3.38359,-159.088,-728.096,-660.752,2100,-2940,-5180
0.351521,3.23923,0.277445,1.76171,2.77277,0.347716,-0.389722,-1.42534,1.85662,-0.651522,0.37655,-1.81242,0.755855,-1.88082,0.149377,-2.14258,-158.112,-726.144,-666.608,2380,-3080,-5040
-0.234092,7.19563,2.15967,0.895302,6.26956,0.570124,0.30089,-0.0339983,1.62602,1.15034,1.22484,0.812403,2.62669,-0.51435,1.0012,-0.487458,-159.576,-728.096,-663.192,2380,-3080,-4760
-5.62365,1.13917,-2.90659,-4.06579,0.845924,-0.637356,-2.48351,-2.80213,-5.18584,-3.05698,-0.40436,-1.64295,1.93078,-0.437974,-0.159688,-1.41642,-160.552,-730.048,-664.168,2520,-3220,-4480
-3.57746,0.989677,-1.66633,-4.59342,-0.732095,-1.18102,-2.8095,-2.49569,-3.44112,-1.30094,0.179959,-0.427208,1.064,-0.798452,-1.29317,-1.63195,-160.064,-728.584,-666.608,2800,-3220,-4060
-3.66079,0.349105,2.4614,-0.994377,0.0484365,-0.7892,-0.534181,-0.567216,-3.38729,-0.131305,-0.779698,0.295021,0.153395,1.97539,0.972385,0.127307,-161.528,-728.096,-663.192,2660,-2940,-3780
-9.63889,-7.24513,-0.501473,-5.44708,-7.28016,-0.94702,-3.03251,-1.50567,-7.84872,-6.66018,-1.41892,-4.81759,-1.93774,-1.33654,-2.49154,-2.91817,-161.528,-727.12,-665.144,2800,-2940,-3780
-10.5445,-11.0402,-1.19702,-10.2233,-9.80683,-0.903228,-7.04008,-1.44441,-10.1319,-6.61619,-1.56197,-8.26039,-3.31055,-3.94614,-8.69868,-2.97643,-157.624,-729.56,-663.68,2660,-2940,-3500
-6.18357,-8.11772,0.411569,-9.29156,-7.74527,-0.693367,-7.91117,-4.12969,-5.6763,-1.42503,-0.79902,-5.59956,-2.77999,-3.46229,-9.63354,-1.56097,-160.552,-730.048,-659.776,2520,-2660,-3220
-3.3266,-5.1017,1.28242,-5.40879,-4.23711,0.505663,-4.62867,-2.76873,-2.19507,-0.373368,-0.986209,-1.10716,-1.39403,-2.33442,-8.10884,-0.749548,-157.624,-730.536,-664.168,2660,-2660,-3080
-1.92989,-5.99636,1.37095,-4.90198,-2.89052,0.54206,-3.45351,0.435121,-1.81182,-0.0132377,-0.846201,-0.17542,-0.0526158,-0.0817864,-8.23886,-0.30906,-158.6,-733.464,-660.264,2800,-3080,-2940
1.58058,-5.94325,-0.565564,-5.99708,-7.05471,-0.432557,-6.22469,-2.34466,2.61135,-0.242037,1.02969,-0.675736,1.07227,-0.576464,-10.5425,-4.26593,-157.136,-731.512,-663.68,2660,-2800,-2800
8.83752,8.25679,7.19777,7.86852,5.0732,1.85219,1.4722,0.852604,10.8515,5.18882,1.82376,6.37722,4.04411,1.67896,1.29956,2.65269,-158.112,-731.512,-662.704,2940,-2800,-2660
8.87525,7.27654,2.98504,10.0398,5.66761,2.57943,3.67312,-0.51324,10.2955,2.49019,2.00609,6.67505,2.96367,1.75785,5.4894,2.8878,-155.672,-730.048,-663.68,2940,-2800,-2380
8.29206,6.5249,0.938773,11.1218,7.95653,3.31771,6.53579,3.88532,6.52677,0.660292,2.40752,6.15878,3.07813,3.42537,7.76139,4.99679,-157.624,-734.928,-662.216,3080,-2660,-2100
7.15624,4.62129,-0.709902,10.9241,8.44275,2.83376,6.49021,6.11647,4.03203,1.00608,0.433474,3.67532,2.12739,4.99099,9.58122,4.97546,-157.136,-732.976,-661.24,3080,-2660,-1960
2.23842,-0.762093,-4.57057,6.795,6.7319,2.09458,4.61966,4.74568,0.288037,-1.66842,-1.70166,0.93219,0.28484,3.07208,7.68359,3.47025,-157.624,-729.072,-659.776,2940,-2520,-1820
-2.95293,-8.71171,-5.96322,-3.19354,0.581499,0.121801,-1.02165,2.04623,-6.1038,-2.33411,-1.08334,-3.78021,-1.06257,-1.90781,-0.944525,0.299914,-159.088,-731.512,-663.192,3080,-2520,-1540
-6.37114,-10.0909,-6.44924,-5.12356,-3.60753,-2.13174,-0.682493,2.13483,-12.9478,-3.50922,-3.01312,-7.23888,-2.74484,-3.66592,-1.71847,0.142362,-157.136,-730.048,-657.336,3080,-2240,-1260
-3.1297,-2.84368,-3.65225,0.00492811,-1.2997,-1.49757,3.24606,2.84908,-7.67918,-1.97747,-3.05409,-3.71397,-2.38959,-0.856268,2.15029,0.324905,-160.552,-732.488,-658.8,3640,-2380,-1120
4.5606,4.93504,1.39041,-0.838343,0.460228,-1.61435,0.0131936,1.55364,3.57512,5.43813,1.55916,0.887099,-1.29247,0.863945,-2.09765,-1.84299,-158.6,-731.512,-661.24,3640,-2520,-840
2.68642,0.220181,-2.64925,-5.2618,-3.94956,-2.73182,-4.54121,-2.04353,5.29814,1.65152,1.89352,-3.00704,-2.68218,0.142755,-4.42837,-5.11522,-159.088,-732.976,-658.8,3780,-2240,-700
3.07536,5.68068,3.02062,3.33699,4.99444,-0.29995,4.51829,2.43853,6.29436,5.39155,0.975504,-1.00954,-1.46313,3.01988,4.93568,2.66341,-161.528,-735.416,-661.24,3780,-2100,-700
-0.525646,3.56526,1.10943,1.40024,3.38449,-2.09367,4.48854,-1.81853,1.76243,2.05753,-0.320624,-2.03456,-2.95708,2.09918,4.13624,2.50372,-161.528,-734.44,-656.848,4060,-2240,-420
-3.67218,0.440265,-2.0282,-5.81183,0.47154,-3.77443,-1.6524,-2.06645,-2.13327,-0.556238,-2.14653,-1.865,-2.91408,-1.48564,-1.19612,-2.20672,-161.528,-733.464,-656.848,4060,-1820,-420
-0.874796,7.12399,1.35344,-2.15623,2.16865,-1.73945,0.318393,-1.29554,-1.76606,1.48261,-1.51308,3.55082,1.51613,0.491715,3.78158,-0.412993,-161.04,-733.952,-655.384,3780,-1680,-280
-3.01412,3.69725,-1.62896,-2.52259,-1.18367,-1.78144,-1.87393,-3.87321,-3.52978,-1.0076,-1.67896,1.37539,1.9291,-1.06173,2.95895,-2.59206,-161.528,-733.464,-655.384,3500,-1820,-280
-1.11815,0.852615,-1.22279,-3.60463,-1.8242,-1.18902,-4.41235,-3.87784,-0.514294,0.0108398,0.280333,1.00679,2.40471,-3.84973,-2.71995,-3.28339,-161.528,-734.44,-657.824,3220,-1400,-280
-0.113211,-1.37521,-1.89275,-3.93156,-5.79432,-0.501247,-6.39315,-5.03333,2.46046,-1.98719,2.04134,1.25997,1.27075,-4.59354,-5.1984,-4.6796,-161.04,-733.952,-659.288,2940,-1400,-420
1.80475,2.32836,0.352694,2.30316,-4.99159,1.98816,0.354421,0.821891,3.41002,-1.9332,2.86361,4.27642,1.10504,-1.72184,-0.637933,-1.78717,-162.504,-732.976,-658.312,2660,-1540,-560
3.15332,4.1755,3.27819,4.93247,-2.13784,3.57169,4.33563,2.02409,1.67705,-1.68333,1.7588,6.7241,1.29849,1.22125,0.771163,-0.766397,-162.016,-733.464,-659.288,2940,-1400,-560
-2.68084,-2.25845,1.0922,0.548444,-3.77301,3.84075,2.14368,1.15711,-2.1506,-4.04155,-0.388381,1.81139,1.3361,-0.0364031,-3.13269,-2.82858,-164.944,-730.536,-659.288,3080,-1540,-700
-5.32686,-3.81757,5.34159,0.725337,-2.3213,4.0247,4.30921,2.61992,-3.14741,-1.86026,-0.87976,-0.681386,1.81182,0.400576,-1.74166,0.0506267,-161.528,-732,-659.776,2940,-1540,-840
-7.27365,-9.67079,2.5532,-0.742952,-3.71283,1.84345,3.12479,-0.920908,-7.48068,-5.56828,-2.66807,-5.73165,-1.67359,-0.64307,-0.262778,0.355326,-163.48,-734.44,-657.824,2940,-1960,-980
-1.99431,-8.9019,0.646596,0.341479,0.934049,0.255733,-0.65025,-1.54467,-2.62904,-3.45169,-2.13001,-3.38127,-0.945021,0.141624,-0.0437875,2.4925,-162.016,-733.464,-656.848,2800,-1960,-1260
1.69615,-3.11004,2.01278,5.86785,6.42538,0.67655,0.988397,0.987576,4.0328,0.987082,-0.0447115,2.10437,1.21798,1.60993,4.75402,8.00428,-162.504,-732.976,-656.848,2660,-1820,-1260
2.84435,-3.46611,0.0716428,4.49904,1.99844,1.00727,1.09598,-0.263108,5.30242,1.06065,1.5809,2.17732,0.699137,1.89518,3.00617,6.4382,-159.576,-732.976,-660.264,2240,-1960,-1540
7.36043,6.38669,5.6117,5.73656,8.19941,1.64402,1.54528,2.78095,8.40779,6.13954,3.97882,5.21237,2.37586,3.06891,1.06942,7.28372,-161.04,-736.392,-659.288,2240,-1960,-1540
5.97197,2.43853,0.27571,-2.52604,-0.209795,-1.59663,-5.58825,-2.82243,5.25486,2.25642,4.58836,-0.749868,1.10636,-0.424925,-7.08528,-1.06973,-162.992,-734.44,-663.68,2380,-1680,-1820
7.63528,7.38958,0.913846,-1.88632,1.81568,-2.47427,-5.62775,0.0382279,8.46717,4.33342,4.27649,1.75808,2.46546,-0.230117,-6.78116,-1.88429,-159.576,-735.904,-662.704,2660,-1540,-1820
4.23782,6.22089,0.694154,2.49898,3.32281,-2.92705,-1.95816,-1.31302,3.86048,4.05963,1.68398,2.04204,2.13375,1.19132,0.366831,-0.586074,-161.04,-735.904,-661.728,2940,-1680,-1960
-2.87406,-2.52896,-2.99726,0.216808,-0.373269,-4.65275,-4.22214,-3.36668,-4.33322,-0.0183826,-0.588144,-2.71719,-0.641485,-0.736534,-0.54611,-3.09355,-158.112,-733.464,-658.8,3220,-1680,-1960
-6.60694,-4.5997,-5.25587,-2.83376,-3.3754,-5.13307,-4.45355,-2.0764,-6.78676,-0.761207,-1.97865,-6.56352,-2.91611,-2.3399,-2.11173,-3.73851,-162.992,-732.488,-661.728,3780,-1540,-1960
-2.70174,-1.26529,-3.6422,-3.40973,-3.69681,-3.21909,-1.67822,-2.78188,-4.28621,0.834609,-1.31335,-4.91661,-3.74314,-1.53012,-2.28497,-3.23262,-159.576,-733.952,-662.216,4060,-1680,-1680
-2.84596,1.4378,-1.93194,-3.16025,-1.84943,-0.293306,0.849343,-1.0435,-6.31178,-0.79024,-2.2453,-3.55197,-2.74512,1.62804,-0.323768,-0.224873,-162.992,-734.44,-659.776,4060,-1540,-1400
-5.06938,-0.0820721,1.11528,-4.36856,-2.29532,-0.826588,1.25921,2.44324,-9.41654,-1.21881,-4.1462,-2.87325,-3.57537,1.64163,2.90809,0.899017,-160.064,-735.416,-661.728,4620,-1820,-1260
-4.32238,-3.66508,-0.965826,-6.35842,-6.44685,0.524304,-1.85549,2.00805,-5.83407,-2.0338,-1.58898,-1.82237,-4.10596,-1.3575,1.87717,-3.21951,-161.04,-736.392,-660.264,4620,-1960,-1260
0.00709123,4.18027,2.90437,0.330827,1.56719,4.59651,2.12124,5.16973,-1.409,2.52796,-0.43633,3.72093,-1.21013,-0.382289,5.84142,0.0639252,-161.04,-732.488,-660.752,4620,-1680,-980
-4.38788,-1.76362,-2.0489,-2.30542,-1.19761,4.44361,1.22922,2.46225,-7.12889,-5.08413,-2.50928,-1.24864,-1.39477,-0.527661,0.578721,-3.18186,-162.504,-732,-659.776,5040,-1820,-700
-7.06461,-5.23976,-3.9342,-2.99544,-1.79337,3.48041,1.82286,2.91577,-9.70942,-7.14258,-4.08023,-3.77768,-1.71256,-0.871855,-1.83174,-3.86343,-160.064,-733.952,-661.728,4480,-1820,-700
-1.52462,-2.70313,-2.01784,0.206238,3.25945,3.14063,3.28248,3.90793,-1.83501,0.00885861,-2.21358,-0.590234,-0.445509,-0.411781,1.848,-0.610259,-160.552,-734.928,-662.216,4620,-1680,-280
3.39589,0.247126,-2.85912,2.15614,3.68653,4.13668,3.3404,2.51227,6.21112,2.7658,0.0318334,1.87308,1.94335,0.53921,4.61864,2.11857,-163.968,-735.904,-659.288,4620,-1820,-140
5.83415,5.44879,-0.326481,2.90252,5.99766,2.98793,2.10672,1.32134,9.27861,4.16162,0.599976,2.79895,2.76254,1.41523,4.12381,4.87362,-163.48,-734.928,-664.168,5180,-1820,140
5.705,4.12409,-0.598037,1.83536,3.79375,0.272399,2.30119,-1.66165,10.4314,2.59278,0.818272,0.534588,3.06587,3.05357,3.98893,3.51178,-162.992,-733.464,-664.168,5320,-1960,140
7.10999,9.36598,1.92411,7.11442,5.17969,-0.364234,5.27062,0.53967,13.8506,2.82426,1.50653,4.85199,5.63575,4.52277,7.02934,4.51342,-164.944,-732,-664.656,5600,-2100,420
7.57676,10.483,4.67348,7.0776,3.2002,-2.59483,1.86131,0.38572,13.9047,5.5089,2.98283,6.8322,5.57911,2.20514,2.57991,2.16928,-163.48,-731.512,-662.216,5460,-2100,700
5.69921,3.67439,2.68407,3.47288,-1.68729,-3.20783,-2.71306,-1.2481,10.7466,1.69236,3.37675,6.37033,1.92779,-1.45304,-2.41005,-2.13343,-167.872,-731.512,-664.168,5600,-1540,700
5.87684,-0.557206,3.91264,-0.755045,-2.45674,-2.51997,-3.79675,-0.893102,5.39237,1.68436,3.12209,3.60358,0.0536625,-2.72196,-6.50372,-2.60846,-162.992,-732.488,-663.192,5320,-1680,560
2.02967,-5.50628,2.97804,-4.15823,-5.04351,-2.45778,-2.12917,-2.05086,-1.15559,-1.0945,1.91906,-0.884293,-2.3387,-3.37182,-6.88405,-2.05687,-166.896,-732.976,-664.168,5320,-1400,560
-3.46926,-7.11934,-0.565596,-0.647107,-3.00178,-1.22396,1.17076,-3.33959,-6.68131,-5.31494,-0.66803,-2.61414,-4.35538,-1.97248,-2.46723,0.366004,-166.896,-732.488,-665.632,5880,-1680,700
-7.81714,-7.25681,-1.6434,2.57737,-0.323764,-0.272989,3.37643,-2.14686,-11.325,-7.08351,-2.17171,-3.57138,-3.94952,-1.28162,0.0944915,2.15556,-165.432,-731.024,-666.12,6020,-1820,560
-8.43539,-8.93968,-3.26629,-0.285365,-2.75827,0.7626,0.288048,-3.79834,-11.401,-7.10906,-0.427697,-5.44286,-1.0278,-1.91768,-5.59228,-0.403082,-164.456,-732.488,-666.12,5740,-1540,420
-4.67603,-1.98722,2.40026,-0.509709,1.91868,1.90991,-0.45604,-1.4374,-7.37161,-0.445198,-0.247978,-1.57086,2.95763,-2.38802,-10.06,1.93066,-162.992,-733.952,-662.704,5460,-1540,280
-9.20763,-10.435,-3.31211,-9.04913,-6.12605,-1.42631,-7.07388,-5.14765,-13.3945,-5.33145,-3.20118,-6.23776,0.471567,-3.12976,-14.6902,-2.50105,-166.896,-731.512,-662.216,5740,-1680,280
-8.72381,-12.2944,-6.12921,-11.6167,-7.69847,-3.60891,-7.61479,-1.78974,-14.2887,-6.03366,-4.30048,-8.66428,-0.762379,-3.38674,-10.6193,-1.37475,-163.48,-731.512,-666.12,5880,-2240,280
-4.34055,-6.87636,-6.08989,-8.69234,-5.23155,-4.45224,-5.36233,0.148619,-7.11698,-3.3391,-3.66801,-6.29836,-1.6647,-2.7797,-3.31102,-0.312916,-162.992,-728.096,-667.096,6300,-2240,140
3.49905,5.13389,-2.63567,0.269571,-0.544667,-2.03904,-2.29288,1.37022,5.9405,1.13378,0.0777139,2.18189,-0.494325,0.577616,3.80703,0.0677263,-162.992,-728.096,-663.68,6440,-2240,0
5.65554,8.62018,-0.169242,3.1897,-0.2625,0.563456,-1.13232,2.18958,8.19138,2.52327,3.40361,5.79472,-0.210396,3.38387,7.04204,-0.61278,-162.504,-730.536,-664.168,6300,-2380,-280
5.64591,10.3352,5.41156,8.01922,4.78966,2.93407,5.8812,4.70598,8.53312,7.92662,5.71527,7.80527,2.33418,7.57683,14.1728,3.34514,-162.992,-733.464,-664.168,6300,-2380,-140
8.63117,11.1498,8.88866,10.6863,7.20313,2.87589,6.58881,3.12829,12.8447,11.6214,6.43745,9.44708,3.76134,6.06007,14.9912,1.70655,-166.408,-733.464,-665.144,6300,-2240,-280
8.5301,8.51386,8.52416,8.71187,6.70711,0.777948,2.88687,-0.330247,8.9966,11.449,5.44061,7.44426,1.33598,4.0957,11.5413,-1.14169,-164.944,-735.416,-664.656,6300,-2660,-560
1.51861,0.0906169,-0.492536,2.61318,1.74887,-0.284364,0.128189,-3.63054,0.0983226,2.80858,2.03141,-0.232092,-2.10503,1.53765,7.89835,-2.4702,-166.408,-730.536,-664.168,6300,-2520,-560
1.22972,6.0935,-0.735957,6.05009,7.51869,1.68318,3.89573,0.242485,1.17516,3.04954,0.604695,1.0524,-1.13349,2.20042,8.93536,-0.800883,-164.944,-732,-666.608,6440,-2520,-560
0.229569,6.46985,-3.85332,4.26627,5.81496,1.37842,2.41007,0.84235,3.79628,2.35459,0.0460705,1.30317,-0.687552,0.456624,3.27497,-3.3894,-164.944,-733.464,-658.312,6300,-2660,-840
-2.42078,2.29811,-4.41257,-1.80797,3.64813,0.80114,0.356086,3.82839,-1.18443,1.77227,-1.18836,-1.45966,0.414707,-1.00844,-2.64529,-3.06165,-165.432,-733.464,-663.192,6300,-2660,-700
-4.75045,-3.77924,-1.46422,-6.11942,-1.23702,0.736844,-1.30422,3.3196,-6.04785,-3.48914,-3.26948,-4.03214,0.244472,-0.466055,-5.70411,-2.449,-165.92,-732.488,-663.68,6300,-2660,-840
-1.16072,-4.61987,2.25593,-7.38503,-4.39221,0.569904,-2.35498,0.723178,-2.80145,-5.57572,-4.0964,-3.33341,0.577915,-0.91117,-6.60525,-0.375994,-163.48,-732,-660.752,6160,-2660,-980
2.82632,2.80193,6.78026,-1.43837,1.14388,3.17268,2.58812,5.18446,2.14945,-1.99713,-4.65001,1.535,2.55917,0.262856,-1.40525,7.68716,-163.968,-732,-660.264,5880,-2520,-840
-4.80912,-3.14593,-0.0197365,-3.99273,-3.81788,1.12589,1.59874,1.61052,-4.55358,-8.50347,-7.94836,-4.22534,-1.71275,-2.5779,-3.3284,6.11,-164.944,-733.464,-660.264,5600,-2660,-1120
-2.82088,0.646988,3.96408,3.36022,1.50504,1.91398,6.15676,1.87649,-1.04681,-5.62924,-5.06267,-0.957842,-2.36651,-1.23414,3.00431,6.15763,-167.384,-733.952,-662.216,5740,-2520,-1260
0.0836879,-2.77995,3.46098,0.979361,0.98381,0.0674591,2.18457,-2.8121,1.13252,-1.38412,-0.714649,-1.58323,-1.9204,-2.47054,0.705401,0.326568,-164.944,-735.416,-657.336,5320,-2520,-1260
2.73528,-5.18544,0.243616,-2.00971,-1.77416,-1.60145,-1.50856,-6.29899,2.74628,-0.590741,4.06314,-1.98596,-0.403621,-4.02174,-2.11673,-2.27082,-164.456,-734.44,-657.824,5180,-2520,-1260
8.17708,0.198533,3.15019,0.657231,-1.40163,-0.357643,-1.62261,-4.62149,7.96126,2.52564,5.63723,2.77456,1.0157,-2.63288,-4.71162,0.362438,-164.944,-732.488,-657.336,5040,-2520,-1400
4.02509,-1.57386,-1.66297,-1.08061,-6.18667,-1.61305,-3.76568,-5.23361,2.56794,-1.33015,2.90905,0.606117,-1.52435,-3.60613,-9.3033,-1.28653,-164.944,-733.952,-658.8,4620,-2660,-1400
-0.519936,-5.21991,-3.71826,-1.31971,-7.16282,-1.75941,-4.46383,-2.60116,-2.12673,-2.04148,1.98619,-0.525916,-1.88334,-1.22223,-7.85597,-1.92041,-167.384,-734.928,-658.312,4620,-2380,-1540
-4.12472,-8.56771,-1.83632,-2.32277,-5.28195,-2.42424,-3.63388,1.20005,-5.41073,-1.09217,1.05494,-1.51153,-0.4966,1.27864,-6.24707,-2.30101,-167.872,-734.928,-658.312,4340,-2520,-1400
-5.22531,-5.26168,-1.04455,-0.0802243,-2.19575,0.147885,-0.61702,4.49281,-2.47205,-0.326295,-0.619538,-0.9253,0.863126,2.8219,-1.48235,-0.191799,-166.408,-735.904,-655.384,4340,-2520,-1260
-4.20015,0.615946,0.299838,-0.813765,0.821191,1.12527,-0.093507,6.8973,-0.982212,4.57569,0.187652,-0.469564,2.53258,2.70317,-0.500464,1.40871,-166.408,-734.44,-657.824,4060,-2240,-1400
-4.72525,-4.91707,-6.30153,-8.41201,-6.22691,-2.33844,-6.60332,-0.833038,-3.84127,1.24508,-0.27103,-5.57177,-1.11084,0.784421,-5.35961,-5.0375,-164.944,-733.464,-657.336,3920,-2380,-1400
-2.58105,0.665147,-4.15185,-5.39414,-1.70196,-2.97051,-3.6449,-1.33055,-3.57677,3.03447,-1.87964,-5.48055,-1.16484,-0.502969,-2.45405,-4.00021,-166.896,-733.952,-654.896,3920,-2380,-1400
-3.11398,-0.0565754,-3.05316,-3.91196,-2.03495,-2.75984,-3.1724,-3.96567,-6.55524,0.0924785,-1.14618,-6.41948,-0.600108,-1.05637,-2.09736,-5.84812,-165.92,-733.952,-658.8,3920,-2380,-1260
-1.17503,3.0897,-1.49938,0.539767,2.39365,-0.652792,0.0682512,-2.24172,-4.62655,-0.735901,-0.141051,-2.92014,1.07786,0.300599,3.49207,-2.35204,-165.432,-733.464,-659.288,3920,-2520,-1120
-1.16716,4.93971,-1.67706,2.89705,4.12533,-0.505296,1.37408,0.56199,-2.65181,-1.2844,-1.8147,0.169109,2.47997,-0.0255328,6.82347,0.665513,-166.896,-732.976,-659.288,4060,-2660,-1260
-0.49728,5.37861,-3.92106,3.95693,2.75284,0.170759,-0.852343,-0.614016,1.10678,-1.03422,-2.19129,3.93246,1.30734,-0.19546,5.12121,0.460654,-165.92,-730.536,-658.312,4060,-2520,-1120
0.451197,4.66552,-6.67848,4.4519,2.00425,1.26877,0.324686,-2.08785,2.91562,-1.78049,0.75164,7.48732,-0.401691,-0.41987,3.34799,-0.328461,-165.92,-730.048,-661.24,4200,-2660,-1120
0.405132,1.35799,-8.77669,-0.126445,1.92402,0.47214,-0.467081,-1.53284,-0.138537,-2.24244,0.436845,5.94923,-0.572961,-1.63558,-1.90221,-1.59132,-164.944,-728.584,-661.728,4340,-2520,-980
-5.91093,-4.32772,-12.4448,-5.14759,-3.38655,-0.425342,-1.49261,-3.2639,-7.62324,-8.73392,-1.60535,-1.12693,-1.51453,-3.80371,-3.50947,-2.91959,-167.384,-731.512,-661.728,4340,-2520,-1120
-4.23213,-0.336529,0.419951,-1.95022,0.600827,-0.156819,1.39918,1.07394,-5.50739,-5.62536,-2.97448,2.10255,-2.50585,-1.57894,-0.892767,2.29325,-167.384,-730.536,-659.288,4480,-2380,-980
-0.76734,-5.47201,1.06857,-2.87744,-3.25289,-0.835229,-2.02377,-1.57606,-1.37587,-4.45401,-2.41369,2.13222,-4.13653,-1.37117,0.0717018,0.864764,-165.92,-729.072,-662.216,4620,-2520,-980
5.28108,-2.38795,3.19827,4.3114,-0.107933,1.02718,1.80403,-0.528541,7.66743,1.26692,-0.161098,2.39546,-1.07776,1.44791,9.49745,4.21212,-164.944,-726.144,-659.288,4620,-2520,-980
12.4522,10.4987,13.3433,14.7664,13.664,3.84631,10.3801,7.72464,16.9332,11.6973,2.27954,7.55757,4.08243,6.20429,17.8578,13.2777,-165.92,-728.096,-662.216,5180,-2660,-1120
11.6762,8.66248,11.4362,11.4363,11.0234,3.35749,9.0649,6.63412,13.7484,9.73476,3.72319,5.75832,3.83485,6.37697,13.0138,10.8774,-167.872,-730.048,-661.24,4900,-2660,-1260
8.78626,7.16227,11.0015,6.67634,9.52551,2.3157,6.94206,4.21247,7.46931,8.18923,4.4484,2.92454,2.87966,4.41575,8.2707,7.15619,-167.872,-730.048,-659.288,5040,-2800,-1260
3.65461,-0.277028,8.71325,-0.145467,3.11583,1.29966,2.77601,-0.293553,2.34905,4.68098,4.56792,-0.88542,-0.137945,2.27933,1.90791,1.62963,-168.36,-730.048,-660.264,5040,-2940,-1400
1.83144,-3.78761,10.7084,-1.02673,0.455144,0.179076,3.26379,0.990088,0.628966,2.77556,3.15761,0.561809,-0.403482,0.712046,-2.23506,-0.292273,-164.944,-728.096,-663.192,4900,-2940,-1540
2.39985,-6.44523,8.60718,-2.33588,-1.59186,-1.06838,0.970445,2.17805,-1.45487,1.70564,2.76424,0.782793,1.60835,0.642237,-6.45132,-2.56417,-167.384,-731.024,-659.288,5040,-2940,-1540
0.721357,-5.07309,3.89804,-2.24237,-4.82066,0.275286,0.752835,2.62937,-2.69599,-1.43227,2.25774,-0.773249,3.00422,1.45817,-6.44174,-3.22712,-165.92,-732.488,-658.8,5040,-2940,-1820
0.66587,3.80806,3.03131,3.03303,-0.747289,2.69901,3.24563,5.72602,-1.47548,-0.0951796,0.73666,1.69755,4.12409,2.01745,-0.262761,-0.17623,-167.872,-732.976,-659.776,5040,-3080,-2100
0.2124,7.57828,0.808283,4.48948,-0.986291,2.71879,1.25707,1.75666,-0.316206,-1.17137,-0.80772,0.690017,3.67151,2.95775,0.102153,-2.36852,-166.896,-733.952,-663.192,4900,-3220,-2100
-0.67901,7.82878,-0.166322,2.71738,-2.35804,0.223032,-2.06325,-6.04607,1.93284,-0.775409,-0.516001,-2.15027,1.07539,-0.0377228,-4.45928,-7.9535,-165.432,-734.44,-659.776,5180,-3220,-2380
-2.39039,0.669326,-1.85056,-6.07635,-6.08855,-2.63354,-7.4418,-7.94825,0.440772,0.416858,-0.302198,-6.89894,-2.39685,-4.24867,-12.1548,-11.7119,-167.384,-733.952,-658.8,5320,-3360,-2660
-0.772195,0.345318,-3.2801,-4.5935,-3.16569,-2.27741,-5.46019,-6.54264,2.87789,2.69915,1.26651,-4.80196,-2.31642,-3.63023,-7.28839,-6.72849,-165.92,-732,-660.264,5320,-3500,-2800
3.64411,9.44291,2.32272,6.20915,8.9761,2.15077,2.00634,-0.525595,9.23274,8.91762,2.56083,3.71845,1.46292,-0.347505,3.96707,2.38706,-164.456,-734.44,-659.776,5880,-3500,-2660
-2.53526,1.38149,-4.37153,1.97491,3.5358,2.24457,-0.414609,-0.957932,1.43834,0.302663,-0.0771413,-0.929692,0.180135,-1.14231,3.40212,1.77464,-164.944,-732.976,-659.776,6160,-3500,-2520
-3.57135,-2.13633,-7.92394,-1.74315,-1.06761,0.645483,-3.86892,0.457463,-1.11957,-2.26087,-0.829528,-1.08029,-1.32382,-2.35491,-2.0394,0.403473,-164.944,-732,-659.776,6300,-3500,-2660
-4.08446,-6.21091,-6.83103,-6.3886,-3.53186,-0.386587,-5.67032,0.34465,-3.64176,-2.69187,-1.54311,-1.94085,-2.27834,-1.20024,-7.07256,-0.957444,-164.944,-732.488,-659.776,6720,-3640,-2380
-6.36847,-11.6581,-9.69662,-9.18726,-5.58719,-2.3745,-3.88057,-0.584737,-6.82685,-5.79971,-3.10173,-2.97668,-3.72059,-2.59922,-6.45629,0.34317,-165.92,-730.536,-657.336,6860,-3500,-2240
-7.49655,-14.5937,-13.6649,-11.2923,-9.81393,-4.16326,-4.45679,-1.62845,-9.974,-6.91174,-3.14595,-5.67612,-3.85992,-5.59247,-6.37394,-1.51782,-166.896,-731.512,-659.288,7000,-3500,-2240
-9.95175,-9.37566,-11.2244,-7.32767,-7.12198,-2.89891,-1.39917,-0.769527,-13.8196,-8.07428,-4.47839,-6.7588,-4.48582,-3.93444,-0.65653,1.23962,-164.944,-734.44,-657.824,7000,-3500,-2100
-12.0799,-7.5579,-7.61622,-5.92666,-5.83248,-2.84852,-1.11015,-0.432769,-16.5917,-9.17437,-6.75018,-7.55342,-4.19377,-3.73773,0.824779,2.05116,-166.896,-732.976,-658.8,6860,-3220,-1960
-9.11168,-6.07523,-4.95118,-5.75984,-5.33432,-3.979,-4.35253,-1.00557,-15.0218,-8.20482,-7.17689,-6.62469,-1.56091,-3.20594,-2.79986,1.04592,-164.944,-734.44,-660.752,6860,-3360,-1680
-9.10739,-10.8967,-8.16409,-10.6092,-12.5782,-5.60491,-10.0164,-4.86121,-11.804,-10.6392,-6.88744,-8.5676,-2.95717,-3.82223,-9.7944,-3.97043,-167.384,-732,-660.752,6580,-3500,-1540
-6.03876,-6.49383,-4.53832,-8.60602,-8.81274,-4.05987,-8.51929,-0.971586,-6.80719,-5.84031,-6.09654,-6.70675,-3.0789,-4.47725,-7.29004,-0.29974,-166.896,-731.512,-660.264,6440,-2940,-1540
-7.80066,-8.51352,-6.21937,-6.77496,-7.32676,-3.8772,-6.05497,-3.03217,-8.66223,-9.52609,-7.13131,-6.16067,-4.5084,-4.5863,-4.84923,-1.47476,-165.432,-732.976,-655.872,6160,-2800,-1400
-2.86063,-1.42926,-1.69812,1.05596,1.54831,-2.83032,0.577214,-0.101715,-1.44057,-4.2249,-4.63776,0.330255,-3.69864,-1.39084,1.01402,1.02441,-166.896,-733.464,-660.264,5320,-3080,-1400
5.83483,6.35711,4.48376,6.50388,5.89126,-0.0397875,3.86337,0.471146,8.96882,2.60095,-0.655445,6.16682,-1.69173,3.45406,4.86325,1.96437,-168.848,-734.44,-655.384,5040,-2660,-1540
12.0443,13.1503,9.75318,13.9771,10.086,3.29934,7.54322,0.935207,16.8917,7.37965,3.16892,12.3588,0.922909,6.94476,10.6098,1.99131,-166.896,-737.368,-659.288,5180,-2800,-1400
16.5081,19.162,16.1379,17.4333,14.6801,5.22122,7.56148,4.64503,21.4522,13.6602,8.28765,16.5709,5.53479,6.92599,10.8538,1.72708,-168.36,-734.44,-660.264,5320,-3080,-1260
10.7805,9.41302,12.6316,6.49014,6.74442,3.19928,1.2379,0.187183,9.95528,9.72025,10.2993,7.88374,5.05188,3.09281,6.12867,-3.8657,-167.384,-731.512,-659.776,5320,-2940,-1400
9.04049,12.3968,12.6669,11.112,10.9113,4.87344,9.9139,5.96898,5.75555,8.69108,9.52682,9.4186,5.068,5.62583,16.5387,3.3459,-164.456,-731.512,-661.24,5320,-2940,-1540
11.5612,15.0037,13.0814,15.5666,14.4655,7.19966,15.2854,8.63895,8.71285,10.098,8.1506,13.2092,6.66876,9.89942,21.0559,7.70788,-165.92,-732,-656.36,5040,-2940,-1680
10.4737,9.32717,9.08313,11.5706,11.1738,7.32628,14.3137,5.87512,8.29342,8.16293,7.489,9.92384,6.70278,8.69371,18.087,9.10842,-167.384,-732.976,-657.336,5320,-3080,-1680
11.1389,6.08796,9.23823,6.6008,8.81892,4.57531,9.04833,4.47945,9.88442,9.83711,7.97231,6.29666,7.15716,6.41049,8.2845,7.54225,-167.872,-732,-659.288,5880,-3360,-1540
9.32313,0.376404,5.44693,1.81198,4.47707,2.39811,2.94666,1.63464,10.0373,6.82327,6.98866,2.55245,4.98694,3.49355,-0.947839,2.10833,-168.36,-733.464,-659.776,5880,-3360,-1540
5.10165,-4.80093,-0.359908,-4.95847,0.837616,0.518877,-2.80398,-0.379321,5.5489,3.62313,4.78288,-2.40489,2.39152,0.403078,-9.99726,-3.14795,-167.384,-729.56,-658.8,6300,-3780,-1680
6.81882,-0.928378,0.297423,-3.04301,2.82558,0.339835,-2.41465,-1.31433,6.82078,6.4024,4.11155,-1.28183,4.06279,-0.2756,-9.33734,-2.74493,-166.408,-732.488,-660.752,6300,-3780,-1680
1.00457,-6.4353,-4.93511,-5.05131,-5.10229,-1.20882,-4.4001,-4.89189,1.49567,0.302915,0.482433,-4.81626,2.76746,-2.12139,-10.9032,-5.98657,-165.92,-735.416,-658.312,6720,-3780,-1820
-1.14754,-1.86291,-4.93286,-2.64244,-3.23921,-1.7687,-3.39945,-0.929385,0.0171821,-0.0768613,-2.24439,-5.44777,1.991,-3.65974,-10.1406,-3.16845,-164.456,-733.464,-661.24,6440,-3920,-1820
-5.36156,-5.41186,-7.46914,-6.12255,-10.3598,-2.66993,-5.15457,-5.65677,-4.38298,-6.82784,-3.55672,-10.1401,-2.23956,-5.31735,-8.84964,-5.52311,-162.016,-733.952,-655.872,6440,-3920,-1960
-7.2264,-1.52428,-2.15384,-4.80121,-8.28326,-2.82168,-3.65816,-2.95431,-5.20386,-5.49718,-4.79584,-7.76822,-4.19632,-4.41392,-5.34303,-2.76722,-162.992,-735.416,-656.848,6300,-4060,-2100
-8.18783,-0.375026,-1.82958,-3.59462,-6.28331,-2.35429,-2.60911,-0.323495,-4.12935,-5.40257,-6.36304,-4.36312,-5.43427,-1.10976,-2.15917,-2.84849,-164.456,-736.392,-656.36,6580,-4060,-2100
-13.5192,-3.12979,-5.53658,-5.73747,-7.82535,-2.25166,-4.24043,-0.864548,-10.3252,-9.84834,-7.88353,-4.89199,-7.34045,-2.73011,-4.36451,-5.08297,-163.968,-735.904,-655.384,6440,-4340,-2100
-15.8118,-4.56903,-5.96208,-4.556,-6.17531,-1.28313,-0.804365,1.40292,-14.3636,-10.5904,-8.84461,-4.6438,-7.38367,-4.34402,-1.16335,-1.21749,-164.944,-732,-653.92,6300,-4340,-1960
-13.6274,-8.79303,-8.20973,-8.75271,-9.00428,-1.93125,-4.14603,-0.611723,-13.8796,-9.07379,-8.4907,-5.96725,-6.70634,-6.99879,-5.40725,-1.19021,-162.504,-734.44,-656.848,6160,-4200,-1960
-8.46688,-7.13543,-10.4721,-8.95626,-9.78475,-3.01779,-8.60378,-4.95216,-9.13522,-5.97539,-6.12088,-3.75797,-4.72094,-7.25806,-8.57695,-2.16712,-162.992,-736.88,-652.456,6020,-3920,-1820
-5.43877,-1.61517,-5.26772,-2.34816,-2.33122,-0.383198,-3.95187,-2.47761,-6.59763,-3.29316,-4.04426,0.922726,-2.1833,-0.217725,-2.25049,1.88589,-163.968,-735.904,-654.896,5880,-3640,-1680
-6.97586,-4.02692,-4.05932,-0.254667,-0.339472,1.5533,-1.84705,-1.44438,-8.61746,-5.42444,-2.03456,1.61027,-0.403692,0.847023,-0.609988,2.99593,-164.944,-739.32,-652.944,5600,-3500,-1680
-5.24043,-0.517967,-0.177763,7.48352,7.33522,2.66747,5.1522,2.6548,-8.07388,-1.34807,-0.551973,5.51551,1.82327,2.31608,8.60708,6.77374,-162.504,-739.808,-652.456,6020,-3220,-1680
0.130641,-0.563457,-0.0944628,6.26902,4.85596,2.015,4.84723,-0.632353,-3.37544,1.30126,2.17003,4.64186,2.44057,2.85352,8.7125,5.63394,-164.456,-738.832,-653.92,5880,-3220,-1540
6.88291,2.59456,2.96505,1.29863,2.70911,1.56891,1.40048,-1.9676,4.10245,5.34787,4.66969,3.23532,2.69562,1.89948,3.94,3.88294,-166.408,-738.832,-652.456,6300,-3360,-1540
5.0521,0.513182,2.60986,-0.0997249,0.350481,0.0521767,-0.405848,-2.37876,3.89279,5.58528,3.56371,0.171349,1.03618,0.199575,1.69291,0.435401,-162.992,-741.272,-651.48,6720,-3500,-1260
4.43063,-4.11081,0.382622,-2.90207,-3.23502,-3.08771,-4.54076,-3.74847,2.47257,3.42739,3.14424,-3.14759,-0.767941,-2.72694,-3.09515,-4.64501,-163.48,-738.832,-655.872,6720,-3360,-1120
5.16289,-1.49186,1.7937,0.494482,3.23272,-2.58066,-1.86136,2.64769,2.40388,2.43019,1.15641,-2.40475,-1.02612,-1.83896,-0.809484,-2.2738,-163.968,-737.856,-654.896,6860,-3220,-980
6.28492,0.400055,2.59114,4.41191,6.00075,-2.24035,0.579657,4.65155,4.33082,1.09274,0.965143,-0.801847,-0.294987,0.612005,2.9308,-0.886596,-165.92,-737.856,-651.968,6580,-3500,-1120
7.27357,4.1323,5.06264,5.9156,7.41585,-1.68007,1.37444,5.32159,7.91303,4.22358,1.91586,2.33017,2.5944,0.490478,2.35361,1.29467,-162.504,-735.904,-652.944,6440,-3220,-980
7.63752,3.2518,5.10056,-1.32387,2.0025,-2.89629,-5.61104,0.706569,11.0202,6.64003,4.15781,0.798306,3.68918,1.16669,-7.6257,-2.23385,-161.04,-735.416,-653.432,6300,-3080,-840
3.82459,0.620933,2.42373,-6.89259,-5.69323,-3.57202,-9.45222,-1.8738,7.98799,1.22557,3.97345,-2.84865,0.504724,0.232761,-11.3938,-5.66476,-165.432,-735.416,-655.384,5880,-2800,-980
2.51801,6.91321,3.80611,2.77639,-1.86204,-0.652771,0.926087,1.51057,6.43022,0.542989,2.29535,1.46043,-0.237973,1.97604,4.77391,1.14197,-165.432,-734.44,-655.872,5180,-2520,-1120
3.79497,9.6717,3.69232,4.20897,-1.25535,0.987074,2.95622,-0.405763,7.46925,1.99327,2.22087,2.52483,0.51631,2.18129,7.57253,1.25627,-166.408,-734.928,-655.384,4900,-2100,-1120
-2.32958,1.09646,0.0263271,-1.90299,-1.87617,1.16111,3.57987,-1.20168,-0.500249,-2.03292,-1.20602,-3.03889,-0.636291,1.57056,5.26658,0.206648,-164.456,-734.44,-654.896,3920,-1960,-980
-4.23675,0.934769,-0.0038988,2.60967,4.54561,2.46781,11.0818,4.28292,-3.73351,-3.00933,-2.23553,-0.506702,-0.281795,5.59592,13.3608,5.7863,-167.872,-733.464,-655.872,3220,-1260,-1120
-5.45939,-3.15588,-1.99059,4.43339,4.42979,3.42963,13.0255,5.15279,-5.12124,-5.26658,-2.41562,0.806049,-0.222691,5.36691,14.461,6.60232,-168.848,-733.952,-659.776,2520,-980,-1260
1.48485,5.50726,2.45678,7.77264,11.2164,3.96087,14.9632,7.42938,1.8857,0.796589,-0.678252,6.25535,3.1838,3.70339,13.9711,8.26876,-167.384,-733.464,-658.8,2100,-560,-1400
1.42725,0.699113,-3.50385,-1.47862,1.79258,0.789886,4.15469,-0.743473,1.56549,0.429497,-1.13454,1.43272,0.678825,-1.2749,0.132887,-1.81488,-168.36,-733.952,-660.264,2100,-140,-1540
4.68439,3.56266,1.60375,0.730915,3.852,2.3157,0.537718,-1.63564,4.73783,3.80526,-0.396582,4.9184,0.958077,-1.84997,-4.49476,-2.90101,-172.752,-733.464,-655.872,2100,0,-1540
1.06784,-3.23343,0.545561,0.231018,3.20576,3.09472,-2.51945,-3.10722,-3.46539,1.27754,-0.813606,2.46061,1.43041,-1.21526,-7.99008,-4.17777,-170.8,-732,-656.848,2660,0,-1680
-4.28424,-10.9235,-2.62206,-2.92538,-1.76987,2.1688,-3.78217,-3.81033,-10.8115,-1.70969,-0.26048,-0.554058,1.24391,-1.61215,-11.6408,-4.24472,-166.896,-731.512,-657.336,2800,140,-1820
-1.742,-7.58584,-1.16031,-3.16275,-3.43312,1.84795,-7.49775,-4.1451,-6.00615,-1.26644,0.467337,2.40533,1.05402,-0.551689,-16.7525,-5.05031,-168.848,-731.512,-660.752,3220,-140,-2100
-2.66086,-5.2427,-2.27055,-7.81597,-5.46849,-0.120015,-11.5954,-3.33653,-6.67145,-2.49262,-0.479926,-0.815255,-2.03503,-2.071,-20.6353,-7.39969,-168.848,-730.048,-665.632,3360,-280,-2380
-5.04516,-6.60274,-5.61744,-13.6377,-10.89,-2.8934,-11.786,-1.89671,-7.00518,-3.57205,-0.0344534,-5.57771,-3.42103,-5.87634,-17.8633,-7.3811,-166.896,-728.096,-662.704,4480,-560,-2240
-0.767443,-1.13945,-4.69528,-8.53473,-9.46162,-2.88899,-7.04971,-0.372506,1.30738,-0.903189,0.656694,-5.31919,-3.12116,-5.70185,-4.76207,-2.72875,-167.384,-732.976,-664.168,5040,-560,-2380
3.77883,2.94987,-3.02679,-2.09086,-8.66159,-1.75262,-3.40399,-2.66017,8.5708,-0.255938,1.59937,-4.7499,-1.78506,-3.42574,4.42401,-1.27716,-164.944,-726.632,-660.752,6020,-840,-2520
2.7491,6.3196,3.21047,1.89846,-1.54857,-1.3497,0.17434,-1.2154,7.44398,2.7518,-0.53658,-2.3422,0.871875,-1.28128,8.45838,0.480902,-165.432,-728.584,-652.456,6580,-1120,-2800
-0.281223,6.66648,2.06992,3.26058,-1.94621,-1.6581,1.97271,-3.10307,6.01495,0.404852,-2.48194,-0.755614,-0.20212,-1.30104,10.0338,-0.0497146,-166.408,-728.584,-655.872,6860,-1820,-3080
2.41036,9.05616,5.43025,7.04777,1.45993,-0.284768,3.41544,1.04924,6.50615,2.66155,-0.334284,2.12371,0.182054,1.12904,10.6049,2.46004,-164.944,-729.56,-654.896,6580,-2240,-3080
6.4705,12.8218,6.56338,12.3368,6.60047,1.52613,6.8429,4.99297,8.81255,4.84159,2.24618,6.774,2.72281,3.72981,14.9942,5.68724,-162.504,-732,-652.944,6720,-2800,-3220
4.44586,9.02934,3.923,12.7831,6.53457,1.58918,8.78188,4.26074,7.01741,2.84501,2.02494,7.97119,4.202,6.37614,14.6995,7.57155,-163.968,-733.464,-654.408,6860,-3640,-3080
-1.07203,7.17675,6.64453,11.4364,10.7178,2.32566,7.9547,6.05998,0.451961,1.29032,0.353316,6.81113,3.07544,6.49465,8.59068,10.7568,-163.968,-736.392,-651.48,7000,-3920,-2940
-7.72247,-7.6808,-1.62157,0.781141,3.38344,1.84195,0.487681,0.413344,-9.02645,-4.89261,-1.19754,-2.06938,-2.27133,2.68228,-1.85901,5.42456,-166.408,-739.808,-651.968,7140,-4060,-2660
-8.92806,-11.6492,-2.85995,-2.00727,2.2418,1.69041,-1.5773,0.715028,-12.3377,-2.95385,-1.48238,-4.14511,-3.40789,0.632157,-4.80647,3.4863,-164.944,-738.344,-650.016,7280,-4340,-2380
-9.98698,-14.4663,-5.73581,-4.61604,-1.66679,-0.420382,-2.55252,-1.78244,-14.5302,-3.25834,-2.67324,-7.44369,-3.42358,-0.547315,-5.42641,0.817065,-167.872,-741.76,-650.992,7000,-4340,-2240
-6.03506,-13.9736,-7.51474,-7.73246,-5.96643,-2.29944,-3.67562,-1.20629,-9.81007,-4.29539,-0.927423,-6.58594,-2.01074,-0.876575,-8.49935,-0.514031,-169.824,-744.2,-649.528,6720,-4340,-1960
-0.830684,-9.69521,-5.86316,-12.5289,-7.93025,-5.56585,-6.95523,-2.90394,-4.22377,-1.14871,0.334641,-4.243,-2.61145,-2.28518,-12.9262,-4.02455,-168.36,-743.712,-650.016,6440,-4340,-2100
0.605403,-7.49815,-7.68758,-10.4601,-7.24296,-6.37097,-2.22271,-2.89413,-3.84242,-1.72444,-0.268285,-2.73409,-2.89572,-3.42091,-7.09642,-4.04125,-167.384,-745.176,-650.504,6020,-4340,-2100
2.6513,0.118252,-2.77181,-3.83342,-1.78679,-4.16319,2.50397,-0.629573,-0.879913,3.33891,1.53906,0.267902,-0.803786,-2.81748,0.859182,-0.0687676,-168.848,-748.104,-655.872,5600,-4200,-2100
7.62947,12.2955,4.7846,4.99551,8.18342,-0.295171,7.5442,1.00696,7.23752,8.51211,3.10451,5.5911,2.36182,0.597944,9.48634,2.99924,-170.312,-749.08,-654.896,5600,-3920,-2380
7.13461,12.097,3.26508,6.18763,6.80487,1.7561,5.82592,0.842705,7.07342,6.04206,1.55988,5.75237,2.9266,0.917642,8.28824,-0.187353,-170.312,-748.592,-653.92,5740,-4060,-2380
5.55969,12.0303,6.29816,4.82925,5.6985,1.54867,2.29789,2.90526,6.32735,4.10985,-0.319392,4.84891,2.15542,-0.14658,3.83516,-1.73055,-167.384,-747.616,-654.896,6020,-3920,-2520
1.5258,3.38825,1.10007,1.82328,-2.76295,0.0740667,-2.91477,-1.0989,3.07049,-6.49909,-1.44501,0.428807,-0.640135,-2.35507,0.389725,-6.61423,-168.848,-747.616,-657.824,6160,-4060,-2520
3.88224,7.47795,5.43579,9.59233,3.76969,3.09507,0.177456,1.32431,4.75201,-3.95522,0.207445,4.5669,1.92585,0.177699,3.93749,-1.41755,-168.848,-747.616,-652.456,7000,-3640,-2660
2.66692,7.37064,6.63102,12.9501,6.167,5.24925,0.0737623,-0.562826,5.16849,-1.17561,-0.58048,6.26418,5.3285,2.67773,1.5317,0.0872974,-167.384,-746.152,-658.312,6860,-3640,-2660
-3.97802,-1.92698,3.24847,0.665573,-0.868154,4.96496,-7.9007,-4.06434,-1.86629,-2.95162,-2.06775,-1.33971,4.26519,0.773475,-10.6372,-3.35403,-166.896,-744.2,-659.288,7000,-3500,-2520
-10.0367,-11.4856,-0.152655,-11.3337,-4.98615,2.85067,-10.4359,-1.00277,-12.4942,-5.60727,-3.17918,-9.46822,1.68421,-2.43827,-15.5928,-4.55344,-167.872,-739.808,-653.432,7420,-3080,-2380
-12.2561,-19.3285,-7.18889,-17.3143,-11.4606,-1.74347,-10.0656,-1.80409,-16.488,-7.48784,-2.88272,-15.4554,-2.13952,-5.97819,-13.1604,-7.23454,-167.384,-734.928,-655.384,7560,-3080,-2240
-2.12262,-8.37414,-4.67187,-8.25829,-6.76496,-1.51729,-0.436374,0.761208,-2.85279,-0.823924,0.514756,-7.53522,-1.54725,-2.259,-3.1375,-1.49111,-169.336,-732.976,-652.944,7280,-2660,-1820
3.72184,-3.73041,-2.36271,-4.10275,-2.14568,-1.05114,3.3819,2.88716,3.51565,4.58165,1.32358,-3.02088,-2.16461,1.7606,1.25397,2.19991,-168.848,-730.048,-654.896,7280,-2520,-1540
4.82671,-1.66965,-5.44299,0.0461984,0.964263,-0.944011,4.60131,2.48301,6.50789,3.10393,0.690592,-0.479877,-2.9176,2.13107,5.47154,3.78236,-166.408,-725.656,-654.408,7280,-2520,-980
7.80863,8.08496,0.302206,6.88063,8.65699,-0.219204,8.31647,5.64878,11.0271,8.20387,1.92546,5.64127,-0.413192,5.29539,10.6606,8.71633,-168.36,-724.68,-653.92,6580,-2100,-420
4.51392,5.36053,1.17829,1.90506,1.98853,0.0106979,3.97908,0.633648,10.0999,4.33313,2.63533,5.06532,-0.432149,3.62184,6.13253,4.3369,-170.312,-722.728,-657.336,6020,-1960,140
3.95584,5.53964,2.65043,3.38883,4.41131,0.0161561,3.946,-1.02255,8.77349,1.80302,1.44586,7.04145,-0.64416,1.64444,7.7814,3.20015,-170.312,-722.728,-658.8,5040,-1680,700
1.20218,2.65398,1.37322,2.13747,3.38994,-1.5144,1.42775,-2.60161,4.28469,-0.375368,-0.0292299,5.46503,-0.461358,0.949482,5.82137,0.149706,-173.728,-718.824,-654.896,4340,-1260,1260
-2.45438,-1.3176,-0.21764,-0.00360156,-1.44266,-1.7504,-1.73589,-3.36559,0.245427,-2.7037,-0.0343396,1.96015,-0.512947,-1.09281,2.43305,-3.04885,-175.68,-720.288,-661.728,3640,-1540,2100
-2.13513,-0.0407615,2.90176,1.65616,0.302501,-0.460503,-0.407446,1.45097,0.333619,-0.579409,-0.105131,1.91534,-0.834039,0.368943,1.48631,-0.331923,-173.728,-720.288,-657.336,3220,-840,2660
-0.217004,-2.08841,2.37751,0.197656,-3.23636,-0.85558,-2.8506,0.634645,2.4243,-1.03123,0.7662,1.29549,-0.360701,1.48777,-1.4321,-2.92594,-177.144,-718.824,-661.24,2940,-840,3220
2.08827,2.84403,4.95935,1.44496,-0.55754,-0.59772,-1.33082,0.942056,4.9862,1.62452,3.62322,3.19112,1.84153,1.10161,-0.986691,-2.31556,-177.632,-723.216,-658.312,2520,-840,3780
-2.12201,1.65495,0.450622,0.493962,-1.79691,-1.63518,-0.0314401,-0.0644364,-0.31887,0.554259,1.00634,-0.493666,0.0519314,-1.12882,-1.00089,-2.59186,-176.656,-721.752,-660.264,1960,-700,3920
-2.70927,2.89178,-2.45928,0.73638,-1.28653,-0.782449,0.285538,-1.15821,-3.6749,0.00334189,0.0709097,-2.08465,-1.09678,-2.92285,0.470229,-3.48907,-181.536,-725.656,-661.24,1120,-840,4060
-0.572581,5.01661,-1.28282,1.51146,2.3067,1.62149,1.8453,0.599437,-4.12076,2.05373,-0.131395,0.142734,0.398748,-0.957184,0.994578,-0.635428,-180.072,-726.632,-661.728,840,-840,3780
-1.44582,1.31622,-2.01081,-3.08952,-0.593419,1.34078,-1.12438,-0.541855,-6.69687,-1.79364,-1.9456,-2.56409,-0.173119,-2.27906,-4.08402,-0.917842,-178.12,-732.976,-659.288,560,-980,3360
1.06059,2.57905,-0.437688,-1.74743,0.857537,1.80367,0.0960187,-0.752062,-3.58204,-1.0902,-1.83905,0.128931,-0.921994,-1.5333,-6.33196,2.07566,-176.168,-732.976,-657.336,140,-980,2240
-0.874356,-0.608036,-0.924616,-1.99276,-1.55832,0.946733,-0.753719,-1.70339,-5.93731,-1.61705,-2.14877,0.651894,-0.23985,-2.66032,-6.10871,1.11118,-177.632,-734.44,-659.288,420,-700,1120
-5.73055,-6.86057,-4.43175,-3.88564,-7.32073,-1.09888,-2.61007,-3.8997,-11.2311,-6.55638,-3.83328,-2.65427,-0.122263,-4.15214,-5.37479,-1.57635,-177.144,-735.416,-657.824,1400,-840,140
-2.9549,-2.72012,-0.214168,3.39238,0.00677406,-0.211012,4.55563,1.80158,-9.7373,-1.62284,-3.9647,-0.452995,0.640563,0.152686,4.72983,6.68637,-172.264,-743.224,-657.824,980,-3080,-280
-0.538989,-4.72351,-0.0840155,4.8481,-0.96646,0.698568,3.99089,-1.58145,-4.9087,-0.374602,-1.23017,0.104607,1.20894,0.862111,6.36651,5.09239,-171.776,-739.32,-659.776,980,-3080,-1540
5.62787,2.07409,1.45777,8.64045,4.72114,2.35109,4.67375,-1.16609,4.85226,5.65639,3.84429,3.64708,2.67865,2.91078,4.08398,5.20792,-166.896,-740.296,-658.8,1540,-4060,-2800
1.46881,-3.05138,-3.46619,1.38223,-1.07256,-0.0164172,-1.84375,-3.03871,-0.318101,2.69509,2.70844,-3.27214,-0.247875,0.431863,-4.26858,-0.434709,-166.408,-743.224,-658.8,1260,-4060,-4060
-0.301483,-1.26565,-3.21034,-1.30282,-2.47183,-1.54166,-3.60828,-1.47176,0.302353,0.938058,1.43086,-4.49708,-1.76879,-0.630623,-4.24304,-1.33116,-164.456,-741.76,-661.24,1540,-5040,-5460
-1.74714,1.03292,-4.11572,-3.43537,-0.6074,-1.61318,-2.88513,-0.521453,0.287291,-1.48902,1.18242,-4.81075,-1.50955,-1.30272,-2.38113,-2.41751,-160.064,-744.2,-661.728,2100,-5600,-6580
-3.27718,-2.54571,-4.8069,-4.17591,-1.32004,-0.593278,-1.98209,1.3807,-3.70319,-5.2013,-1.79447,-4.96573,-2.71691,-0.237041,-0.34561,-3.22707,-161.04,-745.176,-660.752,2240,-5880,-7280
0.910169,3.15081,2.76115,0.0844213,3.03272,1.16549,0.179042,3.22973,2.19304,-3.27546,-1.16797,0.514552,-1.07916,2.80359,1.21781,0.277343,-159.576,-744.2,-661.24,2660,-6300,-8260
-0.243913,3.7413,5.29503,-2.26506,2.52038,0.180627,-2.4104,2.02036,2.23444,-2.37584,-0.751837,0.645451,-0.471636,1.41944,-4.96946,-0.950233,-158.6,-741.76,-661.728,2940,-6580,-8680
-0.907953,-0.590918,1.81939,-5.32894,-1.70913,0.678232,-4.96977,1.34204,3.29331,-3.14554,0.650532,-1.00556,1.08675,1.43322,-7.53272,-3.0002,-157.136,-742.736,-661.24,3220,-6440,-9100
2.56781,2.88136,6.47548,-1.46738,5.19783,1.27241,-1.66104,6.14976,6.32252,2.77026,0.993678,2.06939,2.09885,1.74374,-2.03918,0.827967,-158.6,-737.368,-661.728,3360,-6300,-9100
3.04642,0.273989,6.81772,-1.18644,5.37664,0.480237,0.49351,4.71361,6.79601,2.95569,1.06263,3.32796,1.77356,1.47349,1.15566,1.82644,-158.6,-736.392,-664.168,3640,-6300,-9240
3.97902,1.02694,7.55119,0.988498,7.85761,1.01541,4.60968,5.73788,8.9126,6.6441,1.53199,3.9543,2.75231,2.16972,4.72687,4.98374,-158.6,-738.344,-664.168,3500,-6020,-8820
3.06511,-1.54126,3.83658,0.649301,2.42896,0.164641,3.08719,3.18367,5.43775,4.37019,1.00817,1.89522,0.120871,0.671061,4.92456,2.4289,-158.112,-732.488,-661.728,3640,-5460,-8400
2.61033,-3.35179,0.635415,0.495573,-2.57382,-1.70546,-1.286,-2.5447,3.5757,2.86971,1.6646,1.41544,1.00931,-1.06145,3.57417,-0.640953,-155.672,-731.512,-660.752,3500,-4620,-7980
2.19714,-1.73315,0.996242,3.23306,-0.184088,-1.13916,-0.183164,-2.35237,0.996869,3.34791,0.532968,2.41532,1.07707,-1.76323,5.79333,-0.420645,-157.624,-731.024,-660.264,2940,-3500,-7280
-0.736956,-4.9966,-4.8866,3.03743,-1.84194,-0.609744,0.409314,-4.37544,-1.62261,-0.260304,-1.1514,2.30441,-0.846666,0.128442,5.83941,-3.17654,-156.648,-734.928,-661.24,2520,-2940,-6860
0.281248,0.414117,-3.70108,5.35993,1.69384,-1.20924,2.77236,-1.48002,1.91749,2.17346,-0.949121,5.02506,-1.10906,1.39663,5.85987,-1.06896,-161.528,-732.976,-661.728,1680,-1820,-6300
-2.62186,-1.86021,-3.80695,1.42946,-1.9551,-2.47836,-0.335638,-4.23059,-2.26731,-0.369095,-1.88562,0.366415,-2.11645,0.409147,1.36704,-3.11621,-160.552,-733.952,-658.8,1120,-1120,-5880
-8.31071,-5.44202,-7.08474,-0.813819,-5.41658,-2.66452,-1.18185,-3.45817,-10.6464,-5.51128,-4.27323,-6.84468,-1.9665,-3.29494,0.550621,-2.61692,-160.552,-732.488,-655.872,560,-280,-5180
-8.90714,-3.83486,-5.30732,-1.59962,-5.71926,-1.15587,-1.01755,-0.387061,-12.2868,-6.35386,-4.25121,-7.41456,-0.110915,-4.05292,-1.8441,-2.53121,-163.48,-733.952,-655.872,140,-140,-4760
-1.41517,3.38805,0.215538,0.617083,-2.83385,1.56828,-1.32933,0.114794,-1.28311,-1.75897,0.264235,-1.51632,3.20365,-1.51361,-2.76692,-2.80915,-161.04,-733.464,-655.384,-280,560,-4060
1.56462,3.14277,1.11946,-0.786133,-2.52863,2.98981,-2.28031,-2.10037,3.91764,0.602222,2.1459,-0.163695,3.83888,-0.128535,-3.00758,-2.78687,-164.456,-736.88,-656.36,-700,1400,-3360
2.24514,6.46546,2.47245,0.701493,1.7985,3.4932,3.62643,0.451849,5.33444,3.26767,2.06034,0.44309,2.88694,3.41731,2.1923,1.42013,-164.944,-732.488,-655.872,-980,1680,-2940
2.61231,8.31665,0.604401,2.40285,1.86794,3.79679,6.06043,0.708437,7.24276,0.700647,2.8335,0.853707,2.40355,3.39083,6.59418,4.27647,-165.92,-735.416,-653.432,-1260,1540,-2380
2.54923,11.7399,0.253962,1.09114,4.54021,2.43718,5.63594,2.63136,4.67263,2.06612,1.79451,2.19073,2.02364,2.79174,3.81707,7.28619,-163.968,-734.44,-653.432,-1260,1540,-1960
-1.65482,3.92863,-4.97961,-4.34545,-3.14501,-0.676172,0.638323,-4.12027,-3.04013,-4.04714,-0.341353,-2.06231,-3.5205,-0.35845,-0.38202,1.75698,-166.408,-732.488,-654.408,-1540,1400,-1400
-0.16982,0.63284,-0.766171,-4.32846,-2.76585,-0.564464,-3.00679,-5.09933,-3.62743,-2.91988,1.12509,0.548069,-3.76323,-1.36861,-3.31318,1.49446,-165.432,-733.464,-653.92,-1960,1400,-980
-0.120792,-6.47621,-0.180151,-7.97096,-6.42363,-0.909178,-8.34686,-5.6433,-4.27891,-1.81623,1.76813,-0.757714,-3.98268,-2.16834,-11.5789,-1.47937,-168.848,-734.928,-649.528,-2240,980,-700
-0.792352,-10.382,-1.01491,-8.67715,-6.43334,0.0880224,-8.10517,-2.97743,-5.70043,-2.25312,0.963391,-3.19512,-4.87743,-3.04908,-12.1102,-4.27117,-169.336,-733.952,-650.016,-2660,980,-420
5.82828,-4.05671,1.96558,-3.92104,-0.381947,-0.712995,-3.86155,0.81058,0.370865,3.17454,2.53769,1.15315,-1.42971,-1.02714,-9.25523,-4.34664,-168.848,-734.44,-650.992,-2940,840,-420
6.22542,-3.7412,-1.19232,-3.55979,-3.5721,-4.22257,-5.46812,-1.32534,-0.142632,3.1957,2.56387,-0.0116075,-0.664418,-1.8624,-10.6435,-7.99529,-169.336,-736.88,-653.432,-3360,840,-420
3.91285,-1.43573,-2.50273,0.931094,-3.00145,-4.01648,-0.494372,3.83756,-2.73287,1.03309,0.966591,-1.11764,-0.777672,-1.93249,-3.85211,-3.15954,-171.776,-735.904,-652.456,-3780,560,-560
2.02262,4.01918,1.11693,10.2613,3.9611,-1.212,7.41309,8.43163,-0.524976,1.07331,-1.17204,2.52399,-0.63217,0.950024,7.31346,3.32451,-169.336,-734.44,-656.36,-3780,420,-560
-1.46768,1.54709,0.105682,10.8318,4.77765,-0.678684,8.11543,7.16247,-0.622607,-4.22113,-2.58728,3.43377,-1.31016,-0.219782,9.45155,3.02761,-171.776,-735.904,-655.872,-4060,560,-700
-0.518342,1.27285,4.18849,9.27897,8.41588,-0.820891,7.45313,5.56406,1.40054,0.306456,-2.65621,4.64036,-0.451025,-0.139138,8.82003,4.06098,-171.288,-733.464,-655.872,-4200,280,-980
0.560689,-1.44419,3.89624,5.77702,7.6967,0.538652,5.51136,2.57969,4.39369,1.72681,-3.28106,1.59583,0.512098,2.14072,9.23053,1.25559,-172.752,-732.976,-659.776,-4060,140,-1260
0.921558,1.23687,4.56135,7.25818,11.2899,2.03229,6.2869,5.81481,6.23118,2.09054,-4.71172,2.30382,2.14019,3.46256,11.5196,5.13228,-170.312,-731.512,-661.24,-4200,-140,-1680
-3.33811,-0.576138,3.22547,3.6089,8.44515,0.774847,2.56997,5.93384,1.90327,-1.98421,-6.06409,0.714552,0.98423,2.16355,5.76951,6.92199,-170.8,-730.048,-661.24,-4200,-280,-1960
-5.32465,-3.40269,0.29662,-6.56948,0.18153,-0.37892,-5.91287,1.90977,0.164411,-4.33578,-2.0499,-1.97309,0.140741,-1.95186,-4.37424,3.62248,-170.312,-731.512,-661.728,-4060,-140,-2520
-9.15609,-2.103,-0.239739,-9.28077,-0.88091,-0.439589,-8.63558,-0.0217534,-7.00623,-3.08371,-1.02894,-2.41293,0.641297,-2.08938,-8.5701,2.96797,-169.824,-730.048,-659.288,-4060,-140,-2800
-8.58168,-3.99689,-1.31836,-9.37231,-5.21416,1.05752,-7.22068,-2.49021,-11.5045,-4.27324,0.54457,-2.96509,0.970389,0.0609114,-11.1141,1.28177,-167.384,-732,-661.24,-3920,-280,-3360
-3.59979,2.6665,1.96965,-4.5121,-4.31898,4.11753,-4.18249,-1.02412,-6.10273,1.93562,1.74075,1.8695,2.85695,0.854544,-9.52913,1.33032,-169.336,-731.512,-663.68,-4060,-280,-3640
-1.31191,5.58793,0.879982,1.14788,-3.0571,4.71909,0.712869,-3.42614,-0.820215,3.2953,0.209108,2.45122,3.53822,3.54181,-0.386535,0.2742,-170.8,-732,-661.728,-3920,-280,-4200
0.275583,5.40794,-0.669814,2.73728,-0.972134,3.33805,6.89184,-3.07805,2.16863,3.14939,1.78059,0.865943,2.90899,3.5055,8.19187,3.18898,-168.36,-731.512,-661.728,-3780,-420,-4760
4.33744,6.06888,-0.101218,3.93995,0.0735742,1.34207,8.50778,-2.54752,5.94124,5.65241,2.16419,1.21906,2.33235,1.26485,9.25942,2.68944,-166.896,-732,-661.24,-3500,-700,-5180
4.07765,2.14051,-3.34799,-1.38464,-5.26014,-1.89328,1.86157,-6.2412,6.69628,3.27111,2.38117,-2.41104,-0.0108744,-4.09421,0.863831,-4.36097,-170.8,-737.368,-664.168,-3360,-1400,-5320
1.91709,-1.66255,-4.47221,-3.86038,-6.81638,-2.6795,-1.97999,-8.60594,4.91027,-0.157669,1.55292,-5.92657,-1.6105,-3.52716,-3.76992,-10.6602,-167.872,-737.368,-663.192,-3220,-1400,-5880
7.14346,6.36445,1.8457,8.18963,4.26129,0.279075,5.77831,-4.03281,10.4011,2.78623,3.7677,-0.152341,1.00493,2.18859,6.84295,-5.24485,-166.896,-736.392,-663.192,-2520,-1400,-6020
7.43408,3.99461,0.00306281,9.05733,3.85705,-0.656644,4.56431,-5.06676,8.88993,1.6343,6.68466,0.514453,1.10325,1.94606,9.18363,-5.55612,-171.288,-736.88,-663.68,-1820,-1960,-6160
9.42336,4.08879,5.06834,5.81923,4.90193,-0.973917,-0.496543,-2.27804,7.4882,7.16189,8.20816,1.95927,1.94439,1.63457,4.39516,-4.78669,-165.432,-739.808,-664.168,-1260,-2240,-6160
0.405377,-9.01772,-0.88143,-5.07698,-4.93124,-4.21938,-11.0898,-6.542,-0.869957,-1.20764,2.11313,-5.1889,-0.159924,-3.12366,-5.88116,-8.23285,-164.456,-739.32,-664.656,-980,-1680,-6020
-0.627265,-4.71393,0.511268,-5.22954,-0.810072,-2.27332,-11.7309,-3.9957,-1.64435,-1.52041,-0.192177,-2.08845,-0.365409,-2.88262,-8.93349,-5.07885,-165.432,-739.32,-664.168,-840,-1260,-6160
-6.12731,-9.36959,-1.27252,-9.25303,-2.81871,-1.80985,-11.4482,-2.15899,-11.1047,-7.02773,-3.09329,-3.3118,-3.74803,-2.1679,-13.1848,-2.80627,-162.016,-736.88,-665.144,-700,-840,-6160
-14.316,-21.3338,-9.80893,-16.0063,-10.8583,-3.65733,-10.3297,-1.76084,-19.3929,-14.1387,-7.54131,-10.5966,-8.71825,-3.8688,-14.0734,-2.78589,-160.064,-735.904,-666.608,-560,0,-6020
-13.5896,-19.7937,-9.42288,-14.1363,-8.54156,-3.32845,-6.38638,3.78082,-16.7485,-10.0232,-8.74269,-10.3768,-8.52345,-5.14199,-10.1373,1.01306,-161.04,-733.952,-666.12,-700,140,-6020
1.21524,-4.6699,-1.70004,-4.73391,-5.49609,-2.09044,-3.26759,0.312308,0.0693379,-1.24917,-2.49677,1.02706,-2.02985,-2.10092,-1.36809,0.786549,-155.672,-734.44,-671.488,-420,280,-5740
10.6342,9.73304,4.69338,3.79949,1.85423,1.0996,3.09105,1.40072,9.02676,6.22766,2.19921,10.7495,3.22557,3.1689,6.23662,3.81307,-158.6,-733.464,-667.584,-420,980,-5880
5.57545,7.92653,3.92285,4.59932,4.50037,1.62383,5.20094,5.6537,2.6037,4.01859,0.0783272,8.00636,1.88761,3.91644,7.97748,6.36167,-160.064,-734.928,-665.632,-280,980,-5460
-1.11193,0.227429,-3.43883,0.835195,0.448653,1.2124,5.81957,7.75532,-2.55828,-3.65272,-1.93608,-1.15874,-2.62193,0.670706,9.86065,5.50483,-158.112,-734.928,-669.536,560,140,-5040
4.44695,4.88562,-2.8626,3.45519,2.24814,0.966588,5.32213,10.0225,7.53667,2.76078,-2.74721,1.27346,-1.545,-0.525569,9.78961,3.83938,-157.136,-732,-670.512,1120,280,-4480
8.59464,9.83316,-1.31095,7.94619,2.06073,1.38631,1.11751,5.62387,15.8277,4.87116,-0.707122,5.44048,2.0777,-0.265179,6.04732,-0.564986,-153.72,-732.976,-674.904,840,700,-4340
0.907513,9.93509,1.76402,10.3472,6.90199,3.87962,2.46553,8.61175,4.76758,2.34864,-1.65936,5.26226,3.34331,2.49491,1.56175,2.04969,-154.208,-731.024,-675.392,700,1960,-4060
-5.34128,4.67955,3.56188,7.98373,7.74594,5.80466,5.16832,9.53828,-10.3818,1.83129,-1.03042,5.69153,4.53202,6.02521,-2.78094,5.06157,-153.72,-731.024,-672.952,420,2660,-4200
-10.0288,-0.324683,2.03518,2.59049,5.82005,4.91814,2.8587,5.428,-16.4565,-1.08575,-0.0677822,3.99682,4.3959,5.32406,-10.4262,3.90812,-150.304,-732.976,-674.904,420,2800,-4060
-11.097,-0.47972,5.03647,-0.861715,6.3003,3.93961,2.46676,5.52253,-14.0162,1.68289,0.214935,3.97866,4.23628,5.29798,-14.3091,4.17924,-153.232,-734.928,-676.856,560,2800,-3780
-14.2611,-10.0011,-0.920946,-1.79613,1.58289,2.24985,9.95081,4.14669,-14.9768,-3.68293,-3.47576,-3.89492,0.448006,3.73183,0.0139875,7.72545,-154.208,-738.832,-682.224,700,3640,-3640
1.64171,3.20014,0.222148,7.69327,4.20789,-0.476248,13.3479,0.91909,5.91322,2.13715,0.467291,0.088561,0.194302,-0.392959,15.1015,7.64334,-158.112,-739.32,-680.272,840,4760,-3080
12.6397,14.25,3.14976,14.8165,6.42672,-1.65321,12.7261,-5.4927,16.9184,6.28746,5.70598,4.99646,1.29742,-0.857444,19.5588,3.66326,-160.552,-727.608,-675.392,1960,4480,-2800
8.83344,8.98076,3.12734,10.7703,3.4693,1.01704,14.3112,-1.38362,10.3303,3.8362,5.50529,2.30659,0.0872644,0.660236,18.5251,5.77336,-157.136,-735.904,-674.416,5460,1260,-1120
10.4309,2.21045,4.81094,-0.724069,0.56207,1.68629,8.16594,2.34095,11.5809,5.51061,5.23311,0.115866,-1.30456,1.59594,7.19083,6.25256,-157.136,-737.368,-674.904,6580,280,-560
13.7046,-0.844758,2.31504,-13.1475,-8.92361,-1.93404,-7.01925,-4.46773,19.2111,4.44204,4.96225,-3.48118,-3.79722,-4.11942,-9.10199,-4.01503,-158.6,-743.712,-674.904,4200,3220,-1120
10.4567,2.14174,1.13476,-5.50394,-7.28281,-3.01072,-4.86566,-4.26755,18.5621,-0.698118,2.23672,-3.15834,-4.51116,-3.98194,-0.653184,-6.78081,-158.112,-738.344,-677.344,1680,5600,-1960
7.49344,6.22182,1.40493,0.667863,-5.58566,-7.17769,-10.4401,-12.7272,15.6273,-0.639053,1.37226,-1.01046,-3.25117,-8.08443,0.37846,-15.6698,-158.112,-741.76,-682.224,-1260,7420,-2520
10.2822,5.79796,0.669493,-8.50065,-14.8114,-13.2749,-31.375,-31.0694,17.1333,2.84413,4.78119,-0.51186,0.335667,-16.0313,-20.31,-33.6579,-164.944,-733.464,-678.808,-3080,7840,-2660
11.3519,16.1993,10.2977,2.08172,1.99322,-3.48506,-16.122,-15.5182,12.3759,7.04567,4.60828,10.5663,6.29271,-3.14938,-15.8004,-13.2511,-162.016,-729.072,-666.608,-1400,5740,-2100
-17.2075,-6.71439,0.662223,1.22048,3.802,5.68228,4.08631,4.17592,-25.9095,-12.4312,-6.20576,-1.30608,3.82687,6.56419,-0.86749,9.08968,-160.552,-726.632,-663.192,2940,1260,-1260
-31.0733,-20.2879,-7.01305,0.334825,4.62106,5.91447,11.7434,9.02127,-41.5535,-21.0967,-10.4982,-12.6081,1.01889,6.86354,12.4552,15.9642,-161.04,-730.048,-667.584,4760,840,-1120
-16.9613,-24.456,-11.5503,-17.021,-10.0207,-1.81547,-7.57343,-5.11407,-24.7405,-12.6691,-3.87029,-17.8819,-1.81305,-4.23858,-6.64363,-0.872791,-161.04,-724.192,-673.44,3080,3780,-1680
-3.6394,-4.56062,-1.56851,0.595479,0.52449,-2.7084,-2.50979,-6.77001,-9.25033,0.163736,3.36136,-1.61037,2.14232,-1.32312,7.43621,-0.412198,-160.064,-719.8,-676.856,1400,6300,-2380
-5.72601,9.46405,7.40426,17.3916,13.4306,1.03522,3.23662,0.251221,-13.1774,4.93389,1.60014,10.7206,3.27019,6.13672,8.61468,5.66734,-160.552,-716.872,-684.664,700,7000,-2520
-20.3231,-17.7983,-3.3407,-14.3543,-3.17876,-0.759896,-15.499,-0.511132,-30.8933,-6.73591,-7.48432,-6.8139,-3.04979,0.428938,-28.4418,-3.7477,-161.04,-710.04,-681.736,560,7140,-2520
-19.9406,-32.9632,-10.6966,-31.9448,-13.6785,-0.348213,-17.2128,4.13326,-28.9716,-10.9041,-9.20439,-17.6385,-6.43276,-2.95853,-31.1318,-3.14905,-159.088,-709.064,-683.688,2800,6440,-2520
9.59067,-8.18148,-2.27159,-15.0302,-8.39668,0.637726,-6.59184,2.66307,10.2907,8.84248,3.56377,-4.00001,-1.43888,0.492577,-8.86828,-3.80603,-157.624,-701.256,-679.784,5460,5320,-2380
15.0617,0.760486,-2.17535,-4.61248,-6.48838,0.940552,-0.787777,4.31419,20.5865,12.8392,6.45678,0.452767,-1.52432,0.994592,-0.612412,-2.18418,-159.576,-699.792,-673.44,7700,4480,-2240
1.43772,0.0980328,-6.54343,0.752938,-1.33115,2.68384,7.87038,16.3773,8.19603,-0.215648,-5.60775,-3.73785,-7.0681,1.6328,2.89558,7.57153,-158.6,-704.672,-670.512,9520,3780,-2240
1.87319,7.91926,-9.48891,5.09845,-2.66288,-2.55561,5.42922,7.12334,13.8952,-6.0251,-6.2106,-0.584761,-8.18568,-2.40427,6.71866,-1.78862,-161.04,-702.72,-661.728,8820,5040,-2940
15.7937,15.1248,-2.56289,1.85825,-3.05618,-4.57403,-4.9462,-1.94264,25.938,7.24371,3.53589,5.8098,-2.93254,-4.68518,-2.7601,-12.4528,-158.6,-703.208,-657.824,8680,4200,-3640
25.7506,23.5101,4.42528,5.06265,2.73478,-1.16997,-4.32749,-5.98897,32.2591,16.7495,9.48005,14.4014,2.69928,-0.113903,-2.56556,-10.4631,-161.04,-709.064,-655.872,7140,3920,-4340
4.58634,12.159,-3.58201,12.9208,8.69623,4.25661,12.7106,5.92224,6.93542,-3.03508,-5.86447,7.11112,-0.720478,4.22434,17.766,8.38833,-158.6,-713.456,-654.896,5740,3780,-4760
6.99938,21.5693,6.93666,28.8279,24.9645,12.1151,30.7689,22.0301,9.34548,-0.415908,-6.28958,17.0315,5.15321,15.1012,33.2282,28.3678,-159.088,-720.288,-659.288,5040,4340,-5180
-0.322964,12.6563,8.27024,27.5414,20.0473,8.41704,26.0794,13.0963,-2.63799,-1.0804,-0.914291,11.5383,6.64061,13.3842,32.4197,21.5819,-158.6,-725.656,-656.848,3360,4480,-5880
-14.5645,-6.7815,2.17198,16.0789,10.3671,0.919872,18.9676,6.2309,-22.4028,-3.5883,-0.455341,-4.93724,2.35482,1.2023,29.3763,11.5467,-162.504,-729.56,-658.8,2800,4480,-6020
2.32964,-2.69806,3.08438,6.15293,1.60257,-2.89014,6.74209,-5.21948,1.23887,6.84341,6.17971,-1.09244,2.54215,-5.50758,13.6863,-2.13423,-163.968,-743.712,-655.384,1960,4900,-6300
-3.10705,-3.16776,1.51915,5.63874,2.28128,1.84077,10.5876,-0.0626181,-0.772677,-2.28025,-1.44042,-0.957652,0.626608,-1.90092,11.4257,2.64862,-160.552,-732.976,-658.312,1540,2660,-6300
-0.179908,-3.05367,3.79221,-3.07839,-0.0529777,1.41113,-0.735994,0.706307,0.972745,1.23159,0.0609518,2.08911,2.65295,-0.521533,-7.40242,1.55262,-160.064,-736.88,-652.456,1120,2100,-5880
14.413,5.82447,7.54703,-11.8015,-5.89948,-3.78085,-24.6622,-13.8633,17.2182,11.7453,10.9915,7.69809,9.78609,-4.58818,-34.3486,-17.0278,-162.016,-736.88,-650.016,-1680,3500,-6020
-12.033,-18.6327,-5.32237,-29.926,-19.5268,-5.59523,-34.8065,-17.6234,-14.5012,-8.55645,-1.26267,-10.7601,3.26419,-8.98958,-47.423,-22.6854,-162.016,-732,-650.016,-4060,4060,-6020
-18.1552,-23.9843,-6.33439,-19.9173,-13.3076,-0.506286,-14.246,-2.74269,-23.7671,-13.6829,-5.15937,-13.616,-2.4384,-2.55016,-20.8268,-2.70836,-163.968,-729.56,-648.552,-7140,4620,-6020
-3.34027,-11.3431,0.842137,-1.58063,-3.43211,-0.350585,-0.810331,-1.02052,-10.3558,-1.76528,3.53862,-2.29779,0.106258,-0.394381,2.16483,3.03331,-164.944,-731.512,-649.04,-9520,4760,-5600
-3.21478,-3.26506,-0.175601,-5.81844,-6.51392,-5.88185,-13.8835,-12.4696,-4.36173,-3.50802,-3.06452,-1.57268,-2.6907,-8.87607,-8.82271,-12.2615,-162.016,-744.2,-647.088,-11340,5880,-5320
-3.40494,-5.2823,-3.0793,-10.9448,-12.5643,-6.49656,-14.3013,-15.2102,-4.66799,-4.4628,-0.0229422,-2.17936,-5.4732,-8.48802,-15.2484,-15.4065,-166.408,-734.44,-641.232,-11340,6160,-5740
13.7371,8.12618,9.64757,-4.52909,-1.94508,0.031399,-0.0709798,1.54329,11.8746,14.6087,11.782,9.59735,1.99578,1.62832,-8.67109,0.276621,-161.528,-735.904,-638.792,-10640,4760,-4480
10.2791,5.36491,8.69855,-0.315463,1.00211,3.66181,8.41038,4.56392,10.7705,11.963,8.58179,4.30939,3.03742,7.56991,5.43598,5.35943,-164.456,-728.584,-638.792,-12040,6860,-4620
6.1549,8.08269,4.74651,5.78005,4.08538,3.48161,10.8615,2.71191,7.80239,6.20679,2.91541,1.81358,1.30324,7.16582,13.4887,6.69584,-164.456,-730.048,-637.816,-16240,9240,-4200
13.3839,17.384,8.00684,8.94648,8.06005,-0.113665,10.5099,5.25234,15.1797,12.8755,8.5741,6.80019,2.35711,2.84922,14.5857,7.28079,-161.528,-744.2,-642.696,-20020,11060,-4060
14.7099,20.4301,7.33461,5.65183,2.66658,-4.97508,-0.569549,-5.82309,19.1272,10.7158,9.44338,6.60022,0.316103,-3.13967,3.47119,-4.70516,-163.968,-736.392,-647.576,-22960,12460,-5320
-11.5685,1.35555,-9.63373,-6.24043,-8.49126,-9.12135,-9.91511,-5.84371,-6.80709,-13.4258,-9.75846,-11.9555,-9.56677,-11.1176,-8.53439,-9.0613,-164.944,-733.952,-651.48,-23520,13020,-5600
-36.9524,-26.0123,-22.0569,-10.4848,-8.33372,-7.28027,-0.882403,3.49657,-40.4249,-30.3912,-20.7911,-25.8053,-14.146,-6.96917,-5.24817,2.7731,-161.04,-748.104,-649.04,-26320,14560,-5880
-31.2028,-25.3025,-18.3412,-10.6154,-4.26975,-0.692371,0.698427,5.72669,-34.5531,-27.3889,-19.3848,-20.3051,-9.78462,-0.929695,-7.62428,5.46533,-164.944,-738.832,-650.504,-26880,15260,-7000
-15.3174,-8.28368,-5.82748,0.861617,7.68111,5.08082,2.56373,6.84433,-17.903,-13.8722,-14.6233,-6.11498,-2.40839,6.90422,-1.09034,6.42237,-160.552,-737.368,-650.016,-26880,14000,-7420
-5.78515,-0.162244,-4.5947,12.0849,12.3107,6.78273,12.6111,10.0534,-3.95609,-9.87286,-8.06877,-0.407643,-0.158117,7.9225,14.3648,11.407,-164.456,-725.656,-649.528,-27440,13860,-7840
-2.5459,4.39936,-5.00674,25.6073,17.972,6.75622,31.4667,17.831,4.29985,-6.98874,-8.21427,2.31899,-2.89123,7.82812,42.0235,23.6528,-161.04,-736.392,-648.552,-27160,13020,-7280
28.034,23.2194,13.4274,27.6397,18.716,9.40035,21.1196,4.87839,32.8061,19.2936,9.09286,20.1617,7.34964,11.784,33.7224,11.9801,-154.696,-738.832,-649.04,-28560,11760,-7280
30.6782,20.5539,17.581,13.5399,10.2248,8.75497,3.74534,-2.06554,27.7983,25.8891,15.2818,19.9764,11.8652,9.93739,7.3047,2.91057,-157.624,-734.928,-652.456,-28280,10780,-7420
23.5143,19.5313,13.3141,7.83238,7.55599,6.56098,-2.22314,-2.77075,20.0222,21.0625,12.44,16.1836,9.75796,6.1237,-5.32319,0.805037,-155.184,-733.952,-646.6,-26600,8960,-6720
20.4851,7.25397,8.63168,-2.14729,-2.88929,3.58694,-7.90803,-5.15224,16.336,20.4602,14.9181,7.89351,6.71211,0.482669,-9.88646,-5.05739,-155.184,-732,-645.136,-24780,6580,-5600
16.7971,13.5472,13.6208,16.3386,12.3857,6.09562,15.9237,11.5793,13.0376,21.1763,12.5242,14.6309,7.96636,8.65834,22.166,15.1419,-154.208,-727.608,-647.088,-23800,5880,-4900
-0.394581,0.146662,0.292289,1.68303,-5.54349,-4.59029,-3.22317,1.41312,0.532431,2.33092,4.85949,0.362682,-0.168997,-3.14048,6.45431,-3.34118,-153.72,-725.656,-646.6,-22540,4900,-4060
-14.4923,-21.1233,-14.6512,-31.659,-33.93,-17.9372,-44.5684,-21.0653,-11.6469,-9.72375,-0.205433,-18.0006,-7.89287,-25.6013,-37.7085,-39.0519,-151.28,-724.68,-648.064,-22260,3500,-3220
8.21059,-13.4668,-7.58164,-42.397,-35.3392,-18.2147,-57.9242,-32.6123,7.47897,9.2388,13.008,-8.97838,1.10958,-26.6784,-57.5369,-51.8128,-150.792,-723.704,-650.016,-22960,2520,-3220
6.08114,-0.489393,-2.17503,-15.6621,-7.30659,0.7834,-10.4609,-2.03297,9.22262,1.8339,2.27137,1.46741,4.61194,-0.608026,-20.4669,-9.28326,-148.352,-715.896,-654.408,-23520,1540,-3500
-4.16098,3.51851,-2.31365,9.70903,12.1603,11.2683,22.2468,15.3645,3.61259,-12.0481,-12.0614,3.66191,1.69998,13.4248,17.5098,16.0024,-149.816,-714.92,-658.312,-24780,1120,-3780
-6.77284,-2.33889,-2.64095,8.74544,11.7045,6.24738,17.7563,13.4966,-3.5204,-9.48294,-11.1126,-0.232364,-0.3569,8.30513,16.2445,13.4764,-142.984,-726.144,-664.168,-25200,140,-4060
-44.9496,-24.5817,-23.5815,-10.3762,-6.04552,-3.53653,1.49619,10.936,-40.9314,-40.9459,-31.8321,-22.6104,-16.8382,-6.19647,-4.6854,6.64426,-146.4,-713.456,-657.824,-24920,-560,-4480
-49.4203,-14.3218,-17.3931,1.38088,2.97188,-4.66122,4.14844,5.84021,-46.2626,-40.778,-30.9561,-16.2542,-14.9009,-2.88501,4.53719,8.27952,-142.984,-733.464,-664.168,-23100,-2660,-4060
-30.7265,-20.8173,-2.46008,-2.95437,5.03609,0.187852,6.66822,-3.18312,-40.3058,-19.8318,-9.93103,-7.28185,-1.71819,4.5385,2.47152,7.43071,-146.4,-733.952,-658.312,-25760,-1960,-4200
-17.786,-26.3886,5.28503,-20.2861,-3.66416,-0.156184,-9.79682,-10.7301,-31.9494,-4.29112,0.139006,-6.22345,2.87405,0.22096,-20.4505,-5.37227,-142.008,-738.832,-654.896,-25760,-1960,-4760
15.7863,5.09596,16.4277,-1.12369,2.63304,0.0769498,-6.48131,-6.30371,7.66825,20.9048,14.506,12.6137,6.95398,2.52217,-14.5401,-5.14718,-142.496,-724.192,-653.432,-24500,-1540,-5880
25.324,26.5918,15.9808,16.671,7.60841,-0.797241,-2.60545,-5.13413,24.4475,19.6917,14.0777,20.0362,3.46253,1.02844,-5.56932,-4.27338,-149.328,-718.336,-650.504,-24640,-1680,-6020
1.09877,-11.4161,-6.07879,-10.3925,-12.2655,-6.98898,-9.35635,-6.68185,-3.59548,-1.29159,4.71264,-9.03264,-5.90371,-10.7746,-12.6099,-7.62023,-142.984,-724.68,-650.016,-25760,-700,-5880
3.39972,-28.8895,-17.9927,-31.6799,-33.8997,-14.4845,-22.4286,-13.0144,1.58947,-1.45272,5.98744,-25.9751,-10.611,-22.7133,-22.5845,-19.1792,-148.352,-726.632,-653.92,-26880,560,-6580
14.2946,4.74099,-5.26482,-5.57523,-11.6429,-5.36153,-10.0334,-7.57186,22.0681,6.93598,5.1182,-4.64738,-2.85237,-10.9416,-4.28544,-11.3674,-149.816,-727.12,-656.36,-26740,140,-6860
5.5997,12.6227,1.31137,18.3924,13.4424,6.01571,23.3522,9.40642,11.2958,3.7336,0.800908,6.10774,1.75543,6.76743,28.7461,15.5882,-153.72,-722.24,-658.312,-25900,-840,-6580
9.61633,22.6481,9.48644,34.8243,28.1287,13.4225,44.5648,19.4322,14.9284,8.43097,2.66373,15.8247,6.00577,18.9645,50.4914,33.3246,-155.672,-724.192,-656.36,-24780,-560,-5600
17.1114,18.9651,9.5848,28.4912,20.263,6.65501,36.4943,15.96,20.6632,15.8962,8.5262,11.8891,3.80286,12.2173,46.2178,27.4529,-157.136,-726.632,-660.264,-23940,0,-5040
25.5439,7.0508,3.62053,0.831782,-3.78112,-0.953171,10.5105,4.29766,29.9037,16.4459,12.6546,1.24852,1.95566,-0.406824,15.1551,7.73003,-162.504,-732.488,-659.776,-22260,420,-4480
45.4675,23.1143,10.3491,-4.66396,-10.5981,-6.32567,-14.8684,-13.6557,53.3955,31.9064,24.2938,10.0657,8.34741,-8.08907,-10.8042,-14.0974,-165.432,-721.264,-664.168,-20160,420,-3500
41.8232,36.2306,14.4305,8.29338,-4.76667,-5.38852,-22.1955,-18.6779,49.9184,30.6041,18.1131,21.6045,10.7993,-3.70051,-17.4098,-20.6435,-171.288,-715.896,-651.48,-17920,0,-2100
23.2403,28.4994,16.9675,10.6903,5.86688,4.88879,-15.0143,-10.0725,22.3243,20.2556,7.48237,23.7612,14.1727,9.25164,-16.8742,-11.9322,-172.264,-719.8,-656.36,-15680,0,-560
9.08648,20.8672,15.6815,10.9467,16.4749,12.031,1.55619,2.03096,8.95451,9.72766,-1.15186,21.455,14.3379,18.7455,-4.95651,4.0589,-174.704,-712.968,-647.088,-13580,-700,980
-27.0305,-1.92292,0.192818,11.1288,17.1199,13.9352,21.6703,15.674,-24.7444,-23.9765,-21.4314,2.58132,1.58406,19.5075,15.7365,20.0595,-180.56,-710.04,-644.648,-12460,-2940,2660
-47.4148,-5.75503,-5.03041,17.743,18.9015,8.6378,30.2038,26.8736,-52.21,-36.3689,-22.8833,-7.59901,-7.56828,10.1519,26.8271,27.5445,-186.904,-703.208,-635.864,-11060,-4900,4200
-69.8678,-46.3833,-24.2464,-11.1114,-7.73411,-3.91035,12.2191,24.499,-92.2114,-46.036,-23.5374,-39.8947,-18.9947,-8.43783,10.1534,13.8335,-187.392,-702.232,-634.888,-11060,-7420,5600
-73.4789,-49.6604,-27.2525,1.62659,-0.750014,-1.51666,27.8218,30.1399,-99.3004,-46.7911,-27.2954,-42.8578,-21.9236,-6.48798,35.1954,25.8848,-179.096,-732.488,-647.088,-13160,-8820,5880
-46.7363,-34.6353,-13.5517,0.00102566,3.50388,5.66173,15.5644,14.619,-58.734,-32.5671,-22.3506,-23.6025,-10.1995,2.67335,18.4587,15.7335,-178.12,-723.216,-657.824,-19040,-6720,4060
21.3424,-9.21899,4.6322,-26.0822,-12.9575,-0.462348,-26.1976,-14.2374,33.7781,10.8901,7.93547,-2.3507,3.1235,-4.90531,-29.6715,-17.0361,-178.12,-727.608,-666.12,-20020,-4620,1960
87.9159,39.9647,24.0759,-28.9795,-17.3602,-7.78503,-55.4128,-34.2232,116.575,57.7318,37.3434,32.1116,14.0529,-10.75,-62.6251,-41.8684,-172.264,-740.296,-684.664,-20720,-3920,560
81.5386,43.8025,26.6543,-14.1672,-9.82703,-9.5422,-47.6408,-39.8463,96.5242,61.1648,39.6173,37.8207,16.0705,-6.96212,-47.7954,-45.2892,-182.512,-720.288,-672.464,-24500,0,-1960
12.5953,13.741,-0.638314,4.74438,-5.00009,-10.5118,-19.1982,-24.3147,8.90295,12.6276,11.5893,8.32702,0.29641,-8.90655,-8.66836,-25.7964,-179.584,-721.264,-667.096,-22820,-560,-2520
-85.6699,-53.4276,-40.3069,-26.2865,-27.1353,-12.8243,-34.1389,-18.6905,-100.66,-62.6219,-38.5606,-46.8412,-21.9791,-19.9774,-33.0527,-27.6838,-179.584,-711.992,-669.048,-21140,-2100,-2940
-81.4616,-77.2683,-35.3861,-58.3095,-34.7216,-2.01287,-37.7501,-10.1802,-94.272,-63.7419,-42.964,-50.0351,-14.6279,-8.61369,-59.2182,-18.1336,-179.584,-707.112,-661.728,-20300,-5180,-3220
-9.5354,-23.4743,-4.63269,-21.9723,-6.9307,3.61218,-3.10883,5.69978,-10.2477,-9.61266,-10.0373,-7.82579,1.3712,3.68781,-16.8617,7.19726,-174.704,-722.728,-660.752,-19740,-7980,-3080
-5.37083,8.92822,-1.92035,25.8666,17.8555,4.93455,36.5887,18.7242,-2.47153,-7.24955,-5.51241,9.61615,-1.00961,9.53303,40.2155,28.7172,-171.288,-725.168,-658.312,-18060,-10780,-3640
-5.83084,-9.8142,-3.73418,14.6513,13.7622,1.38144,38.7524,18.4179,-10.5249,-0.601709,2.38368,-0.448567,-1.54731,3.71331,42.4937,27.1281,-168.36,-732,-671,-15960,-13440,-4620
70.1006,34.8188,20.6984,27.6664,21.169,-0.998137,30.5117,3.08183,81.4917,56.144,36.7093,30.7321,14.4339,3.02893,41.5887,14.1425,-170.312,-722.24,-670.024,-15960,-13020,-5740
88.0433,79.604,29.6447,64.8426,41.0896,4.62913,45.6712,11.1855,112.314,59.3364,32.8822,55.9868,15.4438,12.7294,61.5122,24.3908,-168.36,-731.512,-666.608,-14280,-12180,-6860
27.5456,40.8303,12.8854,38.4304,25.4866,5.01174,24.2515,10.8809,39.7046,16.6226,6.27494,24.5091,5.03505,7.83134,31.3695,13.7811,-167.872,-743.224,-683.688,-16660,-10080,-8400
24.1474,13.4814,12.3072,-22.8454,-9.922,-0.958223,-43.0402,-17.8573,28.9624,18.5936,10.6091,10.5756,8.98443,-3.95229,-53.4436,-30.9938,-163.968,-737.856,-691.984,-17780,-7980,-9940
-7.02511,-1.03949,-0.456379,-12.6935,-8.60132,-1.20705,-23.824,-8.54749,-12.3106,-1.86593,-1.1107,-1.22021,1.63602,-4.96955,-19.6669,-19.1499,-169.336,-740.296,-687.104,-14980,-7980,-10360
-55.5409,-16.6466,-15.1183,22.9289,12.7583,3.36904,27.2748,14.2791,-68.5153,-36.1433,-22.6784,-15.2343,-8.89522,3.88378,47.5249,16.939,-169.824,-726.632,-676.368,-14420,-7000,-10500
-37.1573,-8.19672,-2.80516,18.7013,12.3996,6.0511,22.3741,10.9578,-46.8578,-26.6737,-12.9249,-6.85988,-4.65381,9.18988,28.1806,17.5384,-166.408,-732.488,-668.56,-12460,-7700,-10220
-46.6193,-27.553,-3.48625,-10.1914,-3.362,7.83687,-4.723,2.09832,-58.8112,-35.1893,-19.3706,-18.2699,-5.0967,9.19292,-15.7633,2.64438,-163.48,-734.928,-665.632,-11620,-7280,-11200
-32.6411,-48.0471,-17.0316,-44.9478,-30.5918,-2.00119,-20.8909,0.428117,-35.0466,-29.294,-17.3196,-38.5685,-13.5102,-5.75671,-37.8708,-6.99688,-165.92,-740.296,-664.168,-11200,-6020,-12600
14.4342,-3.72273,-8.83728,-34.9065,-33.0275,-11.06,-28.4838,-6.80315,27.5188,2.39177,3.10023,-17.9155,-8.89835,-17.5108,-38.9404,-16.8797,-164.456,-742.736,-665.144,-10080,-5880,-13440
16.8008,3.00914,-1.48233,-25.3874,-27.7094,-10.5088,-30.7426,-12.2691,22.1591,11.5079,11.526,-8.83761,-3.44195,-17.8055,-37.1138,-21.2521,-161.04,-740.296,-660.264,-9800,-5740,-14140
43.8803,16.8794,12.6721,2.61011,-6.98877,0.232416,7.08792,1.64813,43.685,32.7694,23.0726,11.3734,5.0893,-0.859451,8.07756,1.87904,-164.944,-732.488,-653.92,-10220,-6160,-15120
52.3038,28.5111,18.0619,29.7628,13.366,2.12071,34.4468,12.144,54.0009,37.5857,23.6411,19.0692,6.26089,4.43654,47.2306,19.2272,-162.992,-737.368,-672.464,-11480,-5880,-15820
64.5801,27.3921,13.5869,11.0331,0.384623,-5.01644,8.14756,-3.3461,75.0198,41.9181,29.6542,16.5369,7.25473,-4.10438,13.2327,1.70077,-163.968,-744.2,-674.416,-10780,-5180,-16100
55.4933,47.0534,13.7285,10.652,4.52608,-5.63644,-17.926,-16.9826,72.0645,33.1397,21.8939,29.287,11.2704,-3.85562,-22.7333,-14.7204,-163.48,-747.128,-681.248,-10500,-3920,-15960
-21.9804,16.8926,-2.04331,24.1042,16.8701,-0.180661,-0.800673,-8.61322,-33.2039,-12.4132,-7.4396,13.7488,3.57371,4.84423,1.08555,-3.72085,-164.944,-738.344,-717.848,-9520,-3220,-15680
-120.254,-38.7295,-19.8639,27.9375,27.1657,11.1418,33.4763,13.4323,-167.204,-68.9818,-40.6049,-14.4763,-5.62677,19.3531,36.9637,24.3023,-151.28,-730.048,-705.16,-7420,-2660,-15400
-153.783,-110.36,-44.0601,-35.8347,-10.8352,4.10251,9.7204,17.1757,-197.608,-91.3047,-52.0428,-65.1199,-18.6412,0.362373,-1.57744,16.9077,-160.064,-743.712,-665.632,-8820,-560,-14840
-38.6787,-68.5778,-29.442,-65.5802,-40.7396,-11.4178,-33.8093,-4.67748,-38.7727,-24.2374,-11.6519,-47.5947,-11.5832,-21.2019,-49.1644,-15.611,-162.992,-745.176,-677.344,-6020,1540,-15260
49.0783,-4.8652,0.4855,-35.4429,-23.8941,-7.31857,-18.1543,-4.60208,68.7356,30.7559,17.2226,-3.67849,2.55722,-12.3266,-26.2597,-6.81989,-159.088,-735.904,-671,-1260,1680,-14420
71.5814,25.5736,21.2821,-6.28367,0.589113,2.54925,-3.07304,-1.76555,91.6477,48.5004,20.2039,23.8837,11.6436,3.36947,-6.70514,2.36995,-159.088,-730.536,-671,420,840,-14140
40.1891,52.3506,27.4809,40.4842,31.1098,14.3651,17.6348,1.62108,55.0367,21.5563,2.27165,43.0001,12.8452,21.5085,24.7468,11.2611,-158.6,-730.048,-673.44,1820,280,-13440
-4.60758,49.2438,28.8366,73.1627,59.0953,24.2244,42.4083,12.9371,-4.57317,-4.15916,-13.6717,44.6761,11.9169,35.6897,60.5738,27.3323,-158.6,-732.488,-662.704,3360,700,-12880
-10.0506,7.6786,6.84921,25.5914,20.4073,6.89799,14.3161,5.9151,-8.88928,-6.10135,-8.95124,8.46865,-0.741154,10.0516,25.3052,8.06359,-159.576,-735.904,-668.56,3080,1960,-12180
9.61957,-5.76528,-5.07637,-16.7257,-17.2577,-9.53616,-18.7307,-1.92702,18.8925,6.44492,2.59879,-12.2417,-7.82557,-15.8455,-16.9162,-12.8157,-156.16,-735.904,-663.192,3080,2520,-11900
-6.41093,3.46482,-6.71419,-2.60636,-5.91952,-6.0824,-5.47702,3.65344,0.33931,-8.32569,-7.32494,-9.41474,-8.11905,-7.72413,-2.41438,-2.53071,-152.744,-762.256,-644.16,3080,2660,-11620
-21.4516,3.40994,-1.47753,18.2709,15.4738,7.31373,25.2426,13.2514,-21.7572,-18.2968,-11.6606,0.364235,-0.603785,12.6408,30.9508,17.2707,-148.84,-771.04,-711.992,6440,3920,-11480
20.3984,2.12394,9.58944,-9.73386,1.32255,2.95413,-7.67204,-4.54721,20.8581,16.9789,12.6099,7.44037,9.87911,4.47281,-11.6821,-6.6633,-170.8,-679.296,-593.896,10920,5320,-8820
54.4125,18.5688,13.5495,-11.8209,-5.98016,-4.48972,-17.26,-10.9266,64.8887,37.5691,24.7695,14.7979,10.7628,-3.93618,-19.6845,-15.8651,-158.6,-723.704,-720.288,7560,-3500,-8400
62.4941,45.3051,18.4192,-7.7136,-6.50091,-6.90516,-39.9319,-24.1421,84.3573,41.5155,27.2758,30.291,10.2337,-7.31779,-51.684,-30.8481,-146.888,-746.64,-747.128,6860,420,-7840
14.2844,13.7857,0.811543,-33.3756,-21.0402,-11.3336,-58.0915,-30.5733,18.7055,10.9666,12.0713,6.85398,0.38552,-16.6681,-77.713,-43.5033,-161.528,-731.024,-692.96,10360,5880,-7420
-35.4465,-26.3983,-18.7486,-8.89899,-8.4745,-3.73149,1.02899,-5.11019,-50.4219,-23.1241,-7.2669,-16.9651,-8.22597,-5.29958,7.0682,-5.95091,-165.432,-741.272,-711.504,13720,6160,-7000
-21.7784,-36.207,-25.3582,-16.1716,-17.0548,-8.74743,7.33684,2.12557,-27.3697,-18.5539,-7.11136,-29.3814,-13.3911,-13.2526,16.9399,-0.474213,-162.504,-739.808,-655.872,20440,5180,-5880
11.3642,3.06368,-7.08283,6.39112,-2.57876,-3.65318,15.1212,1.86302,15.7573,0.852566,1.20645,-3.09047,-3.23501,-2.97463,23.3593,2.94996,-162.504,-770.552,-698.328,23380,1960,-5040
-45.2434,1.45231,-2.64817,51.1593,31.9844,14.3576,52.5554,20.8787,-62.2699,-31.6937,-21.6499,1.05103,-3.73,21.6596,67.3233,30.5834,-153.72,-760.792,-637.328,25620,3500,-4060
-93.6697,-40.6611,-18.0935,35.6634,23.672,11.5188,51.8489,28.7069,-123.483,-59.6036,-36.8155,-28.2621,-13.2266,14.2005,65.9556,34.6207,-160.064,-813.496,-697.352,32620,4620,-6440
-53.9572,-48.996,-26.395,-21.997,-20.1126,-3.43348,-6.46118,6.65735,-67.4953,-36.0454,-17.1025,-37.4296,-12.4307,-13.2059,-13.7834,-3.42138,-164.944,-782.264,-778.36,45920,4620,-3360
16.8341,-14.8541,-7.04945,-34.7593,-24.264,-6.6362,-27.9586,-1.10467,19.8635,11.3513,12.8482,-14.2632,-0.764605,-18.5948,-45.3583,-16.173,-139.568,-586.088,-627.08,50400,140,1260
48.1136,-14.7311,-2.07542,-43.6841,-29.1485,-11.0911,-28.7866,-8.02646,55.3873,33.7739,25.1127,-14.8442,3.45024,-20.0296,-39.3902,-16.5668,-120.048,-667.584,-759.328,35840,-17920,-1120
58.1633,5.10331,7.21953,-37.1442,-27.3628,-10.6234,-35.2464,-17.9184,70.4663,39.795,25.3553,-2.11708,7.26776,-16.7596,-43.5597,-21.3739,-161.528,-771.04,-736.392,30240,140,-2380
40.3598,25.0649,16.6383,0.689796,-0.135346,-0.217204,-6.09853,-7.9531,51.0422,27.8406,14.6466,16.98,9.06461,2.87925,-9.31958,0.102903,-145.424,-798.856,-786.656,42560,2660,2100
16.3038,33.6965,16.301,23.1962,12.4825,3.43038,4.47172,-0.587017,25.39,10.657,3.98618,26.1876,5.99913,9.84823,3.58373,7.93949,-156.648,-666.608,-636.352,51100,6580,3780
-7.58417,9.44151,7.88113,3.69269,-0.333435,-1.35096,-11.3774,-8.35528,-8.90228,-1.11514,-2.19947,10.9099,0.429007,2.96528,-14.5769,-2.81172,-111.752,-692.96,-752.984,46900,-11900,280
-55.5167,-6.2516,-2.57636,34.9687,26.8278,11.2582,41.2744,17.9386,-71.5237,-32.7635,-27.0988,0.710984,-5.86052,18.9154,52.217,35.453,-138.592,-737.368,-706.136,41580,-2380,-3220
-54.1982,-4.78335,-0.985127,36.2362,29.3374,12.9907,36.2235,14.7463,-65.4025,-34.7063,-25.9718,4.6325,-0.86651,21.3405,42.9368,31.3988,-126.88,-803.736,-791.048,42840,-3640,140
1.35172,-0.967568,8.60671,-3.97324,3.65689,2.56053,-8.5249,-8.01216,5.26312,0.42554,-0.755986,6.77217,7.4141,6.59369,-11.5617,-2.33494,-154.208,-778.848,-714.432,58380,2520,4480
39.5996,36.8706,13.0508,30.5022,18.2362,5.84939,25.4306,6.93867,59.5587,17.646,7.73333,27.8269,7.13462,13.1038,35.9501,17.6575,-112.24,-631.96,-619.272,61460,-2240,5460
32.7876,29.6283,7.40962,17.0889,8.53833,0.775641,9.55222,7.37497,48.6473,15.0974,5.87888,17.7463,2.09031,2.64906,9.04567,9.11412,-104.92,-562.664,-693.936,45500,-8400,-420
48.1795,22.7724,9.90052,-21.8687,-15.3265,-8.92954,-30.4252,-10.2681,57.9521,29.0071,19.2766,13.1601,3.98824,-11.2635,-49.0631,-18.3363,-105.408,-708.576,-765.672,26460,-8260,-2520
-13.4195,0.391199,-2.11624,2.51964,2.11901,-1.30566,11.146,9.61851,-25.338,-8.28909,-4.97553,-2.82146,-5.24881,-1.15177,11.1066,8.19067,-135.664,-789.096,-719.8,26040,6720,1120
-79.4046,-38.7541,-19.3163,28.6821,16.3225,6.94051,51.0867,27.395,-108.154,-50.0605,-31.4386,-28.0616,-15.5592,6.8776,75.2899,32.1406,-137.616,-767.136,-668.56,38080,11200,3080
-27.051,-53.1865,-21.4399,-26.2534,-23.7612,-9.3677,2.26644,2.46055,-34.935,-16.6712,-4.54495,-39.8854,-13.4536,-17.1627,14.9765,-3.03206,-113.704,-705.648,-706.136,48300,-560,2800
54.1883,15.8665,13.8704,-7.94729,-4.40045,-4.5535,-5.97979,-7.85921,70.2243,35.7318,25.4557,9.54485,5.46109,-7.6975,4.61642,-10.6441,-111.264,-675.392,-740.296,48300,-8680,1680
28.9768,19.3982,16.733,-2.3197,4.24647,2.37029,-21.5025,-17.8259,31.9969,23.1641,17.344,17.2843,11.5046,2.90749,-14.0608,-21.716,-114.68,-686.128,-744.2,41860,-9100,2800
9.56802,16.8392,13.3637,-16.0074,-2.76162,3.95029,-55.4565,-31.8561,8.49507,10.1119,7.67726,18.5758,14.7109,4.26695,-63.1132,-43.2077,-123.464,-725.168,-681.736,39760,-3500,3640
24.9778,16.9243,14.9279,-47.4357,-18.8669,0.432584,-85.0724,-32.3159,29.7882,18.9124,7.02899,18.7401,11.6304,-2.06235,-122.606,-54.8923,-128.832,-723.216,-727.12,38500,4620,1960
-25.216,-31.0358,-11.1247,-54.457,-24.1876,2.11881,-42.9887,-0.686508,-34.7614,-16.5433,-13.7454,-16.559,-4.24723,-1.53401,-78.3635,-20.135,-129.32,-731.512,-718.336,42700,2520,2940
-37.1512,-29.4849,-17.9462,0.0209848,5.58908,6.10619,29.742,28.0213,-47.9676,-24.3933,-18.126,-20.002,-8.47332,6.50592,25.9608,24.9816,-133.224,-747.616,-725.168,40880,2520,3920
-17.2066,-15.3907,-17.965,9.15965,-0.892751,-5.57729,25.647,13.9181,-16.3014,-14.6922,-5.16077,-20.2244,-9.18407,-7.54739,35.0575,13.2233,-148.84,-737.856,-700.768,40040,10080,3640
4.22731,0.651286,-9.85409,12.7913,-3.35966,-9.83116,11.0008,-0.400897,7.25432,0.906018,7.54441,-8.11541,-3.56321,-11.4121,24.4666,-1.65248,-133.712,-744.2,-683.688,43120,8260,4200
-7.52978,2.01391,-9.44469,19.6077,4.66418,-4.31962,16.5148,3.39995,-5.46583,-2.76321,-0.479442,-5.09211,-3.16113,-3.37412,26.5513,4.57238,-131.272,-723.704,-693.448,35560,11620,2800
-44.2582,-12.5177,-18.6434,33.4379,13.4363,2.1231,41.0776,11.8778,-48.8804,-29.0675,-15.9811,-14.232,-9.49692,4.99873,56.2226,20.7644,-126.392,-736.88,-692.472,34160,9240,1960
1.1963,-14.6974,-7.13004,2.31834,-0.507797,-3.14601,15.4104,0.701949,3.58595,5.72776,6.91351,-12.575,-3.47882,-6.08027,20.6863,5.44417,-148.84,-729.072,-653.92,33740,12880,420
79.7175,33.6326,18.3303,-2.53137,-0.887336,-5.39301,-6.12453,-17.9014,98.1474,54.7461,34.7949,20.3532,11.9005,-5.97394,-5.65622,-12.0532,-145.424,-749.568,-657.824,46480,2380,3500
52.9277,45.7792,19.4849,29.3895,22.3272,4.93853,19.3779,-5.08672,65.2718,33.2633,16.2497,30.0328,11.8488,9.35312,27.1042,7.64881,-142.496,-759.328,-700.768,48020,3220,3360
-6.5463,13.6724,5.16568,23.7542,19.7135,9.3894,23.8803,8.90995,-8.59284,-5.68697,-9.89718,11.3034,2.66823,12.8778,25.8383,19.9156,-137.128,-749.08,-695.888,37660,11760,2660
-26.8684,-19.9397,-7.59205,-1.60428,-1.11116,3.09249,8.29331,7.93236,-36.3076,-19.9791,-14.7303,-10.2261,-5.62109,2.32079,8.05666,13.9999,-154.696,-734.44,-683.688,32900,19740,140
5.04681,3.69597,1.18253,9.34652,3.87918,3.0793,13.8003,10.1615,7.33977,-1.92351,-3.49845,5.74816,-2.5521,5.0781,15.268,17.2622,-170.312,-755.912,-646.6,40180,14560,2100
2.40406,15.0895,6.49935,6.30845,-0.68653,-0.0163245,-7.7433,-0.854109,6.31917,-4.58694,-4.25202,10.5431,-1.92312,-0.597724,-12.8145,-0.593002,-147.864,-738.344,-669.536,48860,3080,7000
-10.4665,-1.06905,5.83595,-9.0535,-8.52201,0.735284,-16.9063,-6.10425,-11.437,-9.20575,-3.54679,3.58742,-2.52456,-2.98585,-28.5103,-6.07271,-145.424,-740.784,-680.76,44940,6020,6020
-7.88891,-18.6801,1.85315,-32.4348,-19.9619,-4.03189,-23.2228,-5.94863,-14.3042,-0.681776,0.428609,-8.20095,-3.09537,-9.61658,-38.2472,-10.7761,-165.92,-750.056,-695.888,36260,19880,3640
-51.8728,-37.289,-13.4066,-31.7941,-23.2197,-1.98862,-25.8284,-6.67955,-62.4964,-31.8499,-19.2156,-22.8568,-6.80474,-6.41366,-38.6701,-13.4621,-164.456,-724.68,-649.04,35840,18760,3500
-48.5151,-21.4429,0.0844858,-7.33766,2.18511,6.33359,-9.04523,3.05003,-65.0206,-23.7587,-15.8672,-6.93154,2.78786,7.78936,-18.1246,1.24422,-173.728,-738.832,-657.336,33320,15120,3920
3.21284,-5.38639,11.3787,-12.788,0.153593,1.44282,-20.1742,-8.49425,1.26896,7.19597,4.18948,3.76875,10.6724,4.04325,-21.0283,-11.6928,-161.04,-758.84,-619.272,41720,7280,7560
46.6169,36.657,24.9026,13.5653,15.292,6.33252,-5.56404,-4.17836,63.8381,25.3144,10.0159,30.1884,15.6369,14.6732,1.89293,-4.377,-151.768,-764.208,-668.072,38080,10360,6020
30.1159,34.5621,15.9074,25.934,20.1561,6.85903,14.5834,11.1243,45.8654,13.0348,2.00637,24.0652,7.01626,14.6165,24.0722,13.0971,-168.36,-709.552,-628.056,34860,16520,3500
5.94034,-1.54562,-8.09595,-3.70726,-5.66692,-5.40881,2.97601,5.44948,12.3284,2.06189,3.94504,-6.90387,-4.13858,-6.19267,10.2244,4.83424,-173.24,-723.216,-633.912,36120,6160,3920
29.6094,8.10323,-3.92525,-7.7913,-9.02152,-10.773,-5.30119,-3.70655,31.4128,24.1524,17.9654,-1.70832,-0.122085,-12.5764,3.09442,-6.9245,-170.312,-751.032,-621.224,35280,2660,5180
16.9808,7.8533,-8.32239,-1.1945,-4.36228,-9.90557,-1.1427,-3.51874,15.5831,14.06,8.38711,-1.30941,-2.76653,-10.1534,4.68662,-7.42501,-176.656,-731.512,-633.424,32760,8540,4200
-21.6819,-18.3613,-15.5678,-5.92338,-5.37735,-4.56801,2.60371,4.34398,-34.8349,-14.7288,-7.10703,-14.5937,-7.41674,-6.43988,2.39122,-2.727,-172.752,-759.328,-666.608,38780,3640,4900
-20.6257,-26.2358,-11.3065,-5.44694,-4.58168,-2.61378,14.0476,10.7068,-29.621,-13.862,-3.4388,-17.0123,-6.32096,-3.86812,14.7108,5.31713,-168.848,-756.4,-641.232,39760,560,6580
-6.30446,-6.31945,-5.97882,3.37038,-3.23282,-3.00324,7.90014,2.45038,-5.31321,-8.54235,-0.33999,-4.02181,-4.11206,-2.31429,8.46008,-0.282447,-174.216,-756.4,-632.936,31360,7280,5040
-31.6858,-9.24649,-8.87285,15.9977,4.92737,1.63122,14.4701,7.26578,-38.5611,-21.5962,-12.2347,-8.54602,-6.97258,2.25431,18.628,9.22808,-168.848,-769.088,-647.576,29120,9240,3780
-39.3688,-27.023,-16.1809,5.79493,1.33749,3.04711,22.4935,10.6617,-47.9146,-26.4514,-14.3617,-23.6202,-9.07839,-1.83959,27.0468,17.7352,-167.872,-793.488,-669.048,25620,14420,1120
-4.08527,7.60487,-0.198912,21.4842,13.6443,6.21632,24.1169,5.87293,-5.14593,-4.04684,-2.42962,-1.27512,-0.414598,3.68742,33.9862,16.1407,-164.944,-710.528,-618.784,27720,17220,840
7.34449,-0.569447,0.104451,-8.53687,-5.81191,-3.46176,-13.8956,-12.0415,6.68896,8.54802,7.89575,-5.42571,-0.0130945,-8.12966,-14.2585,-10.0194,-158.6,-739.32,-745.664,23940,11340,-560
42.3605,10.3674,8.21779,-30.7399,-20.2478,-5.10259,-43.4084,-26.0033,52.5748,30.1162,21.5011,7.58982,6.76563,-9.79917,-58.9711,-28.5545,-171.288,-689.544,-549.488,34860,5320,2940
36.7203,28.9114,18.1992,3.42428,7.82382,4.96489,-6.77802,-4.93825,43.521,27.1338,11.1696,20.871,9.70024,6.75285,-15.0346,-0.597577,-136.64,-769.088,-707.6,29260,-1540,2800
8.22482,7.41226,3.80814,1.16267,3.39979,2.28743,2.39877,-2.49084,11.7221,4.77529,-0.958209,3.9925,1.16138,5.11197,-0.357296,0.00506601,-159.088,-761.28,-596.824,31920,9240,1680
17.4424,12.1185,8.41201,-1.65386,2.40144,0.43823,-4.65475,-7.18903,23.988,12.0076,6.44272,9.319,2.36275,4.39524,-7.09265,-6.78569,-142.008,-735.416,-615.856,32200,3920,840
9.01228,6.17173,7.60158,-9.83996,-1.4119,-1.40194,-16.6928,-11.6432,13.401,7.16342,6.05055,7.14303,2.51196,1.09008,-22.8664,-14.5276,-158.6,-745.176,-624.64,27580,3640,-560
-2.5689,1.98451,3.70953,-10.4142,-4.39769,0.35198,-21.6842,-11.6782,0.326214,-1.79237,0.436063,4.64136,3.25193,-0.338136,-23.9902,-17.9818,-150.304,-750.544,-586.088,26040,140,1400
-11.9491,0.106529,3.28374,8.13004,5.60824,5.9665,0.777214,-0.0884198,-11.897,-7.46045,-5.48842,4.85424,3.68415,6.16608,7.80985,-0.844769,-152.744,-796.416,-826.672,25900,-1680,980
-17.1581,3.00577,4.17159,30.2703,22.2089,11.722,32.4747,16.7783,-21.7486,-12.9497,-11.3662,9.07861,1.91534,16.3718,43.205,24.5537,-165.432,-720.288,-575.352,37940,-840,6020
-21.6205,-2.49094,-2.5813,21.5509,18.1402,8.90568,27.1811,19.8731,-26.5168,-19.8984,-14.7044,2.25839,-3.00003,13.4858,32.2864,23.9093,-158.6,-754.448,-634.888,28280,-4620,4760
-15.5747,-3.60702,-10.2808,3.4688,0.328837,-1.47779,6.96043,14.5211,-16.3917,-15.4827,-10.0224,-7.04791,-7.77705,-1.79859,6.26944,8.7296,-179.584,-824.72,-685.152,22960,14980,2660
-0.401722,-11.9177,-11.3352,-11.3748,-16.0295,-5.61845,-8.06145,1.3068,-1.2384,-7.29964,-1.20177,-10.3121,-5.62704,-8.72344,-10.5889,-4.95623,-164.944,-681.736,-715.896,33880,9380,7980
28.028,-1.50796,0.583244,-12.853,-11.9724,-5.07659,-8.47998,-1.83524,33.4888,16.8894,9.15442,0.402116,3.76087,-7.50291,-14.8662,-5.30394,-143.472,-678.32,-677.344,27020,-11060,9940
25.1868,7.28762,4.45461,1.11675,-0.766504,-1.5353,0.748453,-5.74138,26.9365,18.6779,9.64218,9.60303,7.8433,-0.515341,-4.92918,-2.47549,-154.208,-692.96,-644.16,13160,-3220,8680
-15.4355,-16.0573,-6.56237,-7.96691,-6.04175,-3.16061,-1.74553,-6.07203,-23.7401,-4.50262,-0.880728,-8.59866,-0.416653,-4.27876,-10.2958,-4.45977,-136.64,-743.224,-607.072,13440,-140,7700
-0.345485,-7.68812,0.649581,-6.80418,-3.70289,-2.23244,0.769479,-3.89598,-2.73391,6.20638,2.68868,-1.45119,0.523516,-1.63846,-6.59885,-2.40875,-149.328,-748.592,-632.936,18200,6580,3500
9.83296,4.55375,3.43539,2.39155,3.03728,1.51756,5.83841,3.35499,12.9564,8.28378,2.18271,5.34381,0.975492,1.82398,2.30249,3.56093,-135.664,-722.728,-590.968,20580,5180,1680
-26.0697,-11.2321,-8.10616,1.7971,1.46001,-0.880153,8.43265,12.7854,-31.8962,-16.1656,-11.9462,-12.0412,-8.00036,-3.07974,9.00461,9.66556,-148.352,-732.488,-711.016,18200,4900,-980
-28.9314,-16.9324,-6.75058,3.20775,0.0821868,-1.22121,9.81389,11.673,-39.1494,-17.8303,-10.2549,-14.6844,-8.23966,-2.00294,17.7685,8.41803,-149.328,-711.504,-615.856,23520,4340,1960
-2.93864,-2.27189,-0.459557,-6.74629,-5.95254,-3.9511,-5.17302,0.0767328,-5.39334,-1.34422,3.78114,-5.29496,-2.02882,-6.37576,1.72605,-4.74429,-153.232,-729.072,-602.68,18060,5180,2100
18.8505,14.0375,8.91673,-13.4095,-8.56458,-5.06029,-24.4462,-16.2906,22.6654,14.1321,12.7948,6.94374,4.96544,-7.78006,-18.321,-20.3302,-147.376,-767.136,-638.304,12600,10360,560
0.692192,10.4744,5.33867,-0.992816,-1.26017,1.57488,-8.35198,-6.27985,8.20177,-4.41445,-2.65336,2.48643,0.728857,-0.0784059,-0.179424,-6.64725,-156.648,-771.528,-698.328,14000,12040,-840
13.1911,23.108,13.3843,15.6875,13.9127,4.38725,5.70199,2.2878,20.9482,5.78233,2.17037,14.7788,5.48101,8.21999,13.3944,5.5527,-159.576,-678.808,-578.768,21280,8960,980
3.42711,10.5884,6.11029,7.99934,10.2668,0.617825,-1.28967,0.722189,3.19417,2.37564,2.55135,8.48722,3.50442,3.87323,-0.162016,2.94393,-148.84,-717.848,-638.304,11340,3080,0
-32.7929,-20.13,-11.6142,-9.93409,-1.68308,-1.31637,-5.77654,1.0028,-39.3246,-22.4745,-13.4743,-12.837,-6.13533,-0.174608,-12.1855,0.0975923,-163.968,-720.288,-630.008,8120,11620,-1400
-6.80381,-12.6082,-4.24001,-13.2616,-5.63467,-2.50616,-7.0777,1.6299,-6.16429,-0.475236,-3.61307,-7.80866,-2.17791,-2.76962,-11.3355,-2.73304,-143.96,-719.8,-688.568,10360,7700,140
4.25813,-1.08721,-3.96755,-2.80406,-4.46598,-0.243787,-4.46396,-3.50369,9.44931,1.85069,-0.913037,-1.46254,-0.0160854,0.188323,-3.4276,-1.76898,-149.816,-677.344,-609.024,12600,8960,560
12.1618,7.49377,1.7211,6.1718,3.33833,2.14749,1.06317,-1.39138,15.9432,11.7681,5.07539,4.51682,3.35979,0.754216,4.92934,5.68706,-149.328,-707.112,-674.904,8820,6440,-840
6.04107,5.69717,-2.37168,16.6789,5.59925,3.07955,14.2474,-1.715,7.69134,8.00669,4.39618,2.68278,0.701166,3.81231,22.8199,11.3766,-150.304,-722.24,-610,10360,10780,-980
-6.90588,7.96041,-2.61069,26.3596,13.4257,5.87015,25.0453,4.40373,-7.45748,1.15293,0.747454,4.21304,1.84162,9.12629,32.989,19.4968,-152.256,-726.632,-614.88,9380,14140,-1960
-1.35662,-7.99661,-6.83452,-10.7044,-11.6201,-1.59603,-8.53283,-3.61427,-2.62674,3.50284,3.51035,-8.3488,0.33304,-4.96281,-16.2361,-1.96755,-148.84,-722.24,-618.296,8400,14000,-3220
-3.22669,-13.1715,-6.3406,-20.7719,-17.6904,-4.08057,-16.8528,-5.8419,-6.18365,-2.61822,1.12861,-12.3697,-2.08534,-8.84194,-32.1255,-9.18195,-141.032,-671.976,-666.12,5460,9940,-5040
-2.75087,-11.6166,-0.986023,-13.8136,-11.2634,-3.83028,-7.57428,-1.74347,-7.58028,-3.93252,-0.153712,-8.60682,-2.76024,-7.72139,-20.1306,-5.35112,-144.936,-684.176,-649.528,2940,3640,-5180
19.2693,1.11605,5.85244,-9.01337,-7.25756,-3.08177,-9.99342,-5.66913,21.994,9.18236,6.34542,5.36716,2.54476,-4.36767,-16.222,-7.96054,-162.504,-728.096,-625.616,-140,8540,-3780
22.8393,14.2445,9.97612,14.3353,8.67695,1.92211,9.23818,2.33906,30.7004,10.4371,4.70281,15.1667,4.63443,5.64119,12.9063,3.70535,-160.064,-736.88,-650.992,1120,14140,-3220
6.58955,5.44675,6.17975,12.8408,11.059,-0.54645,11.5643,2.67238,9.87043,3.54762,0.253013,6.9091,-0.795877,4.11046,15.9287,2.60459,-158.6,-715.408,-630.496,4060,11900,-3780
9.29342,8.65938,5.46967,17.8185,14.9119,4.77012,19.1411,4.75101,8.68962,1.19764,0.172502,11.928,1.00622,10.3554,26.2683,4.96214,-159.088,-713.456,-628.544,5320,6720,-3500
13.8014,6.97421,2.2408,7.01115,7.96771,4.03652,12.2976,6.95844,3.41056,-0.299616,1.15658,5.96428,-1.06548,5.56786,17.0456,-5.32293,-155.672,-718.336,-643.184,5320,6300,-3220
4.43436,-2.43043,-5.65645,-9.95435,-5.64478,-1.68223,-5.79724,-0.952456,-1.37205,-5.02847,1.5241,-4.46655,-3.6688,-3.30292,-4.28484,-14.5678,-151.768,-699.792,-646.6,7420,4480,-2660
-5.00192,-5.48711,-8.46092,-9.76628,-5.79246,-2.14032,-5.80218,-1.69892,-4.27889,-8.59508,-2.92256,-7.17515,-4.41185,-3.52172,-5.4592,-10.7265,-143.96,-719.312,-647.088,8820,2100,-1960
-8.66122,3.98983,1.68727,0.511285,7.68337,1.72883,-1.51237,2.57032,-9.12017,-3.58322,-3.27152,3.16679,0.927999,2.37273,-2.86557,-2.38816,-137.616,-718.336,-622.2,10500,5880,-1260
-8.82167,9.87235,9.58766,9.75076,14.1691,7.6643,3.89635,2.03522,-6.68394,-3.32957,-1.55503,13.0869,4.53951,11.9586,3.18586,5.2964,-132.248,-716.872,-635.376,11060,5040,-1820
3.52082,14.2155,10.5075,9.23225,10.991,4.99606,9.2744,4.60506,10.1571,5.41777,2.00507,12.2655,1.8734,8.21988,9.00305,10.7994,-128.344,-732.976,-633.424,9940,4760,-2380
-3.10921,-0.668762,-1.00421,-5.39205,-5.33538,-2.36674,-2.58378,-3.80543,-2.05484,2.22425,1.20661,-1.36811,-1.08123,-2.88235,-4.26708,-0.578463,-123.464,-725.168,-630.984,9800,3640,-2100
-31.1445,-32.769,-17.6327,-30.3757,-26.9564,-10.2582,-21.7683,-9.862,-39.5098,-15.1584,-6.46722,-27.4073,-7.99004,-18.1503,-29.8606,-15.7607,-115.168,-726.144,-636.84,8680,1540,-2380
-32.8912,-30.1559,-14.2095,-20.6428,-18.104,-6.31879,-15.6339,-1.91058,-40.4807,-16.0796,-10.535,-25.4841,-6.09122,-13.7416,-19.6016,-6.7955,-115.656,-729.56,-641.72,7280,560,-1680
-8.18537,-10.1125,-3.1643,-7.22806,-8.72724,-0.585144,-9.23558,-1.23651,-8.9734,-4.5367,-4.77853,-9.04586,1.012,-4.83239,-7.482,0.457405,-117.608,-741.272,-630.496,6160,-840,-560
14.4225,18.7565,10.231,16.829,10.7807,4.83218,11.27,7.27686,21.7202,8.28237,-1.09831,11.7608,6.55394,6.7592,15.9976,14.7474,-114.192,-735.904,-636.84,5320,-420,560
19.0834,23.589,11.266,21.313,14.7634,3.38797,13.6464,5.60255,26.583,12.4154,3.94863,14.2513,7.36261,8.18071,19.4241,14.6551,-116.632,-740.784,-631.96,3360,-2800,1400
4.563,11.2624,4.67441,10.6067,7.25043,1.36968,2.44534,0.451938,6.89784,4.03831,1.21992,5.36902,5.47579,4.92739,4.80374,7.29516,-114.68,-750.544,-626.592,2100,-3080,2520
-18.7594,-12.1348,-4.2055,-12.73,-6.94376,-0.336303,-15.3093,-5.47498,-24.0276,-12.0394,-7.00045,-10.0598,1.58114,-1.7596,-21.267,-5.97438,-111.264,-746.64,-623.664,0,-2940,3220
-16.5259,-19.2863,-8.28757,-19.2111,-14.2189,-2.98595,-14.5514,-7.15522,-19.4703,-10.8264,-4.03852,-14.8071,-2.00374,-7.34821,-21.0516,-7.43869,-110.288,-752.496,-626.104,-2800,-3360,3500
9.10686,10.9416,3.81284,9.30662,9.06714,1.90725,8.35306,4.94621,13.316,6.03115,3.17034,7.61276,1.29969,2.53413,8.07139,9.25003,-109.8,-754.936,-630.984,-5320,-2520,3920
4.75562,-1.99688,-5.76844,-5.63415,-4.98207,-4.57355,-6.21407,-2.01113,8.02188,1.31388,2.50258,-2.47959,-5.38004,-5.65357,-6.03174,-1.88927,-107.36,-756.888,-624.64,-7560,-2800,4480
9.49206,2.30615,-3.01046,1.4827,-4.11152,-5.36389,0.303178,-0.771916,14.0586,6.10269,5.13227,0.0213266,-5.70735,-5.679,6.72832,-1.13925,-108.336,-752.496,-625.128,-8820,-2520,5040
13.0101,6.01655,2.55137,7.6357,2.5356,-0.939217,8.148,0.352133,14.1656,8.75188,5.36743,5.34248,-2.24155,-0.119041,15.0431,2.1094,-113.704,-746.152,-633.912,-11340,-3080,5320
8.88052,-3.69666,2.18529,-5.08508,-4.53202,-0.606216,-5.32326,-5.49508,5.82942,6.9263,4.44211,2.96383,-0.445171,-1.45549,-5.57194,-5.85193,-116.632,-754.448,-634.888,-12600,-3920,5880
-0.0122728,-9.75702,-2.05248,-5.5301,-4.81436,-0.454884,-3.09681,-0.771333,-6.55749,1.21238,1.33796,-1.82972,-1.74328,-1.72411,-5.14025,-1.73283,-122,-754.448,-626.104,-14000,-3500,6160
-17.8198,-18.2678,-9.38866,-1.12721,-1.03828,0.337181,7.40462,5.22709,-26.3713,-12.0538,-7.87127,-9.44778,-5.49915,-0.501751,8.52835,3.59935,-122,-758.352,-617.808,-15540,-2660,6160
3.78784,2.26571,0.599364,8.36342,7.39805,3.59985,11.2613,5.56684,3.25686,2.56879,0.582229,4.66014,1.87831,4.34622,12.4802,3.8193,-123.464,-751.032,-629.52,-17360,-2240,5600
16.3599,20.6631,10.7434,18.1136,17.1321,8.12444,16.6505,8.4212,18.3419,13.9725,5.20949,16.3761,6.73069,11.451,17.4726,8.7761,-127.856,-755.912,-629.52,-19180,-3920,5320
-2.75309,10.6012,4.78859,19.1169,13.8507,7.63506,20.275,6.83838,-5.06631,0.366169,-1.27794,9.92163,2.15523,12.9668,25.5969,12.0471,-133.224,-746.64,-632.936,-20300,-3360,5320
-7.09862,-1.88476,-1.06158,3.52922,2.95811,1.57795,5.5977,1.13377,-8.20493,-1.21146,-0.417957,-1.23171,-1.14956,3.11515,8.29858,2.0079,-142.008,-749.568,-628.056,-22120,-3500,4900
5.10712,-4.78197,-4.18475,-14.4923,-12.9965,-4.51783,-17.8659,-12.0447,8.78994,2.63252,4.66379,-4.63641,-1.35092,-6.77871,-19.901,-17.9233,-144.936,-753.472,-629.032,-23380,-1820,4900
10.1789,1.64829,-2.32131,-9.295,-7.96707,-3.68626,-12.297,-9.71159,13.4749,6.28442,6.38597,1.44353,1.42204,-4.50172,-12.2293,-13.8628,-151.768,-748.592,-634.888,-23940,-980,4200
15.2026,10.6429,5.972,-2.90455,2.05385,-0.86686,-8.11212,-5.64345,20.3993,10.9526,6.71715,10.3151,5.38999,1.55051,-9.73168,-8.14589,-159.576,-742.736,-644.648,-24360,-1820,3500
8.0991,4.87825,4.6859,-2.16217,0.5418,-2.68693,-5.26259,-3.29521,12.5925,3.93204,3.39548,3.83554,3.2094,-1.23008,-10.2826,-4.99046,-163.968,-749.568,-644.16,-25340,-1120,2940
-5.8066,-0.305569,2.59996,3.33401,4.70348,-1.99661,2.54157,1.70117,-3.95451,-6.77145,-2.17085,-0.992625,1.32359,0.149157,-0.0355385,3.20339,-166.408,-743.712,-631.472,-25900,-420,1680
-4.81738,4.91289,3.67704,12.2078,8.76987,1.57838,10.716,5.65156,-4.69052,-9.57512,-3.34325,2.01518,1.00535,4.16899,13.5165,8.64888,-167.872,-739.32,-636.84,-26460,-140,420
-1.11064,5.28613,4.24982,10.27,5.91035,2.31675,12.0284,8.67751,-1.766,-4.52935,-0.409458,0.0974731,2.00904,1.96795,12.0189,8.07233,-168.36,-744.2,-642.208,-26460,280,-420
-6.05467,0.635506,2.961,1.82448,0.897175,1.79227,5.33151,9.04784,-6.11911,-4.16027,-1.79163,-4.12968,2.12976,2.21193,0.829861,5.18884,-171.776,-745.664,-641.72,-26460,980,-1540
-11.7135,-3.4252,-0.352578,2.49233,0.689195,3.30446,9.61695,11.7045,-12.1068,-10.2451,-5.77621,-5.1345,0.336596,5.42937,5.07518,9.5775,-175.68,-736.88,-636.84,-26600,1400,-2100
4.10726,4.32111,4.77288,0.0773592,2.22668,2.73314,0.398708,4.32028,5.87332,2.7053,0.70583,3.13484,2.57171,3.80809,-5.18432,3.6478,-173.24,-746.152,-654.408,-26600,1260,-2800
14.944,3.90222,-0.305711,-10.7024,-9.59474,-2.3819,-16.9371,-8.15047,17.4809,10.0832,6.46115,0.715392,0.585714,-5.38967,-22.7509,-10.3438,-177.632,-732.976,-644.16,-26600,1260,-3500
6.60953,-3.90187,-5.98698,-16.2196,-15.6968,-3.1147,-17.1403,-8.63163,5.73845,1.04436,1.60788,-6.70132,-2.87907,-6.73205,-22.966,-10.6831,-178.12,-739.32,-654.408,-26880,1820,-3920
1.45025,2.29896,-1.01693,-6.05144,-4.1695,0.158966,-7.67438,-2.48606,-0.0876938,-1.44735,-1.8939,-3.38132,-3.46079,-2.57437,-10.0952,-4.78775,-174.704,-735.904,-656.36,-27300,1820,-4480
-13.5116,-0.737753,-3.73576,2.06909,1.38392,2.40859,3.01486,0.476698,-17.4432,-13.3399,-8.03656,-3.93066,-6.3528,0.231317,6.29296,2.9489,-176.656,-733.952,-654.408,-27440,1680,-4760
-21.8431,-2.50522,-4.03319,7.34572,8.56737,3.65299,12.1808,3.62293,-27.7184,-16.7574,-10.7547,-3.43057,-6.19081,1.79717,20.2539,10.0855,-173.24,-735.904,-657.824,-27300,2100,-4760
-14.1142,-5.15315,-6.63497,3.03381,3.04524,0.67659,5.46251,-4.13411,-17.5371,-11.1842,-8.23621,-3.91885,-4.44962,-1.26717,12.9419,2.58558,-174.704,-740.296,-653.92,-27440,2240,-5180
-19.1719,-14.9225,-10.8541,-7.97725,-4.49186,-3.52041,-8.59662,-5.6176,-25.8719,-10.2906,-9.18399,-10.7753,-4.73612,-8.77778,-4.50852,-5.67892,-169.336,-737.856,-652.456,-27160,2380,-5460
-15.3218,-26.5118,-15.1042,-27.0394,-20.3576,-13.1347,-25.8043,-10.7754,-21.7255,-3.61785,-3.34175,-21.3616,-7.97541,-20.887,-25.9232,-19.1345,-165.92,-735.904,-651.968,-26740,2100,-5740
-4.12165,-21.5293,-12.0718,-26.4885,-19.208,-11.1099,-23.1324,-12.3349,-5.19554,1.29996,-1.15711,-15.7859,-6.02131,-16.9273,-24.2738,-18.3434,-166.896,-741.272,-649.528,-26880,1960,-5880
-1.80972,-13.4937,-4.82761,-19.8676,-10.5392,-5.26473,-19.6854,-12.2057,-1.4554,3.14999,-3.67118,-4.5184,-2.19691,-6.32889,-21.1126,-13.1978,-159.576,-742.248,-648.552,-27440,1960,-6440
-2.21201,-5.47615,0.9679,-6.29264,-3.73148,-1.93333,-5.03931,-5.61131,-0.712483,4.11086,-3.55968,3.01285,-0.901715,1.61967,-5.35342,-1.25026,-159.576,-739.32,-650.992,-26460,140,-6720
-6.38475,-7.47766,1.08065,4.50448,0.607274,0.542902,6.67723,1.18333,-6.09959,-1.59729,-2.47474,2.53323,-0.422617,4.20611,9.97934,6.75573,-157.136,-740.784,-645.624,-26460,140,-6720
7.23079,-3.57132,5.03659,0.751346,0.784763,-0.778632,2.36017,1.68778,9.85111,8.35335,6.00881,5.21419,2.56762,1.96369,5.00576,2.82839,-155.672,-736.392,-644.648,-27020,-140,-6580
16.9422,7.77752,5.90923,9.07204,5.31546,2.21433,8.1004,2.0829,24.2154,13.6167,10.0701,11.2434,4.30626,5.82737,12.8642,6.79297,-151.28,-742.736,-643.672,-27160,-560,-6720
18.8768,18.0938,11.0252,20.624,13.8376,4.893,15.0453,8.00241,24.5336,17.2254,9.73157,15.3914,8.19467,9.12901,21.6156,12.3573,-153.72,-739.808,-641.72,-27020,-1680,-6440
17.3641,16.1896,9.58909,20.4802,11.7673,5.81562,15.7578,10.5174,22.6005,14.8413,7.54042,14.8882,10.3058,10.2967,19.2801,11.4799,-153.72,-740.296,-637.328,-26040,-3360,-6300
14.9312,19.7936,9.76162,26.1562,16.9169,8.8874,22.1434,15.8075,20.8647,10.3888,3.9922,15.9713,10.3804,15.9536,21.9588,17.3649,-149.816,-738.832,-635.864,-25060,-4620,-6020
16.9939,22.2905,10.6567,24.8543,17.1145,6.42086,20.6765,15.5804,22.4764,10.3377,6.1836,14.5154,8.89595,13.479,20.3544,14.9142,-152.256,-732.488,-631.96,-24220,-5040,-5740
17.74,16.8076,9.26956,16.2166,10.1467,3.3732,10.4755,6.59642,20.3108,8.66268,11.0965,9.55351,6.55132,6.59564,11.9875,5.46028,-150.304,-727.12,-628.056,-23240,-6160,-5600
8.49106,16.8492,9.1471,14.7935,11.8338,5.17923,10.6417,6.58046,8.27935,1.69637,7.25795,8.69072,4.02417,5.94136,12.6476,5.19433,-143.96,-744.2,-636.352,-20580,-9800,-5180
-3.45813,5.90237,2.33591,6.65772,3.3169,4.18492,4.28915,1.42654,-5.2931,-6.34728,2.50945,1.12528,-0.371013,3.37886,5.46753,0.3664,-147.864,-735.416,-637.328,-23100,-9660,-5880
1.56193,5.14335,3.92887,2.5067,-0.346248,3.50249,0.296172,-0.164813,-0.522948,-3.00284,4.00438,1.23819,0.187062,2.20434,-1.60271,-1.13212,-144.448,-732,-644.16,-24780,-8960,-5880
-2.39093,3.58691,2.06125,0.841929,1.71913,2.09722,6.69923,2.42574,-6.20071,-4.4134,-0.254355,-0.304437,-2.09359,0.156129,0.0769366,3.69339,-147.864,-729.56,-644.16,-26180,-8260,-6160
-10.7928,-2.05629,-6.38425,-4.34217,-1.02889,1.31334,4.33068,-3.33283,-13.9436,-10.0183,-3.52772,-5.45962,-3.42832,-1.83154,-4.32161,-1.36533,-148.84,-732.488,-640.744,-26320,-9520,-5740
-8.21811,-3.10147,-5.52359,-9.20614,-4.0513,-0.273143,-3.06606,-5.8202,-11.7993,-8.32112,-4.62786,-6.88869,-3.17578,-4.04878,-11.4686,-5.22658,-149.328,-726.632,-648.552,-26740,-11200,-5180
-7.80629,-10.1573,-5.37097,-14.9251,-10.6773,-2.8832,-11.5052,-8.76071,-12.2387,-9.77824,-5.93568,-11.3383,-4.38458,-9.61097,-18.0657,-10.2922,-144.448,-731.024,-656.36,-26740,-11200,-4760
-8.76415,-10.8438,-5.04929,-12.7672,-8.21627,-3.03245,-11.7583,-6.96326,-13.3982,-9.50073,-7.47359,-10.1149,-3.89657,-9.52556,-16.529,-11.5732,-144.936,-731.024,-660.752,-28000,-9520,-5180
-1.4461,-6.52913,-3.52464,-12.2186,-5.63191,-3.88362,-14.4857,-8.24239,-6.70151,0.288991,-2.05864,-5.05507,-1.73441,-7.3458,-17.5402,-12.4155,-145.912,-734.928,-663.192,-30240,-7280,-5880
-3.59888,-15.722,-9.32853,-20.8105,-13.2954,-6.9857,-20.4442,-11.9618,-8.36456,-1.35274,-2.85964,-9.91701,-4.43285,-8.3642,-23.2106,-15.467,-146.4,-727.12,-658.8,-30660,-7840,-5880
-15.4013,-15.5212,-9.38319,-15.5827,-8.95194,-6.21609,-14.9466,-5.06563,-19.7006,-6.4377,-9.65515,-13.3086,-5.25814,-6.56136,-15.3797,-8.73527,-142.496,-730.536,-660.264,-29960,-8820,-5460
-15.865,-16.8542,-10.3938,-15.5543,-11.6866,-8.0725,-15.6706,-4.73019,-16.8668,-8.40011,-8.77109,-13.2832,-6.46669,-7.4087,-12.7223,-9.19077,-145.912,-728.096,-659.776,-30100,-7560,-5740
-2.26886,-5.68586,-3.52535,-7.1635,-3.79671,-5.80575,-6.63263,1.19003,1.81508,-0.522828,-3.58644,-2.15711,-3.46561,-2.6266,-2.90114,-0.243089,-142.496,-736.392,-656.36,-28420,-8260,-5320
7.1404,3.66881,-0.301545,0.173289,1.69512,-2.65078,-0.448252,2.91859,14.2877,5.86407,2.02211,5.78604,0.6359,3.56178,3.66048,4.57147,-147.376,-740.296,-655.384,-25900,-9940,-4760
6.4004,5.00909,1.78731,5.14998,5.01731,1.88118,7.3704,7.14127,13.626,4.99615,3.42782,8.52349,2.03017,6.70551,11.6795,9.77183,-144.936,-741.272,-662.216,-25760,-8960,-4760
7.57686,3.34271,2.05095,3.40343,2.24118,2.60444,5.51123,2.56713,11.916,4.43961,3.02246,6.93117,2.09211,3.88061,9.30571,8.95519,-145.912,-745.664,-666.12,-27860,-5600,-5040
1.42541,-4.27592,-1.36253,-0.934039,-2.67987,-0.738215,2.88832,-0.698381,2.78569,-1.69082,-0.56817,0.0260436,-0.401602,-1.53756,4.43866,6.76771,-151.28,-736.392,-660.752,-28700,-3500,-4760
-3.20607,-5.94591,-0.420663,-2.88446,-4.48779,-0.514333,0.232367,0.986773,-2.48188,-4.11587,0.0190303,-2.20231,-0.272867,-2.41676,0.946577,3.16208,-146.4,-740.784,-659.288,-26460,-4900,-3780
0.861814,-0.712157,4.53566,-1.90348,-2.82313,-1.39576,-1.56269,1.38998,2.00937,1.3596,3.02314,-1.25307,-0.579264,-2.88461,-1.58739,-0.499168,-143.96,-740.296,-658.312,-24780,-5880,-2940
-3.59678,-4.37259,0.470628,0.418346,-4.20358,-0.648161,-1.43379,-0.819544,-2.05155,-2.33967,2.66339,-2.75065,-0.450125,0.183917,-1.29002,-3.48372,-141.52,-745.176,-661.24,-25060,-4340,-2800
-6.12876,-0.696476,1.83044,7.36504,2.73171,2.02247,3.31784,3.28638,-6.32618,0.944871,0.444676,0.0857389,-0.535269,3.32257,3.64795,0.612414,-149.816,-744.2,-661.728,-24780,-2100,-2380
-9.65422,0.899354,2.07721,14.1552,7.19865,5.41435,9.55811,2.54752,-11.8374,-0.322228,-1.4512,2.41346,-0.760127,5.24949,11.9239,3.87334,-168.848,-735.904,-655.872,-23520,-1400,-700
-9.39137,2.49746,1.98201,14.38,9.19216,4.64602,11.176,4.45478,-13.3193,-3.24258,-2.51404,1.09366,0.139155,2.89971,15.2548,4.20184,-143.472,-730.536,-652.944,-21840,-9380,3080
-2.34789,7.1922,0.655797,12.4414,7.8795,2.84091,9.23103,4.3444,-2.34723,-1.96119,-1.89276,2.00147,1.57962,2.55848,13.2542,-0.190877,-142.008,-723.216,-651.968,-23380,-12740,4200
8.45097,8.67155,-0.824527,2.98309,1.68311,1.50166,-0.816658,-1.51225,10.5684,2.66028,3.16093,3.31429,3.04988,0.141015,2.38073,-6.47222,-120.536,-730.536,-656.36,-26320,-11620,3360
16.7469,18.1486,4.58326,6.87373,5.48303,2.14447,4.03231,1.67814,18.2348,9.51948,5.36324,8.17415,4.30318,0.458407,6.48056,1.54773,-135.176,-727.608,-666.608,-28000,-4760,-560
10.2285,14.1579,2.6789,6.59623,3.01372,2.02627,4.05869,1.00349,10.3556,6.17948,1.50653,5.19497,3.08993,1.81902,5.34376,2.78442,-142.496,-747.616,-660.264,-30660,980,-2940
1.82073,10.6662,3.22016,3.0828,3.24203,1.92183,2.41417,3.51143,1.8173,0.479413,-1.66701,2.41586,3.0588,1.66063,1.81817,2.88281,-146.888,-736.392,-662.216,-28000,-3220,-2520
1.49394,6.44696,5.15127,1.24208,5.85683,2.00401,2.5698,2.62732,0.0913874,2.87547,-0.36297,1.9529,3.80553,4.03494,-1.20034,2.99357,-148.84,-730.536,-664.168,-26040,-5880,-1680
3.16412,-2.96298,2.23685,-4.64976,0.218427,0.124408,-0.593593,-1.58102,1.55863,3.5787,1.14732,-3.84792,2.69681,0.236928,-6.17742,0.244144,-149.816,-733.464,-661.728,-25340,-7560,-840
6.63446,-1.27198,5.03334,-5.04716,-0.615858,-0.684515,-3.4812,-4.89842,6.3036,7.40661,2.7042,-0.656322,2.15321,0.0694952,-8.2543,-1.96641,-129.808,-737.856,-670.024,-24780,-11200,140
0.656501,-7.72346,0.0141175,-9.92283,-5.26451,-2.91091,-9.53122,-8.51844,-1.142,0.478539,1.39473,-5.21611,-2.4434,-3.90674,-13.7269,-5.90654,-139.568,-739.32,-675.88,-27160,-4620,-2100
-0.923849,-10.2036,-2.67616,-12.6906,-6.0984,-2.4677,-8.60053,-4.69978,-1.77008,-0.666103,1.47388,-4.81358,-3.71083,-4.66967,-13.8398,-4.05649,-152.256,-737.368,-673.928,-28140,-280,-3780
8.66887,2.52294,3.48463,-0.779663,2.74212,2.61293,2.40393,1.25584,9.92363,8.03128,2.88642,5.96763,1.00284,3.16506,-0.378399,5.77731,-149.328,-736.88,-672.952,-25060,-3360,-2660
10.7515,8.79402,3.22884,8.25329,2.95563,2.10792,7.52153,-1.27606,15.0109,5.01002,2.88833,10.0722,2.16333,4.77081,8.94618,6.98474,-154.696,-734.44,-676.856,-22680,-4620,-2240
6.12775,10.7592,3.74338,11.1375,6.70525,-0.177987,9.17503,2.29454,9.85058,2.00195,0.563348,10.6122,0.541508,3.05656,9.35954,7.04104,-153.72,-739.808,-678.32,-19040,-5740,-1120
-7.209,-3.02417,-5.08701,5.51062,-0.765728,-2.37794,3.09643,-0.935441,-7.12172,-10.1561,-4.3185,-0.42667,-3.40654,-1.05958,4.30609,1.97554,-155.672,-736.392,-684.664,-18200,-3920,-1260
