10788.091813,14965.610500,6347.806018,-3323.302069,10869.228645,13638.319211,10048.159665,-23269.350620,15074.239978,15697.048986,7628.046885,234.000413,40652.816373,6145.187455,22680.225692,8123.182729,-172.751999,-854.976013,-484.096008,140.000000,3640.000000,3920.000000
133359.246952,161157.619793,136217.498626,79144.017892,-174263.162823,175820.520618,17487.222551,146118.181481,155334.766845,96709.493900,36621.992185,-39391.999172,-152319.784739,-18954.391057,-128874.548241,-138061.539896,-171.287994,-855.952026,-488.488007,280.000000,3780.000000,3780.000000
10292.844211,15555.964775,6705.702151,-3850.780887,10832.169453,14156.007964,9238.534777,-23417.676797,15380.190656,16198.488021,7987.798213,411.674429,40906.508673,6344.341498,22698.777640,8002.416253,-187.880005,-863.272034,-482.144012,4900.000000,1820.000000,2520.000000
10306.031740,15573.600301,6712.742950,-3836.542825,10847.078067,14160.590072,9247.408420,-23406.210352,15397.580313,16209.172155,7989.832221,419.855168,40910.688449,6348.320108,22709.640588,8016.609611,-184.951996,-865.712036,-485.071991,4760.000000,1820.000000,2380.000000
10330.439845,15625.568107,6742.046087,-3802.545822,10895.715463,14170.581302,9272.285911,-23371.341630,15425.184718,16241.068094,7994.347274,449.761802,40922.467819,6354.288024,22732.439367,8057.736821,-182.512009,-863.272034,-486.048004,5040.000000,1540.000000,2660.000000
10343.113284,15681.223951,6763.280244,-3765.643092,10947.817379,14181.243084,9305.366493,-23329.342703,15445.681267,16264.984460,8001.097500,482.261238,40933.196656,6357.461972,22760.982545,8100.093377,-185.928009,-867.176025,-484.584015,5460.000000,1120.000000,2520.000000
10326.215366,15670.450410,6744.325965,-3768.727633,10931.187681,14183.388851,9306.797005,-23330.214421,15434.930078,16243.035047,8000.695169,474.125203,40929.083935,6354.511542,22764.759989,8090.727996,-186.904007,-866.200012,-486.536011,5460.000000,560.000000,2660.000000
10304.914153,15618.326142,6715.313401,-3799.371874,10880.337462,14178.449116,9280.086670,-23363.719686,15411.170174,16216.972913,7995.800137,443.212741,40919.785609,6353.036327,22740.463643,8051.455981,-183.975998,-865.712036,-485.559998,6020.000000,280.000000,2660.000000
10312.111415,15611.955894,6717.906203,-3807.776130,10876.694128,14177.689156,9269.536647,-23372.593328,15412.332465,16223.745492,7996.671855,440.709345,40919.338574,6354.802114,22727.454928,8038.871949,-183.975998,-864.247986,-487.024017,6440.000000,140.000000,2520.000000
10320.135691,15616.605057,6720.722523,-3811.307706,10877.610550,14178.359709,9264.172228,-23375.141427,15419.596782,16229.221669,7999.935210,442.653947,40920.769086,6353.840989,22719.162431,8028.813664,-182.024002,-866.200012,-488.000000,6720.000000,-280.000000,2520.000000
10310.703255,15595.102679,6707.937325,-3825.523415,10857.806904,14175.453982,9254.493923,-23385.937320,15406.386901,16217.442300,7997.811794,429.555825,40914.935281,6351.717574,22712.345149,8013.010980,-183.488007,-866.687988,-487.024017,7000.000000,-280.000000,2380.000000
10302.969551,15574.717888,6702.259982,-3838.375668,10846.787494,14173.889360,9246.112018,-23390.742945,15393.355834,16210.870887,7992.156803,419.497540,40911.023725,6349.348289,22705.617274,8010.306419,-179.096008,-863.272034,-485.071991,6720.000000,-280.000000,2240.000000
10315.352418,15601.048243,6722.398904,-3819.957831,10881.902085,14179.633758,9261.177094,-23365.574880,15404.732872,16232.015637,7990.346311,436.037831,40917.081048,6353.215140,22722.895172,8039.743667,-181.535995,-863.272034,-484.096008,6720.000000,-840.000000,2520.000000
10336.653630,15669.131657,6758.318157,-3771.298083,10949.583167,14192.642473,9307.378150,-23312.265970,15434.192471,16262.414010,7996.314227,477.835593,40931.922606,6361.060603,22769.699725,8097.657037,-179.584000,-864.247986,-487.511993,6580.000000,-1120.000000,2240.000000
10337.927680,15690.499924,6760.083945,-3752.634377,10964.201208,14197.269284,9325.348952,-23295.837438,15444.138997,16262.615176,8002.952695,494.666457,40938.203447,6362.871094,22792.274987,8112.878574,-181.048004,-864.736023,-489.464020,6440.000000,-1260.000000,2100.000000
10319.174566,15634.598212,6721.393075,-3792.129909,10903.270352,14187.903903,9286.546324,-23336.361150,15425.117663,16232.574431,8003.757358,464.960988,40929.195694,6356.143219,22758.345039,8063.905902,-182.024002,-859.856018,-490.440002,6300.000000,-1400.000000,2100.000000
10320.001581,15613.788738,6715.916898,-3806.390322,10886.573599,14187.255703,9271.324786,-23347.693485,15418.412139,16233.200280,8003.802062,455.282683,40927.362851,6358.914835,22744.531661,8044.795161,-181.535995,-862.783997,-486.536011,6020.000000,-1120.000000,2240.000000
10321.968534,15618.527307,6726.243404,-3800.891793,10897.213030,14188.686215,9277.270350,-23336.428206,15420.267334,16238.564699,8000.046968,457.517857,40927.809885,6359.428925,22747.504443,8046.516245,-182.512009,-862.783997,-490.928009,5740.000000,-1260.000000,2100.000000
10324.695447,15624.338761,6730.020849,-3795.125043,10901.370454,14188.127421,9280.891333,-23329.879144,15425.140014,16238.408236,7997.856498,459.305997,40925.932339,6357.305510,22749.739617,8049.265510,-184.951996,-864.247986,-488.488007,5600.000000,-980.000000,2240.000000
10321.566203,15617.767348,6727.293936,-3796.935534,10894.620227,14188.976787,9277.940902,-23330.572048,15416.512241,16231.590954,7994.727253,454.053337,40923.272481,6356.590254,22747.839719,8052.528864,-189.344009,-865.223999,-487.511993,5320.000000,-840.000000,1960.000000
10320.269802,15614.459290,6726.757494,-3799.170709,10892.653274,14189.289712,9274.610493,-23328.873316,15410.834898,16232.932059,7991.463899,450.924093,40922.333708,6355.338556,22741.692989,8059.413202,-189.832001,-867.664001,-488.488007,4900.000000,-700.000000,1960.000000
10342.353325,15666.270633,6757.714660,-3761.709185,10943.034106,14198.141002,9306.908763,-23288.573121,15436.315887,16262.883396,7996.023654,483.132956,40933.151952,6362.625225,22768.291565,8103.334380,-191.296005,-867.664001,-488.488007,4900.000000,-560.000000,1960.000000
10351.450485,15697.428965,6768.354090,-3735.781161,10967.084583,14203.728939,9330.065171,-23269.216510,15453.727895,16269.633623,8003.399730,504.165948,40938.337557,6365.553303,22789.637481,8121.238127,-193.248001,-866.687988,-486.536011,4900.000000,-840.000000,2100.000000
10331.378619,15654.357154,6733.574776,-3764.838429,10914.110948,14197.336340,9301.209068,-23306.968606,15438.148730,16239.481120,8004.942001,478.148517,40929.642729,6356.903178,22760.647268,8072.958359,-195.199997,-868.640015,-483.119995,4900.000000,-560.000000,1960.000000
10317.609944,15603.216362,6710.843052,-3803.529299,10866.367622,14189.557933,9265.379222,-23342.686694,15416.735758,16223.678437,7999.912858,447.504276,40920.031478,6350.376469,22721.129384,8027.651373,-195.688004,-868.640015,-482.144012,4620.000000,-280.000000,1960.000000
10322.326162,15601.696444,6717.503872,-3803.395188,10871.508523,14189.423822,9265.245112,-23343.469005,15415.260543,16229.959277,7998.147070,445.671433,40919.964423,6350.532931,22721.956399,8022.465768,-196.175995,-869.616028,-483.119995,4620.000000,0.000000,1960.000000
10323.980191,15604.155136,6718.353238,-3795.192098,10875.487134,14191.994273,9271.727118,-23340.742092,15414.858212,16227.858213,7997.253000,446.006709,40918.176284,6354.377431,22727.946666,8019.135358,-197.152008,-868.640015,-481.656006,4480.000000,0.000000,1820.000000
10315.285363,15578.852961,6706.752683,-3813.341715,10852.621299,14189.401470,9253.935129,-23350.755674,15400.016654,16216.145899,7993.386149,431.187502,40912.588348,6351.583463,22705.885494,8001.700998,-198.128006,-869.127991,-484.584015,4620.000000,420.000000,1960.000000
10323.913136,15587.436031,6714.464034,-3808.625496,10859.103305,14193.335377,9253.286928,-23343.647819,15409.270276,16223.924306,7992.201506,439.301186,40915.248205,6357.663138,22708.008910,8010.149957,-198.128006,-867.664001,-482.632019,5040.000000,280.000000,1960.000000
10345.460218,15646.891671,6748.528093,-3769.778165,10918.447187,14202.767814,9285.764013,-23302.140630,15432.046703,16255.104989,7993.855535,473.499355,40926.781705,6365.888580,22740.485995,8057.088620,-200.080002,-865.712036,-481.656006,4900.000000,0.000000,1820.000000
10356.971366,15705.654407,6771.081003,-3728.986231,10971.979615,14213.317837,9328.522900,-23254.352600,15452.565605,16274.282786,7997.409463,503.607154,40938.918702,6369.062527,22783.647213,8103.401435,-202.031998,-867.664001,-480.679993,5040.000000,-140.000000,1820.000000
10350.109380,15705.185021,6757.513494,-3728.069809,10960.759039,14214.658942,9335.451941,-23257.750065,15452.498550,16263.933928,8001.656294,501.550794,40938.069336,6364.949806,22791.604434,8095.600676,-200.080002,-864.736023,-478.727997,5040.000000,-560.000000,1820.000000
10326.438883,15643.963593,6722.309497,-3773.130926,10898.196506,14204.175973,9297.811603,-23301.000691,15426.525822,16237.000076,7998.884678,465.095099,40926.692298,6354.399783,22753.450007,8045.465713,-200.080002,-863.272034,-478.239990,5320.000000,-840.000000,1820.000000
10331.646840,15635.358171,6723.650601,-3783.166860,10891.602742,14201.516116,9288.803850,-23306.521571,15427.755168,16241.984515,7999.197602,463.016386,40926.357022,6355.629129,22743.369370,8031.160597,-200.568008,-862.783997,-479.704010,5600.000000,-1120.000000,1680.000000
10334.261994,15636.341648,6724.924651,-3782.563362,10892.742681,14202.365482,9290.122603,-23303.682900,15428.939811,16239.414065,7998.214125,463.865753,40924.948862,6355.740888,22741.916507,8024.790350,-198.128006,-860.343994,-474.335999,5880.000000,-1120.000000,1260.000000
10323.577860,15613.453461,6713.659372,-3797.762549,10871.575579,14197.805726,9279.125545,-23316.356339,15417.987456,16223.924306,7992.983817,445.447915,40920.590272,6353.148085,22729.064253,8006.216050,-198.615997,-863.272034,-472.384003,6020.000000,-1260.000000,1120.000000
10322.057941,15601.003540,6713.257040,-3806.636191,10861.718459,14197.626912,9270.408365,-23322.436014,15414.254715,16221.063283,7991.732120,435.166113,40920.970252,6355.003280,22720.011797,8000.829280,-197.639999,-860.832031,-471.895996,6440.000000,-1260.000000,560.000000
10334.038476,15633.190052,6734.312383,-3790.408825,10895.156669,14203.818346,9284.288798,-23299.547827,15427.442244,16242.319792,7992.425024,452.578122,40925.887635,6361.015899,22733.869879,8028.277222,-195.199997,-859.367981,-475.312012,6580.000000,-1820.000000,140.000000
10361.553474,15708.426024,6771.684500,-3741.123228,10962.658937,14216.067101,9325.438359,-23248.697609,15465.261396,16280.295405,8002.773881,499.606192,40940.975063,6368.548437,22770.906719,8079.753289,-191.783997,-860.832031,-471.895996,6580.000000,-1680.000000,-280.000000
10359.698279,15729.011980,6769.158753,-3723.063019,10973.387775,14217.743482,9339.654069,-23235.755949,15469.351765,16278.797839,8006.663085,512.167872,40942.226761,6366.134449,22787.022327,8089.856278,-191.296005,-859.856018,-474.824005,6440.000000,-1960.000000,-840.000000
10332.160930,15674.361965,6728.769151,-3758.602292,10909.662951,14207.864011,9307.735778,-23278.537187,15441.210919,16245.627850,8003.176213,476.293323,40928.368679,6357.260806,22761.474283,8047.544425,-189.344009,-853.512024,-471.408020,6580.000000,-2660.000000,-1120.000000
10322.504976,15641.639011,6716.989781,-3782.831583,10881.075070,14202.074909,9283.439432,-23297.871446,15426.145843,16239.168196,7999.890506,457.719023,40921.596101,6352.835161,22737.513213,8023.181024,-184.951996,-856.440002,-470.920013,6300.000000,-2940.000000,-1540.000000
10323.130825,15641.661363,6719.739046,-3785.223220,10882.125602,14202.454889,9278.656158,-23296.664452,15424.067131,16238.698809,7996.135413,453.651005,40919.584444,6351.874036,22731.701759,8015.760245,-182.024002,-857.903992,-468.968018,6580.000000,-3360.000000,-2100.000000
10316.112377,15631.111339,6712.877061,-3791.816985,10869.787439,14202.991331,9274.476382,-23303.951121,15418.032160,16227.031198,7993.117928,442.832761,40915.717592,6351.225835,22725.040939,8003.958524,-177.143997,-852.048035,-467.992004,6720.000000,-3920.000000,-2380.000000
10309.295095,15612.112357,6705.478633,-3805.608011,10853.805942,14202.119613,9265.647443,-23312.578894,15405.537534,16218.850460,7989.765166,430.628709,40913.169493,6349.348289,22714.312102,7996.314227,-175.680008,-855.952026,-467.503998,6860.000000,-4900.000000,-2940.000000
10320.247450,15623.198822,6717.459168,-3796.421444,10867.887541,14206.344093,9272.867056,-23301.984167,15412.667741,16230.026332,7989.318131,438.764744,40917.773952,6355.204446,22724.370387,8012.407483,-170.311996,-852.536011,-465.063995,7140.000000,-5180.000000,-3220.000000
10346.644860,15692.332768,6757.379384,-3749.929816,10933.333449,14216.514136,9311.915554,-23254.173786,15446.843558,16265.945585,7995.241343,481.993017,40931.944958,6362.871094,22762.077780,8065.805801,-166.895996,-854.488037,-470.432007,7280.000000,-5460.000000,-3500.000000
10350.846988,15730.218974,6770.343396,-3724.784103,10964.491780,14220.425692,9338.312964,-23225.295332,15460.679288,16274.841580,8000.918686,500.544965,40936.258845,6359.943016,22787.290548,8093.186688,-166.408005,-854.000000,-465.552002,7140.000000,-6020.000000,-3780.000000
10332.965592,15695.417308,6741.688459,-3746.308833,10924.392751,14215.776529,9325.460711,-23249.301106,15446.575337,16247.617155,8003.444434,479.243753,40929.978005,6355.405611,22779.355678,8063.369461,-162.992004,-854.488037,-468.968018,7000.000000,-6300.000000,-3920.000000
10320.605078,15653.351325,6724.254098,-3778.987083,10883.824335,14209.830965,9296.559906,-23278.760705,15425.519994,16232.373265,7999.823451,455.394442,40922.512522,6354.556245,22755.282850,8025.751475,-158.600006,-857.416016,-464.576019,7280.000000,-6580.000000,-3780.000000
10324.941316,15655.094761,6729.126779,-3774.539086,10889.524029,14212.736692,9298.660970,-23275.296184,15423.709503,16234.250812,7997.588277,456.333215,40921.551397,6358.020766,22759.686143,8024.566832,-159.087997,-859.856018,-466.040009,7280.000000,-7140.000000,-3640.000000
10324.561337,15644.857662,6723.762360,-3779.389415,10882.796154,14211.909677,9295.039987,-23277.263138,15419.753244,16230.138091,7998.303532,449.404174,40918.310394,6357.327861,22754.232318,8018.040123,-152.744003,-856.928040,-464.576019,7700.000000,-7140.000000,-3500.000000
10326.349476,15627.959743,6715.134587,-3787.190174,10865.652366,14209.763910,9283.640597,-23290.651833,15422.211936,16225.332466,7998.638809,440.195255,40916.835179,6359.250111,22743.771701,8007.065416,-152.744003,-855.952026,-463.600006,7980.000000,-7280.000000,-3360.000000
10332.473854,15631.044284,6721.482482,-3785.245572,10869.630977,14212.691988,9280.578408,-23293.334042,15430.213860,16231.568603,7998.974085,443.078630,40921.305528,6364.122792,22744.218736,8014.530899,-149.815994,-856.928040,-460.183990,8120.000000,-7140.000000,-3080.000000
10352.702183,15677.133581,6750.070363,-3757.819981,10916.457882,14219.241049,9300.471461,-23261.549862,15451.693887,16263.553949,8003.846765,474.952218,40932.213179,6367.855533,22763.418885,8051.500684,-146.400009,-854.488037,-461.160004,7980.000000,-6860.000000,-2800.000000
10369.086012,15736.276297,6776.244256,-3710.590745,10969.856199,14228.159395,9340.637546,-23222.479012,15472.860989,16285.749231,8009.747626,513.620736,40943.724328,6371.811792,22800.634539,8090.973865,-147.863998,-858.880005,-462.623993,7840.000000,-6860.000000,-2520.000000
10359.072430,15733.348219,6764.733108,-3702.275896,10963.620062,14229.947535,9348.952395,-23225.585905,15467.742439,16269.588920,8012.720408,515.095951,40944.059604,6369.062527,22808.077670,8085.385929,-147.376007,-857.416016,-462.623993,7700.000000,-6860.000000,-2240.000000
10334.865491,15671.076259,6728.478578,-3746.174722,10902.152765,14219.062235,9312.831976,-23268.836530,15439.042799,16238.318829,8009.524108,477.947352,40932.548455,6361.038251,22771.420809,8033.194605,-149.815994,-858.880005,-463.112000,7420.000000,-6440.000000,-1680.000000
10337.301831,15657.285232,6727.159825,-3760.904522,10888.585256,14214.949514,9296.716368,-23275.474998,15436.651163,16240.084617,8007.087768,467.620846,40930.357984,6359.697146,22756.042809,8019.425931,-150.304001,-859.856018,-462.136017,7140.000000,-5740.000000,-1260.000000
10341.168683,15656.301755,6729.082075,-3761.329205,10887.199448,14213.876631,9294.995283,-23271.585795,15439.869814,16239.905803,8004.919649,465.966817,40928.569845,6357.797248,22752.980620,8017.861309,-150.304001,-860.832031,-464.576019,7280.000000,-5040.000000,-700.000000
10333.792607,15634.844081,6720.007267,-3775.321397,10865.652366,14211.619104,9283.595894,-23286.919092,15431.979648,16229.825166,8001.142204,452.578122,40921.864321,6356.076164,22739.390759,8000.605762,-150.792007,-858.880005,-461.160004,7280.000000,-4620.000000,-280.000000
10331.490377,15628.071502,6719.001438,-3778.048310,10860.064430,14211.507346,9281.226609,-23293.803429,15428.492776,16227.187661,7999.152899,448.398346,40919.807961,6358.959539,22742.162376,8000.024617,-153.720001,-855.463989,-466.528015,7140.000000,-3920.000000,140.000000
10339.715819,15654.066581,6736.212282,-3761.977406,10891.379224,14214.569535,9299.309170,-23274.849150,15431.957296,16242.185681,7996.157765,464.335139,40925.261787,6363.385184,22763.530643,8030.892376,-151.768005,-858.880005,-465.063995,7420.000000,-3220.000000,700.000000
10361.866398,15722.820547,6775.238428,-3714.211728,10959.306176,14227.913526,9341.643374,-23228.178707,15459.896977,16276.897940,8002.550364,509.709181,40941.690319,6371.387109,22802.266217,8087.039958,-154.695999,-856.440002,-461.160004,7280.000000,-2520.000000,980.000000
10358.334822,15737.818567,6779.708776,-3697.872603,10974.170086,14233.568517,9361.826999,-23208.866800,15462.243910,16276.227388,8007.601858,520.370963,40946.898275,6369.308396,22816.169002,8102.976752,-158.112000,-854.976013,-463.600006,7420.000000,-1540.000000,1540.000000
10326.662401,15669.601043,6738.581567,-3740.430324,10910.534669,14225.566593,9328.299383,-23246.373027,15430.035046,16238.005905,8003.399730,480.406044,40934.403650,6358.646614,22781.322632,8057.245083,-158.112000,-854.000000,-466.528015,7000.000000,-840.000000,1680.000000
10323.890784,15645.572918,6731.585471,-3747.180551,10896.833050,14224.046674,9316.274144,-23259.851129,15424.022427,16233.870832,7999.935210,469.744261,40932.034365,6360.702975,22773.588928,8041.889434,-164.456009,-855.463989,-467.992004,6720.000000,-280.000000,1820.000000
10339.224081,15656.726439,6742.135494,-3733.277766,10909.394730,14229.455796,9321.772673,-23252.452702,15438.595764,16242.655068,8004.405559,481.121299,40938.583426,6367.810830,22776.539359,8043.856388,-168.360001,-852.048035,-466.528015,6440.000000,140.000000,2100.000000
10337.659459,15638.085084,6732.524244,-3746.286481,10891.222762,14226.103035,9310.038008,-23262.890966,15438.193433,16233.580260,8003.578544,471.420642,40934.470705,6364.323957,22760.580213,8025.080922,-168.360001,-850.583984,-470.432007,6020.000000,700.000000,1960.000000
10333.904366,15613.989903,6723.583546,-3764.123173,10871.396765,14221.900907,9294.592952,-23275.676164,15429.789177,16227.232364,7999.666989,454.880351,40927.362851,6360.077126,22744.196384,8009.501756,-174.703995,-849.608032,-470.432007,5600.000000,1120.000000,1820.000000
10337.547700,15622.483566,6731.317250,-3754.891903,10882.796154,14224.069026,9299.800909,-23265.863748,15428.313962,16237.111835,7998.750567,459.305997,40929.419211,6362.312300,22755.439312,8023.404541,-178.119995,-847.168030,-472.872009,5320.000000,1400.000000,1680.000000
10360.167666,15687.482439,6768.868180,-3709.003771,10944.442266,14233.792035,9336.681287,-23218.858030,15453.683192,16272.718164,8005.143166,500.679076,40942.763203,6370.604798,22793.817257,8073.181876,-180.072006,-849.608032,-472.872009,5180.000000,1680.000000,1400.000000
10373.958692,15735.873966,6783.843849,-3684.752129,10977.567551,14237.971811,9354.070944,-23192.371213,15480.773506,16289.370214,8014.352085,529.043440,40951.413328,6368.570789,22805.015481,8093.700778,-183.000000,-847.168030,-470.432007,4760.000000,2100.000000,1120.000000
10346.644860,15692.377471,6747.455209,-3716.022219,10930.047742,14230.886308,9334.289650,-23218.276884,15455.985422,16255.373210,8011.111082,498.019218,40940.259807,6356.143219,22785.457705,8058.496780,-184.951996,-850.096008,-471.895996,4620.000000,2380.000000,700.000000
10336.228947,15641.795473,6725.304630,-3754.578978,10880.628035,14221.364465,9298.906839,-23253.458530,15437.433474,16241.246908,8010.485233,468.090232,40931.497923,6348.476571,22751.639515,8013.033332,-186.904007,-849.608032,-470.432007,4620.000000,2800.000000,280.000000
10342.956822,15642.846005,6733.373610,-3758.691699,10883.936093,14220.582154,9293.274199,-23253.972620,15439.892166,16252.422780,8012.496890,472.270009,40934.113077,6350.220007,22746.431559,8004.450262,-190.807999,-848.632019,-470.432007,4620.000000,2800.000000,0.000000
10337.659459,15640.610831,6732.993631,-3751.874417,10885.992454,14223.152604,9302.661932,-23250.709266,15433.857195,16244.979649,8009.322942,471.241828,40932.056717,6353.617472,22758.836777,8005.120814,-192.760010,-849.119995,-469.455994,4480.000000,2800.000000,-700.000000
10333.390276,15622.885898,6724.276450,-3757.440002,10871.754393,14223.845509,9298.526859,-23257.481844,15425.408235,16235.636620,8007.668913,461.407061,40928.346327,6356.143219,22756.691010,7999.801099,-190.807999,-847.168030,-464.088013,4340.000000,2520.000000,-1120.000000
10331.490377,15623.109415,6726.332811,-3750.086278,10876.604721,14226.818291,9303.287781,-23252.922088,15420.535555,16236.508338,8004.740835,462.435241,40928.033403,6359.585388,22765.542300,8012.608649,-196.175995,-848.632019,-461.648010,4620.000000,2800.000000,-1820.000000
10356.122000,15682.699166,6762.788506,-3711.663629,10929.980687,14235.714285,9327.450016,-23219.372120,15447.759980,16268.806609,8009.524108,498.756826,40940.349214,6368.794306,22786.597644,8053.534693,-194.223999,-846.679993,-464.088013,4340.000000,2940.000000,-2520.000000
10374.696299,15745.753437,6792.426919,-3672.592780,10985.792993,14245.660811,9364.799781,-23172.992250,15476.370213,16294.064080,8018.218937,537.715916,40955.548400,6373.287007,22818.113603,8099.713397,-192.760010,-844.728027,-465.552002,4060.000000,2520.000000,-3080.000000
10357.574863,15734.935192,6772.332701,-3676.347873,10970.325586,14245.012611,9370.678290,-23171.226462,15464.680250,16273.612234,8017.593088,528.708163,40953.179115,6368.011995,22826.003769,8094.438385,-193.248001,-845.216003,-465.552002,4060.000000,2380.000000,-4060.000000
10338.061790,15679.614625,6739.676802,-3712.423588,10913.105120,14234.440235,9336.994211,-23213.426556,15443.446093,16247.147768,8015.268506,495.091140,40942.226761,6362.446411,22792.990243,8047.253853,-191.296005,-843.752014,-467.503998,3780.000000,2240.000000,-5040.000000
10348.857683,15675.345442,6742.761343,-3726.192263,10904.276181,14229.858128,9319.135167,-23224.714187,15452.051515,16256.267280,8016.095521,490.486680,40943.098479,6360.926492,22768.626841,8028.947774,-187.391998,-842.776001,-464.088013,3780.000000,1680.000000,-5740.000000
10351.964575,15678.988776,6744.862407,-3732.830731,10905.527878,14231.221584,9313.703694,-23222.724881,15453.772599,16257.206053,8014.821472,488.743244,40943.478458,6358.311338,22756.288678,8018.978896,-181.048004,-844.239990,-468.480011,3920.000000,840.000000,-6580.000000
10334.105531,15654.066581,6728.120950,-3743.738382,10889.278160,14229.120520,9309.680380,-23231.106786,15429.967991,16235.726027,8005.634905,470.794793,40936.392955,6355.450315,22752.935917,8005.769015,-176.656006,-841.799988,-467.015991,4060.000000,280.000000,-7420.000000
10335.871319,15651.607889,6727.629212,-3745.057135,10884.941922,14227.533546,9304.047740,-23233.788995,15431.599668,16235.994248,8005.277277,468.447860,40936.795287,6358.490152,22753.427655,8005.187870,-169.824005,-839.359985,-471.408020,4060.000000,-560.000000,-8400.000000
10347.315412,15679.771087,6745.868235,-3731.243757,10912.367512,14230.551032,9312.139071,-23211.996044,15442.552023,16255.060286,8007.423044,482.685922,40942.539685,6362.669928,22761.071952,8030.020658,-161.528000,-841.312012,-473.360016,3780.000000,-1540.000000,-8960.000000
10360.391183,15740.746646,6776.691291,-3681.086443,10979.355690,14241.928070,9357.602520,-23159.380038,15460.321660,16279.334280,8009.278239,520.549777,40954.028482,6368.749603,22805.775440,8087.062310,-153.231995,-841.312012,-473.360016,2940.000000,-2240.000000,-10080.000000
10360.614700,15760.371478,6777.920637,-3660.500486,10995.225429,14247.068971,9382.100032,-23136.335389,15468.010660,16277.300272,8012.407483,536.061887,40958.163554,6366.760298,22829.110662,8107.000066,-149.328003,-842.288025,-471.895996,2380.000000,-2940.000000,-10920.000000
10337.525348,15691.036366,6733.217148,-3713.518824,10920.816472,14234.462587,9339.676421,-23179.630718,15444.183701,16241.470425,8010.217012,496.074616,40943.880790,6350.734097,22782.663737,8056.216902,-137.128006,-840.824036,-472.384003,1820.000000,-3080.000000,-11620.000000
10341.280441,15672.417363,6731.540767,-3729.545025,10897.905934,14230.528680,9316.743531,-23202.496553,15444.675439,16241.760998,8009.702922,486.888049,40943.009072,6351.985795,22759.037943,8032.613460,-133.223999,-843.264038,-472.872009,980.000000,-3500.000000,-12320.000000
10347.851854,15680.285177,6739.810913,-3724.560586,10905.349065,14232.227413,9317.659952,-23198.853218,15451.380962,16248.891204,8010.105253,489.190279,40946.183019,6353.885693,22757.249803,8030.154768,-125.416000,-842.776001,-478.239990,140.000000,-3780.000000,-12740.000000
10338.754694,15660.325069,6726.489273,-3731.288461,10891.692149,14231.512157,9315.335371,-23201.535428,15441.434436,16234.608440,8004.606724,475.063977,40940.997415,6352.879864,22752.935917,8020.297649,-116.632004,-845.216003,-477.752014,-140.000000,-5320.000000,-12740.000000
10337.011258,15651.451427,6725.952831,-3735.267071,10885.366605,14232.540337,9308.361627,-23203.502381,15436.807625,16231.434492,8000.941038,470.258352,40939.075165,6355.450315,22744.933992,8015.246155,-112.728004,-843.264038,-476.776001,-840.000000,-5600.000000,-13020.000000
10332.339744,15659.542758,6737.463979,-3729.477969,10898.621189,14237.614183,9309.948601,-23192.974710,15423.508337,16236.173062,7998.214125,478.684959,40942.204409,6360.658271,22743.883460,8029.551271,-105.896004,-842.776001,-473.360016,-1400.000000,-5880.000000,-12880.000000
10337.525348,15699.261808,6764.263721,-3702.477062,10949.002021,14246.487826,9344.280880,-23143.800872,15424.000075,16259.508283,7998.884678,502.601326,40951.167458,6363.251074,22776.673469,8077.629873,-102.480003,-842.776001,-476.776001,-2100.000000,-5880.000000,-12740.000000
10365.934416,15753.084809,6779.149983,-3665.283759,10985.927103,14254.668564,9378.322587,-23107.099307,15467.116590,16279.535446,8011.401655,534.027879,40959.057624,6362.044080,22818.024196,8109.816385,-97.599998,-844.239990,-475.312012,-2100.000000,-5460.000000,-12320.000000
10365.085049,15737.706809,6757.893474,-3679.477117,10950.633699,14252.545148,9362.765773,-23126.567677,15475.677309,16262.704583,8018.151881,526.003602,40957.247133,6357.372565,22802.154458,8082.703719,-101.992004,-850.096008,-477.752014,-2660.000000,-5460.000000,-11620.000000
10336.027781,15680.933378,6732.077209,-3712.401237,10905.617285,14244.431465,9336.748342,-23155.423779,15438.305192,16238.765864,8009.814681,492.386579,40946.562999,6352.566940,22779.869769,8050.383097,-98.087997,-843.752014,-479.704010,-2940.000000,-6580.000000,-10220.000000
10348.433000,15685.515485,6739.833264,-3708.579088,10911.562849,14245.794922,9332.948546,-23153.255660,15449.972802,16250.589937,8014.128567,498.466253,40950.094575,6356.344385,22773.991260,8043.677574,-99.552002,-845.703979,-481.167999,-2940.000000,-6580.000000,-9100.000000
10359.385354,15691.684567,6742.470770,-3707.193280,10911.451091,14249.550015,9327.740589,-23152.987439,15463.763829,16252.579242,8016.810777,505.797625,40953.424985,6359.652443,22759.753199,8033.999268,-96.136002,-846.679993,-484.096008,-2800.000000,-5320.000000,-7560.000000
10343.739133,15659.408648,6731.585471,-3727.019277,10890.082823,14248.141855,9314.530708,-23163.202186,15438.104026,16238.117664,8012.027503,487.446843,40948.887581,6358.981891,22742.430597,8020.901146,-101.992004,-844.728027,-486.536011,-3360.000000,-3920.000000,-6440.000000
10322.236755,15627.870337,6721.258965,-3742.196112,10878.437564,14244.744390,9313.144900,-23154.932041,15406.968046,16226.114777,8002.572716,465.899761,40942.785554,6354.869170,22744.039922,8029.506568,-107.360001,-848.632019,-488.976013,-4060.000000,-1960.000000,-5040.000000
10354.646785,15685.537837,6757.066459,-3700.398350,10930.405370,14253.282756,9340.324621,-23118.096366,15445.256584,16265.096219,8010.082902,502.668381,40957.314188,6363.809867,22775.734696,8071.349033,-112.728004,-850.096008,-489.951996,-4060.000000,-560.000000,-3220.000000
10380.597160,15751.006097,6786.302541,-3657.393593,10981.613217,14260.234149,9368.264302,-23078.064391,15480.125306,16296.500420,8020.990553,543.102687,40971.127566,6363.295777,22801.126278,8108.654095,-114.192001,-851.559998,-494.343994,-3780.000000,980.000000,-1960.000000
10361.844046,15734.219937,6765.783640,-3664.702614,10958.702679,14256.054372,9365.179761,-23081.573615,15467.183646,16275.758001,8021.258774,533.960823,40967.707749,6355.025632,22795.784211,8096.092414,-122.975998,-848.143982,-495.320007,-4060.000000,3360.000000,-420.000000
10332.563261,15669.444581,6727.964488,-3699.750149,10900.655198,14247.694820,9337.351839,-23118.386938,15435.019485,16243.437379,8014.039160,497.393369,40954.788441,6351.404649,22775.198254,8051.411277,-128.343994,-849.119995,-495.320007,-4060.000000,4900.000000,840.000000
10339.559357,15666.091820,6732.524244,-3701.828861,10899.559963,14247.873634,9330.042819,-23122.454956,15437.254660,16250.858158,8012.429835,493.705332,40955.302531,6356.120867,22772.672507,8040.011888,-134.688004,-848.143982,-495.320007,-4060.000000,6860.000000,2240.000000
10337.078313,15657.262880,6730.959622,-3712.088312,10899.805832,14251.271099,9327.673534,-23112.620188,15426.704636,16248.533577,8010.440530,487.469195,40954.855496,6354.623300,22762.591870,8036.256794,-138.591995,-850.096008,-494.343994,-3780.000000,8540.000000,3640.000000
10322.572031,15621.522441,6711.088921,-3742.240815,10871.240302,14248.253614,9306.394673,-23122.030273,15406.498659,16231.903879,8006.707788,465.117450,40945.221894,6346.666079,22733.422844,8015.670838,-148.352005,-851.559998,-496.783997,-3640.000000,9800.000000,4480.000000
10306.411720,15599.662435,6703.042293,-3747.337013,10864.601834,14248.924166,9308.205164,-23117.492869,15384.571598,16219.699826,7997.677684,453.718061,40939.969234,6347.358983,22735.970942,8019.940021,-152.255997,-849.608032,-497.272003,-2800.000000,10920.000000,5180.000000
10316.246488,15628.719703,6725.349334,-3718.033876,10900.051701,14256.479055,9336.502473,-23085.932205,15392.193543,16236.240117,7994.414329,474.281666,40945.735985,6356.031460,22766.168149,8055.188722,-163.479996,-851.072021,-500.200012,-2380.000000,11340.000000,5740.000000
10356.189055,15710.772957,6768.957587,-3664.590855,10969.923254,14270.158323,9379.462526,-23033.338551,15445.524805,16277.076754,8005.791367,524.684849,40962.320979,6366.134449,22806.021310,8108.765853,-169.824005,-845.703979,-496.783997,-2380.000000,12040.000000,6160.000000
10374.003395,15745.306402,6777.451250,-3645.256596,10986.195324,14275.992128,9395.645189,-23013.356091,15477.867779,16289.705490,8017.995419,544.510847,40968.154784,6366.089745,22820.885220,8121.685162,-173.727997,-843.752014,-495.808014,-2380.000000,13020.000000,6440.000000
10350.243491,15698.837125,6741.867273,-3673.308036,10928.505472,14269.554826,9370.678290,-23045.877879,15456.633622,16257.407219,8018.062474,516.638221,40959.303493,6361.284120,22800.366318,8082.457850,-177.632004,-844.728027,-497.760010,-2520.000000,13580.000000,6300.000000
10345.907253,15673.289081,6737.933366,-3695.391559,10903.784442,14264.905663,9347.790104,-23058.640725,15446.843558,16255.842597,8020.342352,501.573146,40957.694168,6360.434754,22775.622937,8059.882588,-179.584000,-839.359985,-498.248016,-2100.000000,14560.000000,5880.000000
10355.809075,15681.000433,6751.277357,-3692.754053,10912.881602,14267.990204,9350.829941,-23048.537737,15456.946547,16266.191455,8023.784521,506.959916,40962.768014,6362.401707,22776.338193,8062.251873,-181.535995,-835.944031,-499.223999,-2100.000000,15540.000000,5320.000000
10342.219215,15654.223043,6737.575738,-3713.340010,10893.703806,14264.078649,9337.195377,-23053.633935,15438.484006,16248.354763,8017.950716,489.547907,40958.431775,6355.852646,22758.277983,8045.689231,-184.951996,-836.919983,-503.127991,-1820.000000,15960.000000,4480.000000
10328.696409,15625.702217,6724.455264,-3730.707315,10873.564884,14259.049506,9326.243022,-23060.942955,15417.428662,16231.300382,8011.714579,470.593628,40950.474554,6352.119905,22751.259536,8032.613460,-187.391998,-836.432007,-500.688019,-1680.000000,16660.000000,3500.000000
10335.603098,15632.921831,6735.988764,-3730.304984,10880.918608,14261.552901,9327.025333,-23051.041132,15421.653142,16238.788216,8010.596992,476.248619,40952.732081,6354.243321,22751.684219,8045.979803,-189.832001,-834.479980,-500.688019,-1680.000000,16940.000000,2380.000000
10361.687584,15704.022730,6776.892457,-3678.448937,10950.544292,14276.483867,9370.275959,-22997.687518,15449.704581,16273.992213,8014.620306,521.577957,40969.406482,6366.402670,22797.192371,8103.870821,-189.832001,-831.064026,-499.223999,-1540.000000,17080.000000,1120.000000
10377.445564,15755.610556,6797.031378,-3638.193445,10993.996083,14287.346815,9405.144680,-22961.902375,15474.850294,16288.274978,8020.565870,553.317434,40980.001209,6371.901199,22834.408025,8138.180749,-189.344009,-831.552002,-498.735992,-1540.000000,16940.000000,140.000000
10363.140448,15725.703922,6769.739898,-3657.840628,10954.791123,14285.066937,9388.693796,-22984.209416,15467.451867,16263.866873,8021.459940,535.145466,40973.519203,6364.480420,22819.275894,8112.476243,-187.391998,-835.455994,-497.272003,-1260.000000,17220.000000,-1680.000000
10346.086066,15670.539817,6739.833264,-3706.299210,10899.761128,14274.114582,9343.990307,-23018.407585,15443.803721,16245.091408,8016.810777,498.130977,40962.097461,6353.572768,22772.828969,8067.012795,-185.440002,-833.015991,-496.783997,-1820.000000,17220.000000,-3220.000000
10346.801322,15664.013107,6736.949889,-3715.597536,10895.782518,14272.549960,9334.826092,-23016.060652,15436.002962,16246.052533,8013.837995,489.033817,40961.270447,6350.599986,22764.111789,8057.066269,-183.488007,-833.015991,-495.808014,-2100.000000,17220.000000,-4620.000000
10344.923776,15658.603985,6731.049029,-3719.978478,10889.613436,14270.024213,9330.758075,-23015.546562,15432.717256,16238.877623,8011.267544,481.635390,40958.141203,6346.956652,22758.635611,8049.310213,-180.559998,-831.552002,-494.832001,-2800.000000,16940.000000,-6020.000000
10337.994735,15633.458273,6719.515529,-3736.965804,10869.809791,14266.514989,9314.486005,-23025.582495,15422.211936,16227.008847,8009.814681,467.062052,40952.150935,6343.380373,22738.004951,8036.167388,-176.167999,-839.359985,-497.272003,-3360.000000,16800.000000,-7280.000000
10339.514654,15631.424264,6719.113197,-3733.948318,10873.184904,14267.207893,9312.921383,-23022.095623,15421.541383,16229.936925,8009.434701,466.570314,40954.564924,6347.090763,22733.646361,8044.303422,-174.216003,-833.992004,-495.320007,-3920.000000,15680.000000,-8540.000000
10358.021898,15679.212294,6748.729259,-3702.700579,10924.370399,14274.896893,9338.692944,-22987.182198,15438.081674,16260.290594,8011.625172,497.259259,40966.947790,6355.562074,22755.349905,8088.381063,-174.216003,-832.040039,-494.832001,-3780.000000,14420.000000,-9100.000000
10362.358136,15729.101387,6774.590227,-3662.065108,10979.154525,14285.759841,9381.004796,-22941.025846,15445.815378,16278.171990,8014.575602,527.970556,40977.430758,6360.099478,22797.974682,8136.727886,-168.360001,-830.575989,-493.368011,-4060.000000,13580.000000,-9380.000000
10349.282366,15724.876907,6763.682576,-3656.007785,10972.493705,14288.665567,9392.851221,-22938.723616,15440.026276,16264.224501,8016.475501,528.484646,40977.050779,6359.764202,22813.755013,8139.991241,-166.895996,-829.600037,-493.368011,-4060.000000,12460.000000,-9380.000000
10331.713895,15666.985889,6730.646697,-3688.641332,10914.982666,14281.803582,9363.503380,-22980.074344,15419.932058,16237.335353,8015.201451,499.762654,40967.663046,6357.283158,22793.169057,8100.473356,-162.503998,-831.064026,-495.808014,-4620.000000,12460.000000,-9520.000000
10343.873244,15654.558319,6727.964488,-3704.175795,10901.057530,14276.193294,9343.632679,-22995.832324,15429.476253,16247.348934,8018.442454,494.487643,40965.874906,6353.684527,22770.526739,8082.748423,-159.576004,-829.600037,-490.928009,-5320.000000,12880.000000,-9660.000000
10357.150180,15663.834293,6735.407619,-3699.236059,10907.316018,14277.802620,9345.823150,-22994.670033,15440.987401,16251.908690,8020.029428,499.785006,40965.919610,6356.590254,22769.699725,8083.374272,-157.624008,-827.648010,-494.832001,-5600.000000,13300.000000,-9380.000000
10352.746886,15645.327049,6728.232709,-3706.008638,10896.006035,14276.573274,9343.766790,-23004.325986,15433.208994,16239.972858,8019.202413,489.972590,40962.723310,6358.892484,22770.392629,8077.384004,-157.136002,-824.720032,-490.440002,-5740.000000,13720.000000,-8960.000000
10367.879017,15653.463084,6737.508683,-3702.052379,10898.889410,14277.020309,9339.698772,-23012.774946,15451.179797,16250.701696,8025.125626,496.812224,40967.640694,6364.681585,22767.956289,8078.300426,-145.423996,-844.728027,-501.175995,-5600.000000,13720.000000,-7700.000000
10382.362948,15680.754564,6761.067422,-3680.035911,10929.757169,14282.161210,9354.473275,-22996.592283,15464.680250,16273.992213,8030.870024,517.219367,40976.514337,6371.767088,22784.854208,8106.620086,-152.744003,-832.040039,-498.248016,-7140.000000,17780.000000,-8400.000000
10409.296800,15752.637774,6800.406492,-3623.441294,11001.103938,14296.466326,9402.551878,-22950.637096,15500.219524,16310.269095,8039.766018,565.119155,40993.009924,6385.066376,22835.324447,8168.534418,-149.328003,-832.528015,-495.320007,-6020.000000,17080.000000,-7280.000000
10404.871154,15774.743649,6802.507556,-3597.937953,11020.952287,14302.590704,9427.988163,-22932.934515,15507.439137,16306.916333,8039.453094,579.088995,40995.558023,6387.748586,22864.448770,8192.316674,-143.472000,-841.799988,-497.272003,-6440.000000,16520.000000,-5180.000000
10378.093765,15710.616494,6764.062555,-3640.674489,10955.238158,14291.995977,9390.906619,-22976.453361,15483.455716,16270.482990,8035.183911,544.309681,40983.398674,6377.645597,22828.618923,8146.853226,-146.400009,-832.528015,-493.856018,-9100.000000,17500.000000,-5320.000000
10373.578712,15673.892578,6756.328852,-3669.865867,10926.538518,14284.575198,9366.185590,-23000.727356,15473.956224,16264.582129,8033.686344,526.137713,40977.989552,6376.282141,22800.522780,8122.936859,-139.568008,-841.312012,-494.832001,-5880.000000,12880.000000,-4060.000000
10382.675872,15675.479552,6766.230675,-3670.268198,10933.825187,14284.999881,9364.933892,-23002.291978,15477.800724,16270.930024,8036.033277,529.490474,40981.208203,6376.773879,22795.784211,8123.428598,-142.496002,-830.088013,-489.951996,-2520.000000,9940.000000,-2380.000000
10370.270654,15649.484473,6751.411468,-3693.625771,10912.523974,14279.523704,9347.544235,-23018.675806,15460.433419,16253.205091,8027.874890,513.665439,40974.301514,6369.487210,22773.924205,8104.228449,-138.591995,-818.376038,-488.976013,-140.000000,8680.000000,-140.000000
10351.294023,15618.259086,6735.497026,-3714.815225,10894.039082,14274.025175,9333.015601,-23030.902211,15432.404331,16234.161405,8015.737893,492.721855,40965.405520,6365.732117,22756.601603,8096.874725,-142.496002,-821.791992,-482.632019,420.000000,10500.000000,1120.000000
10340.766351,15608.983112,6733.842997,-3718.927946,10899.403500,14271.879407,9330.400447,-23029.471699,15415.193488,16227.545289,8010.217012,485.904573,40962.388034,6365.262731,22757.294507,8108.788205,-136.639999,-835.455994,-486.536011,3220.000000,10080.000000,1960.000000
10367.811962,15672.842046,6772.444459,-3676.750204,10963.620062,14280.283663,9360.955281,-22994.893550,15449.972802,16262.436362,8015.268506,527.344707,40976.849613,6374.114022,22792.319690,8155.235130,-139.568008,-838.872009,-494.832001,2940.000000,11340.000000,2380.000000
10379.591331,15721.568849,6791.644608,-3638.975756,11007.630647,14286.273931,9393.320607,-22973.368820,15471.832808,16272.360536,8018.554213,557.027824,40984.471558,6377.042100,22828.261295,8190.305017,-144.447998,-827.648010,-491.903992,980.000000,12320.000000,2660.000000
10353.417439,15676.038346,6759.860427,-3669.195315,10959.172065,14276.193294,9369.761869,-23009.042205,15449.279898,16237.268297,8013.279201,530.920986,40971.887526,6364.972158,22800.366318,8157.671470,-144.936005,-836.432007,-494.832001,840.000000,10220.000000,4760.000000
10323.756674,15600.243580,6726.846901,-3726.952222,10897.369492,14259.205968,9324.052551,-23057.254917,15409.762014,16207.585181,8003.667951,487.670361,40955.101365,6350.331765,22745.537489,8106.441272,-138.104004,-846.679993,-496.296021,560.000000,10500.000000,5600.000000
10324.091950,15588.017176,6730.065552,-3734.574167,10895.782518,14253.148646,9318.755188,-23066.150912,15402.944732,16207.786346,7999.868155,480.718968,40950.631017,6347.023707,22739.122538,8099.065196,-139.568008,-846.192017,-505.567993,-560.000000,11900.000000,5320.000000
10327.489415,15587.503086,6732.680706,-3728.986231,10898.464727,14250.399381,9320.431569,-23074.175188,15404.107023,16204.545343,7998.527050,482.328294,40949.714595,6347.068411,22739.346056,8096.003007,-138.591995,-841.312012,-510.936005,-4060.000000,13580.000000,6160.000000
10321.052113,15572.817990,6726.712790,-3735.669403,10887.378262,14248.588890,9313.256659,-23092.458915,15394.339310,16191.000186,7994.816660,475.734529,40946.115964,6347.381335,22731.142966,8087.554048,-143.960007,-840.824036,-510.447998,-5040.000000,15400.000000,6720.000000
10317.654648,15565.240749,6726.802197,-3746.420592,10881.119774,14245.347887,9304.271257,-23103.366566,15389.332520,16188.161515,7991.732120,471.912381,40943.836086,6346.800190,22718.983617,8086.659978,-145.912003,-846.679993,-517.280029,-4900.000000,19040.000000,6720.000000
10331.177453,15609.452499,6755.770058,-3725.409952,10920.034161,14246.040791,9321.549156,-23081.104229,15405.112851,16210.781480,7991.106271,495.560526,40950.005168,6348.700088,22732.819347,8120.142891,-159.087997,-833.504028,-508.984009,-5880.000000,20020.000000,7700.000000
10342.688601,15667.768200,6783.910904,-3687.009655,10974.281844,14251.718134,9358.138962,-23046.257859,15424.022427,16231.590954,7995.889544,528.931681,40959.102328,6351.605815,22769.029173,8164.019366,-149.328003,-821.791992,-507.520020,-3780.000000,13580.000000,10220.000000
10329.434017,15653.887767,6766.253026,-3696.844422,10960.200245,14246.778398,9357.736630,-23056.852586,15415.506412,16214.111890,7998.348236,520.594480,40954.274351,6345.749658,22770.616146,8156.017441,-150.792007,-834.968018,-507.032013,0.000000,10500.000000,11340.000000
10300.309694,15581.825743,6723.695305,-3749.281615,10893.323826,14231.333343,9316.274144,-23110.876752,15383.185790,16178.282044,7992.827355,478.752014,40936.929397,6334.774951,22730.807690,8099.400473,-161.040009,-838.384033,-506.544006,420.000000,15680.000000,11200.000000
10292.598342,15559.853978,6719.448473,-3766.246589,10878.750489,14224.605468,9301.253772,-23130.412177,15367.651328,16172.828218,7984.512506,466.860886,40931.274406,6331.310431,22711.115803,8078.859219,-162.992004,-854.488037,-515.328003,700.000000,17500.000000,11200.000000
10292.151307,15560.591586,6719.671991,-3770.225199,10881.700919,14221.051541,9295.285856,-23138.212936,15364.343269,16171.665927,7980.869172,469.029006,40929.463915,6330.081085,22698.241198,8071.192571,-168.360001,-849.119995,-508.984009,1680.000000,19600.000000,11200.000000
10282.875333,15531.087283,6701.120043,-3795.370912,10856.890483,14214.346017,9274.990472,-23162.598689,15353.167397,16157.919605,7977.091727,453.271026,40921.171417,6323.152044,22675.263605,8048.617309,-168.848007,-838.872009,-515.815979,1960.000000,19880.000000,11340.000000
10281.221304,15519.196155,6699.309552,-3790.721749,10856.599910,14214.569535,9279.058490,-23173.327526,15350.373429,16150.632936,7973.001358,448.688918,40917.773952,6326.728323,22690.261625,8048.326736,-173.727997,-837.895996,-513.375977,1960.000000,17780.000000,12460.000000
10295.928752,15554.400152,6724.857596,-3762.267978,10894.463765,14220.313933,9296.559906,-23160.698791,15368.008955,16169.497808,7972.979006,472.605285,40923.339537,6336.920719,22715.362634,8076.601693,-178.608002,-823.255981,-509.959991,4060.000000,12880.000000,13580.000000
10314.413645,15617.722645,6759.525151,-3720.537272,10957.339222,14228.069988,9335.586051,-23127.707616,15392.439412,16198.733890,7978.052852,512.749018,40933.397822,6342.888635,22752.220661,8123.830929,-177.143997,-817.400024,-511.424011,5740.000000,10220.000000,15260.000000
10312.513746,15635.089950,6760.843904,-3709.450806,10967.576321,14228.494671,9350.449961,-23124.712482,15397.133279,16193.972968,7981.942055,524.103704,40934.604816,6337.010126,22762.860091,8130.625860,-171.287994,-856.440002,-519.720032,5740.000000,13860.000000,14280.000000
10279.656682,15561.820932,6716.430988,-3758.602292,10896.453070,14214.346017,9311.826147,-23177.239082,15361.102266,16149.984735,7976.734099,481.434224,40919.875016,6322.682658,22723.968056,8079.373310,-177.632004,-842.776001,-526.064026,4480.000000,19600.000000,11620.000000
10274.404022,15526.996914,6705.322171,-3780.998740,10869.921550,14207.573439,9287.909780,-23209.135021,15347.177130,16140.954630,7971.347329,464.558657,40911.850740,6319.374599,22700.342262,8050.830132,-180.072006,-826.184021,-528.504028,1260.000000,21840.000000,11200.000000
10287.479793,15535.825853,6714.598145,-3771.700415,10883.690224,14209.562744,9288.826202,-23214.790012,15357.771857,16148.576575,7971.704956,474.952218,40913.929452,6322.906175,22700.074041,8048.170274,-182.024002,-837.408020,-529.479980,1400.000000,20580.000000,11620.000000
10277.779135,15514.591696,6705.366874,-3784.820889,10871.128544,14206.522907,9278.454993,-23232.649056,15346.797150,16134.338514,7968.307491,463.105793,40906.687487,6319.039323,22688.898169,8034.289841,-185.928009,-840.335999,-521.671997,1540.000000,19180.000000,12180.000000
10279.768441,15499.034881,6697.655523,-3800.042427,10857.114000,14200.867915,9259.634824,-23254.933745,15347.132426,16127.789453,7966.407593,453.114564,40901.211310,6315.105416,22671.240291,8020.543518,-191.296005,-820.815979,-509.472015,3220.000000,18060.000000,12180.000000
10287.680958,15502.477050,6701.231802,-3796.801424,10867.038175,14199.616218,9260.171266,-23259.940536,15355.067295,16133.913831,7965.804096,457.741375,40899.847853,6316.893556,22674.481293,8030.110065,-187.391998,-825.208008,-509.472015,8120.000000,14840.000000,13580.000000
10306.367017,15561.910339,6737.866311,-3750.287443,10931.835882,14206.880535,9300.024426,-23224.781242,15374.267444,16161.898215,7966.564055,493.615925,40908.810903,6327.197710,22720.078852,8082.457850,-191.296005,-818.864014,-503.615997,10220.000000,16240.000000,13160.000000
10315.464177,15605.853868,6754.540712,-3723.778275,10969.431516,14211.060311,9324.343124,-23205.044652,15390.830087,16170.905968,7970.922645,519.879224,40916.052868,6327.197710,22746.900946,8113.347961,-185.440002,-847.168030,-513.864014,11060.000000,18620.000000,11900.000000
10290.318464,15565.151342,6723.471787,-3749.259263,10927.052608,14203.840697,9309.367455,-23234.168975,15369.439467,16135.031418,7969.805058,498.779178,40906.463970,6317.452349,22735.546259,8087.710510,-201.544006,-850.583984,-518.255981,6020.000000,24920.000000,8260.000000
10270.715984,15515.083434,6701.857651,-3779.612932,10881.276236,14194.095337,9283.260618,-23276.659641,15346.640688,16111.763252,7964.172419,472.091195,40895.265746,6315.597155,22714.602675,8050.964242,-205.936005,-833.015991,-519.231995,3080.000000,22260.000000,8680.000000
10273.219380,15512.960018,6705.277467,-3782.228086,10881.544457,14191.703700,9277.806792,-23286.963795,15347.691220,16114.736034,7961.423154,473.298189,40894.371676,6316.111245,22708.500649,8045.130437,-201.544006,-839.359985,-519.231995,3360.000000,18480.000000,10080.000000
10268.078478,15498.923123,6697.700226,-3795.706188,10871.240302,14186.562799,9266.385051,-23303.325272,15341.142159,16103.761328,7956.841046,465.452727,40887.800263,6309.383370,22694.687270,8028.657201,-194.223999,-834.479980,-505.080017,5460.000000,19180.000000,10360.000000
10258.243711,15471.966919,6687.038444,-3813.811101,10850.095552,14180.393717,9251.811713,-23329.566220,15328.669885,16088.159810,7951.923663,451.438183,40877.719626,6306.097663,22682.840846,8008.764149,-188.856003,-860.343994,-507.032013,11760.000000,17640.000000,10220.000000
10257.081420,15466.535445,6688.714825,-3821.187177,10845.714610,14178.136191,9245.709687,-23343.424302,15321.629086,16087.735127,7947.028631,450.208837,40873.115167,6306.745864,22679.979823,8009.434701,-196.664001,-832.528015,-504.104004,15260.000000,20720.000000,7700.000000
10267.944368,15503.639341,6714.821662,-3795.125043,10890.105175,14180.684290,9268.776687,-23323.173621,15330.748597,16108.477546,7944.435828,474.862811,40878.121958,6311.506785,22706.600750,8046.538597,-188.856003,-876.936035,-516.304016,15540.000000,21420.000000,7000.000000
10284.819935,15556.389458,6741.308479,-3759.049327,10940.284841,14186.831020,9299.666798,-23296.507990,15353.413266,16131.052808,7950.604910,507.250489,40889.253126,6312.602021,22737.446158,8083.128403,-190.807999,-828.135986,-509.472015,10780.000000,22400.000000,4200.000000
10273.822877,15545.705324,6724.164691,-3762.647958,10926.672629,14183.969996,9296.157574,-23314.188220,15346.484226,16111.830307,7951.610738,503.405989,40887.241469,6305.181242,22735.009817,8068.286844,-194.223999,-843.264038,-510.447998,9100.000000,17080.000000,5040.000000
10249.928862,15484.796820,6686.792575,-3798.321342,10868.580445,14173.777601,9261.691184,-23368.949994,15316.577591,16077.185104,7946.089857,470.571276,40875.931487,6301.336742,22704.186762,8016.408445,-186.904007,-840.335999,-508.007996,8260.000000,15540.000000,4760.000000
10250.800580,15473.889169,6688.491307,-3806.546784,10864.020689,14170.693060,9253.443391,-23388.597177,15309.201516,16078.705022,7943.295889,465.832706,40875.842080,6304.309524,22694.530808,8002.796233,-187.880005,-848.143982,-509.959991,7140.000000,15960.000000,4340.000000
10255.449743,15479.499457,6695.777976,-3806.010342,10871.352061,14171.296557,9254.024536,-23394.498038,15313.515402,16082.035432,7942.692392,471.241828,40876.244411,6304.644800,22692.452096,8002.863288,-190.320007,-846.192017,-510.447998,4760.000000,16520.000000,3360.000000
10247.023135,15455.672497,6683.842144,-3822.640040,10852.017802,14167.005022,9238.065390,-23420.090785,15300.886667,16067.730316,7939.496093,457.517857,40869.896516,6298.855698,22675.755343,7983.506678,-184.464005,-833.504028,-500.688019,1120.000000,13440.000000,3360.000000
10240.988164,15443.982535,6679.260037,-3831.580738,10846.921605,14164.680441,9230.085818,-23435.826413,15292.147135,16062.231787,7936.590366,451.482886,40865.560277,6299.749768,22668.178102,7979.885695,-185.440002,-830.088013,-492.391998,3780.000000,7980.000000,4200.000000
10249.750048,15466.043707,6700.024807,-3820.091941,10871.061489,14167.005022,9238.780646,-23426.148108,15303.412414,16079.219112,7937.417381,465.765651,40869.985923,6304.220117,22676.738820,8004.025579,-180.559998,-831.552002,-483.119995,6580.000000,6300.000000,4900.000000
10270.313653,15528.226260,6732.948927,-3778.763566,10931.545309,14176.392755,9274.118754,-23387.568997,15334.168414,16111.249162,7942.625337,505.685867,40881.832347,6310.880936,22711.808707,8055.523998,-179.096008,-837.895996,-477.752014,10500.000000,8260.000000,4060.000000
10272.906455,15549.661583,6732.121912,-3763.229103,10946.163350,14177.398584,9294.548249,-23378.717706,15347.020667,16111.495031,7946.760410,518.113436,40883.709894,6307.751692,22734.763948,8072.891304,-179.096008,-840.824036,-472.384003,10920.000000,8960.000000,3920.000000
10249.526530,15499.906600,6698.437834,-3798.097825,10889.613436,14169.173142,9267.614397,-23425.142279,15329.876879,16076.849827,7944.793456,488.117395,40870.857641,6299.392140,22710.557009,8031.451169,-179.584000,-849.119995,-470.432007,10780.000000,6580.000000,4200.000000
10240.921109,15469.955262,6691.911124,-3821.343639,10865.585311,14163.540502,9244.815617,-23455.361838,15314.945914,16069.540807,7938.803189,470.370110,40864.085062,6299.190974,22687.199436,8007.825376,-172.751999,-853.512024,-471.408020,9800.000000,4060.000000,4900.000000
10233.835606,15463.897939,6692.559325,-3825.277546,10869.407459,14161.730011,9240.144103,-23460.994477,15301.534867,16067.350336,7933.908157,466.123279,40861.045225,6297.738111,22679.152808,8006.372512,-173.727997,-863.272034,-470.432007,7840.000000,3640.000000,5040.000000
10220.044580,15439.154558,6676.466069,-3838.889758,10851.324898,14156.834979,9229.929355,-23475.612518,15280.524228,16048.396057,7928.588441,449.046546,40852.328044,6292.038416,22668.043991,7994.883715,-164.456009,-895.479980,-487.024017,5740.000000,1680.000000,4900.000000
10216.937687,15421.273163,6671.571037,-3849.730355,10839.456122,14153.526921,9222.396817,-23491.884588,15274.846885,16039.701228,7924.386313,436.574273,40846.091908,6289.087986,22663.417180,7988.021730,-161.040009,-883.280029,-497.272003,1540.000000,3640.000000,3920.000000
10233.433274,15439.512186,6686.278485,-3840.946119,10854.007107,14154.555101,9222.195652,-23495.550274,15294.963455,16053.380496,7925.325087,448.331290,40849.735242,6291.546678,22668.893357,7998.683512,-160.063995,-857.416016,-482.632019,-1120.000000,5180.000000,3640.000000
10261.149438,15504.868687,6720.901337,-3794.029807,10914.781501,14162.937005,9256.952614,-23459.072227,15330.145100,16088.942121,7929.974250,489.771425,40862.520440,6300.934410,22707.472468,8047.030335,-149.815994,-869.127991,-479.704010,4200.000000,2520.000000,4900.000000
10271.252426,15553.461379,6741.688459,-3754.444868,10956.243987,14171.810647,9293.788289,-23430.506698,15349.233490,16103.224886,7935.696296,520.348611,40871.841117,6306.567050,22745.448082,8083.106051,-151.279999,-885.231995,-482.144012,7000.000000,1820.000000,5040.000000
10246.464341,15515.239896,6713.257040,-3779.165897,10913.663913,14166.133304,9277.493868,-23462.268527,15328.871051,16075.106391,7935.651593,498.063922,40862.945123,6297.693407,22728.997198,8053.489989,-150.304001,-890.600037,-484.096008,5180.000000,2380.000000,4900.000000
10222.950306,15455.337221,6685.026787,-3820.293107,10861.629052,14154.219825,9239.004164,-23507.128478,15299.478507,16049.088961,7928.901366,464.715119,40849.802297,6289.266800,22690.954529,8009.769977,-146.888000,-887.671997,-483.608002,1120.000000,3500.000000,4620.000000
10225.967792,15451.626831,6690.972351,-3821.790674,10867.127581,14153.258700,9232.499806,-23517.253818,15299.187934,16052.464074,7925.995639,467.106756,40851.299864,6289.512669,22684.092544,8004.986704,-145.423996,-889.135986,-484.096008,-1820.000000,5040.000000,4060.000000
10222.950306,15441.792064,6687.843107,-3824.294069,10866.702898,14155.627984,9235.271422,-23523.735824,15292.772984,16044.417446,7921.659401,464.379843,40848.572951,6288.953875,22688.495837,8002.170384,-149.328003,-878.888000,-483.608002,-1260.000000,5180.000000,3780.000000
10215.685989,15412.846555,6674.230894,-3839.001517,10848.665041,14153.862197,9227.448312,-23541.080778,15278.624329,16031.095806,7916.496148,450.857037,40842.158001,6287.791584,22683.913730,7990.391015,-148.352005,-870.104004,-481.167999,-420.000000,3220.000000,5040.000000
10214.590754,15403.548229,6673.917970,-3848.478657,10848.150950,14152.185816,9221.994486,-23548.501557,15275.830361,16030.022923,7913.523366,448.823029,40839.296977,6286.539887,22675.621232,7993.833184,-151.768005,-862.296021,-476.776001,1820.000000,1680.000000,7140.000000
10232.516853,15442.015581,6703.981066,-3826.819816,10888.339387,14157.639641,9238.825350,-23528.049711,15297.064519,16055.794484,7916.965534,476.740357,40847.343605,6291.144346,22688.160561,8026.198509,-149.815994,-893.528015,-471.408020,3780.000000,560.000000,8260.000000
10247.894853,15497.447908,6733.395962,-3788.039540,10943.034106,14165.261586,9274.409327,-23491.459905,15320.176222,16080.873141,7923.983982,513.039590,40855.993731,6295.592343,22722.716358,8068.219789,-147.376007,-893.040039,-486.048004,2800.000000,-1820.000000,8960.000000
10236.853091,15496.822059,6719.247308,-3784.060929,10936.216824,14164.903958,9279.214952,-23495.103239,15316.801109,16069.607862,7925.347438,515.364172,40853.490335,6292.351340,22729.623047,8062.900074,-148.352005,-894.504028,-492.880005,-6580.000000,2940.000000,9100.000000
10212.355579,15435.153596,6683.372758,-3827.847997,10875.576541,14154.599804,9243.385106,-23543.807691,15292.527114,16039.075379,7920.318296,483.423529,40840.392213,6283.321236,22697.548294,8013.636829,-159.576004,-881.328003,-500.200012,-11480.000000,9660.000000,7840.000000
10209.181632,15415.931096,6683.193944,-3841.303747,10867.172285,14152.141112,9231.136350,-23560.683258,15283.608768,16036.639039,7914.909174,472.538230,40836.503009,6280.795488,22685.791276,8000.538707,-160.063995,-871.567993,-492.880005,-11900.000000,10920.000000,8820.000000
10207.773472,15409.426738,6682.791612,-3849.529189,10865.764125,14149.838883,9223.536756,-23565.891214,15280.233655,16032.951001,7911.265839,464.804526,40832.412640,6275.654587,22676.604709,7995.129585,-169.335999,-850.583984,-489.464020,-9940.000000,8120.000000,10920.000000
10202.386701,15391.053604,6669.805249,-3865.465983,10849.514407,14147.603708,9213.120844,-23584.599624,15273.416373,16018.578830,7907.689560,452.466363,40828.255216,6274.425241,22666.546424,7981.763242,-168.848007,-860.832031,-486.536011,-6860.000000,4900.000000,14000.000000
10206.007684,15386.292682,6667.614778,-3868.125840,10845.356982,14146.597880,9208.583439,-23597.049546,15273.818704,16017.997684,7906.571973,449.404174,40827.070573,6276.571009,22664.087732,7980.533896,-168.848007,-856.440002,-494.343994,-7140.000000,6860.000000,14700.000000
10216.535356,15409.918476,6684.691511,-3851.674956,10872.424945,14148.676592,9219.938126,-23586.387764,15285.106335,16035.566155,7906.840194,465.005692,40832.032660,6280.862544,22678.459904,8004.897297,-178.608002,-854.488037,-493.856018,-9660.000000,10360.000000,14560.000000
10230.304030,15469.485875,6714.307572,-3811.754741,10932.260565,14155.873854,9252.594024,-23548.210984,15304.351187,16061.337717,7909.723569,502.578974,40842.135649,6284.260009,22713.239218,8052.171237,-189.344009,-840.824036,-483.608002,-11480.000000,14140.000000,14000.000000
10217.272963,15487.501381,6714.598145,-3796.287334,10946.006888,14159.696002,9268.240245,-23536.163394,15300.394929,16054.073400,7908.315409,515.520634,40841.129820,6281.555448,22731.679408,8064.688213,-188.367996,-845.216003,-475.312012,-9520.000000,8960.000000,15680.000000
10190.473222,15429.342142,6675.236723,-3835.022907,10886.506544,14150.151807,9236.321954,-23578.721115,15279.719565,16019.830527,7903.867412,485.077558,40828.456381,6273.665282,22704.454983,8020.163538,-190.807999,-829.112000,-468.968018,-6160.000000,5320.000000,16940.000000
10194.161259,15403.794098,6667.882999,-3856.078250,10863.193674,14144.608574,9214.283134,-23605.699671,15281.910036,16017.170670,7903.375674,472.270009,40823.561349,6273.575875,22685.813628,7996.850669,-190.320007,-854.000000,-479.216003,-1820.000000,5880.000000,16380.000000
10203.996027,15413.181831,6676.890752,-3848.344546,10873.475477,14146.620231,9217.613544,-23604.269159,15288.548504,16022.602144,7902.571011,479.869602,40822.577873,6275.945160,22690.351032,8000.829280,-188.367996,-867.664001,-486.536011,-3780.000000,9940.000000,14700.000000
10197.469318,15398.720252,6669.358214,-3859.498067,10859.773858,14143.893319,9207.845832,-23615.780308,15279.339585,16008.654655,7898.570049,470.213648,40816.565253,6271.474811,22679.085753,7987.909971,-198.128006,-865.712036,-491.903992,-9660.000000,9660.000000,13440.000000
10185.533486,15374.669775,6659.612853,-3879.547582,10840.126674,14139.668839,9191.797279,-23634.622828,15265.973242,15995.154201,7892.266857,455.305035,40810.463227,6269.373747,22661.830206,7975.191829,-191.783997,-880.840027,-511.424011,-13860.000000,8960.000000,12740.000000
10179.811439,15367.248996,6660.395165,-3885.291980,10841.847759,14136.427836,9185.069404,-23639.294343,15255.646736,15997.612893,7886.075423,452.868694,40808.608032,6267.183276,22657.158692,7980.265675,-195.688004,-867.664001,-506.544006,-18340.000000,10080.000000,11060.000000
10197.111690,15420.714369,6692.425214,-3846.802276,10900.901067,14143.200415,9216.317143,-23604.872656,15275.986824,16027.452472,7889.361130,488.810299,40818.375745,6271.184238,22690.060459,8025.371495,-194.712006,-853.512024,-489.951996,-16240.000000,6020.000000,11060.000000
10207.572306,15465.708430,6710.530127,-3818.616726,10939.144902,14149.704772,9241.909890,-23580.933938,15297.332740,16042.003458,7894.859659,519.074561,40824.880102,6271.765384,22709.931160,8053.534693,-186.904007,-865.223999,-492.880005,-9660.000000,840.000000,11620.000000
10192.127251,15436.002962,6689.497136,-3843.717735,10901.526916,14147.737819,9226.241318,-23609.611226,15289.777850,16019.294085,7896.558392,506.848157,40818.398096,6267.205628,22689.836942,8025.974992,-187.880005,-854.488037,-490.440002,-8960.000000,2380.000000,10360.000000
10172.256550,15378.782496,6664.843162,-3881.536887,10852.867169,14139.154749,9198.323989,-23650.023180,15264.587434,15998.126983,7890.389310,474.505183,40809.323288,6263.048203,22661.159654,7988.044082,-188.367996,-858.392029,-486.536011,-10640.000000,4760.000000,8120.000000
10176.324567,15376.413211,6667.503019,-3878.877029,10857.784552,14139.668839,9202.906096,-23654.828805,15265.190931,16002.664388,7889.405833,470.504221,40811.402000,6264.322253,22667.485197,7990.167497,-186.904007,-858.880005,-479.704010,-10640.000000,3220.000000,6160.000000
10176.212809,15374.781534,6663.904388,-3873.065576,10861.696108,14141.367572,9211.422111,-23656.348724,15264.810951,15998.439908,7887.327121,468.000825,40810.440875,6265.439840,22680.225692,7993.386149,-187.391998,-847.168030,-471.408020,-8820.000000,-140.000000,5460.000000
10174.737594,15358.867092,6652.482647,-3880.106375,10847.547453,14141.278165,9206.549431,-23665.155311,15261.905225,15991.019129,7883.929656,460.535343,40805.657602,6267.898532,22677.364669,7988.871096,-182.512009,-861.807983,-480.192017,-6720.000000,-3220.000000,5180.000000
10180.280826,15352.921528,6651.722688,-3882.498012,10844.261747,14139.959412,9204.358960,-23668.642183,15268.342527,15995.444774,7883.996711,460.691805,40804.897643,6269.172581,22674.861273,7992.559134,-183.488007,-879.376038,-478.239990,-7140.000000,-2800.000000,3780.000000
10201.112652,15391.545342,6677.606008,-3858.782811,10885.120736,14143.133359,9219.558146,-23646.379846,15292.303597,16025.932554,7888.690578,488.653837,40812.005497,6273.642930,22688.071154,8025.796178,-181.048004,-878.888000,-488.976013,-8260.000000,-2240.000000,2240.000000
10222.480920,15452.096218,6709.412540,-3815.554537,10941.983574,14151.470560,9254.203350,-23610.460593,15324.646571,16053.291089,7894.613790,532.217387,40822.644928,6279.119108,22723.208096,8071.304330,-179.096008,-872.056030,-491.903992,-10080.000000,-1540.000000,420.000000
10207.639361,15442.104988,6697.364950,-3815.018095,10936.999135,14153.258700,9259.657176,-23613.053395,15314.722397,16035.923783,7894.859659,532.865588,40819.538035,6274.000558,22732.618181,8070.209094,-181.535995,-861.807983,-493.368011,-10500.000000,-2520.000000,280.000000
10173.441192,15367.830142,6659.098763,-3865.443631,10870.882675,14144.362705,9220.251050,-23659.589727,15274.623367,15993.790745,7886.589514,492.230116,40802.796579,6264.366956,22693.189704,8021.124663,-178.119995,-860.832031,-496.296021,-8400.000000,-3920.000000,280.000000
10175.698719,15348.875862,6658.383508,-3887.549506,10855.258805,14139.646487,9202.414358,-23674.788913,15271.136495,15995.757699,7884.667264,482.060073,40799.242651,6262.802334,22671.284994,8004.785538,-181.048004,-855.463989,-494.343994,-7280.000000,-4620.000000,280.000000
10183.365367,15360.632880,6666.184266,-3877.848849,10868.647500,14141.121702,9209.589268,-23673.201939,15279.026661,16001.189172,7884.756671,485.278724,40800.047314,6264.478715,22680.270395,8009.501756,-174.216003,-852.048035,-488.976013,-6440.000000,-4900.000000,560.000000
10173.240027,15341.455083,6655.701298,-3888.041245,10851.235491,14137.433664,9199.843907,-23687.797628,15268.923672,15987.286387,7880.442784,471.107718,40794.347619,6260.567160,22669.630965,7998.214125,-169.824005,-859.367981,-485.559998,-4060.000000,-5740.000000,560.000000
10168.769678,15327.753464,6649.621624,-3899.910021,10838.562052,14134.863214,9184.197686,-23702.862704,15261.167617,15983.285425,7878.565237,464.022215,40790.659582,6259.047241,22652.956564,7989.765166,-174.703995,-852.048035,-482.632019,-2380.000000,-6020.000000,700.000000
10178.023300,15343.958478,6664.574941,-3897.808957,10856.711669,14136.897223,9181.515477,-23695.687794,15267.001422,15998.864591,7878.095851,472.560581,40793.095922,6260.947139,22650.341409,8004.964352,-174.216003,-844.728027,-486.536011,-840.000000,-6300.000000,700.000000
10199.480975,15407.705654,6699.018979,-3854.312462,10919.028332,14147.603708,9223.693219,-23651.654858,15292.772984,16029.061798,7883.884953,508.971573,40805.389381,6267.004462,22693.904959,8057.334490,-175.192001,-844.239990,-486.536011,-420.000000,-8260.000000,1400.000000
10200.956190,15436.584107,6703.399921,-3828.272680,10943.324678,14151.582319,9251.699954,-23634.712235,15302.853620,16031.296972,7887.304769,525.064829,40809.122122,6267.004462,22724.079814,8077.160487,-175.192001,-845.703979,-489.951996,-1260.000000,-7980.000000,1960.000000
10175.206980,15383.677528,6665.267845,-3859.363956,10887.892352,14143.178063,9226.129559,-23675.101838,15280.680690,15997.769356,7882.856772,492.833613,40795.979297,6258.555503,22700.565779,8039.050763,-162.503998,-863.760010,-498.735992,-3220.000000,-7560.000000,2520.000000
10162.600596,15350.060505,6653.108496,-3873.669073,10863.573654,14138.819473,9209.276343,-23701.029861,15263.022812,15987.644015,7875.994787,475.533363,40787.440930,6258.354337,22685.433648,8017.235460,-153.720001,-870.591980,-505.080017,-4620.000000,-4480.000000,1960.000000
10168.233236,15352.765066,6657.891769,-3872.707948,10868.245169,14140.026467,9208.449329,-23704.293216,15264.766248,15993.477821,7874.318406,480.428395,40785.742198,6258.734317,22678.951642,8014.642658,-156.160004,-876.447998,-504.104004,-5600.000000,-1960.000000,1260.000000
10156.811494,15328.692237,6644.391316,-3894.612657,10848.776799,14137.120740,9195.641779,-23718.151297,15244.873195,15978.636262,7870.049223,461.921151,40781.785939,6251.648814,22659.170349,8001.544535,-155.671997,-873.520020,-505.567993,-5460.000000,-1400.000000,1120.000000
10147.759038,15310.229696,6637.931661,-3905.654419,10839.098494,14134.706752,9189.316236,-23728.768376,15229.651657,15968.645032,7862.360223,448.532456,40777.159128,6252.073497,22650.453168,7997.498870,-153.231995,-869.616028,-508.007996,-5180.000000,-1820.000000,1820.000000
10152.542311,15318.231621,6647.073525,-3897.451329,10853.358907,14137.947755,9191.797279,-23728.701321,15234.323172,15978.055117,7862.248464,457.383747,40779.886041,6257.795543,22654.141206,8010.842861,-151.768005,-874.984009,-502.640015,-4480.000000,-1960.000000,2520.000000
10171.518942,15364.052697,6677.538953,-3866.784736,10905.438471,14146.106141,9223.737922,-23694.570207,15256.674916,16011.202754,7866.651758,488.944410,40790.190195,6262.131782,22686.439477,8057.826228,-153.720001,-868.152039,-505.080017,-4060.000000,-1260.000000,2520.000000
10194.138908,15419.999113,6701.522374,-3822.729447,10949.404353,14154.599804,9262.138219,-23667.211672,15296.572780,16037.019019,7877.067670,524.751905,40801.164901,6265.864523,22728.147832,8093.454909,-152.255997,-865.712036,-502.640015,-2240.000000,-1540.000000,2940.000000
10181.398413,15389.623092,6677.226028,-3836.431067,10911.831070,14149.838883,9247.542530,-23696.224236,15292.147135,16015.159013,7880.375729,510.692657,40794.772302,6258.443744,22715.273227,8066.409298,-154.208008,-863.760010,-498.248016,-1820.000000,-1260.000000,3640.000000
10158.532579,15329.720417,6651.722688,-3875.367805,10862.053736,14138.864176,9211.667980,-23739.497213,15263.045164,15989.454507,7873.469040,477.790889,40782.456491,6251.849979,22679.331622,8023.248079,-149.815994,-867.664001,-503.615997,-1820.000000,-1820.000000,3920.000000
10160.343070,15326.434711,6656.528313,-3878.295884,10867.172285,14137.791292,9211.846794,-23740.570097,15261.413486,15993.500172,7872.217342,476.226267,40783.507023,6253.213436,22676.582357,8021.281126,-155.184006,-865.223999,-499.712006,-2520.000000,-140.000000,3500.000000
10166.445096,15325.451234,6656.416554,-3879.525230,10864.378317,14137.679534,9210.840966,-23744.392245,15266.532036,15991.600274,7871.144458,476.718006,40784.132872,6252.252311,22667.596956,8016.989591,-156.160004,-858.392029,-499.223999,-1540.000000,-560.000000,3920.000000
10159.270186,15301.691330,6646.157103,-3898.278343,10841.423075,14132.739798,9192.780756,-23765.536996,15254.707963,15977.272806,7865.891798,462.748165,40777.293238,6248.005479,22646.832186,8003.131509,-159.576004,-856.440002,-491.903992,-420.000000,-1400.000000,4480.000000
10149.882454,15288.235580,6645.397144,-3906.280268,10834.762256,14130.571679,9186.544619,-23775.930557,15241.833358,15970.522579,7860.348566,456.467325,40775.482747,6249.123067,22641.758340,8006.350160,-160.063995,-854.000000,-488.488007,1540.000000,-2940.000000,5320.000000
10162.511189,15323.976019,6670.766374,-3882.877992,10875.598893,14136.025505,9206.482375,-23749.309629,15254.819722,15996.607065,7862.092002,481.076596,40783.954058,6254.845113,22660.846729,8044.124609,-165.432007,-866.200012,-489.951996,1680.000000,-4060.000000,5740.000000
10181.912503,15383.297549,6697.722578,-3842.644852,10931.187681,14147.335487,9243.765085,-23707.556570,15284.502838,16025.731388,7871.792659,519.856873,40797.074532,6259.136648,22696.609521,8090.862106,-158.600006,-870.104004,-501.664001,-560.000000,-3360.000000,5740.000000
10166.288634,15377.486095,6683.372758,-3846.556407,10921.822300,14146.910804,9245.039135,-23709.948207,15278.132591,16012.834431,7872.016176,517.129960,40793.364143,6253.727526,22696.855390,8086.056481,-160.063995,-871.080017,-503.127991,-3920.000000,-420.000000,4620.000000
10133.968012,15306.832231,6641.396182,-3901.608753,10852.509541,14134.751455,9202.459061,-23759.032638,15242.392152,15975.529370,7865.712984,475.712177,40777.986142,6243.758648,22651.347238,8031.294707,-169.335999,-859.856018,-500.200012,-5740.000000,560.000000,4200.000000
10136.650221,15291.677748,6640.435057,-3914.505710,10840.484302,14131.353990,9192.490183,-23772.242519,15240.268736,15978.457448,7863.343699,466.659721,40773.515794,6240.987032,22642.317133,8017.526033,-172.264008,-851.072021,-493.368011,-4060.000000,-1960.000000,5180.000000
10141.075866,15299.612617,6646.559435,-3897.227811,10852.375430,14135.556118,9206.214155,-23768.040391,15241.185157,15980.826733,7859.834475,470.258352,40771.995875,6243.535130,22662.456055,8023.292783,-170.311996,-855.952026,-491.416016,-2380.000000,-4760.000000,6440.000000
10135.957317,15286.112164,6634.780065,-3900.021780,10838.115017,14135.042028,9199.732149,-23782.479618,15233.160881,15967.706259,7854.380650,459.976549,40767.771395,6242.976337,22656.152863,8008.942963,-174.703995,-854.000000,-482.632019,-1820.000000,-5880.000000,6860.000000
10136.516110,15274.913940,6629.661516,-3914.103379,10823.586383,14132.471577,9185.181163,-23798.125839,15231.395093,15964.264091,7852.816028,452.309901,40763.681026,6240.897625,22634.918706,7998.728216,-179.096008,-857.903992,-483.608002,-2240.000000,-7000.000000,6300.000000
10150.530654,15294.695234,6644.637185,-3900.200593,10846.809846,14134.974973,9199.329817,-23787.419353,15246.504873,15983.978329,7855.699403,467.263218,40769.201907,6246.843189,22651.257831,8022.957507,-172.751999,-866.687988,-495.808014,-4620.000000,-8820.000000,6020.000000
10184.147678,15370.713517,6684.490345,-3843.360107,10917.687227,14148.318964,9251.923472,-23741.844146,15288.883780,16025.463167,7866.137667,516.124131,40786.368047,6259.024889,22706.936026,8081.899057,-175.680008,-865.223999,-492.880005,-8400.000000,-1680.000000,3500.000000
10180.906675,15395.166325,6690.972351,-3821.678915,10939.144902,14155.650336,9276.778612,-23724.789765,15293.823516,16026.424292,7870.630368,532.373849,40790.480768,6258.421392,22734.808652,8102.954400,-179.584000,-858.392029,-493.368011,-7000.000000,700.000000,1820.000000
10152.475256,15336.671810,6652.504999,-3862.627311,10876.202390,14145.368534,9242.111056,-23769.716772,15269.303652,15989.163934,7867.702290,499.047398,40777.226183,6247.558444,22702.130401,8057.602710,-175.192001,-876.447998,-498.735992,-6020.000000,-1540.000000,1260.000000
10142.707544,15303.434766,6641.463237,-3888.130651,10845.044058,14137.612478,9218.485262,-23797.097659,15252.696306,15979.910312,7862.092002,480.875430,40769.201907,6246.262043,22677.811703,8031.361762,-177.632004,-872.544006,-498.735992,-7000.000000,-1540.000000,140.000000
10143.176930,15305.625237,6646.313566,-3890.388178,10850.453180,14137.411313,9219.044056,-23794.817781,15249.701172,15984.581826,7859.230978,481.680093,40767.033788,6244.317442,22674.749514,8030.199472,-183.975998,-875.960022,-502.152008,-7980.000000,-980.000000,-560.000000
10141.277032,15296.259856,6637.529330,-3904.201556,10837.623279,14134.930269,9207.309390,-23806.038357,15244.783788,15977.988062,7857.845170,476.382730,40762.786956,6239.847093,22658.991535,8017.078998,-182.512009,-870.104004,-503.615997,-7560.000000,-980.000000,-1120.000000
10135.130302,15274.377498,6627.336934,-3922.708800,10819.607773,14130.906955,9191.327893,-23819.628217,15235.172538,15970.723745,7854.782981,465.005692,40759.434194,6239.958851,22642.026561,8005.232573,-186.416000,-863.272034,-501.664001,-7420.000000,-1680.000000,-1400.000000
10138.281898,15277.394983,6630.935565,-3917.634954,10829.420189,14132.315115,9194.479489,-23815.493144,15239.531128,15978.099820,7853.352470,471.465346,40760.775299,6244.317442,22648.597973,8021.303477,-185.440002,-855.463989,-492.391998,-7560.000000,-2940.000000,-1400.000000
10160.879512,15334.481339,6663.457354,-3880.016968,10887.959407,14140.294688,9226.330725,-23775.528225,15265.570911,16011.403920,7857.889874,507.339896,40770.118328,6250.598282,22682.282052,8070.879647,-181.535995,-853.023987,-488.488007,-7420.000000,-2940.000000,-2240.000000
10169.507285,15380.972967,6679.461203,-3848.076325,10928.125492,14146.597880,9255.566806,-23747.946173,15280.926559,16025.843147,7862.874313,533.245567,40775.728616,6252.632290,22710.601713,8102.485013,-177.143997,-841.799988,-485.559998,-7000.000000,-3080.000000,-2800.000000
10137.857215,15347.378295,6651.074487,-3865.041299,10893.301474,14141.456978,9243.228643,-23771.683725,15252.562195,15991.376757,7857.934577,513.061942,40767.547878,6247.804314,22697.213018,8075.618216,-178.608002,-836.919983,-478.727997,-6020.000000,-3360.000000,-3500.000000
10104.798985,15279.607806,6623.604193,-3907.800187,10839.545529,14131.018714,9208.270515,-23810.665168,15211.859669,15962.073620,7848.748010,473.275837,40755.813212,6242.328136,22663.238366,8032.993440,-176.656006,-833.504028,-475.312012,-4900.000000,-4480.000000,-3780.000000
10108.218802,15265.705021,6621.883109,-3919.065466,10835.924546,14126.548365,9200.156832,-23816.946008,15213.759567,15965.806361,7845.417600,462.926979,40752.795726,6236.561386,22653.895337,8023.561004,-178.608002,-837.408020,-477.752014,-3920.000000,-5880.000000,-3920.000000
10113.426758,15266.263815,6617.949202,-3920.160701,10834.583442,14123.150900,9195.932352,-23821.215191,15223.862555,15964.912291,7842.198949,459.820087,40750.895828,6232.247499,22647.927421,8015.022637,-174.216003,-835.944031,-483.119995,-4200.000000,-7000.000000,-4060.000000
10107.727064,15253.992707,6608.919097,-3923.535815,10826.246241,14122.055664,9189.293884,-23832.681636,15218.207564,15956.016297,7838.376801,454.746241,40747.341901,6234.192101,22643.099444,8007.803024,-164.456009,-848.143982,-490.440002,-5600.000000,-6300.000000,-4620.000000
10111.660971,15247.197777,6610.126091,-3929.615489,10823.586383,14123.150900,9179.548523,-23838.247220,15220.599201,15959.547872,7838.220339,455.685014,40749.733537,6237.790732,22631.610648,8008.764149,-169.335999,-843.752014,-493.856018,-8540.000000,-3360.000000,-5460.000000
10138.728933,15287.274455,6636.679964,-3912.829329,10862.590177,14127.442435,9193.697178,-23814.956703,15253.635079,15991.644978,7843.294185,482.305942,40761.378796,6241.590529,22642.585354,8043.565815,-167.384003,-855.952026,-499.223999,-9380.000000,-2240.000000,-5880.000000
10155.269224,15342.975002,6664.887865,-3867.209419,10919.520070,14136.517243,9235.360829,-23774.902377,15281.507704,16018.578830,7850.111467,518.873396,40774.342808,6245.345622,22687.981747,8093.298446,-166.408005,-848.143982,-499.712006,-9240.000000,-1960.000000,-5740.000000
10145.076829,15337.699990,6653.332013,-3864.191933,10910.914649,14135.310249,9242.267518,-23776.757571,15282.066498,16008.632303,7852.972490,514.626564,40772.577020,6237.701325,22699.962282,8090.839754,-161.528000,-850.096008,-500.688019,-8400.000000,-2240.000000,-5320.000000
10125.295535,15282.558236,6620.720818,-3893.092739,10857.426924,14127.308324,9217.881765,-23817.728319,15261.681707,15978.479800,7850.513798,484.272895,40763.077529,6235.063819,22685.344241,8049.041992,-156.647995,-853.512024,-506.056000,-7560.000000,-1400.000000,-4900.000000
10127.351895,15273.014042,6623.470083,-3897.093701,10850.497884,14124.357894,9207.667018,-23829.060653,15257.390172,15982.972501,7848.703307,480.361340,40763.368102,6239.690630,22677.923462,8037.083809,-159.087997,-852.536011,-501.664001,-7700.000000,560.000000,-5040.000000
10126.770750,15275.696251,6628.163949,-3896.959591,10852.420134,14122.145071,9206.258858,-23828.993598,15254.663259,15982.748983,7846.535188,478.304980,40761.714072,6239.422409,22670.905014,8034.155731,-155.184006,-850.096008,-501.175995,-7420.000000,1260.000000,-4760.000000
10112.845613,15251.846940,6616.697504,-3919.177225,10830.224851,14117.048874,9189.718567,-23843.701046,15239.486425,15963.414724,7841.304879,457.763726,40752.840430,6233.745066,22647.905069,8018.733027,-156.647995,-846.679993,-502.152008,-6020.000000,1400.000000,-4060.000000
10108.419968,15236.468939,6613.277687,-3936.745696,10820.054808,14116.445376,9174.251160,-23852.865261,15235.261945,15955.971593,7838.175635,447.772497,40749.085337,6232.783941,22627.900258,8014.419140,-157.136002,-842.776001,-499.223999,-5180.000000,1680.000000,-3500.000000
10113.247945,15255.557329,6630.399123,-3918.819597,10848.396820,14123.352065,9191.126727,-23834.872107,15239.285259,15966.678079,7833.682934,463.284607,40752.616912,6242.998689,22645.535784,8044.258719,-155.671997,-842.288025,-502.640015,-4060.000000,1400.000000,-2800.000000
10129.229442,15320.131519,6665.714880,-3868.662282,10914.692094,14138.260679,9240.099399,-23786.458228,15257.501931,15995.489478,7836.387496,505.283535,40766.653808,6254.666299,22695.313119,8104.027284,-154.695999,-841.799988,-497.760010,-2800.000000,1400.000000,-1820.000000
10124.602631,15347.288888,6667.905351,-3848.478657,10933.266393,14143.423932,9259.701879,-23772.555443,15259.200663,15997.232914,7840.857844,521.555605,40770.721825,6252.587587,22713.261570,8120.366409,-154.695999,-843.752014,-501.175995,-1960.000000,1680.000000,-1400.000000
10090.091537,15276.277396,6620.519652,-3904.246259,10862.344308,14129.230574,9215.356018,-23822.198668,15222.856727,15957.536215,7835.761647,476.047453,40754.874439,6234.795598,22666.881700,8066.856333,-155.184006,-848.143982,-502.152008,-1120.000000,2380.000000,-1120.000000
10080.592046,15231.909183,6600.984228,-3934.018783,10830.157796,14119.552269,9188.936256,-23848.059636,15206.361140,15945.801550,7830.665449,448.443049,40746.045500,6228.715924,22643.837052,8039.341335,-155.184006,-845.216003,-504.592010,-560.000000,2940.000000,-700.000000
10089.599799,15242.861538,6608.360303,-3927.134446,10840.081971,14118.457033,9188.310407,-23845.422130,15212.999608,15953.289384,7829.793731,454.321558,40746.403127,6228.917090,22641.959505,8037.262623,-155.671997,-846.192017,-506.544006,420.000000,2660.000000,-140.000000
10079.720328,15223.013189,6598.167908,-3942.199521,10822.111168,14115.864231,9173.960587,-23854.541642,15199.767375,15940.347724,7825.502196,443.257444,40740.591674,6223.932651,22624.793366,8021.549347,-159.087997,-842.288025,-502.640015,1540.000000,2520.000000,420.000000
10075.071165,15202.136660,6587.662588,-3956.594045,10805.235601,14111.952676,9160.951872,-23864.935203,15192.480706,15931.943468,7820.741274,432.685069,40734.891979,6222.815063,22612.388147,8012.228669,-159.576004,-838.384033,-504.592010,1540.000000,2800.000000,840.000000
10089.532744,15213.916029,6596.424472,-3947.921568,10815.852680,14114.321961,9165.645738,-23861.358924,15211.949076,15946.717971,7822.194138,445.246750,40738.870590,6228.067723,22618.668988,8023.896280,-159.087997,-845.703979,-507.032013,2100.000000,2520.000000,1400.000000
10116.667761,15277.059707,6631.851987,-3903.106320,10877.498791,14122.636810,9201.453233,-23823.293903,15245.141416,15985.699414,7829.011420,486.955105,40752.438098,6236.717848,22657.918651,8071.192571,-158.600006,-846.192017,-505.567993,2520.000000,2380.000000,1680.000000
10125.228480,15325.764158,6650.292176,-3868.639930,10923.252812,14129.744664,9233.907966,-23791.286205,15261.860521,16001.815021,7834.867577,518.336954,40760.618837,6239.064782,22688.875817,8107.335342,-158.600006,-842.776001,-500.200012,4340.000000,1260.000000,2100.000000
10102.653218,15292.102431,6621.234908,-3885.448442,10889.054643,14124.983743,9226.308373,-23812.140383,15243.263870,15972.109553,7832.878272,498.175680,40750.828773,6230.235842,22683.667860,8085.788260,-158.600006,-833.504028,-501.664001,6720.000000,-420.000000,2800.000000
10091.767918,15243.956774,6597.363245,-3916.293850,10840.283136,14116.087749,9198.256933,-23848.909002,15228.131739,15952.395314,7828.653792,469.006654,40741.262226,6227.710095,22656.644601,8047.387963,-158.600006,-850.096008,-503.615997,7980.000000,-840.000000,3080.000000
10095.925343,15241.207509,6600.201917,-3917.076161,10843.010049,14115.707769,9197.921657,-23850.250107,15224.913087,15956.217463,7825.412789,468.693729,40740.502267,6230.057029,22655.102331,8044.348126,-159.576004,-851.559998,-507.520020,7000.000000,140.000000,2800.000000
10089.979779,15231.462149,6593.831670,-3921.032419,10842.250090,14113.763167,9197.675788,-23850.451273,15213.513698,15948.483759,7821.545937,462.859924,40737.238912,6224.759665,22651.436645,8040.794199,-161.040009,-851.072021,-512.888000,6160.000000,0.000000,2520.000000
10078.960369,15206.137622,6581.091175,-3935.292832,10823.251107,14109.002246,9185.225866,-23865.337535,15197.934532,15932.636372,7815.600373,447.057241,40731.718031,6222.546842,22636.930363,8027.986649,-163.968002,-846.679993,-515.328003,5180.000000,700.000000,2240.000000
10074.154743,15196.794593,6582.678149,-3944.524103,10819.987752,14108.845783,9176.933369,-23872.825369,15189.396166,15932.971648,7811.957039,441.066973,40731.025127,6224.089113,22624.525145,8027.964297,-159.576004,-857.416016,-515.815979,6300.000000,-280.000000,2240.000000
10090.985607,15233.965544,6609.030856,-3926.955632,10857.046945,14113.539650,9188.824497,-23853.602869,15208.305741,15959.503169,7815.153338,463.955160,40740.278749,6227.575985,22631.096558,8057.066269,-162.992004,-854.488037,-517.768005,6440.000000,420.000000,2100.000000
10101.736796,15291.878914,6639.920967,-3881.313369,10914.602687,14125.095502,9235.874919,-23809.547580,15227.438835,15980.200884,7819.891908,497.058093,40751.566380,6236.695497,22677.811703,8108.274115,-161.040009,-860.343994,-518.255981,6300.000000,560.000000,1820.000000
10096.372377,15300.819612,6634.735362,-3875.479564,10908.031274,14127.353028,9244.860321,-23809.659339,15231.059817,15973.249492,7825.099865,498.153329,40753.198058,6233.633308,22685.903035,8104.720188,-162.992004,-864.247986,-526.552002,4620.000000,1960.000000,1260.000000
10080.659101,15250.438780,6603.845251,-3916.718533,10843.255918,14117.048874,9207.421149,-23859.369619,15216.642942,15950.182492,7825.926879,465.765651,40742.916255,6226.413694,22647.368627,8053.400582,-168.848007,-858.392029,-520.695984,1960.000000,5880.000000,140.000000
10087.029348,15242.950945,6604.873431,-3926.910928,10833.465854,14115.238382,9197.295808,-23873.719439,15218.542840,15955.926890,7824.764588,460.468288,40741.597502,6228.313592,22634.896354,8040.235405,-167.384003,-855.952026,-520.208008,2520.000000,5180.000000,140.000000
10091.343235,15249.276489,6609.299077,-3925.882748,10841.445427,14116.311266,9200.760329,-23872.244224,15220.599201,15957.312698,7822.060027,460.714157,40740.614026,6226.681915,22636.192755,8040.637736,-167.872009,-850.583984,-514.351990,3640.000000,4340.000000,420.000000
10078.759203,15224.734274,6595.329236,-3941.193693,10823.631087,14112.645580,9192.780756,-23886.951671,15202.404881,15940.437131,7815.868594,444.866770,40732.768563,6221.876290,22630.224839,8028.768960,-171.776001,-850.583984,-512.400024,4200.000000,5320.000000,140.000000
10071.897217,15205.332959,6588.087271,-3955.275292,10812.343456,14107.482327,9181.001387,-23900.720346,15190.312587,15930.714122,7812.001742,436.261348,40728.275863,6220.825758,22616.836145,8022.733989,-174.216003,-846.192017,-505.080017,4760.000000,5460.000000,-140.000000
10075.138220,15211.390282,6596.491527,-3956.728155,10827.564994,14106.767071,9183.236561,-23894.841837,15193.106555,15944.169872,7811.889984,443.145686,40732.589749,6221.786883,22616.053833,8039.408390,-174.703995,-849.119995,-500.688019,5320.000000,5320.000000,-420.000000
10095.791232,15266.710850,6626.979307,-3923.222890,10883.086727,14112.802042,9217.211213,-23853.245241,15217.045273,15977.116344,7817.477920,478.528497,40743.117421,6224.424389,22649.514395,8087.643455,-174.703995,-843.752014,-502.152008,5040.000000,5460.000000,-560.000000
10104.463709,15302.071309,6637.015240,-3891.572820,10911.227573,14118.322923,9248.570710,-23829.328874,15235.999553,15985.207675,7824.474016,502.087236,40750.560552,6228.134779,22685.210131,8112.789167,-173.240005,-844.239990,-498.248016,4900.000000,5180.000000,-700.000000
10075.138220,15248.203605,6600.336027,-3922.105303,10856.711669,14110.656275,9226.643649,-23867.215081,15208.372797,15947.857910,7820.450702,469.788965,40739.585845,6221.541014,22662.791331,8072.176048,-174.703995,-843.752014,-497.272003,4200.000000,4760.000000,-1120.000000
10064.297624,15213.536050,6587.819050,-3945.172303,10829.375485,14104.129565,9205.364788,-23896.406459,15190.469049,15937.129073,7815.913298,447.526627,40733.215598,6220.803406,22638.964372,8042.694097,-174.216003,-843.264038,-494.832001,3920.000000,4760.000000,-1120.000000
10068.522104,15217.246439,6594.077539,-3947.519237,10836.572747,14104.084862,9204.515422,-23898.663986,15192.212485,15943.745189,7815.488614,447.303110,40733.841447,6220.445778,22633.018808,8040.436571,-172.264008,-841.312012,-496.296021,3640.000000,4760.000000,-1540.000000
10057.457990,15201.220238,6584.980379,-3956.906969,10824.838081,14103.324902,9202.347303,-23904.721308,15178.600273,15931.608192,7810.884155,434.495560,40728.991119,6216.735389,22629.062549,8035.765056,-175.680008,-842.288025,-497.272003,3080.000000,4620.000000,-1820.000000
10057.010955,15191.720747,6583.214591,-3960.125620,10815.964438,14101.067376,9198.592210,-23914.444317,15176.722726,15929.663590,7809.788920,430.002860,40727.560607,6218.769398,22627.430871,8033.999268,-174.703995,-840.824036,-496.783997,2800.000000,4900.000000,-1820.000000
10059.380240,15191.564285,6585.762690,-3961.846705,10816.702046,14098.228705,9195.172393,-23917.841782,15179.963729,15934.558622,7807.531393,430.136970,40730.064002,6218.545880,22623.564020,8039.497797,-170.800003,-839.848022,-497.760010,2100.000000,4900.000000,-1960.000000
10080.390880,15248.985916,6621.458426,-3919.624259,10874.973044,14105.604780,9229.459969,-23880.000279,15205.020035,15964.264091,7810.235955,465.720947,40742.357462,6226.145473,22660.645564,8086.615275,-169.824005,-840.824036,-499.712006,1820.000000,5180.000000,-2100.000000
10093.243133,15298.807955,6640.904443,-3878.251180,10918.514242,14114.880754,9268.173190,-23842.784624,15228.087035,15980.826733,7816.650905,496.253430,40750.739366,6231.755761,22702.555085,8125.484958,-168.360001,-841.799988,-496.296021,1260.000000,5320.000000,-2380.000000
10082.380185,15279.406640,6616.876318,-3888.510631,10888.741718,14112.042083,9261.758239,-23861.023648,15228.556422,15961.693640,7819.958963,485.368131,40744.503229,6230.101732,22701.169276,8107.178880,-164.944000,-841.799988,-494.343994,1120.000000,4760.000000,-2380.000000
10071.226665,15233.943192,6597.653818,-3916.383256,10845.692259,14105.604780,9235.271422,-23898.798096,15214.407768,15943.432265,7817.947306,460.915322,40737.708299,6229.453531,22677.610538,8069.829115,-168.360001,-833.504028,-495.320007,1120.000000,4620.000000,-2240.000000
10077.082822,15231.439797,6602.526498,-3919.870129,10849.737924,14104.978932,9230.421094,-23903.447259,15215.368893,15950.718933,7816.807367,458.166058,40737.261264,6230.504063,22670.837959,8066.029318,-165.919998,-835.455994,-489.951996,1540.000000,3640.000000,-1820.000000
10075.585255,15229.539899,6599.263143,-3922.753504,10848.329764,14103.079033,9227.604774,-23904.497791,15214.251305,15946.919137,7812.337019,454.366261,40732.947377,6227.620688,22662.970145,8065.291711,-162.503998,-834.479980,-493.368011,1540.000000,2800.000000,-1680.000000
10065.012880,15205.198849,6589.651893,-3941.707783,10826.827386,14098.675740,9212.360884,-23922.267428,15200.974369,15933.686904,7807.821966,438.407116,40728.879360,6223.753837,22644.708770,8051.321870,-162.992004,-842.288025,-491.416016,1260.000000,2100.000000,-1540.000000
10064.610549,15194.246494,6588.467251,-3953.420097,10819.674828,14098.407519,9205.543602,-23928.257695,15198.985064,15935.005657,7806.793786,434.808485,40729.572264,6224.357334,22634.628133,8053.400582,-162.992004,-840.335999,-497.760010,420.000000,2660.000000,-1680.000000
10079.943845,15231.149224,6611.377789,-3932.454161,10857.896311,14103.794289,9222.419169,-23904.274273,15216.687646,15960.665460,7809.319533,460.267122,40737.417726,6230.235842,22649.626154,8087.755214,-159.087997,-849.608032,-497.760010,-280.000000,2800.000000,-1540.000000
10091.767918,15285.553370,6636.769371,-3895.663189,10911.093463,14111.304475,9256.639690,-23866.209253,15233.160881,15983.307777,7813.812234,494.375884,40746.246665,6230.861691,22681.320927,8134.000973,-161.528000,-847.168030,-497.272003,-2240.000000,3220.000000,-1540.000000
10078.423927,15278.736088,6623.581841,-3899.351227,10904.834974,14111.282123,9262.004109,-23866.253956,15225.717750,15968.443867,7816.025056,490.687846,40744.436174,6224.826720,22683.042012,8133.531586,-160.063995,-849.608032,-491.416016,-1820.000000,3080.000000,-1400.000000
10059.424944,15219.727483,6586.321483,-3942.668908,10842.764180,14099.770975,9223.179129,-23913.214971,15207.434023,15937.665515,7813.946344,456.400270,40734.355537,6216.377761,22646.139282,8085.542391,-162.016006,-843.752014,-488.976013,-980.000000,2380.000000,-840.000000
10058.530874,15206.048215,6585.114489,-3946.178132,10839.009087,14096.999359,9219.222870,-23922.960332,15200.884962,15937.419645,7809.230126,449.627691,40733.506171,6219.954040,22646.183985,8078.166315,-162.016006,-841.799988,-486.536011,-420.000000,1960.000000,-420.000000
10057.547397,15206.919933,6588.355492,-3941.283100,10847.368639,14098.563981,9226.084855,-23915.360739,15193.866514,15936.279707,7804.715074,447.951311,40733.148543,6222.278621,22653.783578,8083.083699,-159.087997,-860.343994,-493.856018,-140.000000,1120.000000,-280.000000
10039.151912,15178.756735,6571.234056,-3961.198504,10823.966363,14093.825411,9211.422111,-23929.867021,15172.118267,15918.107738,7796.154356,425.331345,40724.409011,6216.757741,22636.751549,8065.716394,-159.576004,-861.320007,-498.248016,-3500.000000,3360.000000,-980.000000
10036.045019,15157.410819,6564.103849,-3981.784461,10808.655418,14087.768088,9192.646646,-23946.899050,15168.631395,15917.481889,7794.120347,413.127293,40720.966842,6212.555613,22613.885714,8052.730030,-162.016006,-860.832031,-500.200012,-6020.000000,4760.000000,-1120.000000
10048.941976,15173.928758,6582.275818,-3969.938036,10828.771988,14088.103364,9198.726320,-23939.187698,15185.149334,15934.133939,7794.075643,427.521816,40725.660709,6218.054142,22622.446432,8071.639606,-162.016006,-854.488037,-497.760010,-6020.000000,3080.000000,-560.000000
10078.938017,15246.259003,6623.961821,-3917.277326,10896.765995,14099.994493,9240.278213,-23895.892369,15223.795500,15969.494399,7800.423539,472.940561,40740.301101,6229.252366,22668.267509,8124.210909,-162.992004,-853.023987,-502.640015,-5040.000000,2380.000000,140.000000
10081.329653,15274.712774,6628.432170,-3898.680675,10916.659047,14104.263676,9260.417135,-23879.575596,15232.490329,15972.601291,7805.475033,490.061997,40743.966787,6226.368991,22690.172218,8139.968889,-163.968002,-847.656006,-501.664001,-3920.000000,1820.000000,840.000000
10054.306394,15218.989875,6589.003693,-3932.275347,10858.410401,14096.977007,9238.624184,-23916.120698,15203.298951,15935.475044,7802.301085,456.199104,40731.941549,6216.757741,22668.178102,8099.869859,-159.576004,-851.072021,-503.615997,-2240.000000,1400.000000,1820.000000
10042.571729,15180.634282,6577.492544,-3950.961405,10829.330782,14091.098498,9218.485262,-23941.221707,15182.869456,15925.036779,7796.601390,436.887197,40724.341956,6215.640153,22649.335581,8073.874780,-160.063995,-849.608032,-507.520020,-2100.000000,1960.000000,1680.000000
10043.778723,15180.611930,6586.343835,-3943.272405,10838.383238,14093.199562,9222.977963,-23939.098291,15178.421459,15928.925983,7795.036768,439.412944,40723.492589,6217.718866,22653.180081,8073.248932,-162.016006,-845.216003,-508.496002,-3080.000000,2800.000000,1960.000000
10040.805941,15163.915177,6579.839478,-3955.074126,10825.620392,14090.338539,9214.126672,-23948.240155,15171.872398,15920.678189,7793.740367,429.242901,40719.469275,6214.142586,22638.651447,8059.882588,-161.040009,-843.264038,-508.007996,-3220.000000,2380.000000,2380.000000
10040.381258,15149.967688,6569.490620,-3969.982740,10812.857546,14086.583446,9202.794338,-23964.288707,15167.334994,15914.173831,7790.544068,418.603470,40715.222444,6213.472034,22623.943999,8046.717411,-161.528000,-845.216003,-508.984009,-1960.000000,2380.000000,2660.000000
10042.638784,15158.349592,6571.837553,-3965.132411,10824.256936,14087.723385,9206.437672,-23962.947603,15169.637223,15919.918230,7787.593637,423.185578,40717.234101,6218.456473,22631.923572,8058.765001,-161.040009,-845.703979,-509.959991,-1960.000000,1540.000000,2940.000000
10064.610549,15218.542840,6606.438053,-3924.720457,10881.186829,14094.898295,9235.182015,-23927.073053,15198.426270,15953.088218,7792.399262,460.311825,40729.415802,6227.196005,22661.629040,8104.921353,-159.087997,-852.048035,-519.231995,-3220.000000,1400.000000,3080.000000
10077.619264,15267.426105,6627.158121,-3891.014027,10923.856309,14099.078071,9262.384088,-23897.009956,15221.895602,15971.237835,7801.988161,489.346741,40738.535313,6229.118255,22686.305366,8137.107865,-162.503998,-850.583984,-516.304016,-5460.000000,2940.000000,2520.000000
10061.011918,15239.441721,6602.615905,-3905.207384,10890.082823,14094.987702,9252.035231,-23916.858306,15211.166765,15944.080465,7802.725768,474.594590,40731.360403,6221.585717,22674.280128,8114.979638,-158.600006,-853.023987,-516.304016,-5600.000000,1960.000000,2520.000000
10038.593118,15178.801439,6571.412870,-3947.340423,10829.956630,14082.224856,9214.931335,-23959.281917,15184.925817,15916.297247,7796.243763,437.736563,40717.211749,6213.293220,22637.712674,8068.778583,-158.600006,-856.440002,-514.840027,-4480.000000,2100.000000,1960.000000
10042.370563,15180.991910,6581.292341,-3946.401649,10835.768084,14080.012033,9213.322009,-23958.790178,15180.366061,15922.891012,7795.796728,435.724906,40719.133999,6216.645982,22634.829299,8068.219789,-160.063995,-850.583984,-513.864014,-4200.000000,2100.000000,1540.000000
10037.117903,15177.527389,6582.521687,-3946.446353,10837.310354,14078.469763,9213.009085,-23958.745475,15170.330128,15917.571296,7794.321512,430.852226,40718.552854,6215.148415,22635.142223,8069.560894,-163.968002,-841.312012,-508.984009,-2800.000000,1120.000000,1960.000000
10026.053789,15145.296174,6568.507143,-3967.077013,10812.946953,14073.507675,9194.591247,-23975.799856,15155.130941,15905.166078,7789.873515,411.629726,40712.406124,6211.169804,22618.378415,8051.903016,-162.992004,-837.895996,-505.567993,-1400.000000,-840.000000,2100.000000
10028.288964,15133.382694,6568.015405,-3976.800022,10804.185069,14069.059678,9183.638893,-23983.198283,15156.181473,15907.714177,7788.085376,405.147720,40708.136941,6206.878270,22607.068432,8048.550254,-164.456009,-834.968018,-503.127991,-980.000000,-2380.000000,2660.000000
10050.439543,15173.146447,6595.955085,-3951.408440,10842.741828,14073.172399,9198.703968,-23962.902899,15180.634282,15935.855023,7792.153393,430.785171,40716.518845,6213.807310,22622.848764,8080.401490,-167.872009,-837.408020,-502.152008,140.000000,-3920.000000,3080.000000
10075.495848,15241.945117,6629.437998,-3901.787567,10905.527878,14084.974120,9238.937108,-23921.887448,15213.312532,15967.594500,7801.451719,473.097023,40731.941549,6222.748008,22664.065381,8129.731790,-162.016006,-843.752014,-503.615997,-980.000000,-4340.000000,2940.000000
10070.332595,15248.136550,6619.290306,-3892.310428,10906.198431,14087.924551,9251.476437,-23918.691149,15213.401939,15957.513864,7803.843356,476.092157,40731.539217,6221.898642,22679.823360,8132.749275,-167.384003,-852.048035,-506.056000,-2800.000000,-2660.000000,2240.000000
10042.705839,15182.601235,6582.320521,-3935.717515,10841.177206,14079.006204,9217.166509,-23964.489873,15181.573055,15919.605305,7796.869611,436.820142,40717.748191,6213.606145,22651.257831,8086.123536,-166.895996,-849.119995,-516.304016,-4620.000000,-1540.000000,2240.000000
10039.129560,15162.752886,6582.097004,-3949.866170,10827.833215,14076.771030,9203.576649,-23979.890225,15172.878226,15918.644180,7792.734539,427.834741,40712.607290,6212.622668,22638.204412,8071.259626,-168.848007,-845.703979,-513.864014,-5460.000000,560.000000,2240.000000
10043.935185,15166.396220,6584.063957,-3946.580463,10835.097532,14077.933321,9207.175280,-23978.549120,15174.644014,15918.219497,7789.649998,428.371182,40711.310889,6213.159110,22640.528994,8070.991405,-167.872009,-837.408020,-511.912018,-4480.000000,700.000000,2520.000000
10041.252976,15152.426380,6573.133954,-3961.422022,10817.976095,14075.854609,9193.741881,-23995.737612,15169.637223,15908.228267,7789.046501,416.547110,40709.321583,6211.728598,22624.748662,8058.228559,-164.456009,-840.824036,-508.496002,-3220.000000,420.000000,3220.000000
10039.800112,15142.993944,6570.831725,-3969.468650,10810.354151,14075.206408,9184.979997,-24005.751193,15168.184360,15907.535363,7787.973617,410.534490,40712.272014,6214.120235,22613.975121,8058.496780,-166.408005,-834.479980,-502.640015,-2240.000000,980.000000,3640.000000
10045.790380,15157.232005,6581.247637,-3957.197542,10833.041171,14076.703975,9197.318160,-23994.284748,15172.654709,15921.952238,7786.207829,419.899871,40716.720011,6218.568232,22628.213182,8082.055519,-168.848007,-841.312012,-503.615997,140.000000,560.000000,4480.000000
10064.543493,15218.073454,6613.925888,-3912.918736,10897.235381,14086.136411,9239.250033,-23949.804777,15196.816945,15952.663535,7789.806460,459.730680,40729.125229,6226.927784,22670.592090,8133.777456,-168.360001,-854.000000,-502.152008,700.000000,1960.000000,4340.000000
10064.834066,15243.196814,6622.643068,-3891.192840,10920.816472,14092.238437,9261.422963,-23929.755262,15206.875230,15957.335050,7795.282638,478.796718,40732.343880,6226.413694,22693.860256,8149.915415,-169.335999,-859.367981,-513.375977,-980.000000,2940.000000,3920.000000
10040.425961,15189.507924,6589.361321,-3924.385181,10866.434677,14082.850705,9234.511463,-23965.920385,15185.953997,15923.516860,7794.701492,449.739450,40720.899787,6216.198947,22668.602785,8107.514156,-174.703995,-853.023987,-511.912018,-5320.000000,5740.000000,3640.000000
10033.094589,15153.968651,6574.184486,-3950.916702,10834.203462,14072.457143,9209.321047,-23995.111763,15175.001642,15912.564506,7788.800632,430.114619,40713.903691,6212.130929,22639.724331,8077.384004,-177.632004,-850.583984,-509.959991,-4760.000000,4200.000000,4900.000000
10037.184958,15152.202863,6578.587780,-3954.403574,10840.059619,14071.116039,9208.046998,-23994.910597,15175.135753,15915.291418,7785.917257,430.338136,40714.104857,6212.577964,22635.343389,8076.400528,-172.751999,-846.192017,-508.007996,-2240.000000,3500.000000,5880.000000
10034.569804,15141.451674,6573.469230,-3964.148934,10831.722418,14070.736059,9203.978980,-24002.733708,15171.648880,15907.490660,7784.397338,421.844473,40712.361421,6209.560479,22625.307456,8068.957397,-175.680008,-843.752014,-503.615997,-1260.000000,4340.000000,6300.000000
10027.663115,15121.759787,6565.132030,-3979.951618,10813.237526,14067.271539,9192.132556,-24013.887228,15160.428305,15898.013520,7780.038748,405.147720,40707.756961,6207.839395,22611.315264,8057.222731,-172.751999,-841.799988,-506.056000,-420.000000,4900.000000,6160.000000
10027.640763,15120.150461,6565.914341,-3983.729063,10813.058712,14065.438696,9191.126727,-24012.859048,15159.042497,15901.209819,7776.820097,404.253650,40708.114589,6209.493424,22610.041214,8062.900074,-171.287994,-841.799988,-506.056000,-280.000000,5180.000000,5740.000000
10054.619319,15179.382584,6599.106681,-3946.938091,10870.994433,14072.837123,9224.900213,-23973.922309,15189.753793,15938.000791,7784.084414,444.419735,40721.078601,6218.031790,22642.115968,8110.241069,-173.240005,-839.359985,-506.544006,-420.000000,4480.000000,5600.000000
10065.616377,15228.712884,6620.899632,-3912.024666,10918.246021,14082.180152,9259.925396,-23937.354855,15206.584657,15953.803474,7788.822983,477.835593,40729.773430,6221.965697,22676.805875,8148.060220,-170.800003,-835.944031,-502.640015,0.000000,3080.000000,5460.000000
10042.795246,15198.985064,6598.123204,-3927.246204,10883.869038,14077.665100,9249.442428,-23957.091446,15186.266921,15925.953201,7787.794803,459.171886,40722.509113,6215.438988,22666.457017,8123.585060,-168.848007,-833.015991,-501.175995,700.000000,1820.000000,5460.000000
10017.694237,15135.774331,6570.272931,-3967.702862,10826.626221,14067.383297,9214.372541,-23999.693871,15156.002659,15899.756956,7781.603370,421.866825,40710.886206,6209.716941,22630.023674,8078.881571,-168.848007,-834.968018,-499.712006,1540.000000,280.000000,5320.000000
10028.132502,15136.780159,6575.614998,-3967.792269,10833.622317,14067.048021,9212.182070,-24002.666653,15161.724706,15909.390558,7781.625722,426.918319,40712.339069,6212.399150,22627.162650,8076.668748,-165.919998,-844.239990,-497.272003,1540.000000,-1260.000000,5040.000000
10033.385162,15138.769464,6576.129088,-3969.491001,10837.466817,14067.606815,9211.846794,-24004.790068,15165.949186,15908.742357,7781.335149,429.578177,40712.272014,6211.683895,22625.553325,8072.287807,-162.016006,-848.632019,-502.640015,1540.000000,-2520.000000,4620.000000
10025.003257,15119.926944,6565.757879,-3985.897182,10820.546546,14065.036364,9202.682579,-24018.670502,15156.740267,15897.275912,7777.915332,415.474226,40708.561624,6209.672238,22611.717595,8059.390850,-160.552002,-849.119995,-506.544006,420.000000,-2100.000000,3920.000000
10026.076141,15112.483813,6562.695690,-3993.116795,10814.422168,14064.879902,9199.329817,-24025.666598,15154.169816,15897.700596,7775.143716,410.400380,40707.645203,6212.242688,22602.955711,8060.731955,-161.528000,-855.952026,-506.544006,-1260.000000,-980.000000,2800.000000
10043.354040,15148.112494,6587.573181,-3968.731042,10852.084857,14069.551417,9220.273402,-24000.096202,15169.458409,15923.583916,7775.702509,432.662717,40715.311851,6220.646944,22618.758395,8098.282885,-157.624008,-854.976013,-505.080017,-2380.000000,-2380.000000,2240.000000
10055.468685,15203.678930,6615.401103,-3930.442504,10904.857326,14075.765202,9255.835027,-23960.712428,15187.026881,15945.667439,7780.686948,465.564485,40727.739421,6223.597374,22650.006133,8142.159360,-157.136002,-854.976013,-506.544006,-1540.000000,-2240.000000,1680.000000
10046.349173,15211.993779,6608.650876,-3917.634954,10906.064320,14076.726327,9266.452106,-23956.532652,15187.183343,15938.760750,7784.330283,472.135898,40729.639319,6220.959869,22663.752456,8144.394534,-156.647995,-854.976013,-504.592010,-700.000000,-3220.000000,1540.000000
10022.253993,15149.967688,6570.787021,-3954.381222,10846.631032,14067.182132,9234.645573,-23997.145772,15162.462313,15906.574238,7780.977521,437.893026,40717.122342,6214.142586,22636.550383,8099.355769,-158.600006,-853.512024,-506.544006,-420.000000,-4620.000000,1540.000000
10025.740865,15133.628563,6569.848248,-3968.440469,10835.633974,14062.242396,9218.373503,-24009.618045,15160.763581,15908.362378,7778.697643,429.287604,40714.015450,6213.941421,22620.323017,8081.921408,-159.576004,-847.168030,-507.032013,-560.000000,-4620.000000,1680.000000
10026.791397,15130.074636,6570.854076,-3972.173211,10837.846796,14059.940166,9212.696160,-24010.065080,15159.556587,15909.010578,7776.574227,425.487807,40712.093200,6211.080397,22612.365796,8077.942798,-158.112000,-846.192017,-503.127991,-1820.000000,-4200.000000,1680.000000
10015.861394,15103.498412,6557.174809,-3988.937019,10818.534889,14054.754562,9200.402701,-24022.693816,15147.129017,15891.956197,7774.048480,409.036924,40705.342973,6206.051255,22598.083031,8062.073059,-160.552002,-848.632019,-503.127991,-2520.000000,-5040.000000,1540.000000
10016.174318,15093.641292,6552.615053,-3997.073054,10812.298752,14051.737076,9190.836154,-24033.243839,15148.134845,15889.341043,7773.981425,403.046656,40705.454732,6205.425406,22587.734173,8056.015737,-159.087997,-853.512024,-503.127991,-2380.000000,-4620.000000,1680.000000
10022.321048,15107.454670,6565.467306,-3986.657141,10830.805997,14054.262823,9195.910000,-24021.889153,15152.828712,15903.556753,7773.065004,413.149645,40709.433342,6210.186328,22593.679737,8074.813554,-161.528000,-851.559998,-499.223999,-2240.000000,-4760.000000,1820.000000
10043.778723,15171.760639,6601.654780,-3941.283100,10893.681454,14064.008184,9236.009030,-23974.838731,15178.600273,15937.151425,7779.994044,455.841476,40722.710278,6218.165900,22631.431834,8126.736656,-162.503998,-850.583984,-490.440002,-1540.000000,-5040.000000,2100.000000
10047.332650,15207.054044,6610.953106,-3917.165568,10918.693056,14070.311376,9261.244149,-23953.246946,15190.379642,15942.448788,7784.933780,476.539192,40728.722898,6219.261136,22653.917689,8149.066049,-162.016006,-850.096008,-490.928009,140.000000,-6300.000000,3220.000000
10017.113092,15156.695563,6576.062033,-3948.681527,10864.154799,14064.634033,9239.093571,-23986.707507,15163.244625,15905.680168,7781.379852,443.838590,40718.932834,6210.722770,22632.974104,8112.163319,-161.528000,-846.679993,-481.167999,2100.000000,-7560.000000,3640.000000
10001.690388,15113.511993,6560.147591,-3976.956484,10827.453235,14057.280309,9213.590230,-24013.417842,15142.703371,15892.112659,7774.584922,419.005802,40709.925081,6208.062912,22607.470764,8084.648321,-161.528000,-840.824036,-483.119995,4620.000000,-9380.000000,4060.000000
10007.479490,15120.351627,6565.690823,-3975.838897,10832.951764,14057.325012,9212.897326,-24012.970807,15147.643107,15899.242866,7771.366271,419.072857,40709.142769,6209.068740,22603.268636,8085.073004,-164.456009,-839.848022,-484.096008,6580.000000,-8960.000000,3780.000000
10006.071330,15114.562525,6560.661681,-3979.996321,10825.508633,14058.889634,9210.013951,-24020.905676,15146.547871,15889.989244,7768.460544,409.953345,40705.745304,6207.302953,22598.418307,8076.221714,-161.528000,-846.679993,-492.880005,5040.000000,-8400.000000,3500.000000
10011.882783,15107.521726,6555.274910,-3985.316036,10813.908078,14060.789533,9205.096567,-24034.629647,15151.062924,15889.989244,7770.673367,407.069970,40705.186511,6209.828700,22594.238531,8067.705699,-170.311996,-826.671997,-488.000000,1400.000000,-6300.000000,2240.000000
10019.258859,15111.813261,6559.097059,-3984.801946,10816.813805,14062.890597,9204.671884,-24033.892040,15157.790799,15900.606322,7771.612140,412.859072,40707.667554,6212.756778,22593.992662,8077.473411,-169.335999,-842.288025,-489.464020,3360.000000,-8820.000000,3220.000000
10045.142179,15171.760639,6595.753920,-3944.300585,10877.096460,14072.792420,9239.674716,-23994.016527,15187.518619,15939.498358,7779.278788,453.136915,40721.659746,6223.887947,22628.973142,8127.966002,-158.112000,-882.304016,-525.575989,980.000000,-9660.000000,3360.000000
10058.083839,15222.275582,6617.859795,-3904.380370,10927.521995,14081.844876,9278.790269,-23955.862100,15209.043349,15959.480817,7787.772451,488.162099,40733.550874,6230.124084,22669.228634,8171.663662,-165.919998,-876.447998,-525.088013,-12320.000000,700.000000,840.000000
10034.033362,15188.435041,6590.054225,-3923.804036,10893.077957,14077.553341,9271.861228,-23971.865949,15190.469049,15931.407026,7786.408995,468.492564,40725.526598,6222.524491,22662.523110,8152.843494,-162.992004,-868.152039,-525.088013,-12880.000000,-420.000000,700.000000
10002.360940,15117.289438,6552.950329,-3975.771841,10828.727285,14062.443562,9229.102341,-24016.435327,15151.822883,15898.304093,7775.881323,424.504331,40709.410990,6209.024037,22618.423118,8102.306199,-162.016006,-854.000000,-520.208008,-9800.000000,-1540.000000,1820.000000
10007.591248,15114.026083,6555.297262,-3980.085728,10827.542642,14060.543664,9221.636858,-24020.458641,15152.247566,15904.182601,7774.070832,424.101999,40707.868720,6209.225203,22608.945979,8094.304275,-160.552002,-852.048035,-513.375977,-7420.000000,-140.000000,3220.000000
10015.906097,15116.328313,6557.420678,-3979.079900,10827.721456,14059.873111,9221.279230,-24022.716167,15159.467180,15906.350721,7777.490649,425.085476,40707.600499,6209.359313,22604.900313,8088.448118,-159.576004,-852.536011,-504.104004,-6020.000000,420.000000,3360.000000
10009.401740,15096.770537,6548.301166,-3992.826223,10808.118976,14055.447466,9211.064483,-24040.217583,15150.146502,15894.414889,7773.355576,408.835758,40702.370191,6206.408883,22594.327938,8071.974882,-162.992004,-852.536011,-499.223999,-4340.000000,1960.000000,2940.000000
10009.044112,15094.356548,6551.363355,-3995.419025,10807.381369,14054.531044,9209.790434,-24045.224374,15146.749037,15894.951331,7770.315739,407.829929,40702.325487,6207.504118,22592.048060,8075.640568,-164.456009,-841.312012,-492.391998,-3220.000000,1680.000000,2660.000000
10025.785568,15131.818072,6577.872524,-3970.943865,10847.569805,14058.956690,9231.002239,-24022.358539,15164.451619,15920.253506,7771.321567,431.500427,40710.595633,6214.075531,22610.331787,8108.274115,-164.944000,-835.455994,-490.440002,-2100.000000,420.000000,3080.000000
10045.410400,15191.988968,6611.333085,-3928.006164,10908.053626,14065.908082,9271.525952,-23982.684193,15190.647863,15948.483759,7778.138850,469.364282,40723.492589,6219.283488,22650.028485,8154.586930,-168.360001,-835.455994,-490.440002,-2380.000000,140.000000,3220.000000
10035.106246,15195.006453,6606.013370,-3922.328821,10905.885506,14064.969309,9282.724176,-23982.684193,15186.311625,15936.704390,7780.731652,472.202953,40725.012508,6215.662505,22661.964317,8157.135028,-168.848007,-833.015991,-490.440002,-2520.000000,140.000000,3220.000000
10000.930429,15126.230136,6561.376937,-3967.211123,10839.456122,14054.106361,9246.916681,-24029.511098,15148.291307,15896.314787,7773.959073,430.807523,40709.925081,6206.520642,22627.877906,8109.592868,-169.824005,-830.575989,-484.096008,-1960.000000,-840.000000,3220.000000
9992.794394,15105.845345,6553.822047,-3980.197487,10825.352171,14049.881881,9234.466759,-24042.475109,15134.656743,15890.257465,7767.119439,420.078685,40704.001868,6207.370008,22616.232647,8092.382025,-166.895996,-839.359985,-495.808014,140.000000,-2100.000000,3360.000000
9998.896420,15116.775348,6559.879370,-3970.116850,10835.030476,14050.574786,9242.356925,-24035.501365,15137.584822,15894.593703,7765.800687,427.030078,40703.577185,6209.694589,22621.909991,8096.338284,-170.800003,-849.119995,-499.223999,-3780.000000,840.000000,2520.000000
9998.494088,15106.225324,6549.284643,-3981.091557,10818.423130,14048.473722,9234.556166,-24047.616011,15135.282592,15888.268159,7767.745288,419.251671,40699.531519,6205.581868,22609.169496,8084.648321,-174.216003,-850.583984,-500.688019,-7280.000000,1680.000000,1960.000000
9997.510612,15094.043624,6545.395439,-3995.933115,10802.978075,14044.942146,9223.447349,-24059.328325,15129.359380,15885.362433,7765.130134,409.975697,40695.284688,6204.017246,22593.210351,8076.735804,-174.703995,-845.216003,-503.127991,-7280.000000,980.000000,2100.000000
10009.088815,15115.657761,6563.522704,-3980.599818,10826.536814,14047.378486,9237.216024,-24047.817176,15138.411836,15904.450822,7767.119439,423.140874,40699.956203,6210.856880,22607.247246,8102.686179,-170.800003,-844.728027,-503.127991,-6860.000000,1120.000000,2240.000000
10029.473606,15181.617758,6599.307847,-3935.739867,10888.875829,14058.330841,9277.493868,-24003.337205,15166.284462,15940.235965,7773.288521,464.715119,40714.551892,6219.283488,22647.368627,8157.872636,-172.264008,-843.264038,-502.152008,-6440.000000,1680.000000,2240.000000
10035.888557,15215.882983,6610.193146,-3909.588326,10913.038065,14064.142294,9302.818394,-23979.107914,15185.216389,15950.003678,7778.898809,487.156270,40722.442057,6221.071627,22671.597918,8181.543133,-171.287994,-846.679993,-502.640015,-5740.000000,2240.000000,1960.000000
10012.821557,15168.564340,6579.504201,-3939.025574,10859.282119,14056.430943,9279.572580,-24011.741461,15166.262110,15919.225325,7778.317663,458.076651,40712.987270,6214.522566,22648.575622,8142.762857,-173.727997,-842.776001,-498.248016,-5600.000000,2240.000000,1540.000000
9996.638894,15123.860851,6563.299187,-3971.390900,10824.458101,14047.490245,9252.974004,-24040.575211,15141.876357,15903.534401,7771.388623,432.483903,40703.845406,6209.649886,22620.054796,8109.190537,-170.311996,-844.239990,-499.712006,-5180.000000,2520.000000,1540.000000
9993.554353,15119.636371,6563.835628,-3978.208182,10827.497939,14043.824559,9247.609585,-24042.408054,15134.433226,15902.841497,7767.231198,430.293433,40701.140845,6206.453586,22614.623322,8103.200269,-172.264008,-843.752014,-501.175995,-5320.000000,2520.000000,980.000000
9987.005292,15111.366226,6554.112620,-3984.489022,10818.669000,14040.337687,9241.954594,-24048.778301,15126.118377,15892.112659,7762.112649,421.777418,40695.329391,6202.899659,22608.342482,8092.762004,-173.240005,-839.848022,-499.712006,-5320.000000,2520.000000,840.000000
9983.049033,15096.211743,6545.618957,-3999.218821,10802.553392,14037.342553,9228.655306,-24063.910432,15117.781176,15885.585950,7760.838599,411.137988,40692.803644,6201.558554,22592.025708,8080.736766,-175.192001,-838.384033,-494.343994,-4900.000000,2100.000000,700.000000
9987.631141,15095.094156,6552.704460,-4004.694999,10804.453290,14036.694352,9224.654344,-24066.883214,15119.278743,15891.866790,7761.732669,413.037886,40695.284688,6204.598392,22586.303662,8087.151717,-173.240005,-844.728027,-501.664001,-5460.000000,1960.000000,700.000000
10008.932353,15149.252432,6587.886106,-3964.752431,10861.852570,14044.517463,9257.667870,-24028.393510,15143.619793,15922.935715,7766.515942,445.872598,40705.745304,6212.980296,22621.530011,8136.102037,-176.167999,-837.895996,-501.175995,-5880.000000,2240.000000,560.000000
10018.476548,15198.672139,6607.577992,-3925.435713,10908.813585,14051.401800,9291.530763,-23993.547141,15164.831598,15937.911384,7771.008643,476.941523,40715.602424,6216.422464,22658.253927,8174.256465,-174.703995,-841.312012,-505.567993,-6160.000000,1680.000000,420.000000
9997.175336,15168.027898,6584.287475,-3940.389030,10876.202390,14047.356134,9278.522048,-24013.149621,15151.711124,15913.637389,7770.673367,459.708328,40708.069886,6210.052217,22648.575622,8149.401325,-175.192001,-842.288025,-504.104004,-5880.000000,1820.000000,560.000000
9974.488315,15106.739415,6553.553826,-3982.432661,10820.390084,14037.051980,9241.284042,-24054.880328,15125.269011,15888.938712,7765.152486,424.839607,40693.384790,6203.100825,22614.690377,8105.278981,-176.656006,-844.728027,-508.007996,-5740.000000,1540.000000,700.000000
9981.864391,15101.218534,6556.459553,-3985.338388,10821.731189,14035.844986,9236.076085,-24058.970697,15128.621772,15896.359491,7763.833733,424.258462,40693.809473,6202.854956,22608.230723,8101.076853,-176.167999,-844.239990,-508.007996,-5880.000000,1820.000000,700.000000
9987.787603,15101.933789,6557.711251,-3982.991455,10825.083950,14035.174434,9235.383181,-24059.864767,15131.594554,15896.851229,7762.224407,422.582081,40695.798778,6202.854956,22605.392051,8099.981618,-176.167999,-846.679993,-508.007996,-5320.000000,2100.000000,840.000000
9982.713757,15081.571350,6547.585910,-3998.190641,10806.107319,14031.888727,9222.195652,-24071.979412,15122.922078,15884.870694,7759.653957,408.545185,40691.507243,6202.229107,22591.221045,8087.442289,-176.167999,-843.264038,-506.544006,-4620.000000,1820.000000,840.000000
9984.546600,15072.653004,6544.411963,-4006.237269,10798.485374,14029.921774,9213.433768,-24079.623709,15123.927906,15883.261369,7760.369213,405.706514,40690.836691,6202.944363,22582.749734,8085.430632,-177.632004,-828.624023,-498.735992,-3640.000000,1120.000000,1120.000000
10003.389121,15114.428415,6569.803544,-3976.397690,10842.115979,14036.068503,9236.724286,-24053.427464,15145.095008,15909.837593,7762.671442,433.400325,40700.984383,6211.594488,22609.884752,8121.215775,-182.512009,-795.927979,-470.920013,1540.000000,-980.000000,1820.000000
10027.081970,15181.841276,6602.347684,-3930.554262,10902.130413,14045.143312,9277.471516,-24008.388699,15175.381622,15942.113512,7770.785126,474.169907,40712.987270,6217.383589,22651.056665,8169.629654,-178.119995,-797.392029,-464.576019,16940.000000,-8680.000000,3500.000000
10022.388103,15188.546799,6598.547888,-3925.279251,10902.286876,14045.679754,9287.619208,-24003.739536,15175.627491,15935.609154,7776.306006,480.428395,40711.668517,6212.175633,22659.349163,8169.070860,-170.800003,-823.744019,-467.992004,20580.000000,-10080.000000,4200.000000
9993.777870,15124.732569,6558.672376,-3966.585275,10840.104322,14035.688524,9259.500713,-24045.827871,15144.558566,15899.555790,7771.880361,444.039755,40699.352705,6204.978371,22630.582467,8121.975734,-173.240005,-864.736023,-495.808014,16240.000000,-7980.000000,1960.000000
9989.687501,15106.001807,6550.424582,-3980.689225,10827.117959,14032.939259,9249.800056,-24058.590717,15135.684924,15898.058223,7765.800687,433.892063,40697.430455,6205.783034,22619.585409,8105.636609,-164.456009,-886.208008,-535.335999,5320.000000,-420.000000,-1260.000000
9992.257952,15107.298208,6552.905625,-3977.694092,10832.571785,14033.341591,9256.215007,-24052.823967,15133.069770,15903.221476,7763.431402,435.881369,40698.145711,6205.984200,22622.804060,8108.475281,-183.975998,-876.936035,-546.559998,-9940.000000,7560.000000,-4620.000000
9986.558257,15088.276874,6541.774457,-3988.221763,10817.171433,14031.352285,9250.783533,-24061.339982,15123.927906,15893.632578,7762.090297,426.784209,40693.228327,6203.301990,22613.729252,8098.439348,-179.096008,-873.520020,-541.679993,-13160.000000,4200.000000,-2240.000000
