3.326902,4.407653,5.234836,4.641657,4.377336,4.782018,4.086900,4.996628,4.991203,4.987513,4.232153,4.208360,4.745698,4.140558,3.893614,3.573385,86.863998,-676.367981,-729.072021,9520.000000,2100.000000,2100.000000
3.325414,4.408133,5.229615,4.636789,4.377228,4.770336,4.087262,4.958779,4.985862,4.987628,4.231329,4.207087,4.756666,4.148966,3.892968,3.586728,86.375999,-679.783997,-730.536011,9100.000000,2660.000000,2100.000000
3.317869,4.387132,5.209973,4.613810,4.366535,4.768430,4.079861,4.965104,5.011277,4.991302,4.226027,4.198271,4.863238,4.203657,3.886888,3.619699,84.424004,-681.736023,-726.143982,8680.000000,2520.000000,1960.000000
3.297800,4.356387,5.151806,4.540492,4.348420,4.715897,4.084832,4.889191,4.983084,4.964507,4.202696,4.199029,4.878150,4.203502,3.887010,3.620045,85.888000,-684.664001,-724.192017,8260.000000,2800.000000,2240.000000
3.296103,4.356090,5.143551,4.532347,4.348499,4.702014,4.090714,4.849842,4.977281,4.967263,4.203222,4.208235,4.907236,4.226883,3.900473,3.661491,87.840004,-684.176025,-718.824036,8260.000000,3220.000000,1960.000000
3.286541,4.320412,5.116825,4.494829,4.329431,4.688362,4.077550,4.845420,5.010696,4.975144,4.201102,4.196692,5.035885,4.303400,3.895543,3.712544,83.447998,-684.176025,-715.895996,8120.000000,3360.000000,2100.000000
3.253937,4.266512,5.038241,4.407047,4.291047,4.629223,4.060488,4.779296,4.949740,4.918958,4.159615,4.180071,5.010344,4.278189,3.880351,3.702902,84.424004,-684.664001,-717.359985,8120.000000,3640.000000,1960.000000
3.247195,4.262743,5.022584,4.395046,4.284656,4.612350,4.061957,4.748860,4.939841,4.918331,4.158930,4.191335,5.040475,4.303493,3.895963,3.745193,88.328003,-680.760010,-713.455994,7700.000000,3500.000000,1820.000000
3.248788,4.238461,5.013741,4.369734,4.278004,4.606761,4.059246,4.753154,4.975267,4.933747,4.168157,4.187893,5.138066,4.370947,3.897914,3.789984,86.863998,-680.760010,-715.408020,7560.000000,3500.000000,1820.000000
3.209960,4.178137,4.938873,4.298424,4.229135,4.552484,4.020451,4.701942,4.901803,4.862463,4.114931,4.148573,5.081727,4.323411,3.860655,3.759155,87.351997,-677.343994,-717.359985,6580.000000,3080.000000,1120.000000
3.181186,4.154702,4.897112,4.273831,4.193334,4.518989,3.988622,4.674946,4.863862,4.830546,4.089895,4.131363,5.065690,4.308878,3.845049,3.752681,90.279999,-680.760010,-719.312012,5880.000000,2660.000000,980.000000
3.193392,4.153968,4.906118,4.273754,4.203928,4.533117,3.999292,4.700485,4.882784,4.843309,4.103225,4.136818,5.100144,4.339141,3.851421,3.774143,89.304001,-681.247986,-723.703979,4760.000000,1820.000000,700.000000
3.151609,4.099656,4.846277,4.230330,4.151059,4.483532,3.944098,4.655551,4.820614,4.775504,4.045239,4.076315,5.039708,4.281990,3.793363,3.720225,91.744003,-683.687988,-725.168030,3920.000000,1540.000000,280.000000
3.062852,4.009611,4.729471,4.154418,4.037825,4.380733,3.831178,4.565409,4.703044,4.654100,3.940504,3.975186,4.927283,4.176501,3.696028,3.625205,88.816002,-688.080017,-731.023987,2660.000000,980.000000,140.000000
3.055861,3.994111,4.702824,4.134056,4.030503,4.369338,3.832046,4.557770,4.675455,4.631202,3.924977,3.966606,4.905880,4.161065,3.687592,3.619820,90.767998,-688.080017,-730.048035,2800.000000,980.000000,0.000000
3.004040,3.939336,4.649217,4.108228,3.963523,4.308545,3.754037,4.499970,4.624779,4.563815,3.855223,3.878823,4.847191,4.095287,3.604793,3.543188,89.792000,-686.127991,-727.119995,3360.000000,1820.000000,0.000000
2.808486,3.714557,4.387447,3.905563,3.718247,4.043651,3.519143,4.222545,4.373043,4.286999,3.602399,3.635317,4.622006,3.871445,3.379834,3.349135,88.328003,-690.520020,-725.656006,4200.000000,2520.000000,-280.000000
2.759497,3.655222,4.296594,3.837175,3.662947,3.960745,3.489511,4.125932,4.297901,4.215700,3.538465,3.594596,4.570391,3.820700,3.343738,3.322113,88.816002,-685.151978,-726.632019,4620.000000,3080.000000,-560.000000
2.682064,3.570723,4.220214,3.793468,3.561865,3.862418,3.374126,4.027303,4.228350,4.117484,3.433275,3.461610,4.495435,3.733237,3.221271,3.221014,87.351997,-687.591980,-724.192017,5600.000000,2660.000000,-700.000000
2.368069,3.189162,3.798057,3.439283,3.175360,3.395573,3.023202,3.508777,3.850146,3.680902,3.016762,3.068703,4.194960,3.415788,2.869586,2.954866,89.792000,-689.056030,-723.216003,6160.000000,2520.000000,-980.000000
2.301220,3.127765,3.706876,3.384698,3.100357,3.279960,2.977073,3.361822,3.782136,3.607763,2.938312,3.015398,4.145941,3.359295,2.824116,2.921315,90.767998,-688.567993,-722.728027,6720.000000,2380.000000,-1120.000000
2.180553,2.964478,3.558247,3.265588,2.943031,3.115555,2.815167,3.202593,3.653306,3.436070,2.769048,2.819408,4.040905,3.241657,2.647552,2.800211,91.744003,-687.104004,-724.192017,7000.000000,1960.000000,-1120.000000
1.821608,2.528594,3.109251,2.901148,2.505314,2.575960,2.421861,2.608112,3.273966,2.959567,2.286676,2.357333,3.754419,2.919329,2.242372,2.525267,94.183998,-687.104004,-720.288025,7140.000000,1960.000000,-1540.000000
1.784230,2.518130,3.091640,2.918837,2.465672,2.516031,2.391317,2.519824,3.263354,2.938724,2.247714,2.325513,3.733623,2.888006,2.215641,2.500739,94.672005,-683.687988,-722.728027,7280.000000,1960.000000,-1680.000000
1.629658,2.269095,2.872852,2.730060,2.263010,2.309974,2.200350,2.344264,3.087426,2.702371,2.026005,2.081009,3.616801,2.761180,1.998366,2.380150,94.672005,-681.736023,-718.824036,6440.000000,1680.000000,-1820.000000
1.379408,1.983406,2.635788,2.581320,1.955387,1.990730,1.888129,2.033139,2.886392,2.392797,1.677026,1.690694,3.437934,2.544074,1.654394,2.159409,91.256004,-677.343994,-721.752014,6020.000000,1260.000000,-1820.000000
1.377886,1.994284,2.651833,2.606095,1.953916,1.996671,1.880965,2.037053,2.904804,2.407191,1.681479,1.685551,3.440824,2.539845,1.649174,2.145513,91.256004,-674.416016,-724.192017,4760.000000,700.000000,-1540.000000
1.269400,1.786931,2.499897,2.480999,1.806590,1.878782,1.734405,1.968926,2.784332,2.225577,1.511216,1.471434,3.361704,2.455352,1.458906,2.057407,90.279999,-677.832031,-727.119995,4060.000000,420.000000,-1260.000000
1.223565,1.749620,2.523942,2.531144,1.739381,1.874604,1.602890,1.994955,2.795696,2.178414,1.431252,1.274665,3.318002,2.386787,1.272271,1.922867,90.279999,-680.760010,-728.583984,3220.000000,280.000000,-840.000000
1.224356,1.733072,2.510792,2.502044,1.737193,1.868783,1.603074,1.995144,2.805040,2.187770,1.439334,1.278207,3.331731,2.395123,1.275553,1.915486,87.351997,-683.200012,-729.559998,2800.000000,280.000000,140.000000
1.219826,1.688957,2.505053,2.496046,1.722335,1.879247,1.570404,2.020441,2.798870,2.158002,1.415327,1.199688,3.322165,2.383990,1.200909,1.883967,85.400002,-686.127991,-728.096008,3220.000000,560.000000,840.000000
1.264237,1.739611,2.579295,2.530961,1.763532,1.917040,1.577631,2.043130,2.900528,2.251432,1.489102,1.195593,3.392935,2.436516,1.186222,1.853759,87.840004,-687.591980,-728.583984,3080.000000,1400.000000,1680.000000
1.266700,1.736691,2.582769,2.516143,1.763694,1.901700,1.579345,2.021084,2.926018,2.274423,1.501578,1.202601,3.414192,2.450102,1.193312,1.847570,86.863998,-689.056030,-729.559998,3500.000000,2240.000000,2520.000000
1.278875,1.739516,2.581690,2.506825,1.771380,1.903435,1.594251,2.029139,2.948659,2.301778,1.532965,1.223386,3.459814,2.495323,1.213769,1.881036,82.472000,-691.496033,-728.583984,4200.000000,3920.000000,3080.000000
1.305155,1.749477,2.596076,2.475486,1.779999,1.871909,1.620946,1.994840,3.064003,2.419746,1.630387,1.291739,3.610399,2.624111,1.282015,1.943232,85.888000,-688.080017,-729.072021,5460.000000,5320.000000,3780.000000
1.321423,1.793964,2.650029,2.533317,1.798436,1.892584,1.626299,2.000933,3.107079,2.460149,1.657608,1.304124,3.619137,2.629892,1.289881,1.931977,86.375999,-685.151978,-725.168030,6300.000000,6160.000000,4060.000000
1.278293,1.735575,2.546394,2.452138,1.732520,1.822280,1.598135,1.971751,3.073257,2.436479,1.649492,1.311922,3.680156,2.690767,1.306283,2.001670,79.543999,-683.687988,-727.608032,6720.000000,7280.000000,4200.000000
1.280209,1.715729,2.534458,2.432026,1.694990,1.793143,1.589419,2.016551,3.176977,2.537918,1.739187,1.372792,3.834550,2.826854,1.372970,2.088110,81.496002,-680.272034,-725.656006,7140.000000,7560.000000,4060.000000
1.312811,1.805939,2.613653,2.549240,1.736300,1.878879,1.604125,2.099810,3.206784,2.578564,1.782065,1.402183,3.818524,2.820389,1.389304,2.076877,79.543999,-679.783997,-723.703979,7280.000000,7560.000000,3920.000000
1.245834,1.752515,2.488243,2.487945,1.643887,1.813153,1.543114,2.074161,3.134263,2.515896,1.742903,1.380129,3.846753,2.850369,1.372521,2.124259,78.568001,-677.832031,-721.752014,7140.000000,7140.000000,3360.000000
1.236510,1.732691,2.480884,2.497500,1.590529,1.818295,1.499493,2.185952,3.199173,2.579375,1.806996,1.411413,3.942242,2.940662,1.408551,2.184496,81.008003,-677.343994,-720.288025,6720.000000,6580.000000,2940.000000
1.289163,1.863227,2.572026,2.652091,1.652056,1.970740,1.526572,2.368088,3.232319,2.645118,1.888924,1.480918,3.928382,2.944863,1.455036,2.184140,80.520004,-679.296021,-721.264038,6300.000000,5880.000000,2240.000000
1.269285,1.901898,2.561419,2.704716,1.626307,1.992493,1.492101,2.386564,3.203423,2.626136,1.880114,1.476668,3.919385,2.939677,1.444103,2.190680,79.543999,-678.807983,-720.288025,5740.000000,4900.000000,1540.000000
1.255433,1.888270,2.557631,2.710424,1.583528,1.990191,1.436941,2.453982,3.227971,2.656443,1.913508,1.484012,3.968174,2.992334,1.458453,2.232484,84.424004,-679.783997,-717.359985,5320.000000,4060.000000,840.000000
1.312689,2.013534,2.655780,2.871454,1.629431,2.141655,1.452640,2.686675,3.325518,2.791509,2.050933,1.588426,4.030521,3.063613,1.544800,2.270438,83.447998,-680.760010,-719.799988,4480.000000,2800.000000,-280.000000
1.353716,2.107666,2.761305,3.006924,1.675309,2.244901,1.461587,2.790463,3.388930,2.855199,2.104065,1.618437,4.045093,3.076099,1.564020,2.270935,87.840004,-680.272034,-731.023987,3780.000000,1680.000000,-700.000000
1.346718,2.100620,2.765028,3.007094,1.667939,2.233261,1.427020,2.792367,3.395790,2.874191,2.120454,1.618746,4.099446,3.131011,1.579341,2.331556,89.304001,-683.687988,-729.559998,4200.000000,840.000000,-1120.000000
1.376573,2.163163,2.835778,3.117463,1.669416,2.304873,1.409198,2.968685,3.576747,3.065218,2.276909,1.711430,4.336982,3.332076,1.679415,2.456265,90.279999,-684.664001,-729.559998,5040.000000,840.000000,-1400.000000
1.439061,2.242131,2.959831,3.253652,1.732212,2.447807,1.431187,3.157549,3.672992,3.149230,2.352508,1.743071,4.376927,3.366877,1.700662,2.459186,87.351997,-683.687988,-725.656006,5180.000000,140.000000,-1540.000000
1.455539,2.251206,2.977904,3.265545,1.794172,2.487803,1.449095,3.164424,3.681211,3.169865,2.361842,1.747430,4.502119,3.463408,1.730147,2.578018,91.256004,-682.712036,-726.632019,5880.000000,-280.000000,-1960.000000
1.456083,2.256596,2.998874,3.297868,1.788629,2.488172,1.425611,3.225323,3.867088,3.335215,2.472445,1.789914,4.864513,3.740310,1.802171,2.769752,88.328003,-683.200012,-727.608032,6020.000000,-840.000000,-1960.000000
1.507679,2.300651,3.078479,3.385668,1.838610,2.630837,1.434406,3.437807,3.912948,3.372648,2.519942,1.797826,4.864170,3.743942,1.798291,2.748505,88.328003,-683.200012,-727.119995,6160.000000,-840.000000,-2100.000000
1.561104,2.348274,3.117459,3.431115,1.988441,2.796030,1.518912,3.551203,3.914844,3.381452,2.518766,1.800704,5.051631,3.863872,1.823256,2.901333,91.744003,-680.272034,-727.119995,6300.000000,-700.000000,-2240.000000
1.562045,2.355701,3.113778,3.426439,2.022281,2.806140,1.525737,3.550763,3.997703,3.449220,2.554415,1.800438,5.319499,4.059631,1.849835,3.058594,90.279999,-681.736023,-732.000000,7140.000000,140.000000,-2100.000000
1.597207,2.379692,3.150465,3.469015,2.063867,2.925929,1.529715,3.731020,3.994536,3.444596,2.566819,1.784883,5.283970,4.027362,1.820848,3.012343,91.744003,-684.176025,-729.559998,8400.000000,840.000000,-1960.000000
1.689994,2.490923,3.233386,3.585711,2.266077,3.218438,1.651621,4.002944,3.946220,3.410508,2.555574,1.783924,5.375319,4.064699,1.813418,3.097879,93.695999,-682.223999,-734.440002,9380.000000,1540.000000,-1820.000000
1.578116,2.401675,2.619719,3.101594,2.116139,4.088335,1.670662,3.544807,3.413117,3.031385,2.513888,1.944241,4.754615,3.710314,2.338896,2.713887,87.596001,-686.860016,-719.067993,13440.000000,2240.000000,420.000000
1.584396,2.454082,2.677677,3.209949,2.145788,4.136524,1.686785,3.685880,3.438448,3.043335,2.539688,1.939376,4.731779,3.694173,2.326277,2.687321,86.864002,-687.347992,-717.604004,13510.000000,2800.000000,490.000000
1.646777,2.543937,2.768406,3.326346,2.245117,4.346475,1.742540,3.876285,3.416109,3.034520,2.560198,1.954437,4.677670,3.651263,2.311668,2.668514,86.132000,-685.884003,-714.675995,13650.000000,3220.000000,630.000000
1.673793,2.640364,2.891440,3.506522,2.316811,4.419067,1.784717,4.008355,3.483177,3.079814,2.598546,1.964076,4.644837,3.641370,2.305171,2.672456,85.155999,-687.592011,-716.872009,13440.000000,3500.000000,910.000000
1.696024,2.706235,2.978909,3.630709,2.350664,4.445667,1.802369,4.134490,3.517634,3.105963,2.634634,1.980611,4.619565,3.624452,2.301240,2.653226,86.620002,-684.664002,-714.432007,12950.000000,3850.000000,770.000000
1.770951,2.818248,3.145217,3.813734,2.432465,4.627031,1.839558,4.340447,3.648429,3.219681,2.735448,2.031702,4.656459,3.657955,2.334467,2.648304,87.108002,-687.104004,-714.432007,12390.000000,4130.000000,910.000000
1.817962,2.941001,3.329608,4.029164,2.511987,4.636312,1.880065,4.445444,3.772069,3.307773,2.790963,2.055826,4.647817,3.658492,2.336169,2.648701,87.352001,-687.348023,-711.016022,11550.000000,3990.000000,910.000000
1.856052,2.991669,3.415216,4.120716,2.535304,4.641676,1.887404,4.551700,3.872861,3.392354,2.865590,2.096701,4.733098,3.732919,2.362753,2.684065,86.620002,-686.127991,-712.968018,10850.000000,4060.000000,910.000000
1.928911,3.102516,3.619295,4.326398,2.587831,4.753668,1.898822,4.735023,4.166727,3.626809,3.026332,2.173028,4.974630,3.916084,2.446792,2.754284,86.864002,-686.128021,-714.432006,10290.000000,3710.000000,980.000000
1.980143,3.197518,3.746239,4.453636,2.650510,4.713891,1.933286,4.778713,4.250417,3.697332,3.067892,2.208410,4.977495,3.919674,2.461080,2.762999,86.864002,-686.860016,-715.164002,9730.000000,3360.000000,980.000000
2.022225,3.225451,3.829079,4.525317,2.659459,4.704005,1.932904,4.879753,4.458574,3.854185,3.180322,2.253132,5.242659,4.124417,2.503840,2.869180,89.792004,-686.860016,-722.727997,9380.000000,3290.000000,1120.000000
2.070197,3.300653,3.968138,4.658517,2.680466,4.754832,1.929246,4.987445,4.707461,4.058639,3.312370,2.327256,5.505263,4.319918,2.595408,2.972339,91.012001,-689.300018,-722.484009,9800.000000,3570.000000,1400.000000
2.105507,3.345859,4.007345,4.688839,2.711360,4.720210,1.959607,5.000731,4.754215,4.103941,3.341183,2.368537,5.545359,4.347612,2.628559,2.999786,89.060001,-689.300018,-721.264007,10360.000000,4130.000000,1610.000000
2.136417,3.355495,4.072409,4.740395,2.716330,4.702435,1.970998,5.069782,4.977584,4.260785,3.440218,2.396391,5.858011,4.573953,2.664068,3.125467,88.327999,-691.496032,-718.579987,10500.000000,3920.000000,1890.000000
2.150082,3.384066,4.108277,4.771024,2.721573,4.745163,1.971327,5.092665,5.070969,4.350020,3.497865,2.448264,5.984444,4.670157,2.730209,3.192631,89.548000,-691.008026,-721.020019,10780.000000,3640.000000,2100.000000
2.156656,3.388694,4.108783,4.765070,2.717352,4.731184,1.989653,5.099797,5.125848,4.385702,3.518190,2.478845,6.091891,4.740409,2.778003,3.237972,90.768002,-689.544007,-720.288025,11270.000000,3290.000000,2100.000000
2.171698,3.390424,4.133466,4.780223,2.734729,4.746972,2.022915,5.120349,5.257745,4.473944,3.565161,2.488939,6.301878,4.880028,2.799760,3.324299,89.548004,-688.812012,-721.264007,11410.000000,2940.000000,2240.000000
2.161590,3.383131,4.127449,4.767060,2.738365,4.807670,2.024937,5.101676,5.253312,4.475609,3.560568,2.502640,6.321862,4.895014,2.828036,3.337500,88.328003,-690.276001,-722.728028,11690.000000,2800.000000,2380.000000
2.139231,3.366077,4.119655,4.753929,2.707693,4.805273,2.019216,5.098023,5.306796,4.495834,3.565485,2.509755,6.461829,4.980835,2.874254,3.376993,89.060001,-693.447998,-723.704010,11690.000000,2660.000000,2660.000000
2.147745,3.368008,4.119089,4.753137,2.738883,4.876382,2.054563,5.113903,5.344046,4.517350,3.567861,2.509489,6.536182,5.018114,2.880776,3.406220,88.084000,-696.131989,-724.192017,12110.000000,2660.000000,2660.000000
2.130753,3.341343,4.128935,4.748701,2.740647,4.922328,2.046274,5.090279,5.326298,4.489430,3.530697,2.481549,6.540711,5.013458,2.876288,3.386112,89.304005,-697.596009,-723.216003,12460.000000,2870.000000,2870.000000
2.094889,3.322901,4.111450,4.732665,2.704031,4.935321,2.019649,5.080948,5.352545,4.489830,3.521417,2.470975,6.644419,5.067922,2.902058,3.394770,88.572002,-697.352020,-726.632019,12950.000000,3290.000000,2870.000000
2.105115,3.327781,4.123956,4.760955,2.734336,5.005574,2.035147,5.136996,5.364134,4.490121,3.508015,2.460737,6.651238,5.058879,2.895174,3.391076,87.840004,-698.571991,-727.851989,13720.000000,3500.000000,3080.000000
2.092961,3.304221,4.142908,4.768461,2.734802,5.013276,2.021400,5.124013,5.351640,4.459605,3.461015,2.410514,6.660737,5.048505,2.865545,3.352488,87.840001,-696.864014,-727.364014,14420.000000,3990.000000,3010.000000
2.065934,3.301719,4.132675,4.775707,2.714213,5.031048,1.995705,5.124079,5.371768,4.462474,3.451884,2.398305,6.713649,5.063662,2.869824,3.334351,90.036003,-696.864014,-728.583985,14910.000000,4270.000000,3080.000000
2.077773,3.321900,4.176481,4.859018,2.741225,5.042576,2.000758,5.220518,5.410252,4.476447,3.442227,2.375538,6.723766,5.055121,2.852062,3.319062,87.840000,-693.936004,-731.023986,15680.000000,4340.000000,3080.000000
2.074993,3.317097,4.185036,4.867979,2.747473,5.021875,1.996182,5.228320,5.387895,4.444632,3.398420,2.331819,6.702410,5.015006,2.802932,3.265368,88.815998,-694.424012,-731.023986,16310.000000,4200.000000,3220.000000
2.067413,3.341932,4.213157,4.934836,2.752648,5.028075,1.996294,5.246877,5.465275,4.494232,3.408838,2.328997,6.776017,5.037127,2.810597,3.249279,89.304001,-693.204010,-731.268005,16870.000000,3990.000000,3360.000000
2.082877,3.402056,4.292922,5.077489,2.797091,5.000369,2.019687,5.374898,5.549246,4.540959,3.424156,2.307059,6.815538,5.044565,2.795075,3.227861,87.596001,-690.276001,-728.096008,17570.000000,3920.000000,3360.000000
2.085438,3.404884,4.290216,5.078750,2.810453,4.961261,2.035896,5.396410,5.521392,4.510540,3.389582,2.284312,6.765798,4.980327,2.739671,3.177627,84.912002,-689.787994,-727.119995,17920.000000,4130.000000,3290.000000
2.091484,3.460859,4.361345,5.218910,2.835321,4.963566,2.063259,5.453488,5.717752,4.654164,3.450117,2.301257,6.977932,5.092503,2.798086,3.199254,85.400002,-689.544006,-727.119995,17920.000000,4130.000000,3220.000000
2.114843,3.569229,4.479877,5.410638,2.913777,4.945814,2.124026,5.630851,5.843424,4.737122,3.517037,2.305470,7.051368,5.142184,2.815130,3.193258,86.132000,-689.056000,-726.144013,17850.000000,4200.000000,3010.000000
2.115880,3.552690,4.460588,5.388769,2.932393,4.901325,2.167852,5.641816,5.827624,4.715334,3.486982,2.294693,7.035652,5.097023,2.768904,3.172117,88.571999,-690.032013,-725.900024,17570.000000,3780.000000,2730.000000
2.122849,3.625234,4.547202,5.577730,2.965227,4.897853,2.203394,5.763821,6.145304,4.957355,3.620704,2.339501,7.464542,5.381145,2.925364,3.267874,87.108002,-688.079987,-728.340027,17920.000000,3500.000000,2590.000000
2.147919,3.749733,4.686600,5.782114,3.062491,4.936214,2.295111,6.003845,6.267964,5.039084,3.714878,2.362524,7.529552,5.457465,2.962556,3.283996,89.792000,-690.764007,-728.340027,18200.000000,3220.000000,2520.000000
2.150908,3.706056,4.647609,5.729787,3.100823,4.927675,2.365756,5.988014,6.272603,5.030727,3.683620,2.348412,7.627657,5.484365,2.948752,3.302323,89.792000,-689.056000,-730.048004,18830.000000,3220.000000,2520.000000
2.148670,3.760878,4.715856,5.909737,3.132261,4.895294,2.401317,6.150425,6.625054,5.297679,3.848231,2.401312,8.180570,5.888885,3.163615,3.455450,87.596001,-688.324005,-730.536010,19320.000000,3710.000000,2520.000000
2.165315,3.868055,4.854826,6.092526,3.216497,5.052305,2.491329,6.415058,6.708892,5.348792,3.919246,2.415083,8.200476,5.936491,3.179377,3.463810,88.084003,-688.324005,-729.803985,19180.000000,3780.000000,2590.000000
2.187384,3.829188,4.827505,6.034545,3.299939,5.088048,2.586564,6.381500,6.724439,5.347050,3.884672,2.394108,8.403265,6.030240,3.206123,3.502922,87.352001,-686.616028,-726.876007,18970.000000,3570.000000,2590.000000
2.171920,3.849015,4.866676,6.163085,3.317494,5.058016,2.622401,6.506042,7.022874,5.564748,4.010271,2.432237,8.898534,6.399426,3.376713,3.639757,87.352002,-688.567993,-725.167999,18410.000000,3570.000000,2660.000000
2.189884,3.962575,5.041558,6.360286,3.380688,5.306364,2.684626,6.750027,7.117098,5.629055,4.069604,2.443702,8.920254,6.427885,3.385255,3.636036,85.888001,-688.080017,-726.876007,17920.000000,3570.000000,2450.000000
2.234800,3.963984,5.052895,6.330098,3.493844,5.338230,2.791315,6.728689,7.119137,5.615568,4.029025,2.428781,9.095919,6.496179,3.410047,3.642725,87.108002,-687.104004,-722.484009,17920.000000,3990.000000,2450.000000
2.213333,3.987215,5.115078,6.462655,3.489728,5.369310,2.821133,6.794176,7.397259,5.815446,4.126073,2.471343,9.494908,6.778815,3.510022,3.735815,87.596001,-685.640015,-723.459992,16870.000000,4200.000000,2450.000000
2.253513,4.151355,5.381109,6.741617,3.539785,5.554130,2.854377,7.013103,7.586402,5.961331,4.232054,2.508135,9.571763,6.834328,3.540698,3.732637,85.644001,-686.372009,-720.287994,16310.000000,4340.000000,2380.000000
2.288603,4.177348,5.391344,6.735816,3.616692,5.558712,2.941329,7.030355,7.571592,5.938373,4.203966,2.529841,9.636939,6.823534,3.536569,3.688048,87.352001,-685.884002,-721.752014,14910.000000,4340.000000,2310.000000
2.289625,4.277326,5.599092,7.017670,3.604580,5.657179,2.955487,7.124644,7.962788,6.227396,4.350547,2.590599,10.046364,7.096079,3.614305,3.764928,87.352002,-688.324005,-717.360016,13930.000000,4340.000000,2240.000000
2.338507,4.466934,5.883888,7.318362,3.627157,5.677822,2.967800,7.289814,8.241528,6.456350,4.529332,2.680046,10.201007,7.221547,3.688788,3.795352,86.863998,-689.544007,-717.848023,13440.000000,4410.000000,2310.000000
2.343265,4.493740,5.891139,7.355946,3.631520,5.712346,3.010496,7.356243,8.254085,6.456602,4.540324,2.743417,10.218302,7.187619,3.681666,3.757173,88.084000,-692.716003,-715.164002,12110.000000,4550.000000,2170.000000
2.397555,4.715323,6.299969,7.837007,3.639283,5.850268,3.006766,7.534430,8.820302,6.893786,4.776670,2.815957,10.729404,7.527075,3.793419,3.845686,86.864002,-696.619995,-714.432006,11690.000000,4270.000000,2100.000000
2.411304,4.850884,6.454165,8.002347,3.610773,5.788427,3.006374,7.567324,9.083166,7.134020,4.995749,2.989399,10.977771,7.762569,3.961663,4.014225,88.084000,-696.620025,-715.164002,10850.000000,3920.000000,2240.000000
2.424394,4.925460,6.572938,8.183110,3.593684,5.966058,3.004668,7.705314,9.177608,7.191575,5.039058,3.047369,11.021404,7.754890,3.958234,4.015917,91.256000,-697.839996,-711.260010,10570.000000,3990.000000,2310.000000
2.513079,5.222713,7.035078,8.693728,3.630684,6.104610,2.998422,7.872697,9.812649,7.719047,5.339338,3.166859,11.628735,8.178666,4.171080,4.171312,90.524002,-695.644012,-711.992005,10430.000000,4130.000000,2520.000000
2.482994,5.260583,7.037702,8.690721,3.564384,6.168148,2.986422,7.788164,9.955733,7.878903,5.512256,3.382263,11.898712,8.464346,4.409035,4.496889,91.988003,-695.156006,-708.088013,9800.000000,3990.000000,2660.000000
2.533136,5.435327,7.296541,9.040870,3.597025,6.499512,2.963213,7.998291,10.124555,7.993017,5.573395,3.412315,11.968136,8.473360,4.401248,4.508747,93.696003,-696.132019,-706.868011,8960.000000,4130.000000,2590.000000
2.594246,5.659496,7.589838,9.338456,3.624140,6.599419,2.963473,8.034782,10.616913,8.439184,5.830493,3.566453,12.537622,8.888943,4.687362,4.725936,92.475998,-693.936005,-708.087982,7770.000000,3990.000000,2590.000000
2.567865,5.645687,7.551350,9.304429,3.571392,6.880459,2.938198,7.966252,10.617361,8.480149,5.887267,3.726441,12.687279,9.075663,4.872812,5.044731,92.476001,-692.472015,-708.820007,5670.000000,3360.000000,2380.000000
2.613655,5.834264,7.777386,9.633111,3.619142,7.190204,2.914180,8.140706,10.763214,8.583670,5.943310,3.750384,12.748647,9.084838,4.868896,5.050002,91.500000,-694.912018,-704.428009,3990.000000,2660.000000,2310.000000
2.623630,5.886428,7.847175,9.670046,3.606714,7.249313,2.908342,8.067575,10.971518,8.798857,6.028552,3.836629,13.091378,9.322368,5.076817,5.204852,93.208000,-692.716034,-706.623993,2310.000000,1190.000000,1960.000000
2.671425,5.888870,7.840055,9.697135,3.590756,7.620498,2.886188,8.058548,10.898246,8.781715,6.005039,3.927457,13.093600,9.368373,5.172149,5.399768,91.256000,-687.836029,-707.356018,1190.000000,140.000000,1820.000000
2.692184,5.962810,7.903551,9.803825,3.588891,7.758792,2.869301,8.109364,10.934143,8.806017,6.026250,3.969130,13.111771,9.363684,5.168318,5.408172,88.084000,-685.395996,-706.135986,-140.000000,-1120.000000,1330.000000
2.698857,5.957192,7.879688,9.788505,3.592315,7.824327,2.888994,8.069791,10.924554,8.829470,5.974694,3.962202,13.185835,9.373704,5.231382,5.426748,87.352002,-684.420013,-707.112000,-1120.000000,-1750.000000,1050.000000
2.891008,5.962644,7.926518,9.791078,3.585287,8.107533,2.880605,8.046789,10.890630,8.869195,5.957688,4.055814,13.172573,9.389480,5.316222,5.536886,89.060001,-682.468017,-702.963989,-1680.000000,-2240.000000,560.000000
2.934811,6.043941,7.948756,9.826656,3.623796,8.155228,2.933276,8.171984,10.882480,8.876029,6.039121,4.179031,13.154650,9.398552,5.349832,5.602549,86.376000,-680.760010,-703.696015,-2730.000000,-3010.000000,70.000000
3.002871,6.116428,7.955414,9.888669,3.682770,8.237406,3.030372,8.218168,10.826301,8.863971,5.997933,4.165774,13.103915,9.302252,5.348255,5.541886,83.936001,-683.200012,-701.012023,-3990.000000,-2730.000000,-280.000000
3.343529,6.144832,8.176119,9.882756,3.693850,8.426889,3.028849,8.280592,10.982075,9.091576,6.078679,4.335312,13.254662,9.442691,5.532956,5.705015,85.888004,-682.467987,-701.500000,-4760.000000,-2870.000000,-560.000000
3.432651,6.454398,8.304647,10.137596,3.893616,8.586844,3.215308,8.708682,11.032183,9.176439,6.346542,4.584160,13.239814,9.522453,5.671976,5.895156,85.644001,-680.272003,-700.768036,-6090.000000,-3220.000000,-1120.000000
3.575795,6.511605,8.400846,10.160297,3.931176,8.621567,3.334032,8.737177,11.063137,9.238105,6.337899,4.605125,13.250778,9.459108,5.685845,5.844596,81.251998,-678.320007,-703.940002,-7560.000000,-3780.000000,-1610.000000
3.985793,6.712427,8.892529,10.400320,4.029690,8.886810,3.354484,9.067524,11.479885,9.692763,6.574519,4.860738,13.642755,9.799925,6.022620,6.179245,79.299999,-678.808014,-696.376007,-9520.000000,-4270.000000,-1820.000000
4.076822,7.095997,9.044009,10.725937,4.276498,9.161078,3.579895,9.539321,11.526207,9.788375,6.880270,5.132629,13.646769,9.928447,6.212480,6.456213,79.788002,-679.052002,-693.204010,-12110.000000,-5040.000000,-2660.000000
4.255018,7.093183,9.286552,10.734392,4.260178,9.135779,3.655360,9.530662,11.734178,9.971693,6.875820,5.161470,13.820319,9.961647,6.261980,6.455081,80.520004,-684.420013,-694.911988,-12950.000000,-5250.000000,-3290.000000
4.619568,7.439414,9.863910,11.178352,4.411664,9.536813,3.686281,9.919487,12.212522,10.473697,7.160053,5.426970,14.325688,10.402267,6.659019,6.919827,76.860000,-692.471985,-694.911988,-15120.000000,-4620.000000,-3780.000000
4.665152,7.618991,9.928488,11.306113,4.533308,9.754050,3.816190,10.099836,12.203755,10.499243,7.298496,5.588910,14.369723,10.522190,6.782800,7.166881,78.812000,-691.007995,-693.448028,-17290.000000,-5180.000000,-4340.000000
4.818944,7.659611,10.260019,11.435636,4.518103,9.756415,3.849725,10.108663,12.530752,10.758549,7.325699,5.615132,14.634805,10.625791,6.859263,7.204718,78.812004,-695.399994,-692.228028,-18200.000000,-5530.000000,-4690.000000
5.053162,7.901189,10.627120,11.740261,4.606077,10.173119,3.853043,10.231954,12.806429,11.077294,7.472484,5.784969,15.039065,10.974886,7.152894,7.608468,79.788002,-696.132019,-692.960022,-19320.000000,-5810.000000,-5180.000000
5.062474,7.929010,10.640040,11.827230,4.625592,10.261315,3.876475,10.236638,12.813533,11.076887,7.482240,5.823850,15.129326,11.074754,7.190759,7.751580,79.299999,-697.108002,-693.447998,-20580.000000,-6090.000000,-5600.000000
5.142759,7.994070,10.857340,11.949014,4.624131,10.359334,3.882457,10.223794,13.040275,11.260557,7.521537,5.845445,15.306491,11.154834,7.252689,7.786442,80.520001,-703.696015,-686.616027,-21490.000000,-6160.000000,-5740.000000
5.243789,8.116748,10.959960,12.207072,4.683366,10.668107,3.900529,10.257312,13.097937,11.356518,7.527403,5.888351,15.504431,11.311035,7.369949,7.979613,78.812000,-704.915985,-689.300018,-22260.000000,-6230.000000,-5740.000000
5.270001,8.204366,10.962276,12.417632,4.719602,10.691902,3.912963,10.343615,13.119093,11.361124,7.556040,5.882460,15.571553,11.375698,7.367461,8.027017,82.960003,-705.648011,-692.228027,-22890.000000,-6300.000000,-5600.000000
5.283568,8.211158,11.011070,12.443843,4.725440,10.871544,3.903745,10.359386,13.161241,11.393880,7.557104,5.886090,15.599374,11.384202,7.377691,8.031368,79.056004,-708.332001,-688.811981,-24080.000000,-6580.000000,-5740.000000
5.317024,8.499809,11.029315,13.021477,4.916879,11.063145,4.041268,10.757445,13.165228,11.394063,7.617015,5.880485,15.639607,11.400701,7.383972,8.052859,80.032002,-713.212006,-689.544007,-25480.000000,-7490.000000,-5880.000000
5.422781,8.639534,11.044857,13.155444,4.983158,11.124100,4.122972,10.894157,13.129934,11.370411,7.678100,5.886953,15.629339,11.392642,7.358290,8.044202,80.276001,-711.015991,-694.424012,-27300.000000,-8680.000000,-6090.000000
5.461124,8.665279,11.220395,13.317308,5.023539,11.326408,4.103507,11.169618,13.225834,11.407515,7.671184,5.874055,15.672539,11.409414,7.340759,8.054352,79.300003,-712.724029,-693.691986,-28140.000000,-9240.000000,-6230.000000
5.491090,9.163538,11.266872,14.069263,5.340405,11.458480,4.360402,11.848559,13.260289,11.412036,7.890768,5.923080,15.682972,11.415537,7.346020,8.070436,79.787998,-711.748016,-696.132020,-28980.000000,-10220.000000,-6580.000000
5.721674,9.264714,11.455939,14.034172,5.389354,11.597007,4.536633,11.924044,13.261109,11.410381,7.909994,5.947667,15.659474,11.323228,7.284190,8.028178,73.931999,-714.432007,-689.056000,-28840.000000,-10850.000000,-6720.000000
5.880993,9.386686,11.982489,14.412033,5.445414,11.742031,4.496083,12.442440,13.639709,11.644525,7.943287,5.940234,15.917535,11.462280,7.297783,8.104152,82.472000,-710.772003,-697.108002,-28910.000000,-11480.000000,-6790.000000
5.912922,9.866195,12.009982,14.967343,5.748506,11.842828,4.788126,12.951702,13.688773,11.670689,8.226800,6.070137,16.002541,11.541018,7.349834,8.214249,80.276001,-707.112030,-693.204010,-28350.000000,-10920.000000,-7070.000000
6.255425,9.973452,12.501666,14.927558,5.773506,12.001191,5.067988,12.997942,13.899486,11.815284,8.211960,6.116090,16.063228,11.404214,7.266710,8.159541,81.740002,-705.891998,-696.620025,-28770.000000,-11340.000000,-7420.000000
6.515122,10.106009,13.160166,15.281961,5.801753,12.016351,5.035535,13.453051,14.428429,12.192168,8.255922,6.120388,16.500313,11.649419,7.321649,8.279971,82.472000,-703.451996,-693.691986,-28840.000000,-11620.000000,-7350.000000
6.521346,10.426077,13.160846,15.561012,5.983137,12.088680,5.288821,13.636054,14.547758,12.282631,8.516263,6.287864,16.703350,11.814182,7.408950,8.454405,82.960003,-701.743988,-692.227997,-28840.000000,-12040.000000,-7420.000000
6.900027,10.584566,13.823665,15.612499,6.027135,12.161086,5.659763,13.688445,14.929341,12.567649,8.530869,6.360418,16.835087,11.690669,7.353161,8.425472,83.203998,-699.548004,-696.376007,-28980.000000,-12110.000000,-7490.000000
7.159285,10.607103,14.318623,15.727849,6.009426,12.078405,5.686858,13.892101,15.363967,12.900929,8.537630,6.356741,17.239401,11.908040,7.398770,8.506548,82.715999,-700.768006,-699.791992,-29400.000000,-11970.000000,-7420.000000
7.144270,10.794256,14.375323,15.905960,6.060731,12.118980,5.845500,13.916310,15.640151,13.117662,8.781455,6.507823,17.570258,12.161201,7.509291,8.695320,80.032002,-700.036010,-698.816010,-30030.000000,-11830.000000,-7630.000000
7.467946,10.926124,14.940892,15.939646,6.152913,12.089580,6.236398,13.940786,15.968803,13.375610,8.816132,6.575537,17.677536,12.079077,7.501966,8.725728,81.740002,-698.816010,-704.671997,-30940.000000,-12390.000000,-7770.000000
7.669223,10.861775,15.226332,15.889188,6.114500,12.049627,6.316597,14.002444,16.225269,13.576857,8.791358,6.549364,17.903933,12.169483,7.497914,8.737668,81.007999,-699.059998,-706.868011,-31360.000000,-13370.000000,-7630.000000
7.673354,10.968008,15.380337,16.072821,6.109474,12.069950,6.366810,14.025338,16.634056,13.894526,9.017417,6.643309,18.356966,12.510604,7.617645,8.924052,80.520001,-700.768005,-710.283997,-31010.000000,-13650.000000,-7490.000000
7.872300,10.981326,15.655125,15.968147,6.211039,12.045824,6.667197,14.006862,16.710094,13.956052,8.989387,6.662235,18.363868,12.453811,7.631527,9.030309,79.299999,-701.256012,-708.820007,-29960.000000,-13510.000000,-7420.000000
8.044610,10.949849,15.880774,15.961589,6.215470,12.139826,6.764098,14.129632,16.843837,14.052203,8.980269,6.618519,18.404370,12.418907,7.579608,9.001102,78.812000,-696.376007,-705.892029,-28840.000000,-13090.000000,-7280.000000
8.072236,10.986154,16.032072,16.076836,6.211104,12.142727,6.752173,14.125307,17.251568,14.360660,9.147938,6.656633,18.943569,12.810023,7.681334,9.189541,78.812000,-693.692016,-706.380005,-28490.000000,-12810.000000,-7490.000000
8.136871,10.901180,16.012341,15.868335,6.279324,12.198633,6.905129,14.130433,17.019476,14.170465,9.006281,6.612421,18.811513,12.727530,7.672125,9.342378,80.032002,-693.691986,-711.748016,-28210.000000,-12810.000000,-7700.000000
8.306651,10.952184,16.274248,15.971364,6.342351,12.336454,7.004252,14.320845,17.122422,14.226517,9.053778,6.566122,18.746582,12.639845,7.595768,9.295086,80.520000,-689.544007,-707.355987,-27370.000000,-12460.000000,-7840.000000
8.315834,10.948525,16.271054,15.932265,6.341106,12.285023,7.014049,14.234435,17.366278,14.402620,9.144260,6.594911,19.268155,12.999537,7.668527,9.500021,77.104000,-692.959992,-708.088013,-27020.000000,-12180.000000,-7980.000000
8.302821,10.845420,16.104860,15.745702,6.382616,12.371442,7.055767,14.302230,16.950204,14.051474,8.924903,6.489377,19.015367,12.851774,7.598273,9.601992,77.592003,-694.180023,-706.624024,-27090.000000,-12180.000000,-8330.000000
8.427607,10.929607,16.334412,15.854387,6.433051,12.392313,7.150263,14.403349,17.068463,14.113459,9.041154,6.468721,18.981791,12.831312,7.560903,9.584306,69.784000,-693.936005,-697.351989,-27650.000000,-11620.000000,-8400.000000
8.428145,10.925532,16.173812,15.682181,6.455329,12.276749,7.251093,14.284924,17.076529,14.106932,9.067207,6.505966,19.333305,13.061027,7.603657,9.777907,73.444000,-694.424012,-699.304016,-28980.000000,-12460.000000,-8820.000000
8.410218,10.862618,16.038963,15.610022,6.485683,12.330901,7.255994,14.353085,16.750174,13.823128,8.882406,6.374293,19.139923,12.925309,7.507121,9.777254,72.224003,-697.108002,-696.376007,-29190.000000,-12320.000000,-9100.000000
8.461169,10.913392,16.142893,15.609095,6.495399,12.214061,7.343866,14.312773,16.846034,13.877783,9.024028,6.396184,19.256769,13.064846,7.593926,9.864265,69.784000,-700.768005,-699.548004,-29820.000000,-12320.000000,-9240.000000
8.538856,10.922250,16.040484,15.431543,6.565429,12.111823,7.530995,14.257556,16.757729,13.801726,9.028571,6.414253,19.382105,13.129210,7.601752,9.974855,71.492000,-701.011993,-697.839996,-29680.000000,-12600.000000,-9450.000000
8.559832,10.926077,16.018343,15.468539,6.594188,12.153029,7.552617,14.276531,16.736566,13.788451,8.972145,6.345019,19.540642,13.184764,7.612622,9.974167,73.444000,-702.476013,-698.084014,-29610.000000,-12670.000000,-9450.000000
8.587345,10.918276,16.046928,15.383306,6.623061,12.047811,7.637389,14.270217,16.759033,13.791952,9.063587,6.371363,19.789774,13.431279,7.806692,10.151281,75.152000,-704.916016,-704.916015,-29190.000000,-12390.000000,-9450.000000
8.785953,10.956651,16.205661,15.338908,6.705605,12.024015,7.830191,14.291122,16.811753,13.840096,9.107432,6.371415,19.831503,13.427257,7.805827,10.176470,77.836003,-703.696014,-719.556000,-27580.000000,-11830.000000,-9170.000000
8.847038,10.987609,16.240989,15.382393,6.744493,12.100334,7.880393,14.309958,17.032576,14.050222,9.127040,6.387775,20.402579,13.710690,7.972978,10.286898,79.056000,-707.356018,-716.627991,-26110.000000,-11340.000000,-8750.000000
8.887861,10.973280,16.313707,15.388777,6.818146,12.108465,7.944196,14.502841,17.000444,14.000694,9.155085,6.364506,20.645464,13.920339,8.148565,10.438499,81.252003,-701.988006,-724.436005,-23730.000000,-10850.000000,-8400.000000
9.119831,10.980753,16.626289,15.401181,6.828698,12.093885,8.055593,14.457225,17.222924,14.184604,9.191463,6.336579,20.778593,13.961805,8.151307,10.451409,81.740002,-701.500000,-730.048004,-20790.000000,-9870.000000,-7840.000000
9.181345,10.989283,16.645761,15.410745,6.865776,12.191147,8.105746,14.526035,17.471334,14.415078,9.190704,6.352902,21.449763,14.285464,8.342423,10.604860,82.228001,-699.304016,-727.364014,-18270.000000,-8960.000000,-7280.000000
9.176251,11.002780,16.712712,15.554933,6.931665,12.233169,8.127074,14.791509,17.390386,14.309038,9.167535,6.262743,21.587659,14.381961,8.400342,10.649958,85.644001,-698.572022,-728.096008,-15260.000000,-7630.000000,-6650.000000
9.332724,10.859545,16.934465,15.436892,6.827591,12.128768,8.126196,14.564967,17.625470,14.476500,9.084862,6.144065,21.794386,14.444189,8.351606,10.639755,83.936001,-698.816010,-726.144013,-12810.000000,-6580.000000,-6020.000000
9.349832,10.891197,16.921799,15.503070,6.862706,12.211797,8.152509,14.666483,17.760902,14.603126,9.076225,6.117497,22.224722,14.637635,8.453119,10.717738,86.619999,-698.084014,-725.167999,-10570.000000,-6160.000000,-5390.000000
9.248890,10.845616,16.816512,15.574171,6.891582,12.214601,8.152716,14.789950,17.579243,14.394864,8.961306,5.951567,22.245970,14.607673,8.360432,10.637491,84.424003,-698.328003,-723.216003,-8470.000000,-6090.000000,-5110.000000
9.315757,10.609997,16.909422,15.401064,6.745513,12.039919,8.084238,14.534043,17.751372,14.487506,8.805934,5.751911,22.380404,14.605519,8.244742,10.528833,86.132000,-696.132019,-722.484009,-7000.000000,-5740.000000,-4690.000000
9.290523,10.691126,16.842414,15.514925,6.815304,12.172659,8.103427,14.644286,17.705896,14.468598,8.815204,5.713621,22.496714,14.655290,8.261948,10.543222,89.792000,-695.156006,-725.167999,-5530.000000,-5810.000000,-4690.000000
9.135315,10.533131,16.561080,15.405970,6.848649,12.191810,8.138242,14.680495,17.464211,14.191017,8.632508,5.494969,22.422512,14.510966,8.055640,10.339273,92.720001,-691.252014,-727.608002,-3990.000000,-6090.000000,-4340.000000
9.173939,10.410911,16.648577,15.392400,6.783425,12.070916,8.081165,14.644741,17.582889,14.252510,8.562192,5.337181,22.426917,14.447190,7.952932,10.171339,93.208000,-684.664032,-721.996002,-2380.000000,-6370.000000,-4340.000000
9.147606,10.458392,16.512978,15.428489,6.902281,12.374391,8.120367,14.793819,17.383099,14.108097,8.546414,5.309287,22.370136,14.418854,7.931994,10.193001,90.524002,-683.444000,-710.283997,-1190.000000,-7350.000000,-4130.000000
9.024111,10.309325,16.262270,15.316404,6.989213,12.473772,8.212183,14.936971,17.236739,13.909245,8.444272,5.139034,22.266142,14.251326,7.733581,9.947270,91.256002,-684.664002,-705.891998,-1120.000000,-7420.000000,-4340.000000
9.072319,10.336084,16.388026,15.419428,7.021881,12.500286,8.200538,15.082715,17.285256,13.943763,8.466127,5.101087,22.203364,14.180564,7.698663,9.844281,91.012001,-683.444000,-701.500000,-1540.000000,-7700.000000,-4480.000000
9.068561,10.322871,16.262625,15.400877,7.145980,12.937797,8.253342,15.291663,17.102439,13.800443,8.427531,5.087281,22.142504,14.149100,7.681634,9.886134,91.012001,-686.127991,-701.500000,-2870.000000,-8540.000000,-4550.000000
9.014692,10.261705,16.187333,15.346678,7.240899,13.065139,8.348039,15.418056,17.100521,13.754345,8.441858,5.037503,22.092518,14.073215,7.593141,9.743600,97.844001,-697.108032,-719.068024,-3990.000000,-9100.000000,-4480.000000
9.037602,10.282758,16.293369,15.374666,7.271028,13.171629,8.350522,15.508743,17.101304,13.757555,8.439342,5.060560,22.029112,14.017709,7.592603,9.727935,97.844002,-699.792023,-716.140015,-3150.000000,-8610.000000,-3780.000000
9.046236,10.277271,16.251961,15.387639,7.345116,13.521359,8.386512,15.656796,17.033965,13.706147,8.420521,5.064090,22.017314,14.015454,7.601231,9.762204,97.600002,-692.472015,-721.264007,-2660.000000,-8960.000000,-3360.000000
9.029366,10.148048,16.266437,15.137662,7.332401,13.570872,8.408975,15.454944,17.071213,13.734557,8.390758,5.066075,22.031628,14.028952,7.595097,9.744957,92.964001,-702.232025,-695.156006,-2310.000000,-9240.000000,-2730.000000
8.979388,10.092362,16.318533,15.114717,7.297700,13.609336,8.375146,15.446245,17.087084,13.740338,8.341140,5.068175,21.981388,13.999708,7.598318,9.750773,81.984001,-709.552002,-672.951996,-1680.000000,-9520.000000,-2170.000000
8.965107,10.061626,16.246895,15.009337,7.301200,13.719599,8.385844,15.311633,16.980930,13.678756,8.312392,5.072444,21.919453,13.959559,7.600082,9.742873,107.848004,-716.628021,-786.168030,-1330.000000,-9800.000000,-1680.000000
8.940243,9.719837,16.237202,14.474592,7.130795,13.667228,8.308817,14.804160,16.998469,13.710610,8.132444,5.022942,21.955828,13.987233,7.600614,9.742338,76.372001,-701.500000,-696.864014,6370.000000,-3150.000000,-70.000000
8.805436,9.633263,16.183444,14.510816,7.071929,13.566399,8.206542,14.781792,16.970623,13.687425,8.089151,4.982370,21.877858,13.991021,7.611719,9.749742,82.228001,-703.452027,-717.116027,5880.000000,-5670.000000,140.000000
8.721686,9.477655,15.897159,14.113618,7.020698,13.502095,8.211001,14.295414,16.645658,13.470585,8.007083,4.971740,21.659471,13.836973,7.571093,9.679062,77.592003,-698.328003,-729.803985,7700.000000,-5320.000000,1050.000000
8.688318,9.049642,15.883218,13.606413,6.787722,13.400460,8.059968,13.866426,16.652236,13.490934,7.733377,4.838641,21.684272,13.842305,7.548649,9.642659,79.543999,-702.720032,-720.288025,8470.000000,-5040.000000,1400.000000
8.477045,8.920787,15.599165,13.603676,6.749791,13.259090,7.875122,13.810115,16.422657,13.332089,7.706888,4.764720,21.512357,13.855612,7.570172,9.657501,75.152000,-747.128021,-693.936005,10150.000000,-4760.000000,1680.000000
8.306046,8.717406,15.117579,13.130778,6.696647,13.195576,7.874060,13.250641,15.904211,12.960204,7.608652,4.746582,21.187058,13.637340,7.510223,9.578583,91.500000,-728.828003,-723.216003,14840.000000,-4690.000000,2590.000000
8.294575,8.404331,15.116257,12.868955,6.539956,13.129834,7.696139,13.140870,15.847606,12.922420,7.342040,4.565206,21.136087,13.596012,7.466524,9.527121,52.216000,-645.624024,-740.296020,24150.000000,3080.000000,2870.000000
8.017330,8.187164,14.566884,12.718953,6.488154,13.115719,7.418656,13.017695,15.377784,12.594208,7.290496,4.473221,20.890456,13.606470,7.503271,9.539999,93.451999,-697.352020,-785.192017,17150.000000,-350.000000,3290.000000
7.795020,8.126587,14.082936,12.532136,6.483530,13.130593,7.381558,12.752889,14.825240,12.177906,7.239281,4.464594,20.596284,13.441631,7.466591,9.535746,83.936001,-684.907989,-731.755981,24290.000000,-3010.000000,4270.000000
7.800281,7.920775,14.002955,12.332207,6.415743,13.148523,7.221812,12.780696,14.602598,12.005934,7.008094,4.306380,20.391604,13.312993,7.423402,9.470356,112.484001,-756.400024,-815.448028,30520.000000,4550.000000,5670.000000
7.502087,7.715010,13.397646,12.225630,6.320598,13.287063,6.876160,12.734787,14.064314,11.621465,6.912346,4.216013,20.208543,13.347768,7.479597,9.488116,74.908000,-691.984009,-714.188019,43260.000000,10430.000000,7770.000000
7.268883,7.770847,12.987061,12.248969,6.337389,13.303100,6.789673,12.721335,13.583786,11.246958,6.882363,4.216090,19.988989,13.259197,7.470419,9.530313,68.319999,-617.076019,-698.816010,41440.000000,8610.000000,6090.000000
7.256323,7.606711,12.797727,12.005784,6.300646,13.371223,6.686998,12.708011,13.175161,10.930953,6.665793,4.121871,19.666853,13.062748,7.463047,9.466216,83.204001,-678.320007,-711.260010,29330.000000,-1750.000000,4200.000000
7.024644,7.561575,12.415768,12.141899,6.220721,13.527364,6.376129,12.828133,12.796017,10.654248,6.576565,4.061808,19.606952,13.112860,7.520818,9.469843,113.948002,-678.076020,-798.123992,32130.000000,-1540.000000,5390.000000
6.783838,7.518069,11.978543,12.038221,6.185399,13.456519,6.262931,12.760544,12.390116,10.337555,6.475018,4.038903,19.436807,13.045862,7.515146,9.470006,80.763999,-671.244019,-726.388000,38780.000000,7420.000000,6160.000000
6.758179,7.456271,11.823790,11.939239,6.195678,13.512188,6.234402,12.788562,11.926257,9.990684,6.296103,3.997711,19.132742,12.875189,7.565539,9.439363,75.396000,-646.112000,-678.076020,34650.000000,4270.000000,4760.000000
6.645292,7.491436,11.698549,12.138354,6.166903,13.578281,6.066027,12.917246,11.781279,9.887024,6.252876,3.976545,19.101903,12.880279,7.598412,9.369193,86.620003,-691.740020,-702.232025,30730.000000,-2800.000000,3360.000000
6.409871,7.307968,11.217323,11.877616,6.085680,13.445817,5.950881,12.751087,11.460184,9.646520,6.049979,3.907525,19.020710,12.829199,7.580600,9.323146,84.667999,-684.420013,-696.620026,30590.000000,-2590.000000,3640.000000
6.396078,7.301624,11.195274,11.937567,6.136647,13.465482,5.936195,12.855049,11.116324,9.413215,5.920128,3.873814,18.801245,12.734118,7.668427,9.284534,103.211998,-690.276001,-771.528015,27580.000000,-4270.000000,2310.000000
6.366284,7.245167,11.154554,11.951343,6.110058,13.464539,5.893892,12.881474,11.110994,9.412218,5.902561,3.869677,18.739415,12.691208,7.668192,9.167561,86.864002,-673.440002,-702.963990,28770.000000,-4340.000000,1680.000000
6.199844,7.067408,10.792807,11.767207,6.060300,13.379170,5.778641,12.805051,10.934596,9.291729,5.649452,3.765467,18.742496,12.640937,7.615690,9.089372,99.308003,-710.528015,-754.448028,26740.000000,-7770.000000,1610.000000
6.150194,6.924642,10.776436,11.752075,6.038019,13.347567,5.657145,12.848690,10.766119,9.192059,5.505615,3.683204,18.586676,12.599719,7.687770,8.985972,92.964001,-681.980011,-697.108002,32130.000000,-5600.000000,2800.000000
6.144753,6.803861,10.741935,11.653677,6.005305,13.382433,5.646628,12.898174,10.754504,9.172672,5.505556,3.699030,18.496932,12.555573,7.664689,8.935640,110.775998,-721.020019,-762.012023,26810.000000,-8540.000000,840.000000
6.066456,6.706787,10.588709,11.645167,5.984834,13.353000,5.522157,12.943393,10.711974,9.145303,5.238034,3.571828,18.396704,12.390211,7.522755,8.750471,97.111999,-688.568023,-756.156005,32200.000000,-4410.000000,1750.000000
5.880199,6.416463,10.396862,11.498322,5.848607,13.266610,5.252263,12.875850,10.631110,9.084022,5.055038,3.457809,18.328539,12.411196,7.558724,8.650653,100.040001,-723.704010,-763.720001,34510.000000,-2730.000000,2170.000000
5.856355,6.351321,10.390090,11.468484,5.833618,13.349587,5.212744,13.023319,10.457456,8.918360,5.074658,3.501147,18.051099,12.296179,7.492468,8.643630,90.768001,-710.040008,-727.119995,42560.000000,210.000000,4270.000000
5.778982,6.312754,10.315363,11.545381,5.779696,13.265848,5.098314,13.018463,10.457421,8.902056,4.826341,3.383682,17.743213,11.983263,7.251761,8.349616,78.323999,-683.444001,-671.243988,47810.000000,2170.000000,4690.000000
5.425743,6.084748,9.915577,11.430708,5.647904,13.182224,4.776803,12.941690,10.301720,8.758800,4.660905,3.304301,17.736647,12.039838,7.262071,8.321583,117.851997,-716.139984,-800.808014,40670.000000,-2450.000000,3640.000000
5.331523,6.060785,9.900309,11.455286,5.617803,13.197706,4.688505,13.025308,9.874548,8.374591,4.681100,3.352878,17.092919,11.763057,7.131301,8.233634,102.724002,-747.372009,-751.520019,49070.000000,5250.000000,5950.000000
5.202364,6.057160,9.767772,11.495905,5.549233,13.075043,4.639461,12.859905,9.869299,8.352269,4.524105,3.297282,16.779149,11.477487,6.898345,7.998050,67.587999,-713.944001,-637.328003,58240.000000,8330.000000,7840.000000
4.741466,5.983899,9.233458,11.459408,5.507335,13.050134,4.394237,12.821584,9.500568,8.045874,4.398494,3.260476,16.664392,11.446468,6.885072,7.958700,75.396000,-710.528015,-681.247986,48860.000000,2870.000000,5740.000000
4.572970,5.923342,9.177314,11.437321,5.444669,12.980664,4.262121,12.729515,8.946264,7.556042,4.420572,3.298297,15.889471,11.159212,6.765153,7.837405,81.984002,-736.880005,-706.623992,51800.000000,4760.000000,6020.000000
4.439432,5.884817,8.965679,11.328732,5.401034,12.955261,4.284887,12.434436,8.988575,7.600187,4.391041,3.310265,15.816756,11.083159,6.683472,7.766124,123.220001,-781.776032,-865.955994,52570.000000,3010.000000,7350.000000
3.971110,5.880951,8.408813,11.289386,5.405235,12.979127,4.155458,12.402646,8.452207,7.193032,4.288516,3.293525,15.538426,10.925519,6.659169,7.659339,85.399997,-778.115998,-778.115998,75530.000000,19180.000000,10360.000000
3.799773,5.766088,8.350564,11.190658,5.341252,12.940449,3.999361,12.254802,8.153593,6.909442,4.365102,3.332831,15.155942,10.899445,6.671659,7.653075,43.188003,-635.376007,-778.604004,82810.000000,24150.000000,10780.000000
3.717093,5.642640,8.131407,10.915641,5.259985,12.987397,4.000709,11.907137,8.380327,7.122285,4.487974,3.401969,15.287985,11.005592,6.758965,7.660175,121.268001,-722.484009,-882.304016,73640.000000,20160.000000,11480.000000
3.350271,5.633405,7.674407,10.823751,5.258547,13.016020,3.956493,11.867144,7.928828,6.806528,4.406739,3.401486,15.032383,10.843225,6.747480,7.579429,92.964002,-725.167999,-772.260010,94570.000000,27230.000000,17430.000000
3.237019,5.520630,7.696492,10.709306,5.167692,12.961468,3.790045,11.773825,8.200148,6.952924,4.605911,3.465575,15.153368,11.071750,6.882317,7.651527,60.024002,-435.784012,-748.348023,107940.000000,39760.000000,19740.000000
3.206619,5.378001,7.597143,10.406760,4.982375,12.882039,3.681881,11.438862,8.542969,7.251712,4.829905,3.570485,15.248809,11.190430,7.014457,7.645885,63.927999,-614.880005,-693.692017,73500.000000,22260.000000,12390.000000
2.999678,5.328621,7.289023,10.245743,4.958258,12.864542,3.678836,11.359087,8.317493,7.103948,4.768980,3.572406,15.157235,11.123272,7.013811,7.638623,112.972000,-681.980011,-810.812011,66920.000000,9800.000000,11690.000000
2.955860,5.327980,7.468552,10.252912,4.812507,12.577861,3.523581,11.300562,8.871283,7.471445,5.045504,3.654911,15.391917,11.353909,7.139625,7.646470,93.452003,-684.908020,-739.320007,81900.000000,20230.000000,15540.000000
2.954790,5.241909,7.502798,10.058328,4.564962,12.314263,3.300305,11.055251,9.099834,7.668513,5.236607,3.743342,15.371099,11.410019,7.217389,7.637288,81.495998,-657.335998,-735.660003,79660.000000,20370.000000,14700.000000
2.872769,5.148293,7.288847,9.843246,4.523860,12.214927,3.300864,10.902698,9.023929,7.623763,5.190723,3.728730,15.378616,11.407933,7.211341,7.633448,66.124003,-623.420013,-708.088012,73710.000000,17640.000000,13720.000000
2.880102,5.278361,7.556703,10.007404,4.399217,11.678304,3.202618,10.870813,9.476203,7.929569,5.418713,3.789389,15.481474,11.510115,7.251178,7.575396,71.492000,-674.171997,-652.700012,68810.000000,15190.000000,14210.000000
2.880166,5.224706,7.593076,9.894521,4.165736,11.374868,2.914024,10.733487,9.550326,7.995881,5.515558,3.834684,15.425694,11.526975,7.279061,7.577191,96.868000,-730.779999,-712.236023,67340.000000,9660.000000,14350.000000
2.873238,5.130349,7.419782,9.681505,4.177213,11.261638,2.919316,10.561701,9.507246,7.972219,5.469544,3.799866,15.449513,11.542737,7.270949,7.559076,58.072001,-640.255981,-694.423980,72240.000000,15540.000000,13860.000000
2.898302,5.278446,7.624632,9.862948,4.146017,10.759253,2.905000,10.565774,9.727984,8.120169,5.585478,3.822378,15.466505,11.561488,7.259664,7.515611,56.120001,-666.119995,-642.208008,60480.000000,10710.000000,9450.000000
2.896726,5.242796,7.612507,9.785282,3.988912,10.574597,2.638960,10.501519,9.709635,8.110135,5.611677,3.836003,15.421592,11.561166,7.273799,7.517891,87.840004,-679.783997,-727.852020,44240.000000,-4060.000000,6790.000000
2.942692,5.192323,7.478987,9.625603,4.096256,10.630703,2.681099,10.405982,9.618262,8.051807,5.563196,3.802062,15.441092,11.581720,7.280791,7.518871,60.024000,-659.287994,-634.399994,45150.000000,2730.000000,6510.000000
2.948325,5.272132,7.546485,9.716853,4.111753,10.397417,2.717215,10.427451,9.658965,8.081289,5.596605,3.808109,15.443756,11.578972,7.274366,7.505504,70.028002,-721.996002,-610.000030,35350.000000,-2240.000000,3990.000000
2.957259,5.282278,7.541500,9.692478,4.051408,10.379601,2.567112,10.406516,9.590324,8.026150,5.590434,3.804134,15.362156,11.540365,7.273783,7.481748,94.428001,-715.164002,-704.428009,31360.000000,-5670.000000,2170.000000
2.997874,5.260561,7.450496,9.590015,4.149458,10.617034,2.621841,10.370801,9.462788,7.941842,5.560521,3.794093,15.347416,11.543589,7.296733,7.479006,68.319999,-709.308014,-619.515992,32270.000000,-1330.000000,1190.000000
2.968683,5.282982,7.428122,9.614930,4.156256,10.575126,2.656746,10.386559,9.434268,7.921789,5.566053,3.798567,15.331286,11.532057,7.297193,7.469250,125.660004,-759.084015,-789.096009,24990.000000,-5320.000000,840.000000
2.976590,5.303537,7.451347,9.616168,4.115256,10.648411,2.600274,10.354894,9.336803,7.839315,5.538720,3.778715,15.136366,11.405980,7.267540,7.366512,89.060001,-692.472015,-739.075988,35000.000000,5950.000000,2870.000000
2.964617,5.281856,7.412935,9.578551,4.121522,10.824382,2.607648,10.338734,9.261419,7.778432,5.535865,3.763844,15.099373,11.395172,7.274978,7.340260,68.076000,-725.900024,-624.152008,31220.000000,4130.000000,2940.000000
2.934690,5.277726,7.392490,9.573664,4.116643,10.821711,2.625949,10.334254,9.238042,7.756735,5.541088,3.771045,15.029427,11.351340,7.267423,7.299162,75.884001,-706.380036,-661.484009,29680.000000,-1750.000000,3780.000000
2.920156,5.243475,7.408375,9.551443,4.023146,10.838398,2.583327,10.255500,9.156778,7.682501,5.488965,3.718077,14.762786,11.157874,7.205138,7.109803,110.775997,-715.408020,-784.704010,34300.000000,3990.000000,4130.000000
2.888350,5.238415,7.448861,9.592361,3.994865,10.815050,2.557122,10.278920,9.194330,7.679569,5.502703,3.662514,14.774602,11.173086,7.167343,7.080931,59.048001,-676.855988,-656.116028,34650.000000,7980.000000,5180.000000
2.885306,5.191615,7.441987,9.514904,3.973478,10.788002,2.565557,10.187108,9.186766,7.676908,5.509333,3.680697,14.639034,11.079229,7.158437,6.976558,114.680000,-708.576020,-781.531982,28490.000000,3360.000000,4550.000000
2.857235,5.137974,7.443588,9.503517,3.894646,10.685467,2.545724,10.111380,9.173536,7.643523,5.448230,3.591311,14.482562,10.946364,7.067739,6.801013,62.219999,-695.156006,-627.079987,32550.000000,6510.000000,5250.000000
2.849613,5.140381,7.493854,9.511691,3.885991,10.553064,2.528708,10.094484,9.261585,7.678568,5.467312,3.527047,14.478810,10.937754,6.983904,6.730299,114.680004,-685.395996,-736.636017,30800.000000,3360.000000,5460.000000
2.858662,5.059011,7.471613,9.362931,3.867157,10.473826,2.539147,9.891990,9.258836,7.686999,5.468850,3.550012,14.369573,10.858732,6.984511,6.617315,48.068001,-674.415986,-593.408020,34230.000000,7770.000000,5110.000000
2.844175,5.047013,7.445557,9.353993,3.871552,10.360728,2.565604,9.842761,9.281664,7.677742,5.426175,3.473153,14.296767,10.784434,6.859798,6.496558,96.380001,-721.264008,-740.540008,23240.000000,630.000000,3990.000000
2.841308,5.006688,7.393370,9.197083,3.840995,10.211698,2.555775,9.655317,9.325842,7.709493,5.447547,3.462100,14.151958,10.669928,6.751469,6.327630,62.707998,-701.988006,-672.708008,34930.000000,9940.000000,6440.000000
2.839424,4.942367,7.360283,9.050350,3.846701,10.099456,2.564386,9.412389,9.313414,7.701033,5.431899,3.470683,14.137198,10.660785,6.755916,6.297298,73.444000,-732.000000,-665.876007,29820.000000,6440.000000,5670.000000
2.836407,4.939662,7.278482,8.959325,3.841555,10.070404,2.590683,9.328607,9.281794,7.667185,5.411010,3.465298,13.856448,10.455277,6.586408,6.109496,62.464001,-684.907989,-602.436005,30660.000000,5810.000000,4970.000000
2.792337,4.861655,7.129310,8.687324,3.765907,9.887691,2.580651,8.984724,9.287358,7.688610,5.435084,3.510085,13.668386,10.308523,6.494498,5.933842,93.452003,-746.640015,-691.740021,21980.000000,210.000000,3290.000000
2.781291,4.828415,7.099324,8.579742,3.766737,9.798138,2.568626,8.777090,9.208159,7.614811,5.373313,3.485644,13.583676,10.252588,6.468967,5.918474,96.624000,-670.511993,-772.260010,25270.000000,980.000000,3990.000000
2.764250,4.806032,7.005591,8.437067,3.691845,9.791543,2.572237,8.650723,9.111828,7.544449,5.360535,3.536664,13.055277,9.884525,6.285418,5.644694,69.052002,-697.352020,-680.028015,24010.000000,10010.000000,3360.000000
2.677748,4.739050,6.859209,8.203166,3.609763,9.575766,2.577724,8.296638,9.121059,7.557427,5.372242,3.581754,12.956644,9.793561,6.223145,5.558359,72.468002,-710.040008,-644.648010,22050.000000,2380.000000,3010.000000
2.671521,4.723604,6.829815,8.136388,3.595719,9.522001,2.557566,8.181101,8.932622,7.392601,5.253865,3.512780,12.648962,9.571128,6.140384,5.430041,86.619999,-712.480011,-658.312011,22400.000000,3920.000000,2520.000000
2.637416,4.712589,6.811079,8.069677,3.524107,9.481975,2.583645,8.086541,8.879659,7.343207,5.254290,3.584846,12.211868,9.258317,6.012355,5.226589,75.396002,-724.436005,-643.915985,24220.000000,5040.000000,2870.000000
2.549621,4.668632,6.721455,7.939832,3.465691,9.292553,2.598802,7.845107,8.865598,7.313745,5.222452,3.571748,12.120239,9.158400,5.933988,5.153480,88.084003,-715.164002,-712.723999,21000.000000,2590.000000,1750.000000
2.547992,4.666525,6.673388,7.891404,3.466588,9.250608,2.607862,7.807776,8.675023,7.145567,5.108788,3.495778,11.805194,8.908921,5.837417,4.960227,77.104002,-672.220032,-669.780029,20440.000000,3710.000000,1470.000000
2.522328,4.663840,6.731327,7.911689,3.449258,9.217272,2.653991,7.775085,8.718528,7.146595,5.110531,3.564110,11.680497,8.795570,5.794359,4.908576,92.231999,-701.012024,-674.416015,15470.000000,-350.000000,770.000000
2.464722,4.630967,6.680301,7.847105,3.413156,9.091597,2.654849,7.632772,8.669360,7.074005,5.046709,3.480812,11.518287,8.637390,5.664983,4.758636,95.892002,-705.891998,-681.248016,16730.000000,-140.000000,1120.000000
2.454747,4.620473,6.598579,7.751334,3.402800,9.022536,2.670623,7.550055,8.629600,7.028450,5.009293,3.462777,11.479975,8.575220,5.628560,4.648745,86.864002,-715.895996,-673.684021,15610.000000,1260.000000,980.000000
2.455108,4.600293,6.670271,7.785300,3.405651,9.029151,2.682621,7.553574,8.682476,7.022747,4.984544,3.489690,11.479155,8.544955,5.615968,4.637007,79.788002,-704.916016,-660.507995,14350.000000,-1890.000000,280.000000
2.429574,4.582581,6.641844,7.737003,3.380085,8.957646,2.669296,7.428966,8.670776,6.986411,4.953961,3.401738,11.349987,8.421399,5.479071,4.476266,95.647999,-717.604004,-696.620026,12600.000000,-2660.000000,210.000000
2.411063,4.563155,6.564844,7.603946,3.307819,8.801927,2.641367,7.264006,8.731090,7.017972,4.970237,3.436743,11.363645,8.417624,5.462801,4.406970,73.932001,-698.572022,-655.384003,13510.000000,-1820.000000,140.000000
2.428701,4.540504,6.616248,7.632504,3.310897,8.821104,2.621398,7.291127,8.738860,6.981287,4.938637,3.422214,11.324145,8.376293,5.434453,4.361857,85.400002,-712.968018,-659.776001,8540.000000,-5670.000000,-420.000000
2.427312,4.551846,6.619752,7.606470,3.290618,8.764264,2.608695,7.197079,8.759685,6.985619,4.948620,3.387240,11.189761,8.270291,5.317621,4.236611,83.936001,-722.728027,-636.596008,8190.000000,-6440.000000,-490.000000
2.416261,4.559821,6.607276,7.550191,3.198428,8.491854,2.557024,7.085849,8.737916,6.932190,4.938779,3.406709,10.882265,8.065681,5.184040,4.067028,88.572002,-706.380005,-697.596009,6160.000000,-5250.000000,-840.000000
2.430408,4.552964,6.630307,7.579310,3.203308,8.468539,2.543066,7.124668,8.721931,6.896952,4.926851,3.387612,10.844685,8.037823,5.156707,4.028428,90.036003,-708.088013,-683.200012,3850.000000,-4830.000000,-700.000000
2.441749,4.581181,6.647736,7.588734,3.204689,8.396982,2.545203,7.118648,8.639575,6.817371,4.897715,3.374004,10.500500,7.797330,4.983020,3.876738,81.008002,-727.852020,-652.455994,3360.000000,-5110.000000,-420.000000
2.443037,4.596982,6.660945,7.609100,3.169272,8.061973,2.528302,7.125524,8.432205,6.602788,4.802089,3.332014,9.864030,7.360158,4.681336,3.616562,92.964001,-704.672028,-692.960022,3850.000000,-5250.000000,-70.000000
2.442544,4.604484,6.660463,7.633436,3.167230,7.982609,2.525004,7.141187,8.416826,6.585382,4.802044,3.323951,9.862697,7.352941,4.670531,3.597732,82.715999,-717.604004,-674.172028,630.000000,-4130.000000,-700.000000
2.437358,4.572714,6.586382,7.565753,3.189423,7.911908,2.543836,7.116255,8.105219,6.318481,4.662457,3.276262,9.255407,6.932559,4.380474,3.409198,95.892002,-698.816010,-757.131989,-210.000000,-4690.000000,-280.000000
2.443654,4.535661,6.538506,7.538479,3.208113,7.660052,2.560237,7.131544,7.763360,6.004167,4.479334,3.181427,8.552948,6.411616,4.008097,3.159821,69.295999,-709.308014,-658.312012,2520.000000,700.000000,490.000000
2.427101,4.554582,6.527317,7.551202,3.193106,7.573764,2.557303,7.095465,7.748672,5.996330,4.487776,3.186731,8.556172,6.408319,4.005475,3.143678,84.180001,-730.291992,-661.484009,-700.000000,-3990.000000,490.000000
2.369120,4.375117,6.236945,7.241180,3.175361,7.551823,2.561125,6.864513,7.200688,5.556365,4.234484,3.095032,7.866387,5.923728,3.682005,2.976788,101.016003,-710.772003,-735.660004,1400.000000,-2310.000000,840.000000
2.385434,4.291797,6.134093,7.133272,3.208727,7.529026,2.576766,6.824160,6.864334,5.268641,4.037925,3.002726,7.360739,5.502522,3.399230,2.817809,78.568000,-711.260010,-706.380035,280.000000,1610.000000,560.000000
2.333042,4.296595,6.082698,7.100958,3.153846,7.437574,2.561616,6.719322,6.828854,5.254025,4.054351,3.021126,7.337692,5.493802,3.402745,2.794813,81.495998,-711.503997,-714.919983,-350.000000,-70.000000,630.000000
2.222912,3.980381,5.574543,6.540902,3.043648,7.493123,2.512443,6.257799,6.205724,4.785580,3.775773,2.928238,6.869970,5.148890,3.219827,2.697864,74.664001,-713.212006,-687.835998,3080.000000,2940.000000,1820.000000
2.249028,3.903147,5.481448,6.424059,3.069365,7.632071,2.517560,6.199290,6.003641,4.629079,3.653404,2.886074,6.660471,4.938423,3.101656,2.640985,81.740002,-675.391998,-711.016022,3290.000000,3570.000000,2030.000000
2.135967,3.859395,5.348170,6.318285,2.932483,7.459428,2.463069,6.023694,5.959666,4.613437,3.665324,2.903638,6.628270,4.918828,3.114750,2.606551,75.884003,-695.156037,-697.351990,490.000000,4340.000000,1680.000000
2.025304,3.539391,4.803412,5.730881,2.752065,7.540810,2.362339,5.514122,5.558617,4.337921,3.498545,2.859628,6.483995,4.809875,3.100887,2.572263,78.568000,-706.136017,-687.592011,350.000000,3010.000000,1750.000000
2.036851,3.486557,4.756063,5.662223,2.755023,7.625403,2.361067,5.490861,5.497655,4.298141,3.442896,2.849007,6.435377,4.733963,3.067520,2.557399,78.568001,-705.648011,-699.548035,1050.000000,4340.000000,1890.000000
1.895022,3.417371,4.599523,5.542007,2.552295,7.338183,2.263348,5.304563,5.498976,4.306408,3.445265,2.856086,6.366250,4.669871,3.047841,2.517636,76.371997,-705.403992,-691.984009,490.000000,3920.000000,1540.000000
1.836822,3.236320,4.277261,5.216535,2.371495,7.362571,2.149163,5.013848,5.410519,4.252813,3.410468,2.854055,6.340813,4.666645,3.065590,2.510588,75.639999,-702.963990,-692.228028,-490.000000,3010.000000,1190.000000
1.821643,3.183536,4.251589,5.166865,2.358891,7.298571,2.151778,5.028528,5.370652,4.219929,3.349414,2.839092,6.294255,4.590648,3.028010,2.493877,76.372002,-697.840027,-693.692017,-980.000000,3500.000000,1050.000000
1.734216,3.151649,4.194457,5.131939,2.183098,6.951249,2.056596,4.956025,5.367097,4.202856,3.330904,2.833769,6.112943,4.436192,2.924618,2.443872,76.372002,-702.476013,-695.888001,-2100.000000,2940.000000,560.000000
1.725487,3.104118,4.137974,5.083584,2.072032,6.933170,1.973483,4.935865,5.398490,4.218530,3.334584,2.834603,6.105974,4.438698,2.920772,2.438146,73.931999,-699.792023,-691.496002,-2940.000000,2660.000000,-140.000000
1.713848,3.053962,4.101048,5.018421,2.073239,6.775562,1.989557,4.949861,5.300304,4.135602,3.254121,2.813643,5.973603,4.301139,2.841747,2.404990,72.224003,-706.867981,-683.688019,-4270.000000,1890.000000,-910.000000
1.712683,3.070005,4.131371,5.056611,2.030260,6.526628,1.960488,5.026942,5.223452,4.051698,3.210900,2.801872,5.716570,4.085479,2.702464,2.330720,72.468003,-710.283997,-683.444000,-5110.000000,1050.000000,-1750.000000
1.716697,3.057756,4.150149,5.075837,2.006448,6.530127,1.929496,5.050833,5.245008,4.052956,3.199135,2.785650,5.724770,4.082982,2.689277,2.307135,74.176003,-716.872009,-685.639984,-5810.000000,420.000000,-2660.000000
1.732675,3.053170,4.137591,5.053202,2.039666,6.392388,1.950788,5.110375,5.124118,3.955164,3.148999,2.776563,5.530403,3.922186,2.597344,2.264573,73.688000,-721.264007,-686.615997,-6300.000000,-140.000000,-3500.000000
1.784922,3.084209,4.165633,5.083548,2.136576,6.384062,2.014622,5.228754,5.019394,3.856738,3.108879,2.776390,5.345971,3.758863,2.523577,2.178407,76.860001,-721.020019,-686.859985,-6230.000000,-280.000000,-4060.000000
1.784157,3.065461,4.171443,5.096044,2.136536,6.380167,2.010525,5.214090,5.031444,3.843438,3.091412,2.743044,5.346405,3.753546,2.489264,2.130291,77.591999,-719.800018,-688.567993,-6020.000000,-630.000000,-4410.000000
1.824498,3.122200,4.226682,5.162305,2.198627,6.369230,2.025218,5.378813,4.974183,3.806120,3.106319,2.760618,5.221882,3.670003,2.460186,2.111784,80.032002,-719.067993,-686.860016,-5530.000000,-490.000000,-4970.000000
1.900913,3.138804,4.233123,5.162223,2.332613,6.471857,2.140651,5.447387,4.914493,3.741447,3.081294,2.762388,5.136869,3.587711,2.430448,2.020712,82.472000,-718.092011,-691.007995,-5810.000000,-840.000000,-5390.000000
1.892904,3.134339,4.264493,5.230956,2.318496,6.445242,2.126407,5.490435,4.953673,3.742682,3.080505,2.729768,5.132771,3.588087,2.391772,1.989820,85.888004,-721.507996,-690.032013,-5460.000000,-1260.000000,-5880.000000
1.948196,3.193196,4.342483,5.309876,2.391832,6.505351,2.140324,5.679728,4.946327,3.745288,3.103799,2.745522,5.104989,3.571583,2.397603,1.993150,89.548004,-722.240020,-695.643982,-4620.000000,-1540.000000,-5880.000000
2.009800,3.182024,4.349785,5.328383,2.486565,6.521340,2.244643,5.710556,4.946565,3.704352,3.078128,2.712387,5.073575,3.531290,2.337637,1.909200,91.500000,-721.752014,-703.208008,-3360.000000,-770.000000,-5810.000000
2.004283,3.201803,4.414583,5.442893,2.473653,6.520838,2.216973,5.819311,4.994553,3.721996,3.087785,2.701065,5.084218,3.540333,2.330071,1.939894,93.696003,-720.044006,-711.016022,-1960.000000,-350.000000,-5460.000000
2.040723,3.188444,4.427553,5.448037,2.527365,6.525838,2.237812,5.906502,4.980073,3.693901,3.050894,2.656140,5.116462,3.538461,2.288409,1.920613,97.355999,-713.455993,-707.111999,140.000000,770.000000,-4900.000000
2.057779,3.160500,4.448496,5.512698,2.560633,6.460134,2.286965,5.935256,5.022339,3.671486,3.019791,2.581675,5.128054,3.529229,2.212307,1.867316,94.427998,-713.455993,-700.524018,1330.000000,1050.000000,-4550.000000
2.058571,3.175978,4.491091,5.577524,2.561953,6.479600,2.267725,5.997230,5.041906,3.682600,3.019858,2.586797,5.157986,3.546560,2.231388,1.933316,93.208000,-710.040008,-697.352020,1750.000000,350.000000,-4130.000000
2.044441,3.103438,4.444929,5.551559,2.565811,6.434164,2.270990,5.985427,5.050354,3.651045,2.948361,2.466059,5.242981,3.574180,2.158129,1.880879,90.768001,-702.476013,-694.668030,1540.000000,700.000000,-4340.000000
2.027034,3.071289,4.459489,5.599324,2.560033,6.352108,2.265676,5.983423,5.076052,3.631006,2.908228,2.381615,5.249933,3.567065,2.103389,1.855563,92.964001,-704.916015,-688.568023,840.000000,210.000000,-4550.000000
2.024149,3.071418,4.465977,5.606825,2.561475,6.361968,2.259934,5.964149,5.099755,3.656661,2.913343,2.382236,5.318059,3.619984,2.136381,1.907340,90.035999,-705.160004,-684.908020,140.000000,-630.000000,-4760.000000
1.978060,3.025223,4.436999,5.626252,2.530116,6.328420,2.219456,5.952192,5.140599,3.674246,2.878423,2.237834,5.385491,3.667995,2.089929,1.860037,92.964001,-709.308014,-690.519989,-630.000000,-1400.000000,-4830.000000
1.953700,2.985929,4.413201,5.592397,2.518780,6.242210,2.201804,5.881389,5.107488,3.632664,2.821265,2.175006,5.362262,3.640043,2.056420,1.841153,96.868000,-707.355987,-696.131989,-1190.000000,-1680.000000,-4620.000000
1.948866,3.010228,4.447654,5.646771,2.511177,6.236608,2.189601,5.874401,5.175715,3.704165,2.860617,2.155647,5.432285,3.713597,2.078102,1.867752,100.528000,-709.064026,-697.352020,-1750.000000,-1470.000000,-4130.000000
1.914765,3.015563,4.429671,5.671253,2.488735,6.221301,2.132649,5.905166,5.158607,3.720566,2.861466,2.053479,5.403959,3.723752,2.055842,1.847524,99.308003,-712.723999,-701.012024,-1540.000000,-840.000000,-3570.000000
1.898476,2.986179,4.398501,5.620183,2.483628,6.144486,2.131581,5.809983,5.110851,3.674212,2.800698,2.018669,5.367218,3.676761,2.021030,1.824019,99.064003,-717.847992,-696.619995,-1260.000000,70.000000,-2800.000000
1.901746,3.043863,4.475566,5.747077,2.475326,6.117976,2.104500,5.863031,5.174399,3.748747,2.851765,1.970195,5.368850,3.710970,1.992121,1.834810,97.600002,-719.556000,-691.984009,-840.000000,840.000000,-1960.000000
1.886330,3.047531,4.401811,5.700579,2.474150,6.132905,2.078715,5.892180,5.064455,3.712548,2.844628,1.932411,5.280650,3.675557,1.981661,1.830305,93.208000,-721.019989,-686.616028,-280.000000,1610.000000,-1470.000000
1.878722,3.058935,4.433729,5.739801,2.465583,6.082664,2.076520,5.844003,5.063326,3.693555,2.808622,1.910003,5.221704,3.608958,1.919693,1.803273,92.964001,-718.092011,-685.640015,-350.000000,1890.000000,-1120.000000
1.883010,3.096400,4.471102,5.829189,2.462329,6.051252,2.054876,5.889080,5.061368,3.716673,2.829412,1.841490,5.176758,3.600421,1.858232,1.810458,89.060001,-720.287994,-686.859985,-420.000000,2170.000000,-630.000000
1.870915,3.078671,4.369234,5.740417,2.463022,6.127831,2.058709,5.878240,4.947567,3.666780,2.815775,1.855574,5.092913,3.550843,1.857534,1.803243,89.304001,-718.579986,-686.372010,-560.000000,2170.000000,-420.000000
1.864896,3.108633,4.441662,5.838695,2.440855,6.106158,2.036734,5.872866,4.974277,3.661996,2.807757,1.827781,5.000302,3.474707,1.771249,1.779351,87.596001,-715.652008,-686.615998,-560.000000,2660.000000,280.000000
1.863445,3.097681,4.402443,5.827714,2.441922,6.102218,2.030697,5.864825,4.927422,3.644844,2.797895,1.771994,4.979014,3.464287,1.729768,1.787626,87.108002,-711.748016,-688.324005,-700.000000,3430.000000,910.000000
1.852982,3.071362,4.340768,5.754707,2.434032,6.246118,2.032925,5.810220,4.880362,3.622827,2.796460,1.808590,4.896477,3.418174,1.724376,1.770709,86.376003,-712.967987,-688.324005,-910.000000,3990.000000,1330.000000
1.842750,3.073128,4.367226,5.807996,2.405359,6.239200,2.009707,5.805530,4.875027,3.598639,2.793573,1.777724,4.798827,3.358472,1.654996,1.759862,86.132000,-710.528015,-690.764007,-1400.000000,4410.000000,1680.000000
1.839904,3.035606,4.306830,5.747503,2.403500,6.271723,1.996819,5.775482,4.835736,3.576411,2.774353,1.755876,4.798748,3.355970,1.644757,1.765866,83.936001,-709.307983,-690.276032,-1750.000000,4900.000000,1960.000000
1.837182,3.007233,4.289460,5.695525,2.407302,6.440059,2.007348,5.699160,4.832497,3.572112,2.774640,1.786252,4.714845,3.326342,1.638783,1.754143,81.252003,-704.916015,-690.031982,-2800.000000,4620.000000,1960.000000
1.830803,2.996277,4.271370,5.693757,2.393675,6.428140,2.003445,5.678961,4.795445,3.537191,2.767387,1.776211,4.641336,3.289555,1.615069,1.757296,79.787999,-705.160004,-689.787994,-4410.000000,4270.000000,1890.000000
1.821188,2.950577,4.228398,5.637106,2.376675,6.446526,1.974245,5.660152,4.772877,3.516043,2.740518,1.776926,4.638791,3.289320,1.625570,1.773522,78.812001,-707.600006,-691.496003,-5530.000000,3570.000000,1680.000000
1.845194,2.953113,4.262011,5.626141,2.442901,6.574206,2.030962,5.618649,4.789152,3.522379,2.727128,1.786948,4.592118,3.281017,1.628137,1.778325,73.931999,-710.772003,-694.667999,-7070.000000,3080.000000,1540.000000
1.845689,2.986203,4.270852,5.638115,2.444181,6.540664,2.035873,5.577036,4.776486,3.520895,2.731343,1.807397,4.556269,3.262122,1.645678,1.786521,76.127998,-714.920013,-693.448028,-8050.000000,2660.000000,1330.000000
1.829138,2.934633,4.234276,5.593288,2.429520,6.453630,2.023563,5.578061,4.751488,3.489023,2.677243,1.800536,4.570509,3.263516,1.659494,1.830023,71.736004,-718.092011,-694.667999,-8470.000000,2520.000000,980.000000
1.894542,3.011701,4.357126,5.679912,2.574084,6.551234,2.114651,5.623511,4.802323,3.519029,2.664749,1.788211,4.574935,3.263629,1.657024,1.839765,70.760002,-719.800018,-693.692016,-8540.000000,2240.000000,490.000000
1.885911,3.088682,4.401734,5.731515,2.560592,6.452722,2.109806,5.554605,4.841808,3.567366,2.685535,1.818599,4.589106,3.266760,1.690999,1.843056,72.712001,-726.631989,-692.471985,-8260.000000,2170.000000,210.000000
1.886178,3.040481,4.372699,5.698727,2.589288,6.283967,2.134870,5.583357,4.799077,3.514951,2.600385,1.790475,4.615959,3.255744,1.683502,1.911669,77.347999,-724.436036,-707.600006,-7560.000000,2030.000000,-350.000000
1.962682,3.176132,4.556580,5.882181,2.736241,6.392286,2.206226,5.697871,4.891793,3.575759,2.622308,1.773619,4.651254,3.266711,1.676559,1.916813,73.200005,-713.700012,-701.500000,-6090.000000,3430.000000,-770.000000
1.939267,3.240970,4.583573,5.926690,2.703757,6.215395,2.193590,5.616125,4.943937,3.635835,2.635026,1.789967,4.701342,3.285541,1.700025,1.917761,77.104000,-721.996002,-701.500000,-5950.000000,2520.000000,-1330.000000
1.965242,3.213740,4.576909,5.911355,2.767973,6.122286,2.230645,5.667337,4.892029,3.578754,2.562476,1.764816,4.711869,3.264666,1.683491,1.989997,78.324002,-716.140015,-700.524017,-4410.000000,1960.000000,-2030.000000
2.008215,3.350485,4.732884,6.110045,2.847857,6.194212,2.259700,5.774566,5.000548,3.658843,2.619761,1.762396,4.766036,3.301223,1.691043,1.997566,81.252003,-716.140015,-700.768005,-3710.000000,2310.000000,-2660.000000
1.986034,3.368700,4.714664,6.102957,2.824012,6.040873,2.252544,5.707352,5.010341,3.683820,2.609364,1.761275,4.805708,3.318562,1.701645,2.002637,85.644001,-715.652008,-700.523987,-3080.000000,1820.000000,-3500.000000
2.014583,3.374488,4.732854,6.112819,2.877158,6.063084,2.270047,5.750502,4.983596,3.658897,2.592732,1.757748,4.804452,3.313621,1.702460,2.049028,85.644001,-712.968017,-697.596008,-2800.000000,1400.000000,-4060.000000
2.017403,3.459002,4.805483,6.235487,2.895736,6.055588,2.273454,5.782171,5.054429,3.720611,2.638915,1.760068,4.850181,3.360243,1.729626,2.065754,87.840000,-711.260010,-698.328033,-2660.000000,630.000000,-4550.000000
2.005657,3.451511,4.766305,6.201706,2.889928,6.007556,2.274796,5.747400,5.027843,3.714351,2.631050,1.752875,4.851405,3.368135,1.738045,2.069390,91.012001,-709.796020,-697.596008,-2380.000000,210.000000,-4830.000000
2.017486,3.467726,4.795070,6.225627,2.907933,6.026032,2.269280,5.752245,5.034459,3.721165,2.636369,1.745006,4.853430,3.375951,1.743983,2.080585,93.940002,-711.992005,-700.524017,-2100.000000,70.000000,-5110.000000
1.992622,3.482444,4.782928,6.237860,2.889040,5.998179,2.257117,5.686076,5.032661,3.734738,2.644800,1.740626,4.845626,3.398202,1.786142,2.100907,95.159999,-707.355987,-701.256012,-1330.000000,0.000000,-5390.000000
1.985898,3.501110,4.769555,6.249655,2.885833,6.002973,2.255753,5.694973,5.023872,3.739996,2.669340,1.744971,4.828530,3.401436,1.798665,2.104289,96.380001,-706.380005,-701.500030,-1400.000000,-490.000000,-5600.000000
1.977287,3.476590,4.764884,6.235559,2.870295,5.989098,2.237178,5.632109,5.021441,3.734140,2.637807,1.713362,4.822856,3.395614,1.795333,2.100370,94.916000,-704.183990,-697.840027,-1820.000000,-980.000000,-5810.000000
1.926354,3.467102,4.716345,6.195639,2.806037,5.964198,2.184422,5.506045,4.974513,3.722177,2.642315,1.723427,4.748562,3.382747,1.853607,2.119734,97.600003,-701.256012,-699.792023,-2170.000000,-1540.000000,-5880.000000
1.920876,3.528545,4.737652,6.261239,2.802449,5.974086,2.175502,5.538095,5.003238,3.760551,2.696467,1.754037,4.753912,3.397900,1.882075,2.133824,99.796002,-700.524018,-701.011994,-2730.000000,-2030.000000,-5880.000000
1.887296,3.454112,4.672640,6.187750,2.743168,5.950260,2.133686,5.392338,4.969001,3.727598,2.637849,1.718839,4.720842,3.371029,1.879169,2.132024,99.307998,-701.500000,-701.256012,-3500.000000,-2450.000000,-5810.000000
1.815977,3.476410,4.652650,6.173217,2.635299,5.872297,2.023487,5.284513,4.924333,3.727191,2.664666,1.757233,4.617811,3.339474,1.944259,2.149719,100.284000,-704.428009,-699.304016,-3780.000000,-2590.000000,-5530.000000
1.813257,3.540131,4.664666,6.215549,2.642992,5.878340,2.018317,5.273305,4.957579,3.775126,2.719378,1.796105,4.652283,3.371000,1.981499,2.157590,99.551998,-703.940002,-701.743988,-4550.000000,-2590.000000,-5390.000000
1.753083,3.473459,4.587188,6.150667,2.537025,5.799464,1.944041,5.107401,4.921311,3.742609,2.680820,1.776727,4.585982,3.328669,1.978527,2.152105,100.772000,-706.380036,-704.428009,-4970.000000,-2380.000000,-4830.000000
1.820385,3.515058,4.637249,5.386994,2.690150,3.611536,1.829700,3.899626,4.568982,3.789607,2.330625,1.565518,4.606599,3.113100,1.601246,2.338552,100.528000,-688.567993,-711.992004,-9100.000000,-3640.000000,-5460.000000
1.815232,3.517141,4.627075,5.388161,2.690702,3.576562,1.853015,3.850870,4.576880,3.800725,2.337812,1.568125,4.601668,3.109430,1.595572,2.309895,101.992004,-691.007996,-713.455994,-9520.000000,-4200.000000,-4760.000000
1.816435,3.514494,4.615249,5.372603,2.699477,3.576461,1.864595,3.852739,4.515004,3.750426,2.309817,1.556341,4.501732,3.036578,1.575939,2.267005,101.992004,-687.591980,-708.575989,-9800.000000,-3500.000000,-4480.000000
1.808994,3.511493,4.584974,5.338345,2.695312,3.541767,1.866145,3.781432,4.486944,3.729903,2.291412,1.556896,4.518868,3.054851,1.575946,2.292085,100.528000,-694.911987,-703.695984,-11060.000000,-3640.000000,-4060.000000
1.821783,3.511707,4.586835,5.341107,2.713881,3.524013,1.911125,3.751797,4.472367,3.713864,2.286682,1.541238,4.448942,3.004397,1.546784,2.230927,104.431999,-702.720032,-709.552002,-11060.000000,-3920.000000,-3500.000000
1.822517,3.505235,4.567295,5.320610,2.734395,3.523764,1.943174,3.756116,4.418721,3.664503,2.258474,1.523243,4.399712,2.968945,1.520317,2.203881,97.112000,-673.927979,-734.927979,-8680.000000,-1960.000000,-2660.000000
1.825455,3.504818,4.559668,5.312307,2.728272,3.517904,1.942845,3.770530,4.446501,3.679702,2.275772,1.524311,4.492365,3.054831,1.523860,2.258801,90.767998,-689.056030,-719.312012,-8540.000000,840.000000,-1680.000000
1.850407,3.495508,4.557224,5.298057,2.760702,3.535113,1.987561,3.783605,4.387679,3.622154,2.246429,1.495165,4.377736,2.971070,1.482835,2.200702,96.136002,-693.447998,-725.656006,-8260.000000,-1400.000000,-1400.000000
1.845507,3.477304,4.526665,5.268221,2.775022,3.531023,2.012936,3.782803,4.342650,3.573566,2.215165,1.466473,4.374302,2.968578,1.449228,2.195264,96.136002,-685.151978,-723.216003,-6020.000000,980.000000,-560.000000
1.856933,3.478090,4.532866,5.265103,2.775059,3.543190,2.008547,3.826176,4.379396,3.592900,2.238672,1.467631,4.466516,3.054810,1.453092,2.246375,92.232002,-685.151978,-720.288025,-6300.000000,840.000000,-560.000000
1.863583,3.431982,4.477965,5.175994,2.792479,3.539078,2.026013,3.799965,4.243566,3.470207,2.156774,1.424675,4.324339,2.949566,1.408288,2.209229,87.351997,-689.056030,-711.504028,-6300.000000,700.000000,-420.000000
1.859745,3.411574,4.457125,5.151285,2.796274,3.536528,2.033792,3.798188,4.215452,3.431966,2.130957,1.390653,4.327012,2.950726,1.371818,2.206147,86.375999,-696.864014,-707.112000,-6720.000000,0.000000,-700.000000
1.859605,3.390699,4.424352,5.088036,2.794995,3.509667,2.030124,3.755807,4.198246,3.412548,2.118915,1.390547,4.364930,2.986989,1.371816,2.221955,78.568001,-672.463989,-723.216003,-5880.000000,420.000000,-420.000000
1.845337,3.305386,4.304533,4.900453,2.793332,3.461103,2.024324,3.659439,3.979652,3.227033,1.993324,1.358592,4.200079,2.871998,1.344849,2.207040,81.496002,-684.664001,-714.919983,-7560.000000,700.000000,-840.000000
1.846589,3.300750,4.310706,4.898756,2.790721,3.460100,2.022200,3.659278,3.979513,3.212473,1.983072,1.328925,4.182851,2.856384,1.310284,2.183394,83.447998,-689.544006,-712.479980,-7980.000000,-980.000000,-980.000000
1.823613,3.235816,4.185459,4.724270,2.775903,3.378711,2.020413,3.528385,3.859868,3.127143,1.926723,1.337991,4.160203,2.845756,1.315710,2.176824,81.496002,-684.176025,-711.504028,-7700.000000,0.000000,-1260.000000
1.816348,3.156161,4.062908,4.513506,2.778925,3.340598,2.009843,3.445744,3.611561,2.927140,1.812389,1.337599,3.980177,2.732661,1.312557,2.169094,78.568001,-688.567993,-710.528015,-9100.000000,-280.000000,-2100.000000
1.814050,3.168540,4.077877,4.526719,2.771315,3.328606,2.007745,3.434634,3.629091,2.933990,1.814758,1.314502,3.960104,2.713959,1.281854,2.133500,77.104004,-689.056030,-704.671997,-9940.000000,-840.000000,-2660.000000
1.790587,3.093717,3.910443,4.309042,2.758232,3.260137,2.003445,3.333656,3.428434,2.805435,1.749570,1.328176,3.887636,2.677527,1.290615,2.130268,75.639999,-693.447998,-711.015991,-11200.000000,-1540.000000,-3360.000000
1.799814,3.063242,3.851424,4.182671,2.774725,3.266095,1.997394,3.317615,3.242549,2.660189,1.688003,1.340850,3.741618,2.591879,1.290171,2.118621,76.615997,-676.367981,-716.872009,-11060.000000,-1540.000000,-3500.000000
1.803551,3.091676,3.870518,4.206299,2.785981,3.265824,2.009084,3.306408,3.251653,2.671472,1.693689,1.319139,3.740213,2.589967,1.264012,2.104753,76.615997,-682.223999,-714.432007,-12460.000000,-840.000000,-4060.000000
1.798761,3.064719,3.781993,4.088836,2.785613,3.252264,1.992083,3.285348,3.089187,2.580672,1.661444,1.318404,3.649819,2.545780,1.263214,2.104655,78.568001,-685.151978,-710.528015,-13440.000000,-2660.000000,-4760.000000
1.816433,3.080798,3.785212,4.071448,2.815064,3.293149,2.002328,3.317471,3.016348,2.523798,1.645748,1.327079,3.610200,2.523717,1.258842,2.112184,78.568001,-683.687988,-708.088013,-14000.000000,-2100.000000,-5320.000000
1.832610,3.109902,3.820100,4.108965,2.841146,3.321543,2.011612,3.334441,3.017423,2.534013,1.654671,1.303153,3.605259,2.523442,1.237706,2.118335,77.104004,-684.176025,-706.135986,-15540.000000,-2660.000000,-6020.000000
1.831175,3.109603,3.816046,4.102451,2.832112,3.324757,1.979610,3.341136,2.979487,2.521923,1.653288,1.285447,3.564478,2.505410,1.229690,2.126072,76.615997,-688.080017,-705.160034,-16520.000000,-2800.000000,-6580.000000
1.852040,3.147167,3.845434,4.142324,2.868161,3.383584,2.001223,3.400895,2.974183,2.519326,1.659261,1.293844,3.597581,2.525190,1.229617,2.154874,83.936005,-689.544006,-717.848022,-18060.000000,-3360.000000,-7280.000000
1.835737,3.108586,3.825165,4.125547,2.827246,3.364293,1.955311,3.411674,2.977350,2.521867,1.661248,1.272117,3.566455,2.508244,1.220362,2.145923,81.496002,-680.760010,-702.720032,-18200.000000,-2660.000000,-7280.000000
1.824683,3.065977,3.804306,4.109496,2.803759,3.361738,1.924949,3.420282,2.970134,2.505303,1.648414,1.236058,3.581752,2.522763,1.199645,2.172676,83.936005,-684.176025,-714.919983,-19740.000000,-3220.000000,-7840.000000
1.830282,3.102559,3.830174,4.151980,2.807570,3.383264,1.921891,3.447025,2.970170,2.511629,1.668518,1.256553,3.551562,2.504949,1.202655,2.159783,86.375999,-684.664001,-710.039978,-20580.000000,-3360.000000,-8120.000000
1.734902,2.931488,3.646893,3.981531,2.638469,3.230959,1.807258,3.374749,2.940640,2.474530,1.634670,1.242988,3.518712,2.488270,1.211649,2.132288,87.351997,-685.151978,-711.015991,-21000.000000,-3080.000000,-8120.000000
1.729860,2.831914,3.576204,3.896923,2.630009,3.246006,1.798271,3.398463,2.841801,2.364560,1.586799,1.180538,3.498292,2.482447,1.155356,2.152015,90.279999,-682.712036,-711.992004,-21980.000000,-2660.000000,-8400.000000
1.697089,2.845901,3.564307,3.901873,2.559426,3.163217,1.756518,3.320995,2.840506,2.371600,1.622720,1.224201,3.361727,2.407102,1.162073,2.064488,88.328003,-678.807983,-713.944031,-22540.000000,-2380.000000,-8540.000000
1.545802,2.568830,3.222876,3.578981,2.316308,2.904525,1.634487,3.155412,2.740099,2.272585,1.541505,1.212596,3.351389,2.406424,1.179377,2.041115,90.767998,-677.832031,-714.919983,-23380.000000,-2520.000000,-8400.000000
1.566057,2.459450,3.157744,3.466795,2.341080,2.954853,1.649234,3.214769,2.581815,2.105318,1.493792,1.147967,3.259412,2.360726,1.102621,2.029240,95.648003,-674.416016,-715.408020,-24360.000000,-2800.000000,-8260.000000
1.498419,2.438818,3.081807,3.418337,2.209469,2.778890,1.604094,3.049682,2.591803,2.121716,1.535739,1.203808,3.127358,2.301190,1.119093,1.933973,96.624001,-675.880005,-716.872009,-25060.000000,-3220.000000,-8120.000000
1.367875,2.170045,2.726018,3.067676,2.013612,2.536169,1.539453,2.877192,2.455845,1.999247,1.446960,1.190475,3.127924,2.304202,1.127980,1.913567,99.552002,-674.903992,-718.335999,-25900.000000,-3780.000000,-7980.000000
1.402898,2.105302,2.711872,2.995731,2.045702,2.601499,1.557428,2.974098,2.374345,1.905953,1.452377,1.169963,3.069141,2.287945,1.090912,1.906775,101.503998,-672.463989,-715.408020,-26880.000000,-3920.000000,-7840.000000
1.334368,2.062606,2.589847,2.913024,1.921827,2.424590,1.538065,2.817140,2.380898,1.922138,1.477411,1.207700,3.038124,2.292843,1.109502,1.874114,101.503998,-671.488037,-718.824036,-27720.000000,-4060.000000,-7560.000000
1.270990,1.909088,2.370505,2.678666,1.831286,2.283191,1.524728,2.714901,2.298533,1.854842,1.434340,1.202363,3.037673,2.291477,1.109991,1.843054,103.944000,-672.952026,-716.872009,-28140.000000,-4200.000000,-7420.000000
1.291469,1.899130,2.384794,2.669435,1.840750,2.327374,1.527831,2.804915,2.319309,1.871972,1.478143,1.223090,3.068731,2.332075,1.126077,1.869403,107.848000,-670.512024,-724.679993,-28840.000000,-4480.000000,-7140.000000
1.250729,1.857081,2.271423,2.580952,1.776223,2.224664,1.525117,2.717201,2.298551,1.866036,1.478019,1.233918,3.086327,2.355245,1.133211,1.871700,101.015999,-669.536011,-706.135986,-29540.000000,-4200.000000,-6720.000000
1.233497,1.817455,2.199694,2.496135,1.753735,2.166882,1.526877,2.667105,2.285473,1.862712,1.476534,1.238306,3.087891,2.355451,1.133159,1.843067,114.680000,-672.952026,-735.903992,-31920.000000,-5880.000000,-6580.000000
1.235833,1.818621,2.198526,2.502660,1.750805,2.184220,1.523178,2.715810,2.294514,1.875483,1.496543,1.248943,3.102506,2.373176,1.141677,1.851894,107.848000,-656.359985,-719.312012,-31360.000000,-4340.000000,-6160.000000
1.225747,1.789395,2.137790,2.437529,1.739270,2.157068,1.525178,2.694148,2.253410,1.846375,1.481491,1.248230,3.097342,2.372071,1.141591,1.851748,111.751999,-662.216003,-726.143982,-33880.000000,-6440.000000,-6020.000000
1.225568,1.789333,2.131830,2.429165,1.740950,2.145718,1.527678,2.676421,2.254808,1.849779,1.483502,1.246925,3.095335,2.370069,1.136433,1.838809,107.360001,-660.752014,-721.752014,-34580.000000,-7140.000000,-5740.000000
1.226301,1.774089,2.123865,2.419322,1.742555,2.156375,1.527537,2.694669,2.208329,1.797359,1.458783,1.220786,3.037830,2.330081,1.103843,1.811182,106.872002,-657.335999,-714.919983,-36120.000000,-7280.000000,-5460.000000
1.242016,1.775728,2.151493,2.433845,1.763259,2.198623,1.529326,2.737849,2.178955,1.766310,1.444428,1.219599,3.001079,2.305414,1.106050,1.817127,109.312004,-662.216003,-714.432007,-38920.000000,-8820.000000,-5460.000000
1.246495,1.767561,2.155614,2.432405,1.767456,2.210674,1.530350,2.757201,2.177770,1.758730,1.441208,1.205895,2.998678,2.303466,1.093274,1.814633,107.848000,-662.216003,-713.455994,-40320.000000,-9240.000000,-5320.000000
1.261132,1.784182,2.218466,2.473065,1.785650,2.244254,1.526192,2.771879,2.150640,1.706488,1.411044,1.170619,2.937162,2.261443,1.055532,1.806542,105.896004,-666.608032,-715.895996,-42280.000000,-9660.000000,-5040.000000
1.303323,1.840530,2.352388,2.606319,1.828659,2.350293,1.522316,2.879243,2.181041,1.716378,1.422394,1.168381,2.877069,2.219721,1.054359,1.807432,105.896004,-667.096008,-717.848022,-43960.000000,-10080.000000,-4620.000000
1.302988,1.825726,2.352689,2.597935,1.828113,2.356069,1.522103,2.901589,2.184575,1.717553,1.426026,1.157552,2.878028,2.222177,1.047214,1.807100,101.015999,-667.583984,-718.824036,-45360.000000,-10220.000000,-4480.000000
1.348627,1.932184,2.541232,2.762320,1.886096,2.454648,1.509822,2.960366,2.252118,1.752921,1.444895,1.147363,2.858538,2.210824,1.036095,1.827543,99.064003,-673.927979,-718.824036,-46480.000000,-9940.000000,-4060.000000
1.405458,2.034414,2.727771,2.963942,1.929567,2.581420,1.492989,3.092641,2.369351,1.848363,1.508937,1.156211,2.802559,2.172267,1.038340,1.805835,97.599998,-677.343994,-715.408020,-46760.000000,-9940.000000,-3780.000000
1.401392,2.026919,2.729367,2.961221,1.938313,2.581015,1.499321,3.086593,2.351040,1.845510,1.506332,1.157496,2.763000,2.141005,1.042370,1.789854,95.648003,-674.903992,-715.895996,-47320.000000,-9100.000000,-3080.000000
1.475517,2.184962,2.974554,3.193491,2.028058,2.740607,1.487297,3.224100,2.496879,1.963060,1.584004,1.173255,2.772183,2.146800,1.048527,1.795325,94.183998,-675.392029,-714.919983,-47880.000000,-8400.000000,-2940.000000
1.523065,2.296712,3.134856,3.384192,2.046777,2.839438,1.455341,3.338505,2.656205,2.121769,1.689933,1.221773,2.751704,2.138164,1.089641,1.773122,95.648003,-686.616028,-721.752014,-48300.000000,-6720.000000,-2380.000000
1.523032,2.294027,3.137735,3.385569,2.072963,2.846975,1.474824,3.310808,2.603173,2.096538,1.664135,1.225573,2.635857,2.038200,1.095081,1.726629,92.232002,-683.687988,-723.216003,-48440.000000,-5040.000000,-1960.000000
1.591965,2.421061,3.324746,3.573822,2.147175,2.999959,1.470624,3.483673,2.749068,2.224748,1.764017,1.260837,2.669205,2.064414,1.116113,1.721258,87.840004,-690.031982,-728.096008,-48440.000000,-3780.000000,-1680.000000
1.618788,2.513287,3.423393,3.715881,2.144946,3.062196,1.439587,3.574241,2.875032,2.373265,1.870004,1.342110,2.662274,2.072380,1.191785,1.711101,86.863998,-690.520020,-731.512024,-48300.000000,-3500.000000,-1120.000000
1.620025,2.511381,3.419512,3.714758,2.171614,3.066275,1.465022,3.533950,2.817193,2.346840,1.839342,1.347712,2.529889,1.955869,1.200323,1.662563,84.912003,-686.127991,-732.488037,-47600.000000,-2660.000000,-700.000000
1.658379,2.571188,3.501434,3.807061,2.206474,3.158191,1.471231,3.666754,2.895821,2.421591,1.912330,1.384187,2.563561,1.990548,1.224538,1.666763,82.959999,-684.664001,-733.952026,-45780.000000,-1540.000000,0.000000
1.669763,2.630446,3.545047,3.898009,2.203819,3.199191,1.460133,3.752260,2.954421,2.509417,1.986941,1.452759,2.539518,1.990460,1.284050,1.654530,81.496002,-681.736023,-736.880005,-44520.000000,-280.000000,560.000000
1.666758,2.633952,3.535313,3.902067,2.215576,3.191302,1.478870,3.716399,2.923847,2.507075,1.976801,1.461409,2.475721,1.936006,1.296605,1.641586,76.615997,-678.807983,-734.927979,-42980.000000,840.000000,980.000000
1.678799,2.642576,3.548410,3.921907,2.225286,3.226912,1.485308,3.782178,2.936424,2.520117,2.001308,1.468026,2.479992,1.946009,1.294180,1.638926,80.520004,-679.296021,-738.832031,-41860.000000,1820.000000,1540.000000
1.681057,2.666480,3.555272,3.970282,2.224913,3.260615,1.488405,3.877429,2.948547,2.552802,2.043980,1.500937,2.465777,1.951832,1.316903,1.631036,79.543999,-675.880005,-733.952026,-41020.000000,2800.000000,1820.000000
1.678272,2.680279,3.553645,3.994802,2.225816,3.260609,1.495946,3.883024,2.961062,2.582705,2.061856,1.504841,2.483513,1.966391,1.323625,1.639123,79.056000,-676.856018,-736.880005,-40740.000000,3360.000000,2240.000000
1.677623,2.670819,3.553058,3.993684,2.221803,3.267600,1.484185,3.903805,2.963069,2.579663,2.059410,1.483579,2.487424,1.966436,1.301821,1.634059,79.056000,-677.832031,-736.392029,-40180.000000,3780.000000,2380.000000
1.672643,2.663619,3.533785,4.007124,2.208334,3.296103,1.480928,4.006265,2.964529,2.588929,2.084388,1.492632,2.505035,1.989668,1.305864,1.637078,78.080002,-671.000000,-736.880005,-39900.000000,4620.000000,2660.000000
1.678031,2.686677,3.551822,4.056008,2.208718,3.321202,1.480748,4.066751,3.021452,2.648989,2.128108,1.497728,2.577868,2.047165,1.312685,1.648983,80.520004,-671.976013,-740.296021,-39060.000000,5460.000000,2800.000000
1.668224,2.674422,3.550538,4.056612,2.185946,3.308564,1.449235,4.063888,3.037660,2.660826,2.127056,1.481737,2.587951,2.053200,1.305465,1.653356,78.568001,-666.608032,-736.880005,-38360.000000,5600.000000,2800.000000
1.660153,2.643630,3.517546,4.042582,2.155031,3.325540,1.430304,4.150198,3.051211,2.670455,2.147573,1.483630,2.624666,2.086449,1.306804,1.653242,74.664001,-661.728027,-730.536011,-38640.000000,5740.000000,2800.000000
1.674298,2.673838,3.554760,4.103979,2.160082,3.364471,1.428547,4.227274,3.131348,2.746479,2.206467,1.506454,2.716560,2.161743,1.330144,1.676527,76.127998,-656.848022,-715.895996,-40600.000000,4340.000000,1820.000000
1.655073,2.649324,3.534993,4.088617,2.117963,3.324764,1.393220,4.200652,3.140393,2.757139,2.206407,1.504825,2.689674,2.148639,1.336979,1.660087,70.272003,-650.992004,-683.687988,-43540.000000,2380.000000,980.000000
1.656676,2.615462,3.521380,4.069456,2.093915,3.327825,1.375265,4.244771,3.182573,2.782734,2.230286,1.506008,2.755951,2.203857,1.342456,1.673385,70.272003,-655.384033,-680.760010,-50540.000000,-1960.000000,-840.000000
1.674609,2.650715,3.564411,4.121606,2.104811,3.358244,1.379709,4.293558,3.254338,2.852474,2.283712,1.544075,2.818702,2.257638,1.378208,1.690717,78.080002,-668.072021,-703.695984,-55300.000000,-4620.000000,-2380.000000
1.651868,2.604186,3.526067,4.075248,2.056563,3.294011,1.352514,4.240715,3.253837,2.850469,2.276471,1.540558,2.776597,2.235818,1.380841,1.654388,82.959999,-668.072021,-716.872009,-57680.000000,-5320.000000,-3780.000000
1.679351,2.603952,3.568138,4.084192,2.079670,3.300351,1.375660,4.244833,3.330030,2.904025,2.309016,1.547680,2.875647,2.313520,1.399074,1.701240,84.424004,-673.440002,-727.119995,-58660.000000,-5740.000000,-5040.000000
1.695073,2.628001,3.588235,4.096724,2.092371,3.309692,1.398001,4.257492,3.374266,2.953635,2.346515,1.592922,2.899419,2.334451,1.440143,1.695848,86.863998,-675.880005,-745.176025,-58800.000000,-5600.000000,-5740.000000
1.677018,2.577826,3.561824,4.048313,2.055427,3.244286,1.376049,4.193999,3.383626,2.950409,2.333816,1.577160,2.898711,2.338177,1.435141,1.685405,88.328003,-677.343994,-749.080017,-56980.000000,-4060.000000,-6160.000000
1.735025,2.626562,3.650911,4.086915,2.140320,3.276210,1.461739,4.195222,3.474158,3.025689,2.377834,1.599644,2.990405,2.405495,1.467481,1.728199,91.744003,-677.343994,-763.231995,-54880.000000,-3080.000000,-6440.000000
1.741225,2.615177,3.625110,4.044774,2.144351,3.258583,1.503168,4.182002,3.482741,3.045521,2.397443,1.647890,3.006689,2.422372,1.514792,1.734890,90.767998,-673.927979,-774.455994,-51660.000000,-1400.000000,-6300.000000
1.729702,2.597050,3.638350,4.040958,2.127091,3.221342,1.473583,4.134015,3.504619,3.047224,2.380904,1.613442,3.024185,2.428592,1.491942,1.733052,93.208000,-674.416016,-778.848022,-48860.000000,840.000000,-6300.000000
1.800130,2.655252,3.720446,4.063234,2.237097,3.271685,1.587759,4.153659,3.578410,3.118580,2.431552,1.651636,3.082536,2.470368,1.529041,1.736547,92.232002,-675.392029,-780.799988,-44100.000000,2380.000000,-6160.000000
1.793295,2.614850,3.666352,3.998661,2.229263,3.230164,1.631210,4.112785,3.553077,3.103134,2.426256,1.683668,3.094888,2.488514,1.565749,1.777637,90.767998,-673.440002,-787.143982,-39620.000000,3920.000000,-5880.000000
1.786706,2.636290,3.711327,4.039862,2.227176,3.225015,1.592801,4.091535,3.578493,3.108553,2.408717,1.636144,3.078550,2.457985,1.521023,1.726579,96.136002,-668.559998,-797.392029,-35840.000000,4340.000000,-5460.000000
1.843961,2.656724,3.748961,4.015520,2.312671,3.260806,1.685478,4.106822,3.617921,3.150398,2.448231,1.672254,3.116377,2.490407,1.551513,1.719416,91.744003,-663.679993,-802.272034,-30100.000000,6160.000000,-4900.000000
1.833137,2.626139,3.708970,3.980806,2.305866,3.217223,1.720339,4.047466,3.579205,3.114397,2.419798,1.670514,3.099746,2.483742,1.556225,1.756976,89.304001,-660.263977,-795.927979,-26320.000000,7000.000000,-4340.000000
1.829475,2.654537,3.751700,4.022192,2.307709,3.223029,1.689225,4.041218,3.603562,3.124299,2.409235,1.635205,3.061815,2.434588,1.516269,1.674202,83.447998,-666.119995,-779.824036,-21140.000000,6440.000000,-3920.000000
1.862966,2.642344,3.756427,3.981312,2.353360,3.235158,1.741873,4.038465,3.612110,3.131447,2.423216,1.649305,3.088420,2.462931,1.529679,1.687427,81.984001,-671.000000,-772.992004,-17220.000000,4620.000000,-3920.000000
1.859412,2.642265,3.745191,3.988439,2.357108,3.210549,1.771115,3.989817,3.586745,3.104421,2.392307,1.628741,3.046182,2.428193,1.512147,1.685566,70.760002,-673.440002,-739.807983,-14420.000000,3780.000000,-3920.000000
1.856323,2.650661,3.763801,4.003077,2.355629,3.210808,1.757348,3.984651,3.604489,3.113687,2.389338,1.618766,3.033074,2.405037,1.499831,1.642831,62.952000,-646.112000,-722.239990,-14140.000000,980.000000,-5320.000000
1.871589,2.647121,3.762276,3.991985,2.374287,3.214868,1.781836,3.981331,3.599521,3.106043,2.385280,1.615350,3.038358,2.414244,1.497783,1.656219,63.928001,-681.247986,-711.015991,-16520.000000,-4480.000000,-6720.000000
1.873441,2.659201,3.761510,4.009954,2.383328,3.205780,1.804632,3.953122,3.596352,3.104227,2.371126,1.606865,3.016387,2.388965,1.490504,1.640945,84.424004,-706.135986,-772.992004,-18480.000000,-6300.000000,-7140.000000
1.868237,2.659935,3.759250,4.009449,2.378086,3.197140,1.800989,3.938671,3.599704,3.105364,2.369367,1.607465,3.030741,2.395677,1.490511,1.645766,81.496002,-667.583984,-812.520020,-11900.000000,4760.000000,-7140.000000
1.871389,2.685619,3.760301,4.038278,2.382770,3.196397,1.813496,3.938634,3.604017,3.116665,2.373434,1.620095,3.026674,2.392078,1.499278,1.640766,78.080002,-642.208008,-790.559998,-7980.000000,10080.000000,-7140.000000
1.871873,2.684652,3.752203,4.033213,2.392829,3.188189,1.827107,3.923768,3.609254,3.128606,2.377718,1.632885,3.062801,2.415418,1.515239,1.661040,86.375999,-630.496033,-773.479980,-5740.000000,9380.000000,-7000.000000
1.859303,2.704597,3.732535,4.033065,2.378486,3.156265,1.825172,3.880465,3.599780,3.129193,2.375665,1.636703,3.068477,2.420846,1.512794,1.657104,87.840004,-622.200012,-775.432007,-4060.000000,7980.000000,-7000.000000
1.856567,2.741458,3.735629,4.077466,2.380620,3.150765,1.833938,3.882509,3.631936,3.181508,2.410623,1.693174,3.117018,2.456519,1.564414,1.679870,103.456001,-611.952026,-788.608032,-3780.000000,4620.000000,-6860.000000
1.847925,2.717438,3.700122,4.029327,2.378544,3.125567,1.838568,3.879344,3.619447,3.180369,2.419118,1.711918,3.184559,2.518643,1.586528,1.736184,111.751999,-605.608032,-794.952026,-2240.000000,1680.000000,-6440.000000
