5.536117897546339,6.790069513388935,7.6280445471893055,9.76670600956437,6.220720418708691,4.46307162678346,4.435710696266124,8.431707544709447,8.12690506976444,7.42580365302675,8.736893547176226,4.453718298033972,9.238493764435853,8.348844962944327,7.9377971251544235,4.4106441322706305,76.61599699999998,-711.992004,-688.080017,-4200.0,0.0,-420.0
5.622786873340846,6.829868298854992,7.722747569168862,9.875255541952352,6.186210957030282,4.481578415442785,4.4569461338477705,8.533522794445762,8.246519719400247,7.484121046332301,8.84740200259717,4.427150670704114,9.315683417243212,8.47963779240536,7.909110212112641,4.382087096394945,78.08000199999998,-710.528015,-692.471985,-4760.0,-840.0,-420.0
5.652472771246963,6.7565434679625405,7.826553606084057,10.16754200235825,6.068902435150775,4.321332079408657,4.309124747698575,8.695634986441968,8.39309079546821,7.482247578743614,8.954672901909989,4.240208356829648,9.362535420689152,8.565363916050407,7.803716693315355,4.17675162072634,80.520004,-714.432007,-692.471985,-4900.0,-1120.0,-560.0
5.792521500814732,6.951708369957228,8.132049366115762,10.633001472835838,6.100475364138295,4.3350574805125675,4.3289437249596405,8.934293122174573,8.806464855342746,7.747561221451289,9.269042637360805,4.348270322143347,9.761220866247546,8.911506390138415,7.948561600130674,4.235046189887943,74.664001,-710.039978,-691.984009,-5180.0,-1260.0,-420.0
5.807053726473984,6.970161023425635,8.145181818077562,10.772554698316734,6.10204915470964,4.319397811846764,4.317214412282162,8.954565039354167,8.84224573038769,7.766095748684887,9.369929723818558,4.325342032451661,9.841171368771482,9.002968155643348,8.002873247377648,4.241687786825533,81.008003,-714.919983,-690.52002,-5320.0,-1540.0,-700.0
5.797533398506551,6.977959054842461,8.152297571736128,10.876283476707934,6.096738152522765,4.324284198936593,4.324780778315008,8.962921410211958,8.893902024284309,7.803163207010213,9.417182125769616,4.384866773179021,10.002029161334002,9.106112990403465,8.089987289284933,4.266800949184875,78.08000199999998,-713.944031,-693.447998,-5320.0,-1540.0,-700.0
5.768682269758926,7.0077727239351635,8.198960553673452,10.960764352475815,6.083800748804332,4.332663195107731,4.330725722021813,8.972672630474786,9.023780250904716,7.894153099610224,9.474297494172463,4.4350431435506446,10.253220438625807,9.259959354851892,8.252542972281182,4.294528075190569,75.639999,-713.455994,-694.911987,-4900.0,-1540.0,-840.0
5.768725921812115,7.013672741191511,8.199108132138011,10.968252238791857,6.122145916676749,4.365948705169904,4.3538280049847415,8.953525937487731,9.066743655417064,7.933660519676249,9.494182647575695,4.459649823894528,10.328198375355905,9.309168381714413,8.328904526323917,4.3415401409323815,75.639999,-716.872009,-695.400024,-4900.0,-1820.0,-840.0
5.7864541547027075,7.0493396952121055,8.25373099511655,10.97755164138147,6.124954774305057,4.344855546224546,4.3325927499934265,8.950172629671277,9.133007257696631,8.016520711531285,9.510906372410235,4.487853910384557,10.37740520014886,9.355949967014988,8.40411482674159,4.445617892488225,76.61599699999998,-716.872009,-694.911987,-4620.0,-1540.0,-840.0
5.7859483308374875,7.039996263630812,8.21426965304791,10.967628716983878,6.108602274853961,4.319825244742651,4.29889466230292,8.925941137927623,9.084291574859023,7.977813102938847,9.504567306755558,4.4871915733097785,10.328330258160605,9.350581582473016,8.403396243644268,4.400828888353555,77.104004,-715.895996,-694.424011,-4480.0,-1400.0,-980.0
5.789015118348047,7.039806129250483,8.208890142945304,10.967833840332808,6.121340145922927,4.329562046802782,4.30865131173569,8.934191703850974,9.092543813533561,7.977505466436841,9.50359538168499,4.5166866818542,10.363328504637803,9.392481980031059,8.402997189388582,4.396201955843021,78.08000199999998,-716.384033,-692.960022,-4060.0,-1540.0,-980.0
5.800313039586151,7.047382434855718,8.236594354057559,10.97324187343475,6.1142538232730015,4.325592586740887,4.307029362877234,8.943919816715518,9.199724426535974,8.047150479635787,9.534214383626393,4.666165289451553,10.436737170862799,9.52804793109639,8.411330283206153,4.454550193924849,76.127998,-720.7760009999998,-694.911987,-3500.0,-1400.0,-1120.0
5.9591379543340715,7.1779826807925495,8.340335434283707,11.059782234511669,6.140014946218871,4.3431795441003445,4.328552760433999,8.944604023013358,9.418193232011106,8.299306479895124,9.734443826018786,5.141987842331608,10.571011721015424,9.815346835710352,8.653040986150856,4.6962742810135865,77.104004,-720.7760009999998,-692.960022,-3500.0,-1540.0,-1260.0
5.962168564865421,7.1798845167423,8.340886183676542,11.065080755852675,6.346146401247211,4.537318732657999,4.5363876517186466,9.013268174546576,9.42604669103343,8.332190260536233,9.805423441090815,5.254949121480099,10.53969378594823,9.893243364117161,8.733899513319448,4.7299460865571925,75.152,-718.824036,-693.447998,-3220.0,-1260.0,-1260.0
5.9637880707450455,7.170616777861165,8.321106166621421,10.965171738818945,6.670351384752019,4.968079198151516,4.971878349819046,9.133070853361072,9.413081518472417,8.342961594560164,9.846503142750693,5.279326346178784,10.541200157495473,9.986643878535903,8.810556210154761,4.749148155841325,78.56800099999998,-720.288025,-691.007996,-3080.0,-1260.0,-1260.0
5.974572129186479,7.119250093098119,8.216458723172837,10.813758903557764,6.8398604329899175,5.262180553998213,5.27125934478074,9.161777354436873,9.347722758382531,8.269891367115687,9.844218710004075,5.241558633353686,10.52996930978874,9.98647097634269,8.8095374215586,4.810028524028872,76.127998,-720.7760009999998,-689.05603,-3220.0,-1120.0,-1400.0
5.981583052645432,7.146915710880114,8.246107372138697,10.89738424632468,6.851403931712387,5.26040578531424,5.269553026378326,9.202418511587368,9.343037074091342,8.26932508782316,9.821207015166099,5.244511958410577,10.425699606555384,9.901789468920953,8.698148090721766,4.801095748114196,79.05599999999998,-718.824036,-691.007996,-3220.0,-980.0,-1540.0
5.899499074007395,7.063718417213739,8.12905374287038,10.813120811993048,6.859021757900179,5.279650041153253,5.2943876861206105,9.17673226922502,9.174475423021185,8.103461125514736,9.690627064753635,5.15727530731399,10.191000581126922,9.70966359909967,8.449090748376966,4.649968460583589,79.543999,-719.312012,-689.544006,-3360.0,-700.0,-1260.0
5.915483938917111,7.143983200516145,8.222390024225662,10.869212798424627,6.857989853104513,5.283952232938166,5.297773202937469,9.175896856946487,9.255436483674474,8.204910457298531,9.721024466885044,5.247158231764358,10.198919693644445,9.71905104158986,8.461187507072669,4.716094741898689,79.05599999999998,-716.384033,-690.52002,-3360.0,-420.0,-1400.0
5.90002468107081,7.140726319690448,8.22100354772566,10.87014604661065,6.855708468123246,5.298687313879833,5.3139933693295704,9.213963783046085,9.264949526208609,8.19516368038409,9.707129881253524,5.250771039240632,10.23817082672293,9.714936998153343,8.447566495702851,4.725441683142797,77.592003,-715.40802,-690.031982,-3780.0,-560.0,-1400.0
5.879719258013117,7.142626007840129,8.21633136112567,10.864420708573777,6.869751793598701,5.356685123153906,5.376374435505412,9.260245806374623,9.271082029869135,8.22560184748201,9.711645956862878,5.286487721832457,10.256329468071542,9.790824517103568,8.557806902334459,4.7845454425015275,78.56800099999998,-714.919983,-691.496033,-3920.0,-420.0,-1260.0
5.902590223370151,7.148925448943557,8.203285569041359,10.869765735982282,7.017503041756327,5.590580763137083,5.604060159336391,9.35755970133688,9.27692607537932,8.238016949480492,9.709019295059202,5.282591291940737,10.270665424624509,9.852146765348321,8.630414110813252,4.748269466096416,81.984001,-714.432007,-689.544006,-4060.0,-560.0,-1400.0
5.957240256130818,7.157188541617043,8.192557373177692,10.860600934104127,7.142148336443556,5.808372589718966,5.825772313279714,9.413571179375216,9.240612448432593,8.201687562920648,9.703510477385482,5.288052401818517,10.222040697069822,9.82827021398725,8.589958158971417,4.766022501211113,77.104004,-712.47998,-691.007996,-4200.0,-560.0,-1540.0
5.986202600738016,7.177732289565401,8.207046748775918,10.89262978113538,7.1702348352983964,5.892218342171449,5.9136518142282295,9.437787049383589,9.25010095095302,8.21583689649042,9.699023788306905,5.287896980194646,10.24261164305411,9.809292301288522,8.557637942579282,4.790241064281493,80.520004,-713.944031,-694.424011,-4200.0,-420.0,-1540.0
5.9835820727870646,7.211644674043288,8.28193527471778,10.878953872108541,7.117881411538385,5.903949843306944,5.924868781532774,9.40524433332391,9.330827409953459,8.290527538399592,9.712029651205668,5.283019656196893,10.381141191434223,9.851430169145585,8.563846969303668,4.8247768895424485,79.05599999999998,-712.47998,-697.35199,-4340.0,-420.0,-1400.0
6.005174902857666,7.217402850378807,8.296365356983573,10.906200935345353,7.111978171281161,5.905363634322694,5.927050212211707,9.422292686984244,9.318463627304263,8.275182859384149,9.70591647080596,5.270022371074923,10.358094545445743,9.825116534174814,8.515740760254658,4.823671126752072,78.56800099999998,-713.944031,-696.864014,-4340.0,-560.0,-1540.0
6.014475985193708,7.20862474368687,8.287674531732,10.984259069098004,7.115390878913125,5.90643348686769,5.927599984937244,9.422689377918552,9.335054864389553,8.250808738051392,9.692768328404643,5.251769668538076,10.366564720927405,9.799202209486719,8.440983931620199,4.807547484218756,77.104004,-711.015991,-695.888,-4340.0,-700.0,-1540.0
6.014131982337224,7.246911320769546,8.32250855830589,10.986485582511003,7.15946907434546,5.943970803226365,5.965822495906556,9.480992986000755,9.305417361737444,8.241144175230943,9.691491642831538,5.227564185150053,10.345784811244403,9.797021528946415,8.442843269414572,4.78363170579189,79.543999,-711.992004,-699.791992,-4060.0,-560.0,-1540.0
6.0152773192906395,7.277134042495549,8.366256091519947,11.06873795007516,7.151634690001245,5.943192701683507,5.9662055240161465,9.52208440889969,9.304098424777363,8.251639222587258,9.689592960340947,5.227299058870733,10.346515136104552,9.796831737918295,8.45946580990336,4.7787817489279085,78.56800099999998,-711.015991,-698.815979,-4060.0,-700.0,-1680.0
6.007114853338564,7.271177589894847,8.36230725719159,11.068640860351373,7.162301459895697,5.9814684987588915,6.011420172352572,9.542704862144445,9.311080554616211,8.26520618936477,9.674612816643625,5.230499352782064,10.338110568510059,9.784447610233656,8.54408668481592,4.808075670980114,78.08000199999998,-712.968018,-698.328003,-3920.0,-840.0,-1540.0
5.852379048407844,7.109494819874886,8.201264188622412,10.95590379185526,7.058762493839535,6.017902454753886,6.0522193287375785,9.536126585433845,9.012639922753362,7.97479099639506,9.469728809123998,5.073915141899381,9.923664049177328,9.497646465500665,8.324932630904387,4.73943920585686,78.56800099999998,-715.40802,-700.768005,-3640.0,-1120.0,-1680.0
5.638385211116149,6.906437315380824,7.957025532769421,10.72157618013862,6.832452024783687,5.988775671056023,6.006067330767547,9.260238666805124,8.716628026823447,7.71021583242427,9.256036878078692,4.979506836143537,9.712298793243432,9.313370503343254,8.212277682602524,4.724358525731718,81.008003,-716.384033,-699.791992,-3500.0,-980.0,-1540.0
5.559268983105433,6.804579532068559,7.804305200718852,10.445209388452582,6.716172772535689,5.970730981269444,5.985049463048676,9.01638278336069,8.60726478879181,7.638275203887486,9.131660574249706,4.993573137254213,9.793520904185778,9.341994977257036,8.34123090689312,4.825275308706665,78.08000199999998,-711.992004,-698.815979,-3360.0,-1120.0,-1400.0
5.40180992025453,6.626156443987875,7.538686641371383,10.13303572716253,6.499195388137649,5.930983512174067,5.9433354177737145,8.733699082719648,8.359037298105696,7.412840028991637,8.811418797644253,4.971183446566926,9.649508276152805,9.201215696971389,8.190531228793384,4.754957409692262,78.56800099999998,-717.359985,-700.768005,-3360.0,-1260.0,-1260.0
5.320229967213906,6.561620401203675,7.537456967929588,10.078695973172927,6.425121018056008,5.901124195015287,5.913795118137695,8.703095194213224,8.365378280205242,7.393430067763164,8.578495503337198,4.99069413642626,9.589077009814778,9.121153665087938,8.091521105520798,4.697534524729072,78.08000199999998,-714.432007,-697.840027,-3360.0,-1680.0,-980.0
5.252712453548199,6.487338969919222,7.4953613744792635,9.989089835202245,6.350132122712765,5.867068985203136,5.884864858924369,8.665559885781464,8.345634679443757,7.346448164981878,8.471304902948972,4.961460254859352,9.71330813491124,9.184853624877862,8.061187432916267,4.632220708468814,79.05599999999998,-717.848022,-699.304016,-3220.0,-1680.0,-840.0
5.303233780764724,6.524815418057023,7.526188865938165,10.00923774370197,6.362883572784793,5.881900045986225,5.8993991389743545,8.67868994097224,8.5308434944981,7.5149297598885365,8.575246688878952,5.014773519076609,10.019303620806905,9.393346226672735,8.230949407897715,4.702548856336395,80.520004,-716.872009,-695.888,-3220.0,-1820.0,-700.0
5.253568083875347,6.479571894333121,7.479390132623841,10.032496101560513,6.2556644657382465,5.805064705525549,5.814195696957334,8.648562237690872,8.608579820255196,7.580211444211643,8.567205049336609,4.947587085446886,10.120306173211013,9.447200265756145,8.301381071441085,4.7205016451767605,77.104004,-717.848022,-695.400024,-3220.0,-1960.0,-420.0
5.19680491358904,6.448266164569776,7.462902452199398,10.00376397732158,6.198356805774559,5.76590451523738,5.776473026466544,8.626185777561798,8.648831042896386,7.614089533042244,8.509753255848342,4.914983413436644,10.219347480326231,9.475939002967394,8.378188473211976,4.74773345098202,77.592003,-716.384033,-698.815979,-2940.0,-2100.0,-420.0
5.125207251969883,6.339964866169986,7.316312666439275,9.830202686363165,6.0768376413917595,5.704421379218072,5.717821624668549,8.512499075975269,8.583432430741498,7.502583398350181,8.374192497984382,4.998253331682008,10.203137002861094,9.450094803290586,8.335056537858135,4.7592741535432515,78.08000199999998,-714.919983,-699.791992,-2660.0,-1540.0,-140.0
5.017113819539274,6.207400744989554,7.205717689098732,9.614385621719256,6.007623482925169,5.669674060540988,5.689836641911041,8.413596584404681,8.571050868153815,7.479855673145446,8.149726499784325,4.988087253144748,10.301296028336036,9.457036320939013,8.452841443079581,4.824214636215716,77.104004,-712.968018,-697.35199,-2380.0,-1400.0,140.0
4.866321889435809,5.988493812400458,7.104528665686643,9.440479791022153,5.882374210756664,5.634370710128686,5.661227841310826,8.258581577244065,8.486712309645693,7.375150255882119,7.774722915873623,4.941641909102425,10.275214360513656,9.294875853487241,8.403970084056535,4.841870670511423,78.08000199999998,-711.504028,-695.888,-2380.0,-1260.0,280.0
4.534391727843874,5.464134248070576,6.624158613691538,8.919546960826619,5.547871632512052,5.540150367074052,5.559221739912573,7.622484372218345,7.973302429582426,6.869234215149165,7.101144865668408,4.740148617251028,9.762694175506075,8.73919234066238,7.869548289616112,4.512643871695462,77.592003,-709.064026,-697.35199,-2380.0,-1400.0,560.0
4.259202359901437,5.094426202104345,6.1951489047131565,8.220979914453435,5.382261854212116,5.47412644391611,5.4925553928203765,6.980635328046809,7.516493615055267,6.433721605482639,6.571293085361696,4.625301585371497,9.31021024877287,8.274590002969052,7.5316088942414945,4.371276474604832,77.104004,-711.015991,-696.376038,-2520.0,-1260.0,700.0
4.020308302217472,4.87194924444817,5.827094263029043,7.783084410671944,5.256972528483668,5.381600741848083,5.4047631329854795,6.53624482360442,7.240118537689775,6.0915288280891415,6.136839317326175,4.535312775068907,8.97953729332393,8.01641970633266,7.231804759550047,4.233498205975638,78.08000199999998,-707.112,-698.328003,-2240.0,-700.0,700.0
4.001958806696813,4.920688126356255,5.8465002486975655,7.846386278287428,5.256989852783398,5.381348100452162,5.405204872767038,6.571238463270045,7.336206743339045,6.134111300395313,6.038977105347969,4.537927866613772,8.908064080223872,7.9910937952492755,7.166981950696015,4.209636744693899,79.543999,-708.575989,-698.815979,-2100.0,-560.0,700.0
4.066114477033447,5.06085415688958,5.984314741466901,8.080063595456028,5.259528005878757,5.404329700939928,5.440248416867272,6.798739775348741,7.492581624445655,6.320466256672656,6.05124227954344,4.521288091279901,8.929085312222687,8.058317168532014,7.19983260643067,4.226353579746753,78.56800099999998,-709.552002,-701.744019,-1820.0,0.0,560.0
4.089120617314772,5.106446969103083,6.028584582563212,8.08523767643725,5.2756789133267565,5.433006915323998,5.464720476855319,6.862368475046748,7.511024159682388,6.413484341917229,6.080775155764794,4.519121566132988,8.908018926775405,8.117679561375356,7.2679864729419625,4.262166774902842,81.984001,-709.552002,-701.744019,-1260.0,420.0,700.0
4.102148425452626,5.089349445888654,5.993240457699067,7.962514664705468,5.28218222045345,5.449082496326186,5.479291417046841,6.821389419844057,7.466179739142027,6.424784885457959,6.126439172574312,4.518936900733235,8.899434618274775,8.191124822102012,7.40112646035152,4.3217889487052945,81.008003,-711.992004,-698.328003,-1120.0,560.0,700.0
4.186277943295119,5.193748140093227,6.077886678913723,8.067111216514569,5.435107836358385,5.574132127147117,5.606739772459811,6.894650831898527,7.581110667056606,6.5672017353058045,6.30338630536539,4.582745817531347,9.098412111550164,8.399846350288177,7.709722336092158,4.505494073758008,81.008003,-710.039978,-698.328003,-700.0,840.0,840.0
4.0611703201794205,5.062331325762468,5.922510729135213,7.903323919533056,5.419747115379349,5.5516128957632995,5.576579014156266,6.805517334959648,7.403680923012757,6.4225175219900965,6.039474191496296,4.6655438640464935,8.989681539135647,8.244877915298606,7.665614670336151,4.524997641589181,77.104004,-712.47998,-698.815979,-560.0,980.0,980.0
3.989770902815621,4.912081927237245,5.803503282438516,7.686212640043662,5.410028206594879,5.52011745756427,5.5463541750077505,6.647134658787714,7.311439377860989,6.403125192654592,5.846021009536027,4.919363079609329,9.017709940071738,8.203706501991586,7.659383869630714,4.610122438424207,79.543999,-710.528015,-696.864014,-840.0,1540.0,840.0
3.830251859228532,4.718011130629186,5.5122434118949615,7.151244451530359,5.409532907102839,5.502932116777399,5.528597128499176,6.394291861595816,6.988064018779365,6.24769873467199,5.530446271083718,4.8886280873971435,8.805983613455597,7.933417964738215,7.627910713664461,4.608498800004847,81.008003,-711.992004,-696.864014,-840.0,980.0,840.0
3.764371625637836,4.474519533515915,5.173081035273468,6.7618115181723075,5.524104919249164,5.627212918046,5.656002935955099,6.504578170784476,6.425232465431424,5.8796861948757915,4.973516622373079,4.716054032659455,8.225414644664932,7.44176806918852,7.40819504952842,4.51166759888996,80.520004,-710.039978,-698.328003,-980.0,840.0,700.0
4.127387592428087,4.811323394250665,5.641166122479101,7.622736742028667,5.740546415871355,5.86947064401267,5.913086906066829,7.13222602784302,6.82461616858932,6.116475779352138,4.977262162852429,4.692050897598609,8.32577604228024,7.571352207160292,7.417931813350234,4.649457685306958,79.05599999999998,-710.039978,-701.744019,-1260.0,560.0,560.0
4.446380728844644,5.101097783930469,5.931598843996553,8.163077295904108,5.827584609151072,5.988060513789934,6.032329888738554,7.300333879401891,7.320918358713489,6.4790905172819775,5.056554445067758,4.655144636127442,8.623800824156488,7.855333208950265,7.49934102470672,4.8613161854672,81.984001,-710.528015,-697.840027,-1260.0,280.0,420.0
4.424055947385404,5.045843321745742,5.864877562220824,8.112439185330226,5.837005585650016,5.98722953743935,6.031391321054586,7.335160904099696,7.20206084433999,6.349476488003361,4.853711640702797,4.611457683381558,8.394038955209748,7.688637633490604,7.2177934346675325,4.70277081064456,82.95999899999998,-710.039978,-694.911987,-1400.0,-280.0,140.0
4.473253035069498,5.190059182976911,6.14566547477279,8.164843198932967,5.893904441930882,6.024532450493869,6.064768099702412,7.6825717274053025,7.222638027124013,6.3875096127480955,4.932304254203006,4.738512359161365,8.313047714550182,7.633738206191677,7.100909460538971,4.692162153260177,79.05599999999998,-709.552002,-695.888,-1540.0,-980.0,-140.0
4.44411185382469,5.144633247237616,6.066442667550231,8.152141274737128,5.9193164939239,6.034309927924929,6.078021623584328,7.686992933092551,7.136417592718945,6.279376693601461,4.899778004106808,4.715187795394918,8.235835643107947,7.576533175854767,7.0146578727838165,4.587569998176586,80.031998,-709.064026,-697.35199,-1400.0,-1540.0,-420.0
4.491462716238438,5.145471219412043,6.065834155695086,8.158333888055425,5.919620334511614,6.03457332427572,6.080582828894603,7.687887831707313,7.143516307298195,6.279347395880299,4.900327212349422,4.705124188335967,8.290854758058922,7.598472469164084,7.016016929864919,4.626753847924841,79.543999,-708.088013,-692.471985,-1260.0,-1540.0,-840.0
4.877445392360423,5.182309145092262,6.137734116534704,8.339304144284938,5.945810659497688,6.11198701483737,6.16751388732068,7.751487959401602,7.259308712500128,6.331543194585549,4.939393889782717,4.732924413899689,8.418079387702972,7.637179105300514,7.044647178706212,4.774844050213871,77.592003,-710.528015,-698.328003,-1120.0,-1820.0,-980.0
5.096147822325834,5.168804620749156,6.140431626920853,8.428109120446287,5.960635284227825,6.146361057135728,6.208775833594245,7.769562666623667,7.18443748686888,6.276964941422275,4.902847663313503,4.592720036666528,8.306991990927695,7.473788361448849,6.975330281357813,4.810256858977722,78.08000199999998,-711.992004,-695.400024,-700.0,-1680.0,-1120.0
4.931625038155206,4.983561050843168,5.988603734147527,8.41227996207133,5.9292058741626885,6.127716645247887,6.187358397650928,7.764249238003835,7.034553352993654,6.010542644203261,4.51481270174037,4.046550863032088,8.32359395676744,7.226309828326597,6.677072462117976,4.607490202698355,80.031998,-710.528015,-696.376038,-560.0,-1960.0,-1260.0
4.927312693897996,4.981455458455675,6.0075426656402255,8.514957123843068,5.6837323384862755,5.957977011394492,6.012394046884395,7.68441100674463,7.146933417889876,6.031255689239912,4.403886787765302,3.8641996753765664,8.526606040514471,7.279984677741473,6.609990866497168,4.6038475202295395,79.543999,-708.088013,-696.864014,0.0,-1960.0,-1260.0
4.985144648696733,5.022604438670658,6.01706392316965,8.542144629580397,5.371316559302076,5.727366992064529,5.7723045412128355,7.562271772047198,7.123324986341986,5.993300936944941,4.31632174134442,3.9300183864121996,8.498250563352233,7.1561979634368855,6.523070564977016,4.630959762535224,79.543999,-708.575989,-696.864014,-140.0,-1960.0,-1400.0
4.962410142130487,5.006553632618777,6.017902553789065,8.553719678792465,5.113271158329738,5.425891775000446,5.463385780995808,7.451982315008385,7.238372215408181,6.085377018554565,4.375698865188719,3.920361738799284,8.67243971307926,7.2516524169260945,6.5494290363431675,4.592036886949372,79.05599999999998,-711.504028,-697.35199,280.0,-2100.0,-1260.0
4.917499150883682,4.962864237406647,5.985707481551969,8.451808523810374,5.088645304330659,5.422429835236817,5.4587475300729675,7.399141818873212,7.247633810440555,6.091687933265482,4.353806791919324,3.920747237599212,8.731117375173161,7.285963478609293,6.552534289714084,4.580080426105266,82.95999899999998,-709.552002,-700.280029,700.0,-2100.0,-980.0
4.923966002825831,4.9622517111201425,5.997122494558539,8.475486969485353,4.958407964786141,5.337604982585875,5.372124991874538,7.335578061587286,7.221889895552585,6.072041036279719,4.3517413779111145,3.9184610058546254,8.704035903454548,7.2958836549089785,6.558779229733043,4.650924574916174,81.984001,-712.47998,-701.255981,700.0,-2380.0,-980.0
5.046681273700996,4.850870588476264,5.8742094839161405,8.519988809216732,4.98220106424348,5.496005856679692,5.534630644193989,7.337166845892373,7.128806032508959,5.952765167793049,4.297437400432663,3.8989769259850693,8.907415078566359,7.480079760477906,6.721375028191029,4.921402510410365,77.104004,-714.432007,-697.840027,840.0,-2520.0,-840.0
5.0516431419470145,4.860592901162428,5.899607024640935,8.610920459603722,4.972326929268926,5.475469298160878,5.510321279052298,7.281543670711987,7.11674630911667,5.9535358208950635,4.302755557398728,3.883066839054437,8.89892154337326,7.511535279957459,6.729729013017427,4.919170259390805,79.543999,-712.47998,-698.328003,980.0,-2380.0,-560.0
5.048460234581925,4.850925453152901,5.896229320703647,8.6142654713087,4.929187587853426,5.425472644452295,5.456387150907029,7.2393071380923075,7.0967701433422405,5.911338614910438,4.288749718127311,3.8243379018656363,8.868453446297206,7.41238826248394,6.573216925133063,4.873102686050037,81.496002,-715.40802,-698.328003,980.0,-2240.0,-280.0
5.1158822692516575,4.917839632280558,5.991783288815768,8.687380554609316,4.805260936753585,5.292229010876518,5.3305902654391435,7.2283946032334265,7.23417563615583,5.999576393706191,4.41289018731628,3.8676677557275387,8.880226441616383,7.368969244468681,6.528794677267415,4.8889338897451395,80.520004,-718.824036,-696.864014,1120.0,-1960.0,0.0
5.069318165661772,4.890587362395359,5.980580107672272,8.652619245359265,4.60252726370209,5.0717348973600975,5.103424414117266,7.1393610401271275,7.23178494684768,5.998249216925067,4.395419809176311,3.8618327069751723,8.87552443394694,7.355792831596539,6.552876920079663,4.878109969671467,79.05599999999998,-720.7760009999998,-693.936035,1400.0,-1400.0,420.0
5.050068964602226,4.850085235588418,5.942987544188571,8.556330861410078,4.523125389500016,4.98641255494474,5.008631748948873,7.075501653807169,7.192768376705324,5.957264317825624,4.3702342576564455,3.862161287067608,8.808830451184768,7.34986731614431,6.567636896145339,4.855688904859523,81.496002,-714.432007,-695.400024,1680.0,-1120.0,560.0
5.057131073153421,4.745548537142005,5.751827820543028,8.501417439699289,4.487841434601863,4.949644752798073,4.971888885923503,7.05088688301163,7.065501530854174,5.821210438253806,4.332144013864324,3.8699664245616647,8.646787463481337,7.290035119858031,6.548932208454911,4.80315120074081,78.08000199999998,-718.335999,-696.864014,2240.0,-140.0,980.0
5.033041915039464,4.77090992322835,5.73506758470336,8.502343812472763,4.492298587818636,4.973624885261368,4.990594229791707,7.133379510832153,7.1351084369557904,5.853849488193615,4.337180651252076,3.848931708091273,8.66244367978329,7.290358836098701,6.561055287025536,4.800434106463023,80.520004,-720.288025,-695.888,2380.0,560.0,1260.0
5.028285634672818,4.85618363104376,5.761201840101004,8.425701652042381,4.511133244318797,5.032042758321528,5.046186971323254,7.182299401703298,7.207263185768671,5.953933076150099,4.406971598661579,3.928361184822835,8.689937525491498,7.324131843387687,6.650175415809841,4.8240660335051135,77.592003,-721.752014,-691.984009,3080.0,1540.0,1540.0
5.035851725940455,4.782746164733339,5.744747237243539,8.495068994832534,4.437838161041765,4.990535104939381,5.0062267739757145,7.120684905308331,7.2043666371181105,5.95321808972046,4.4070648466954365,3.9368663896895537,8.663220908980627,7.3172167605619585,6.66604103947748,4.831866720019111,78.56800099999998,-721.264038,-696.864014,3500.0,2660.0,1820.0
5.101585684817199,4.897878811369283,6.00618746315814,8.759227977685704,4.485375586703925,4.997882327512661,5.014934245227763,7.315316404170519,7.357407716193767,6.0490241939474165,4.4714742826585825,3.970405754719978,8.766695560193233,7.385068184851342,6.653843120796445,4.834069066963924,78.08000199999998,-720.7760009999998,-690.031982,4340.0,3500.0,1960.0
5.110416979229672,4.899703709157662,6.020933598772602,8.816203486154789,4.45614733713711,4.9646654958071865,4.970122098926831,7.333198921036353,7.3409721279572695,6.015252551711682,4.469122318663382,3.9739968008395254,8.745279778852007,7.355990491517473,6.497566149817646,4.841041592654312,77.592003,-716.872009,-691.007996,5040.0,4200.0,2100.0
5.142698857939528,4.791201744327657,5.903438448100799,8.727202551123218,4.262267624763145,4.8002606622881245,4.791617756477841,7.080049687615197,7.363806765672951,6.034818504672378,4.475330335269858,4.002803104332723,8.81135996490508,7.416788675999367,6.433693190539801,4.864916942964582,78.08000199999998,-714.919983,-691.496033,5040.0,4340.0,2100.0
5.213414700300722,4.690043771160368,5.854801177328311,8.667950146864909,4.119156252114752,4.662862609444895,4.66948738560801,6.930520697408191,7.488457224422793,6.100403911976452,4.515024526392208,4.030801500062683,8.960029383572552,7.532937824472651,6.364579022202591,4.8650374180782,80.031998,-712.47998,-691.496033,5180.0,4480.0,1820.0
5.317741876530862,4.734745805402304,6.012659001511763,8.68807845816747,4.146540246665229,4.680587320995175,4.696658080339902,6.986998700709405,7.609712264560925,6.155664831151058,4.575603118241853,4.010718879171959,9.010693435582926,7.580627384451498,6.217231653033116,4.780825880042847,77.104004,-708.575989,-696.376038,5040.0,4340.0,1540.0
5.3609943007081196,4.685631494307602,5.999257333178517,8.698346831647351,4.1281385515811815,4.660389061965371,4.681467706150115,6.994347369238567,7.605176602576623,6.164834460853817,4.562262297517694,4.009254750242245,8.996395296167316,7.589032900504365,6.180856729285457,4.779461131182605,77.104004,-708.088013,-692.960022,4340.0,3500.0,1540.0
5.385896671341352,4.662047100450288,5.892014890242346,8.720951830793725,4.122757332003342,4.71440201157307,4.736265866386232,6.905026196306148,7.679573802011451,6.176602548498862,4.582691870751275,3.982971955244459,9.280794840264067,7.741711958055019,6.222209855035549,4.784646255196303,75.639999,-707.600037,-693.936035,3640.0,3220.0,1120.0
5.381854159907339,4.701489627128456,5.888365948575489,8.863546894095576,4.127221826682145,4.713825597995067,4.736810968068949,6.880555686500563,7.929734064101443,6.305202379533453,4.6356702518940205,3.9826550747628477,9.531921449802347,7.820211559155436,6.293414697493555,4.837286788762425,79.543999,-710.528015,-694.911987,3360.0,3080.0,980.0
5.332953415747923,4.666695257216134,5.849880241307114,8.901236664347591,4.111200539390114,4.7053801781504205,4.735092386786316,6.873922877995308,7.785521967216392,6.123916982997451,4.444441212776517,3.916226229584431,9.269261521963413,7.597092462274926,6.074785848251437,4.75151721018566,77.592003,-706.624023,-696.864014,3080.0,2940.0,840.0
5.315270135692535,4.62748409848755,5.837654560224269,8.887369847050207,4.117519298950528,4.707361557256747,4.736087752175734,6.868903015060101,7.676744102750512,6.002544222873024,4.357376742689263,3.9177324406285927,9.157668799800186,7.51363513315425,5.956373859033017,4.732693817180601,79.05599999999998,-704.184021,-694.911987,2100.0,2660.0,840.0
5.361811356757591,4.639480290195939,5.85058686937096,8.892697024822066,4.131384833597097,4.718958642284917,4.747641980586756,6.868516640407783,7.725025113876646,6.025882808828296,4.386775471091354,3.9545380227273057,9.088969962059114,7.484247526319826,5.820569757461028,4.720720950759311,75.152,-701.255981,-697.840027,560.0,1820.0,840.0
5.335148684673085,4.6135162657881645,5.831205351997359,8.903122198873264,4.126177120131728,4.679037228836251,4.717329843970414,6.877791684750796,7.716943573578296,6.023470760954124,4.319105170216787,3.7960670407292834,9.153558321976584,7.503935599284771,5.81574473661184,4.714912281447685,78.08000199999998,-702.720032,-697.35199,-560.0,1260.0,700.0
5.367097288225904,4.588261408124256,5.794638017049114,8.95420086467049,4.093026866173756,4.67656697766621,4.719719954087731,6.820032884705253,7.690455683319268,5.956142969764742,4.31945988637167,3.797607506120043,9.164453474033612,7.527033092216986,5.605236954050912,4.658707635279387,76.127998,-700.280029,-699.304016,-1400.0,1260.0,980.0
5.365854828336437,4.566934698311555,5.781743020357561,9.02045751691008,4.0844489167474265,4.672582729476892,4.715409469202526,6.798894441119153,7.715490157225108,5.978107861319509,4.366683342562183,3.8261833583458444,9.246145145756635,7.624153014931244,5.41924781106585,4.643004772374886,75.152,-703.695984,-700.280029,-2380.0,840.0,840.0
5.279186070478436,4.563724068276803,5.802324504899986,9.07247422431449,4.020237087047207,4.569867531183516,4.620958837310814,6.779546270336828,7.840155563718394,6.126100492942204,4.405950276816447,3.8458099321985695,9.437941666448912,7.79648241610559,5.554082155190877,4.706523971574747,73.200005,-700.280029,-701.744019,-3080.0,840.0,1120.0
5.320619724386173,4.570864973839729,5.803467579355204,9.087354484280958,4.068750523015706,4.626241455465342,4.669120609146757,6.760285368284974,7.843604818605425,6.125944188563922,4.407506502429081,3.8463194745296883,9.437526527718122,7.772859086555035,5.53576137501339,4.721491929041889,73.688004,-705.160034,-702.720032,-3640.0,700.0,1400.0
5.369870851969773,4.5694276098112985,5.799555680281532,9.15530884345103,4.06806208063093,4.631081661638212,4.672201563165223,6.744133633242649,7.838923552071007,6.107830693249686,4.3975971647497,3.8455396232312498,9.379632380368852,7.6749703278761405,5.5288105575512585,4.718968173286601,72.223999,-702.720032,-701.255981,-3780.0,700.0,1540.0
5.403930561892773,4.518228464793883,5.768594527633876,9.151253721683107,4.071886004262862,4.645709151048762,4.683781737953024,6.674779108399981,7.719748347891162,6.021216307213513,4.398601648403786,3.843563162697505,9.306424378747439,7.585307374084965,5.516988235507855,4.720579228417688,73.200005,-706.135986,-701.744019,-3920.0,1260.0,1820.0
5.355383400073684,4.390722780873017,5.632199678509928,9.155799241776618,3.9945273660604688,4.590909734899709,4.622476361473764,6.469488528921014,7.643921237276376,5.887838384983224,4.414486431899896,3.8515938848993314,9.326806469828558,7.5279484966338766,5.4732019014779745,4.714394202486722,70.760002,-704.184021,-707.112,-4060.0,1820.0,2100.0
5.353299273351529,4.424331568333898,5.613591946944692,9.342246693943821,3.967109259347462,4.585593778591737,4.620402917964182,6.452500584102382,7.66332424387144,5.855248056904024,4.4189519637326535,3.8689209037637036,9.309873496225775,7.460667074791416,5.380003010058914,4.680879469135339,72.71199799999998,-707.112,-706.135986,-3920.0,2240.0,2240.0
5.349029126021265,4.442805782389375,5.618955778912914,9.42421579408799,3.943582193094378,4.5705837290819735,4.609364630178261,6.467433321397873,7.661722080865436,5.839218921800907,4.356915823883881,3.9009583291331102,9.343741030427411,7.490086176083754,5.3686567408302,4.685697488224001,72.223999,-713.944031,-703.208008,-3500.0,3080.0,2380.0
5.379092781875174,4.430556145194508,5.570038061632557,9.325979403547077,3.800670153801209,4.454169762702124,4.501384752556296,6.412554234428021,7.539607735454397,5.679588805354222,4.0770365394253245,3.830710823201308,9.584038662510027,7.485372117017755,5.0711349456874215,4.477010514374141,72.71199799999998,-711.992004,-701.744019,-3220.0,3920.0,2520.0
5.4323474207959,4.448022775947569,5.57011441356568,9.418429229727689,3.8022920250886525,4.454404624766769,4.501771450338887,6.490596025324109,7.648514793695393,5.693009386593169,4.093812032203339,3.7034814624662498,10.1192349028033,7.696466903154955,5.1242572428975475,4.455716681132034,73.688004,-714.919983,-704.184021,-2660.0,4480.0,2380.0
5.379867230334991,4.523043497399217,5.888638493398434,10.372393872072726,3.8233661532152956,4.471176517626951,4.518754640656486,7.307010528683188,7.793427839507611,5.698550207400658,4.064992495233453,3.3081481347999047,10.073284952234438,7.588052296058031,5.119865608918198,4.449960263279252,74.664001,-714.432007,-703.208008,-1960.0,4900.0,2240.0
5.382498916941563,4.882867071961805,6.477734951684135,11.560439405532511,3.867189218142846,4.487338734512504,4.5429151557341045,7.645122478251482,8.271969928199136,6.072431373030988,4.174499278058273,3.2488497263190466,10.15736667083693,7.621513915457489,5.085560349609968,4.451576960089566,74.664001,-715.895996,-701.255981,-1400.0,5320.0,2240.0
5.308705039556021,4.967935600930215,6.486164792816022,11.511446527914138,3.667739103911825,4.296177981445924,4.3584134333839835,7.273319773386423,8.459977024950938,6.390775908678401,4.333394097431181,3.4205047495494716,10.357260980555086,7.787542816214517,5.351431744634092,4.694757618932771,74.17600299999998,-715.40802,-700.768005,-420.0,5320.0,1820.0
5.015069711440798,4.608012200966669,6.119253283414071,10.82742132322103,3.342220398251069,3.9674230765843137,4.0106699564021895,6.810118918456365,8.141471335124685,6.13154124616642,4.104609412434872,3.392571603965735,10.235053585028234,7.530163039159918,5.250994692243243,4.580236289598239,76.61599699999998,-714.919983,-700.280029,0.0,5460.0,1400.0
4.725779214844384,4.267293743072665,5.870321585539938,10.331021642516205,3.188323744338861,3.799077451076821,3.844357918057435,6.718535340331317,7.73489331577125,5.702525411145398,3.868592027839626,3.364520040169049,10.067721439765872,7.12728457881151,5.0366038556328885,4.30830484228922,76.127998,-714.919983,-697.35199,700.0,5320.0,1120.0
4.7111610405525335,4.271400959195664,5.876376110910929,10.291472505346807,3.179528522228265,3.83296175392289,3.881114181440067,6.761914338230408,7.678832957256892,5.693341685649944,3.9285630887700886,3.281560629874817,9.997598039206272,7.066298749704313,5.0058154389343565,4.310692413222264,77.592003,-713.944031,-699.791992,980.0,5180.0,420.0
4.664412040239391,4.098270309492755,5.712222803201081,10.378261439881127,3.0477639349222043,3.7425705299297034,3.8025240231630346,6.674456409182404,7.636124429998862,5.5950142814022295,3.863268666234717,3.0666324513195375,9.996748877180464,7.08828005790072,5.000899453057841,4.329021574619981,78.08000199999998,-711.504028,-694.424011,1120.0,4760.0,0.0
4.683043114900061,4.094589098253297,5.753809144916167,10.453419926956194,3.032615515816781,3.7550133273888493,3.807681801720469,6.699742587728453,7.672672236675463,5.593017174606499,3.9223385064683924,3.0621001218631902,9.996876161101492,7.094406968950236,5.011125625244901,4.356907624852953,77.592003,-711.504028,-697.840027,1400.0,3920.0,-700.0
4.6359468776724935,4.1600316830296435,5.9771324357106295,10.597390424299155,3.026717627852209,3.752857469975372,3.804424937229557,6.7019521953340835,7.982409215443841,5.814075506244835,3.945691481605079,3.142709586699419,10.021664768904998,7.1210209207428665,5.027641840112593,4.361331062508256,80.520004,-707.600037,-698.815979,1400.0,3360.0,-1400.0
4.29545748969165,4.220871748655731,5.991599526671363,10.490828670392391,2.9456077952888053,3.6164396387091924,3.651713392693426,6.655290821486609,7.975998013553946,5.9827302236907425,4.010953697605599,3.262043272484691,9.883919504322103,7.080012572566018,5.044032402238232,4.371892693615316,79.543999,-709.064026,-698.815979,1540.0,2520.0,-1820.0
4.00688208984372,4.2127580593327805,6.074683718086866,10.54336675113059,2.8785465869190006,3.542024322272246,3.5562662116952777,6.935717179731927,7.986911167299198,5.931915221809338,3.9772405012179024,3.3355367135506966,9.825328170292906,7.033607553237049,5.020794444636268,4.455972963343247,81.496002,-709.552002,-699.791992,1400.0,2240.0,-2100.0
4.020121856743092,4.358233622317215,6.312555269929759,10.641560972179073,2.93311059567473,3.5984694330700977,3.605676449554775,7.201701255673781,7.899897289849672,5.862468861884412,3.9730507442116405,3.338226428358626,9.691309169237824,6.98851535856053,4.985658074779231,4.477262102659117,82.95999899999998,-710.039978,-704.184021,1680.0,1960.0,-2520.0
4.13176527486066,4.443180270647185,6.46087677235861,10.594776005159718,3.0466626694899737,3.7123395370866477,3.725188592760663,7.341652448488494,7.793974908525822,5.793365203617393,3.935153826457805,3.3251439639668434,9.581126213155784,6.913920687072877,4.912310375118953,4.430995835620517,80.520004,-708.575989,-699.791992,1960.0,1540.0,-2800.0
4.069120402737806,4.463529259913686,6.448250546593317,10.623242265941878,3.006502471134175,3.5346930326518624,3.5604634154465016,7.351924215268426,7.808450925169656,5.827186514329333,4.000483791242644,3.2538659528270695,9.694589844174798,7.076784702902537,4.9405644326973475,4.436796585990218,82.95999899999998,-710.039978,-702.231995,1960.0,1540.0,-2660.0
4.069126345868181,4.460454345777833,6.445658028507078,10.622992128623027,3.0060320391732716,3.5218491712826845,3.5516942826749545,7.356465167604268,7.747675006882263,5.748404108308295,3.919315174680238,3.261645827164439,9.537156223096078,6.986793835651613,4.904217954987662,4.412258015046031,82.95999899999998,-710.039978,-701.255981,2380.0,1680.0,-2800.0
4.0689720178425866,4.458401391930272,6.432985531203613,10.702774898027883,3.007178910563844,3.522326064387418,3.553544752431005,7.379454841357827,7.6905348019446516,5.71593532217872,3.90400400634787,3.2920689476116927,9.55406899021265,6.97236225977119,4.9080941656245205,4.395060833554235,82.47199999999998,-710.528015,-703.208008,2380.0,2100.0,-2520.0
4.064996101068055,4.508065394446164,6.505187341146533,10.879664361176056,3.0269379628007607,3.498548796585667,3.5322832737329164,7.472985515338871,7.720467758439314,5.7380450650209225,3.9476882817116494,3.292157990250894,9.565807202664082,6.972166482645235,4.907892704980613,4.316347546002202,83.447998,-711.015991,-701.255981,2520.0,2380.0,-2380.0
3.916454575040373,4.532119328632388,6.538877173453157,10.786224960462011,3.0171375798672235,3.239528692692867,3.27152972617162,7.471969926961241,7.9700612586314605,5.935385740056226,3.9859792938164778,3.404301570201391,9.792567250104568,7.067493711787608,4.849994553172419,4.081734723504055,84.42400399999998,-710.039978,-707.112,2800.0,2800.0,-2100.0
3.925961412489678,4.513863010463112,6.515883457320048,10.71794517176176,3.008379087512014,3.224645476091794,3.255600480303013,7.4715876639117305,8.028531901086634,5.979135405375284,3.981584424629284,3.5649491900280417,9.94462703430814,7.1854790699697,4.934890035299975,4.180830690747353,82.47199999999998,-707.600037,-707.600037,3220.0,3220.0,-1680.0
3.9257046896725005,4.571573883756779,6.572259264217328,10.759088219552947,3.0084399631409875,3.1949200287055852,3.2247171165748543,7.45710805095556,8.027519785843225,5.990823172494116,4.005900564971636,3.637560919427623,9.96871264030322,7.2029435844335055,4.957022491319235,4.2125083228434645,85.400002,-705.64801,-702.720032,3220.0,3360.0,-1260.0
3.806764586749394,4.522463863976401,6.511101855827785,10.689077414740098,2.863546512854831,2.980996757986086,3.004529722826505,7.36823596971258,7.89824508057359,5.911594243155183,3.8843255345495598,3.6124673275094645,9.942834014736718,7.166092263551383,4.887141453948401,4.189707972148394,85.400002,-702.720032,-704.671997,3640.0,3780.0,-420.0
3.7902172742881284,4.527293927902229,6.528740729910018,10.699406631522443,2.8500908708395203,2.9432831962540043,2.971665431205798,7.452182196915877,7.952686821691253,5.966177221349711,3.8971247213161444,3.6112696706992127,9.96113436269077,7.180812908423558,4.876885796981343,4.203726637590982,83.447998,-702.231995,-706.135986,3640.0,3920.0,-280.0
3.798181458019814,4.570680640501129,6.585540147347823,11.022286854156558,2.8729523311028133,2.9716973770039323,3.0019580599041404,7.752426024038934,7.973169303680682,5.966005836907183,3.9006601329223103,3.630289198666183,9.96314731230666,7.183117114967883,4.910935096761708,4.224516797062684,83.93600499999998,-701.255981,-707.112,3780.0,4060.0,140.0
3.811428540566584,4.675611465842242,6.641427790379282,11.267510303411765,2.8733627653532468,2.984168751370838,3.0140762411677553,7.797672318449565,8.093882787609552,6.061552074610044,4.008854327696151,3.631431327692497,9.97177941667289,7.211779704603016,4.907321116355154,4.231904746056324,82.95999899999998,-700.280029,-705.64801,4060.0,3920.0,700.0
3.828562819287202,4.717519242862174,6.640292632172533,11.241077984977133,2.872895363261864,2.9429373746060374,2.984824404192079,7.771825132631961,8.032267719323672,6.0768075361091585,4.082917529807221,3.6289478459965117,9.949376137037376,7.233183227892977,4.911552172310272,4.321846481368515,84.42400399999998,-701.255981,-706.135986,3920.0,4060.0,1120.0
3.8105061531454423,4.640699819301772,6.619228631132641,11.216242899370853,2.832622352298432,2.863524763543098,2.906972973235963,7.798401029227409,7.924031737104167,5.966033467293211,4.008748699841592,3.5731695607539837,9.90921883536083,7.194107955148684,4.7913249687002315,4.29415403672985,84.912003,-699.791992,-707.112,4620.0,4200.0,1540.0
3.8022156182581557,4.6684458455083035,6.61095323412606,11.15964112515554,2.874008258948938,2.909256616954126,2.9444604152010925,7.966672843832883,8.010784079571906,5.998028066563724,4.031810777373706,3.5932441641488033,9.983096582601796,7.220372818869168,4.77512979543734,4.2853604223133,82.95999899999998,-702.720032,-706.624023,4900.0,4060.0,2100.0
3.727370985292933,4.59006885636682,6.36012402891253,10.867466548273715,2.9772550284552146,3.0505221077515245,3.071577893420786,7.917467706989397,7.923041959443772,5.917161509096692,3.9882052827623573,3.63608990311673,9.89939099795824,7.155576897645026,4.753003498762451,4.282761789341224,86.37599899999998,-703.695984,-709.064026,5600.0,4340.0,2380.0
3.8226934907763908,4.714557818654516,6.385868216435611,10.832207678594251,3.2716158517352003,3.3163831237843384,3.347100016455511,8.032385435565688,7.9291135999000435,5.930712352784529,4.017017475024183,3.8789811065831032,9.920236911472132,7.143533050202017,4.747902732222152,4.2767704451681015,84.912003,-702.231995,-705.160034,5740.0,4200.0,2380.0
3.751274848447019,4.718729835471211,6.396764332516376,10.906512453076974,3.2836517399963165,3.3248253147832334,3.357640546317565,8.020890380944609,7.995092709199167,5.960557016202811,4.036065122754563,3.8447178380657347,10.192022305560862,7.216065573153185,4.8164471616158515,4.326279704464476,82.47199999999998,-702.720032,-698.328003,6020.0,4340.0,3080.0
3.6357477121555792,4.706221647560638,6.333509495605585,10.897101649515607,3.307368788064519,3.378169221479647,3.417652880346912,8.041875848500895,7.892724888342389,5.894141574955958,3.98237319672679,3.8156334320407215,10.093583888704428,7.107393977387682,4.795799529269132,4.363155758881861,80.520004,-706.135986,-701.255981,6020.0,4340.0,3080.0
3.522011899268264,4.652451602097615,6.237090863027455,10.918157657524313,3.275898948171675,3.346501239776538,3.3769580218746693,7.989122852451894,7.809548745663929,5.884311060584543,3.9727845301368414,3.822876615056776,10.03240201313456,7.03505074907934,4.735603416025711,4.359834026919258,81.984001,-706.624023,-701.744019,6160.0,4480.0,3640.0
3.5035689104825822,4.65827489721986,6.228581271794164,10.919994159791942,3.2705037601221747,3.306388377320318,3.3394945568261876,7.979508151053248,7.8232904352044885,5.877760129884595,4.010338753158661,3.8239367727479823,10.186583389081177,7.111967572028118,4.755725739104256,4.382863300118914,84.42400399999998,-706.624023,-701.744019,6160.0,4480.0,3640.0
3.5006872011051513,4.651059967213531,6.228509190009413,10.861649386879312,3.3102330327075538,3.2665990790951196,3.306089096036979,7.97354231574752,7.6680845474191965,5.788610158327896,4.0037957343060535,3.816129502597045,9.951754857114297,6.951197068565811,4.683548678780456,4.4073287626549975,79.05599999999998,-707.112,-702.720032,7000.0,4900.0,3780.0
3.563975279388958,4.608288774720227,6.214471022430528,10.750734187309742,3.3495925022832824,3.3094889390110036,3.363702097643342,7.975000773064598,7.39609412547232,5.637810141668504,3.9130744635379515,3.829005553543614,9.546243189802196,6.681825654448973,4.5068516228137,4.358545103188495,79.05599999999998,-704.184021,-706.624023,7000.0,4900.0,3780.0
3.6421919053895127,4.6075362882454565,6.22061637837159,10.687993583703458,3.361609655647286,3.325915693465269,3.3897425391161735,7.987734655150705,7.417676657866538,5.672129492744803,3.958661922133077,3.9101021241501868,9.618024320657913,6.714529481295281,4.56348167587728,4.480104955244988,81.496002,-704.671997,-704.671997,7280.0,4900.0,4060.0
3.6668249491203255,4.624834790762106,6.221711021348639,10.701731810951287,3.363445915973105,3.394600236679817,3.4487754288737165,7.9881818815535475,7.428274716589848,5.68503162804486,3.9550509657023936,3.930407367058366,9.627550129840179,6.728205065317582,4.560491280765485,4.567723817735627,78.08000199999998,-705.160034,-707.600037,7840.0,5040.0,3920.0
3.65124983992476,4.7185575631437064,6.293281869115823,10.813763620937369,3.3564656280375464,3.4503606972534056,3.4942520469715395,8.04651184679657,7.338038223909625,5.650604029889582,3.9162878566236694,3.8942364248799843,9.589781386623514,6.734987637326097,4.5597683087143,4.5989402112365845,78.08000199999998,-706.135986,-703.695984,7840.0,4760.0,3780.0
3.691732706800385,4.958709341563346,6.501107139224646,10.979457939515946,3.3531284733654645,3.4782323111309514,3.5167699738325338,8.134094384756898,7.424444440901295,5.867611956668664,3.9559094527888177,3.893188065568425,9.555278656898256,6.834691526912943,4.5877321776224536,4.657246710601211,78.08000199999998,-704.671997,-706.624023,8260.0,4340.0,3640.0
3.645812233105122,4.95022142333348,6.488966265111344,10.93838301556751,3.4227370810755327,3.5022954284928316,3.534301048034907,8.148452435684058,7.393556303498838,5.868404140773911,3.9587953089107897,3.9163399710886684,9.436970524049984,6.787613248574793,4.561130576625271,4.672773810367359,77.104004,-706.624023,-704.671997,8680.0,4060.0,3220.0
3.6544880833789457,4.970665369941618,6.556257716289494,10.941952921260405,3.57345017823101,3.6613423919370542,3.690799133762233,8.244449610509164,7.497784688887715,5.8228695943929285,3.929924686263368,4.009491880725985,9.530783143227294,6.6494897277162694,4.536814499547274,4.614211602025815,73.200005,-706.624023,-703.208008,8960.0,3780.0,2940.0
3.7754483870021622,5.018603233981675,6.7365382625293675,10.986673167631125,3.7721397892735578,3.8843394525932604,3.9034463817701006,8.340824848598823,7.711026962586441,5.9296875439810055,4.114211159111141,4.407297754278467,10.094718264418525,6.998820346143041,4.9409685681963955,4.777315146635925,73.688004,-707.112,-705.160034,9380.0,3780.0,2660.0
3.904383036718042,5.139984662624056,6.907404620396574,11.027544451783735,3.8749060854573103,4.02957569689322,4.040628046217399,8.365198542774172,7.799197155293662,6.116817376476867,4.4578452717766535,4.8107423097302835,10.25053661827002,7.2971020659593036,5.259117581968034,4.955235466351446,76.61599699999998,-707.600037,-705.64801,9520.0,3780.0,2240.0
3.929897119399536,5.145466160343194,6.913874748738928,10.970893480244774,3.878738531674786,4.069624627384911,4.08680942790874,8.36564647119555,7.832654970114244,6.11296337482503,4.478489421160084,4.902501138107198,10.338884476147298,7.301151353065501,5.263309596251832,4.960745360771002,75.639999,-705.64801,-702.720032,9940.0,4060.0,1680.0
4.052494340505001,5.188156939889903,6.941249171831068,10.878941465768849,3.902855741126422,4.129563310430779,4.15316209605723,8.365952016098365,7.814678216617847,6.12638641716352,4.537976901822458,5.05223612294277,10.334578740091509,7.301092947099327,5.26266366768883,5.003643101367643,78.08000199999998,-703.695984,-706.135986,10360.0,4060.0,980.0
4.077993485545039,5.151924680017195,6.935968189996831,10.706579839830328,3.8937992871432394,4.136070833699,4.158990536466426,8.342973429388731,7.751316385535417,6.074239551092389,4.503861241455201,5.042213294914854,10.313917035563602,7.2694517555794285,5.331331682920673,4.994967404131498,79.543999,-704.184021,-705.160034,10780.0,4340.0,840.0
4.113834632242387,5.132766790704153,6.927101731939988,10.52048475723321,3.89192334774996,4.192710457978474,4.2170003802757146,8.436983672894334,7.70143150797755,6.003304762291266,4.4593019957379685,5.0418108132191835,10.416095121529704,7.286806538564835,5.504324086384683,5.019649063801984,79.543999,-702.720032,-704.671997,11200.0,4340.0,280.0
4.164862695778595,5.258441276409583,6.979157024185917,10.462687871402052,3.967679729880109,4.332286625190059,4.377990942911739,8.607383927773325,7.709015976170525,6.01088257713303,4.458622998558595,5.01793946366547,10.567651566470689,7.203729022539741,5.382387954874213,4.969996247573787,78.56800099999998,-703.695984,-704.184021,11480.0,4060.0,0.0
4.039674572679564,5.1964941632765855,6.963040215981633,10.458201035249644,3.896082393062845,4.28871954694185,4.325644225569033,8.643411289399529,7.707634115679437,6.012994349427552,4.442929502137177,5.048780296187053,10.402829383363661,7.039340149728238,5.272644569503752,4.960897679166913,80.031998,-702.231995,-709.064026,11900.0,3640.0,-280.0
3.9805347445958987,5.3554686852053495,7.113319242628685,10.384137151877876,3.9021903383626277,4.28990765222338,4.326862635201702,8.590515148907944,7.743426470159096,6.227901655584243,4.524396094333768,5.049736772765021,9.954453638604948,6.90948731205308,5.392787031252677,5.14994987614281,81.984001,-703.695984,-710.528015,11900.0,3500.0,-560.0
3.999739537146457,5.351706961917058,6.851162850387333,9.39935580094447,3.869173742952457,4.2721367417393905,4.308716256310354,7.950488631770227,7.6836667014687725,6.282675274556559,4.544768506225438,5.047742170399954,10.09857159599605,6.971722871753526,5.425744538597494,5.147689245752142,82.95999899999998,-704.184021,-706.135986,12320.0,3220.0,-700.0
3.9869893256693927,5.101392937559169,6.461189944121042,8.023515235094315,4.022544663305787,4.402566653509328,4.42505800817615,7.994524501092741,7.240589153339885,5.997221301329361,4.6267478753549725,5.187277287154187,10.024288515649841,7.022661924682227,5.565714807629043,5.205226993428917,83.93600499999998,-708.575989,-708.575989,13020.0,2800.0,-700.0
4.000500331855518,5.189446600095318,6.741936042215147,8.209038836187556,4.193135384556276,4.543620571047739,4.557649666238881,8.531478680833821,7.331864279159564,5.874713632937008,4.679497542605188,5.121828021347045,9.951100137139209,6.913124976479308,5.394242265006397,4.966479367708552,86.86399799999998,-709.552002,-708.575989,13160.0,2800.0,-700.0
4.128275146050415,5.427922001555916,6.99259372842507,8.362018645232917,4.31731377516244,4.671872030778815,4.683306986643014,8.593167621887114,7.466666635448991,6.143450028692618,4.851612237596381,5.256764236875117,9.91778666749338,6.973380418670462,5.451490952345787,5.001767406222171,85.400002,-711.015991,-712.968018,14000.0,2800.0,-560.0
4.1716580117151665,5.439273279009846,6.948693316562448,8.493196854022477,4.307769602795287,4.681871560569781,4.688668315475661,8.518865633914368,7.448755970777013,6.132335618035206,4.858969509283598,5.340006843210764,9.840746984240388,6.950054781027449,5.377781710385323,5.036272157195076,88.32800299999998,-714.432007,-713.455994,14840.0,3360.0,0.0
4.236273552235148,5.43790660924467,6.9854049426430525,9.272886334366524,4.285970667082412,4.648165759622633,4.656259559452846,8.539736497109814,8.22515018040017,6.254298203454025,4.815349108770412,5.438700106815482,11.192971580958675,7.382911967573379,5.541914451790652,5.028614723323612,88.32800299999998,-714.432007,-715.40802,16240.0,3780.0,280.0
4.283970725671062,5.425764980438074,6.870008188458524,9.409823032594177,4.247321944206302,4.607115358949178,4.621009522897035,8.293350971327277,8.83078439874698,6.402462041702936,4.756414071496713,5.49346501791097,12.946090509541236,8.321363453203912,6.012054719055178,5.0824339555876215,88.81600199999998,-711.015991,-717.359985,17780.0,4480.0,980.0
4.276317985625469,5.509575941654946,6.97809940787095,9.85903614527447,4.248569227066963,4.58385766225273,4.599361945859731,8.392833350519693,9.601573732454622,6.678341722139846,4.842507667406283,5.497895284823291,14.030165947191202,8.939130992715043,6.272689584238486,5.11629934302879,89.304001,-712.47998,-716.872009,19180.0,5460.0,1400.0
4.271551505846451,5.458361989616298,6.7937247960143115,9.701842403344449,4.255437744190548,4.582587368460264,4.597810852086025,8.397623122888065,9.33793358854218,6.486840890696729,4.843483647891763,5.468628120388061,14.000832086819607,8.923203666267272,6.259864666488328,5.074921454920896,87.84000399999998,-711.015991,-715.40802,20440.0,6160.0,2240.0
4.199409668964644,5.56214821715131,7.163241148908021,10.208765368461963,4.270961168509658,4.608539991252694,4.61726631316394,8.709735387650708,9.751503904831843,6.544564180576751,4.760583969402207,5.363154049570086,14.197818430117898,8.949833858449647,6.209029794780877,4.9843875494936585,90.279999,-711.015991,-712.47998,21700.0,7280.0,2940.0
4.274219972589255,6.029638394474738,7.690750151510012,10.702847250028366,4.436779370237324,4.7637849217199735,4.7653522646547035,8.772460050707075,10.694854843066489,7.1997588355233315,4.9338863250158935,5.301732985563144,15.067268795559412,9.489575000674408,6.327844260137764,4.845857607661542,89.304001,-712.968018,-712.47998,23100.0,7840.0,3500.0
4.233935364307313,5.993493151948189,7.487718026571957,10.52797788208495,4.401185446858464,4.738514060996939,4.745606066270041,8.763760410705435,10.91288837134461,7.37284261335048,4.965579803206094,5.3626190642855605,15.709331781583506,9.810935685611144,6.5183269702140025,5.085357126152726,90.279999,-709.552002,-711.015991,24220.0,8680.0,3920.0
4.3676339447295875,6.041895636801848,7.690416994699873,10.899913892716228,4.6453759292747,4.750157977858652,4.744043506950201,9.642902520720552,10.935504311644626,7.414401048886519,5.09108747196303,5.410753149334395,15.820151599783559,9.765070677484191,6.517437017560559,5.144765710602233,86.37599899999998,-710.528015,-711.504028,24780.0,9520.0,4200.0
4.464575286791771,5.992463732911225,7.696325632533284,10.866831047280034,4.650709731439061,4.7565116302605785,4.741524607189231,9.74252175671897,10.933549827784892,7.3931261341645,5.048335719253601,5.486862037245219,15.988131728183854,9.704088626113139,6.48142487392527,5.127799652210021,87.35199699999998,-709.552002,-711.992004,25760.0,10220.0,4900.0
4.538468073926773,5.996183662157879,7.677075642306954,10.939975129862272,4.6652945049235575,4.758794427096044,4.74429260342693,9.749073074626354,10.90256224807142,7.391557576075316,5.102476240142918,5.784585929398212,15.989372977177469,9.739519806314394,6.645225575638878,5.209380988322524,85.888,-707.112,-713.455994,26320.0,10780.0,5180.0
4.570389756798839,6.135465632589444,7.790578083389576,11.065025773230063,4.83665099994332,4.933050763265617,4.910742653689131,9.993442227637479,10.90500678543784,7.409548107842555,5.092620117864865,5.901529955884769,15.993870999969092,9.738782899025477,6.684908223949022,5.209878458989818,85.400002,-706.135986,-716.384033,27300.0,11620.0,5460.0
4.767777462987254,6.3650765771168825,7.954343628660887,11.04186222681511,5.045547382981948,5.043174568584999,5.016728231521734,10.058921564580226,11.033292509320594,7.630262027546164,5.337580588563791,5.909042833409448,16.375601196884592,10.230687464599942,7.01090115788759,5.4768778328848855,85.400002,-700.768005,-711.992004,27720.0,12880.0,6020.0
4.821639303860038,6.373609292300224,8.056559737956984,11.191481009899938,5.030556566758841,5.042092724106224,5.013606783024855,10.078685695809684,11.124430136327222,7.717448246306989,5.517890388462596,5.784335310139222,16.855290206713338,10.607895238216443,7.144004903443013,5.411086426720364,86.37599899999998,-701.744019,-711.504028,28000.0,13440.0,6160.0
4.809172316573834,6.57212907026246,8.088942921591252,11.22030655367392,5.223244707843122,5.30596447862272,5.282813944719226,10.180691698508662,11.093810218385343,7.708149098001783,5.517069869072992,5.690084640695315,16.749628287730594,10.512530574835887,7.0729984818106395,5.336575438844127,84.42400399999998,-701.744019,-711.015991,28840.0,14000.0,6160.0
4.830066682820677,7.5031917273095585,8.758653144367635,11.951822373578722,6.014939177237786,6.305293210640079,6.291587958166175,10.812845489944676,11.45413708050535,8.104617872166598,5.629099965866404,5.7989048979256355,16.93508639681747,10.533245567043835,7.063454326527847,5.359316369092725,81.496002,-699.304016,-709.064026,28840.0,14980.0,6160.0
4.9046008161736045,7.903134264523803,8.96020551606576,12.00544304195201,6.02710356401348,6.4238560274357335,6.411569461928406,10.793221470792242,11.447123607859176,8.130855830196296,5.618935943492,5.791821689449813,16.932958328065585,10.54008533592055,7.118556481706118,5.371111468818111,80.520004,-696.376038,-707.112,28980.0,15260.0,6160.0
5.316451992133658,7.903374928635478,8.9523539175514,12.841862643979008,6.503527529419276,6.67836803917121,6.676521036433894,11.812806019268148,11.97360734756149,8.137800958416376,5.6854581802906985,5.813446819243434,17.17607564721287,10.616451311389827,7.190737484040885,5.402539223535852,78.08000199999998,-696.376038,-707.112,28140.0,15120.0,6020.0
5.486614290346288,8.025719831579492,8.904364315907467,13.239160162785245,6.9474497462924685,7.095659854013569,7.1025518645707,12.316943722304476,12.196703752810361,8.145411342276857,5.752163756605431,5.820381768012464,17.180663662759663,10.616689262637912,7.1507049122306805,5.3972630081436295,78.56800099999998,-690.031982,-701.744019,26740.0,14840.0,6160.0
5.4659875016809965,8.000950630367624,8.952275946544514,13.036283602141872,6.974545931853698,7.126367823713857,7.132807739085792,12.29239778706776,12.178675369448728,8.108318558901292,5.671729675691999,5.895904991654095,17.614484615109333,10.98884202871083,7.220039041307879,5.391930352517747,78.56800099999998,-690.52002,-700.280029,25620.0,13580.0,5740.0
5.562696819972688,7.959774536154959,9.125442093585153,13.335923819637653,7.037635047310508,7.1786093630049725,7.186916273611249,12.745328487134387,12.43029724227537,8.126109688568302,5.6208321750848365,5.9235768813478025,18.11075839393555,11.331397000400193,7.2482605624047425,5.334329978230201,76.127998,-691.984009,-697.35199,24640.0,13020.0,5600.0
5.562739288748523,7.952723617627778,9.127004259305913,13.504605895010629,7.036881299802696,7.16823409994484,7.178818203500838,12.802055217954548,12.724785044326472,8.174632433467256,5.6207965189191285,5.956103988306098,18.479383951591693,11.588843296851682,7.273210042305165,5.343789102214135,78.56800099999998,-690.52002,-692.471985,23240.0,12040.0,5180.0
5.561030574729029,7.9376349028138,9.106886203850754,13.558513969545523,7.032283941828262,7.147566779690949,7.158427709638255,12.700142193450585,12.902166161719238,8.264240302386199,5.622099647910062,5.968067618896605,18.687460411603528,11.848842237706117,7.330519312209881,5.358012354363908,80.031998,-691.007996,-690.031982,21140.0,10780.0,4480.0
5.822936161012999,8.036387414061291,9.096063239594471,13.561107537649827,7.09385539317709,7.241560636423924,7.256852080499909,12.648725391368801,12.871497911033158,8.296639634804812,5.70381824512987,5.932796676037711,18.685154278420917,11.877522983024932,7.3440804322739,5.379757757068436,79.05599999999998,-695.400024,-689.544006,19740.0,9660.0,4060.0
5.991909080936777,8.013199792609875,9.067858278379749,13.564060725818122,7.136213777649121,7.381328422155376,7.3809182573343195,12.666562682901601,13.021567471621381,8.433652944228804,5.693326094402756,5.7856638748932765,19.094532415307675,12.145081018183625,7.602738129170261,5.477363532918465,79.05599999999998,-702.720032,-685.640015,17500.0,8400.0,3640.0
6.113786503236982,8.010380770133144,9.058939550588192,13.51635860587224,7.166812634360877,7.4747708954473735,7.469739530003751,12.666157948022493,12.964962670358352,8.406277804186585,5.6661147786809005,5.784996013522012,18.935593181475998,12.056971748956297,7.543593630161421,5.496546494638476,79.543999,-701.255981,-682.223999,15960.0,7700.0,3360.0
6.234130881319865,8.014048320902885,9.060749617218171,13.527414824969767,7.189203349338157,7.452085382017846,7.443681203484687,12.837285758304676,13.453716547191476,8.708069675874054,5.90970362573815,5.853919538854463,20.184623629574467,12.745647990325685,8.160860325146325,6.110042901343719,81.008003,-702.720032,-678.807983,14140.0,6300.0,2800.0
6.415833618618722,8.020539434103398,9.017484945240147,13.498366804326913,7.211621859844734,7.457586040397341,7.450228519845896,12.950297761075829,13.652077902029351,8.807584684591497,6.1450673600726216,5.971531838719811,20.423029164622314,12.876241688780066,8.436099542550377,6.414473250041797,80.031998,-708.088013,-679.296021,12460.0,5600.0,2520.0
6.41470915211313,8.248645784900077,9.447936654531148,13.966832440654686,7.217312200526378,7.476585323463746,7.468847606722927,13.203855908982447,13.860250773265273,9.067815154584071,6.13863268674073,5.97363949661951,20.5732551671159,13.090102407223503,8.472972761067101,6.39808574792908,80.520004,-707.112,-676.367981,10920.0,4900.0,2380.0
6.396915294301586,8.398719465000468,9.972333940517784,14.205841207558853,7.187182821179198,7.517233093276184,7.513753503675115,13.239529013214643,14.08605906938968,9.358356938283892,6.170672594531928,5.9870179813225075,20.992396180012477,13.527193273547605,8.698632412210516,6.561067675658098,80.520004,-709.064026,-678.320007,9380.0,4340.0,2100.0
6.381201549530084,8.483232143144765,9.983308471041227,14.296521707805319,7.20346147446994,7.503996001452472,7.493034112310899,13.31829363927214,14.20553579420205,9.466457030746176,6.398892350163589,6.1134518175235755,20.987984177350857,13.535263062612563,8.721032216633954,6.544560885751535,81.008003,-711.015991,-676.856018,8120.0,4200.0,1960.0
6.374900479437908,8.535852294571374,9.979889020840545,14.403508825308533,7.1948517425911085,7.550824345372474,7.533631697601769,13.34283418371281,14.18640618100495,9.450706266903804,6.44835189433491,6.097417182192952,20.956444038341047,13.546130638415537,8.685640014116014,6.444830199896149,84.42400399999998,-714.432007,-677.343994,6720.0,4060.0,1680.0
6.479466092454413,8.561129762122453,9.977407574954166,14.488375129180174,7.190492628227943,7.5647065108744105,7.555195522323369,13.38071744560971,14.190953288795926,9.44474754232676,6.450192522373711,6.116932084114032,21.03602154477431,13.592525881066607,8.698690057072527,6.406906517934826,82.47199999999998,-722.728027,-681.736023,5740.0,4200.0,1680.0
6.5081149413421,8.611651651926456,10.114675920429834,14.669852474350199,7.280776370436034,7.543183264183705,7.537261907898199,13.757446171618515,14.198085447863336,9.407957037279157,6.442620186481956,6.141389480732836,21.06906335820553,13.614615364231385,8.7710945359645,6.407379999707008,82.95999899999998,-725.16803,-680.76001,5040.0,4480.0,1540.0
6.520043109661363,8.618861065248199,10.38331786512291,15.053738868003597,7.395101008061544,7.530837846213778,7.524457254894893,14.223975843168313,14.171382465334407,9.2907277897806,6.410773450061299,6.153769119864316,21.080687179830434,13.552236816920244,8.790989699219674,6.422420124844274,81.984001,-727.119995,-689.05603,4340.0,4900.0,1680.0
6.52806343710536,8.800306714470581,10.771968800944569,15.307427909147028,7.451562341993927,7.508298781487303,7.5016536344832865,14.294912218954394,14.280660363887115,9.448273387036883,6.445482735489091,6.143042686038636,21.16445832438721,13.605321006367296,8.813581548765418,6.435330708592125,83.93600499999998,-729.5599979999998,-693.447998,4200.0,5180.0,1820.0
6.565052446954679,8.791587583191367,10.745031139190512,15.421506532936073,7.386140664830255,7.467757489970047,7.457930506287753,14.501102915256784,14.217501594128425,9.431432889608176,6.442453739674527,6.063958438106353,21.052183089350894,13.625548057010985,8.863485068268057,6.555192802457299,83.93600499999998,-729.5599979999998,-698.815979,4060.0,5600.0,2100.0
6.641225018221905,8.933153020937985,10.796234179502664,15.498742202050135,7.404959557916261,7.385967262040693,7.368878691886642,14.747373122509414,14.037116506523766,9.285216348742646,6.501036637908592,5.921939479921218,20.68627805275491,13.325675095959417,8.556585410922807,6.390943522211025,95.648003,-732.4880369999998,-709.064026,4620.0,6020.0,2380.0
6.609048553862326,9.13648391054241,10.933939370277495,15.697691727919496,7.389275743588818,7.274001173327867,7.2654141963216174,14.915108297069537,14.11516778387408,9.37389125891829,6.79591619325942,5.809941592290907,20.686457020182637,13.236093391296118,8.414321880192979,6.336174276848661,92.232002,-731.023987,-714.432007,3640.0,6020.0,2520.0
6.62704870505326,9.63147381414917,11.486122557066256,16.359986663636132,7.536647098563537,7.2500634065162215,7.239897076753294,15.257587390174194,14.50773872550266,9.78708759484307,7.486134569919925,5.934486295212172,20.8985548820031,13.369145529012377,8.472754965021629,6.418084963857037,88.81600199999998,-702.231995,-703.208008,1540.0,5880.0,1820.0
6.529471362742499,10.088707205958148,12.228891718752621,17.610095870877373,7.55669734789069,7.2094563033998975,7.197436574072248,15.425586675191616,15.470253806142873,10.430471227320126,8.057034287348753,5.95540927988556,21.215910226015005,13.4556898791892,8.498169289477053,6.391204063812158,79.05599999999998,-709.552002,-704.184021,2660.0,4760.0,1820.0
6.518716112125426,10.288436981921913,12.464238378908615,17.867399568782083,7.570308702946238,7.282144643464603,7.27682616280436,15.493653273899863,15.971657878125798,10.902397922873659,8.281598744757392,6.055878274734405,21.284792862475378,13.465771623674119,8.462095578904455,6.392482579991374,76.127998,-712.47998,-702.720032,4480.0,6020.0,2100.0
6.611103712126813,10.418315150476294,13.012268119044583,19.037576896540884,7.782999805474901,7.534257224948335,7.544053621778243,16.801645946583363,16.15890548386403,10.93915525288349,8.326906385457304,6.056710026765118,21.210807498347787,13.444989408914237,8.36784787098669,6.422146610673641,77.104004,-710.039978,-697.35199,3920.0,7700.0,3080.0
6.616720618974325,10.518675235621696,13.29691855904676,19.48932824213091,7.7746932512649005,7.517335979279546,7.517714236923381,16.810253581440808,16.490157868900138,11.183978963367876,8.526032252199633,6.083936529751583,21.112835334797317,13.451675272344277,8.389892926636415,6.443133510599057,80.031998,-710.039978,-698.328003,4340.0,7700.0,4060.0
6.661295712298695,10.501568533321091,13.321647268171132,19.572004789307954,7.88598800338365,7.5757141909877594,7.581032306777481,17.103296699476267,16.48737185992868,11.204579023942031,8.575045755755749,6.0581294716030385,21.01070496560482,13.444746038243322,8.47908725458651,6.518897706046984,81.496002,-710.039978,-703.208008,5040.0,8540.0,4200.0
6.650269242617208,10.432992585689892,13.389744683369463,20.019846074086264,8.020384959382172,7.6783774263623235,7.68978194332168,17.713024318603065,16.461226578663215,11.076550168824328,8.541327489010175,6.095258924053468,20.976415938779045,13.38486187611404,8.418501099990364,6.431587885039058,80.031998,-711.992004,-697.840027,4200.0,7980.0,3780.0
6.667314178701811,10.444863966218549,13.533089307067337,20.432685000386183,8.217320502850741,7.857738126091415,7.864835174095353,18.17251366430636,16.441522090781987,11.038143323688816,8.530664684446476,6.100973947472916,20.90320546142347,13.351191322938613,8.391434569591743,6.37644056450008,80.520004,-715.895996,-698.328003,5180.0,7420.0,4060.0
6.652261466697853,10.43322879905861,13.483235811461954,20.37078075302403,8.121817335298058,7.776156129360397,7.785662923120739,18.00355587197076,16.492140622793002,11.005956114119018,8.474210167999475,5.9745348517291195,21.046523910803298,13.323948684122957,8.298337782822305,6.329945932690228,78.08000199999998,-715.40802,-689.544006,5740.0,7980.0,3780.0
6.708107296384017,10.585783068306863,13.902305758686074,20.844862373654063,8.070001521646901,7.711628391476555,7.7222018429322,18.110745134179137,17.211933471222814,11.266403284947064,8.719422809031808,6.014326977606408,21.380744309881447,13.42565834810722,8.287027561594272,6.330998203013425,78.56800099999998,-715.40802,-688.080017,5460.0,7700.0,3500.0
6.641810942877851,10.509939767710883,14.004729633463812,21.087723432720068,7.99526915721349,7.637219676465194,7.6500881694772085,18.112511146407982,17.439964989132054,11.246660801494231,8.688388091749385,5.894143607539004,21.401647725458737,13.398657064607097,8.271862186919574,6.380683311305494,80.031998,-724.1920169999999,-685.151978,4340.0,5740.0,3220.0
6.633913615474441,10.505124182969467,14.039786589634494,21.046934003575494,7.995872479399047,7.625952984159459,7.640540093589943,18.110160730490446,17.468625136607326,11.27951873058467,8.684106831344211,5.8198783412617,21.330844164158616,13.398580878773005,8.280482384743392,6.372017252883993,80.520004,-731.023987,-682.223999,3640.0,5320.0,3080.0
6.6235470023948455,10.506681393308774,14.021376505685044,20.72649511091768,7.999041522945499,7.625610142602233,7.639944281812358,18.06494812502372,17.14951872696124,11.22466752449702,8.716350849287483,5.725712607085448,20.784505385986307,13.238627484656414,8.28468466540828,6.442827217668774,88.32800299999998,-738.832031,-681.736023,2660.0,5460.0,2800.0
6.6462993056851145,10.522794509815244,14.035895911580463,20.607469572015276,8.000026739185495,7.625557120032675,7.639200187071852,18.072408675189934,16.860820579858327,11.145622778699913,8.730365384441836,5.687462927157775,20.03334787664942,12.931018463147726,8.353129865262531,6.59979888314439,96.136002,-742.736023,-687.104004,3360.0,5880.0,2240.0
6.840663976933567,10.641912592145072,14.124144667951658,20.427713815175327,8.007292368323938,7.625730383889811,7.640156996818475,18.04572156077783,16.646699192105032,11.407151229080583,8.810802950381884,5.797821493578817,19.43366009573831,12.564128616237966,8.148327039452715,6.568417446122026,92.720001,-739.320007,-688.080017,3500.0,6440.0,1820.0
6.888596076460178,10.655230693041409,14.121156551502782,20.449298093968583,8.010217942404216,7.6656335156846405,7.681242994507695,18.233028419401855,16.654135105410496,11.529683894615033,8.861754066168382,5.844391881916159,19.493879374388577,12.600527496495506,8.156456320232182,6.601312009224166,95.160004,-741.7600099999999,-689.544006,700.0,6160.0,140.0
6.924846923817091,10.584974637699752,13.904507193980399,20.19040934648624,8.004790905204397,7.653076767490463,7.673729953264654,18.075094012384515,16.362250916524186,11.439022806222303,8.93271816152449,5.894036394470274,19.410733272059122,12.633116110771505,8.205418719019475,6.637979250012485,95.160004,-733.952026,-694.911987,-1680.0,4060.0,-980.0
6.881629398372448,10.328873309131158,13.566532482562508,19.85365167876167,7.92234573121795,7.554365789203952,7.5809860760822385,17.964713439830074,15.719625668519345,11.073004606044712,8.929134056676435,5.936863045776756,18.915730701263165,12.517983883900389,8.339533781185684,6.878757520085192,91.744003,-738.832031,-695.888,-4200.0,1400.0,-1540.0
6.89370976358051,10.355950449670052,13.761489862329702,20.42939227224166,8.005533161631655,7.6089152756050575,7.625868066900003,18.2662211404776,15.712755271106884,11.03221757365681,9.032635906044604,5.904298472266766,18.369692498312176,12.28669105253637,8.225486625212154,6.764731041126868,88.32800299999998,-734.440002,-696.376038,-6020.0,1260.0,-2240.0
6.737142553219585,10.291599906668083,13.57918250064283,20.380794672362615,7.9874682054927675,7.691963971669393,7.7191519521347685,17.94725543088101,15.698388422281894,11.01148440407538,8.961727813548864,5.873750659668064,18.364186483601852,12.27123068085384,8.228397113440462,6.819770275103734,87.35199699999998,-736.3920289999999,-693.447998,-7140.0,980.0,-2520.0
6.737558802099211,10.374021251362246,13.859420151798384,20.496729661836863,8.014198775676356,7.731065716438245,7.773582928219818,17.882433599668648,16.372817766604584,11.521572799000037,9.04675847675789,5.777712911258484,18.772921468923347,12.392328937624505,8.25324274807116,6.798508622432386,87.35199699999998,-738.3439939999998,-689.05603,-7560.0,560.0,-2800.0
6.70268221797022,10.381979507007257,13.927790701850792,20.47356533101188,8.28277560165066,7.99780093849367,8.056907680115732,18.104390735286223,16.55949085032766,11.760051527754335,9.10679979560525,5.4937150019171535,18.77922150750937,12.37000961450026,8.126241106986214,6.737561290763336,90.279999,-738.3439939999998,-689.544006,-6580.0,700.0,-2940.0
6.741617622803809,10.36071499388988,13.951307816388042,20.362059031451327,8.255650466276563,8.001629729117676,8.072672434183525,18.031283441510375,16.560538576698264,11.857997104420262,9.288738706940679,5.395083127615372,18.87215768587531,12.37558982421405,8.09187627888516,6.739052173350285,86.37599899999998,-732.4880369999998,-687.104004,-5040.0,1260.0,-3220.0
6.6140706571476136,10.205951104775183,13.821045727666192,20.282743684562274,8.121742337398924,7.924022586840867,7.99863934815834,17.961008526700542,16.491907085526055,11.70597732452292,9.180834158173829,5.413546503436423,18.57716887063989,11.96997549494944,7.807107104892887,6.524524805859667,85.888,-729.5599979999998,-680.76001,-3780.0,980.0,-3500.0
6.612528752627869,10.217933736595628,13.833262746107781,20.315195389924913,8.120592354031931,7.923144286330919,7.997574553919679,17.950372546484342,16.646563518008925,11.82837323285327,9.318251641412083,5.554215654098832,18.558118161079985,12.082551894630084,7.989201880313523,6.738395072700846,86.86399799999998,-727.119995,-671.976013,-2660.0,280.0,-3360.0
6.654595871211026,10.099458612054267,13.847387978565106,20.349596519254177,8.011883203323404,7.758373120374826,7.83125471756824,17.89513273612604,17.091613739049997,12.21926673484782,9.622063782244288,5.842984688329491,19.917579769816633,13.518420364385737,9.182297938741042,7.6913618189714565,87.35199699999998,-724.1920169999999,-662.703979,-560.0,-560.0,-3220.0
6.672081564960378,9.416400251141347,13.435112693351764,20.068817326507926,7.66410327117918,7.125134101829002,7.186500120850465,17.97583775474433,16.87165491700887,11.996399419131542,9.54916093155757,5.688620242824802,19.997474857362885,13.5921928893612,9.341938700689118,7.716623854815142,88.32800299999998,-725.656006,-657.824036,560.0,-840.0,-3220.0
6.779560813385808,9.38244448894576,13.798155445130906,21.21859026126264,8.429201624798143,7.609481930691358,7.635179312517024,20.335600575134805,16.964906907280078,12.097129409033279,9.566100764414228,5.725111298349935,21.773639899883285,14.739245333674129,10.419306325946872,8.301597011979787,88.81600199999998,-728.096008,-660.263977,1540.0,-700.0,-3220.0
6.477112820507197,9.41447477430607,13.861449055153118,20.718428212999846,8.09313357901018,7.407662223973486,7.4256227207792,19.918581675131286,17.289321486951255,12.535617474914975,9.635041390054843,5.774462235642111,22.43479186470623,15.127050343777906,10.594171927366038,8.271934941265373,92.232002,-724.1920169999999,-658.312012,2660.0,-140.0,-3080.0
6.390083844934251,9.407928444494491,14.00867482115894,20.337743989081996,7.750586396702378,7.024183108970296,7.035246427005011,19.529189500258784,17.15189305458123,12.55435284124,9.606529894152837,5.771379605168641,22.491877159240897,15.182979440778393,10.656670985108507,8.400834965194424,90.767998,-723.216003,-657.824036,2380.0,-140.0,-3220.0
6.418363053685788,9.394117083849622,13.949308817470019,20.354772985035275,7.804534878846866,7.099742190277568,7.111313649091926,19.52224454614056,17.33861407275267,12.654278371272556,9.619710566591017,5.724812704139238,22.786147885572046,15.298094183176607,10.872055046788542,8.63045061888197,84.42400399999998,-716.872009,-660.263977,1540.0,-560.0,-3640.0
6.374028282853105,9.401653876518242,13.85168532069422,20.203485351099385,7.809747426177449,7.137954209549672,7.1534150135651,19.303614952783793,17.181386942142314,12.621182352160199,9.649128773461422,5.696228899900431,22.452050583492365,15.03446813772735,10.877052838590249,8.652904246169863,84.42400399999998,-719.799988,-667.096008,280.0,-1540.0,-3640.0
6.37677134621052,9.413499778265678,14.04662598233204,20.654437552549854,7.824534532443262,7.145259350529895,7.159294505706398,19.781999304518898,16.98246862545455,12.588416430742534,9.662848998828723,5.667055769951942,22.15092561304555,14.836343029087779,10.862635682791886,8.646949669176816,84.912003,-720.7760009999998,-666.119995,-1960.0,-3360.0,-3500.0
6.400561495449116,9.477814347683223,14.384908023910583,21.30000782554447,7.915903843201333,7.213317375499873,7.221691158782923,20.141040178958242,16.934670386758555,12.51825051859564,9.660405329832821,5.651969668904897,21.942113358892346,14.638766550984194,10.862953982416148,8.679730420691321,83.93600499999998,-725.16803,-670.023987,-3500.0,-4480.0,-2940.0
6.223517120428815,9.424586687279682,14.55321653523442,21.47535846448999,7.900085180316773,7.124290767392564,7.125271117827267,20.248124680128075,17.029160194037843,12.539491144232793,9.690518075302037,5.683778915471362,21.988866213444886,14.690375233094432,10.963766498375296,8.798918305529089,80.520004,-725.656006,-672.952026,-4200.0,-4900.0,-2520.0
6.015701131494692,9.40698038729164,14.619527907494462,21.636235971643817,7.863139602669295,6.970354634745452,6.973768469259994,20.369361171066707,16.96381854208366,12.441450460611279,9.686505119451677,5.679062460286157,21.64368982491806,14.503006434471432,10.805325074333298,8.74876046333494,78.56800099999998,-730.536011,-678.320007,-3780.0,-4480.0,-1680.0
5.913336260139544,9.480738602358693,14.70193371747735,21.694312869857896,7.830038322161119,6.865508691250964,6.875543387810569,20.440534646629782,16.979492939917346,12.45637793242377,9.740923118603625,5.692989097954832,21.621704459974012,14.506685407583646,10.812587611714886,8.8213092551841,80.031998,-732.0,-674.903992,-3080.0,-4200.0,-980.0
5.910015460928747,9.726691902321052,15.238489027529907,22.28169759962566,7.929943226062083,6.99942140518666,6.998661070458788,20.95793421856823,16.948158607517577,12.419841742745271,9.81124846671244,5.707988286647699,20.612541412739912,13.944727450176536,10.351876437311674,8.378738730558505,78.08000199999998,-730.048035,-678.807983,-1540.0,-2940.0,280.0
5.681675194937158,9.759772337292679,15.46818230725324,22.58098026663443,7.9748544297017565,7.0390065744012045,7.0380116460099424,21.348203274895283,16.990157002958487,12.369431206517326,9.689042917936694,5.579196798618198,20.609905272472854,13.959570074780437,10.20954070301026,8.145996181325007,77.104004,-732.0,-676.856018,-560.0,-1820.0,1260.0
5.668367123581678,9.572509522617453,15.284847798299463,22.472308695096277,8.082033324068421,7.094798308463223,7.096425951211823,21.680698692305878,16.812642709065646,12.206137148029121,9.683878058167613,5.632139991564649,20.375939634146675,13.722128409161046,10.169070657426023,8.174437849671389,76.61599699999998,-732.4880369999998,-680.76001,560.0,-560.0,1960.0
5.771755070062619,9.701411088341311,15.240709510383166,22.686313684700657,8.650353242384545,7.530101610046573,7.534012234666497,22.428568433337134,16.645484696294197,11.986325716119362,9.704026600161521,5.642642257119678,19.945439922848415,13.291196882149313,9.977289396392429,8.029432982328958,77.592003,-730.536011,-679.783997,1960.0,700.0,2520.0
5.77830739642556,9.69133482139157,15.263591955143148,22.656492134578805,8.907571197878948,7.796671098703501,7.799146974064605,22.604019150241587,16.66855308780964,12.025554686787155,9.553388072276036,5.502390968307012,20.396552740879486,13.591505925148992,10.127102322477334,8.074453764274956,76.127998,-729.0720209999998,-682.712036,2800.0,1680.0,2800.0
5.736833925145873,9.637259909739328,15.2774733480668,22.583851000258786,8.9063842215044,7.734382312982713,7.737782124248425,22.583061818199916,16.732548638947573,12.023857184483463,9.510104968866594,5.46941946534448,20.587894221362752,13.610792548965193,10.130601703114763,8.089830043220022,74.664001,-724.1920169999999,-682.712036,3360.0,3220.0,2940.0
5.688259480139389,9.667652388251488,15.275303783495989,22.53241975661381,9.123099446786176,7.9284737228272695,7.936937784312971,22.683246960601434,16.728305994151505,12.022493259273904,9.506533231587744,5.429768322635752,20.501896583040544,13.57388936109186,10.145912428696631,8.150025891009557,74.664001,-719.799988,-692.471985,3360.0,3920.0,2520.0
5.974678343189324,9.973793353667679,15.304439427541917,22.546931236150535,9.590113082394407,8.481292570059889,8.472092406459812,23.243581795942994,16.742579478359172,12.028241172985297,9.5284670118473,5.492547354515499,20.805778059892308,13.797542012297217,10.18713929838207,8.211656523937243,74.17600299999998,-723.216003,-682.712036,3500.0,3920.0,2660.0
5.9865993550459216,10.127388404064305,15.174150161248475,22.50950312725427,9.875044380501127,8.854974589195118,8.852636469454144,23.983541878319894,16.84103424416202,12.10963100997063,9.528468558244597,5.484016252006297,21.26855844398168,14.20738833475164,10.421094196808134,8.36373528233482,74.664001,-722.728027,-690.031982,3220.0,3220.0,2100.0
6.020193316681261,10.205891557583925,15.105855971875197,22.62720635337475,10.249840199998808,9.296770772587443,9.30493401282498,24.66470315693376,16.76018786782268,11.980647298630522,9.534643184163842,5.519778949774962,21.197959337875904,14.139843936599418,10.397549843707235,8.339784740513865,73.688004,-721.264038,-685.640015,2800.0,2240.0,1400.0
6.024828292369724,10.29264820131074,15.16792743266617,22.604485168319247,10.578289456903958,9.651551590564205,9.657608636097349,24.821749104345795,16.730771144996183,11.996959933893672,9.526953958899316,5.519608894364877,21.197959512401404,14.10258946695401,10.370938996624208,8.26409859286349,74.17600299999998,-725.16803,-684.664001,1680.0,1400.0,560.0
6.011674043337385,10.256355574859345,15.185054447594808,22.568353132659013,10.57195828960597,9.711442128713344,9.718564690870085,24.7440867766926,16.702496586882614,11.963625935410697,9.37209375968772,5.286595785258256,21.37620680978889,14.207073673281453,10.553866702710806,8.317054646652538,73.200005,-728.096008,-680.76001,1260.0,700.0,0.0
6.256524276103728,10.274946635977933,15.200587748341125,22.428520491281375,10.57100619489372,9.737942993311975,9.741280285352316,24.660948268817773,16.597281894438844,11.90084784066932,9.240954006866442,5.140568596130627,21.4915194237454,14.172910542105145,10.538358995418456,8.249613036562476,73.688004,-728.096008,-680.76001,700.0,560.0,-840.0
6.342484214798127,9.962330879846908,14.930836271269202,21.966274963337746,10.492878477204851,9.774296349302755,9.781002890557334,24.50736007727084,16.641376960139848,12.182135895966569,9.237266120573581,5.113619248086376,21.429018785851692,14.335319936580932,10.640688588811257,8.376310407532777,73.200005,-731.512024,-679.783997,-280.0,-140.0,-1540.0
6.3474540670264,9.474969042652852,14.338366795355205,21.000137085264765,10.76503204445355,10.06811436083921,10.077570549731076,24.910967806028776,16.667361827297672,12.79525785248873,9.268661551244596,5.320933393180953,22.60103850540728,15.646118403556713,11.496235617172797,9.170399108555236,73.200005,-734.927979,-674.903992,-980.0,-420.0,-2100.0
6.574158081191719,10.24043930289455,14.952505592224014,22.14790799687723,11.511891096502733,10.612446757537336,10.613605764952847,26.56500064225918,16.1831003053868,12.413161624374997,9.06706158132571,5.223586523946384,23.299069088593406,16.480027495331726,12.165361453517843,9.976985144171932,80.031998,-739.807983,-679.296021,-1820.0,-140.0,-2800.0
6.865943360575825,11.007489652666182,15.05586599073877,21.97924594551544,12.14173023005108,11.053608909528563,11.049263722929442,26.843401504265046,15.998709093892888,12.399051667351419,9.028142070093976,5.2096233417418,24.486644895386696,17.492264693757072,12.987133816944434,10.5038061310158,77.592003,-740.783997,-679.296021,-2380.0,-560.0,-2940.0
6.861238595631782,10.877246113177021,14.796371349125371,21.5801863122403,12.164438181000703,11.053605833610224,11.049925347456872,26.791663011425054,15.681078658374677,12.187719215682243,8.856697077160062,5.205297226753404,24.533628207850875,17.524477353915216,12.981461456790244,10.496069880261038,76.61599699999998,-741.7600099999999,-676.367981,-2380.0,0.0,-2940.0
6.8255788498044305,10.918771172465181,15.061390426663781,22.214407229095322,12.426418462463708,11.305093367755658,11.315793097901912,28.31529595010048,16.098148944029607,12.620576414662523,8.945377279162264,5.437047896902252,26.385234635503227,18.713540951187234,13.71022859529923,11.300648575082326,75.639999,-743.712036,-677.343994,-1960.0,140.0,-2520.0
6.954708380930044,11.153199395207535,15.552277286121075,23.03181136446503,13.168981746888397,11.962078596918875,11.99955478221484,29.94660015270818,16.254793052391857,12.947015233604745,9.011532376305565,5.427109652961452,27.695883723463155,19.59933982598066,14.179433868922144,11.70490502326126,73.688004,-732.9760129999999,-669.048035,-1400.0,-140.0,-2380.0
6.952917583636433,11.15032306781742,15.597355305070288,22.966219849064863,13.212185182561571,11.959191678398977,12.005920914874515,29.85103932835862,16.234013835467707,12.923218600381064,9.012174322588931,5.436218737100271,27.68447318456954,19.643336977937302,14.203721071213334,11.75619663973945,69.784004,-732.9760129999999,-661.23999,-560.0,-280.0,-2100.0
7.251425728006319,11.309582991888174,15.674233008819504,23.028638826528933,13.362932458925712,12.182375838407966,12.223039775329172,30.13350071783585,16.15307056225452,12.933169501579357,9.14120284986633,5.518673906178325,27.619400827475577,19.65004221267471,14.253234458920536,11.9415423144888,63.928001,-722.728027,-635.376038,-420.0,-1820.0,-2380.0
7.697025574760797,11.430773466232662,15.618997798524706,23.024772336979897,13.54303148844777,12.414267504540675,12.455945231166169,30.407506581167645,15.562998032139923,13.074667191895678,9.317084965058946,5.925893688041694,27.340634895959568,19.67717406074263,14.367487573012404,12.176548668704376,56.119999,-718.335999,-607.559998,-2100.0,-4200.0,-2800.0
8.168803595184029,11.614072237743953,15.630130871023498,23.053259057618178,13.681122702919529,12.603497268302007,12.642246488941412,30.52955033063214,15.547983555585668,13.291627468149507,9.666188626717668,6.193075230311693,27.36825085438179,19.775420033661284,14.394327942320448,12.178816649918465,56.119999,-717.848022,-592.919983,-6720.0,-8960.0,-4060.0
8.331208891940166,11.683162463007102,15.70643189688859,23.23878877923715,13.880991151002101,12.849633132769428,12.892685994511782,30.9221026734416,15.479624161990897,13.280583502161342,9.670099298427733,6.1951639322487,27.532890188052786,19.85064106722786,14.604435488898872,12.349753457921404,63.928001,-724.1920169999999,-614.880005,-12740.0,-14140.0,-6020.0
8.50610658777506,11.803751596317747,16.016062575509093,23.479706583980466,14.087146385313766,13.091202044280374,13.139075174317194,31.5633775800824,15.513244613001063,13.317902851999865,9.649088684832952,6.195270002663868,27.90622744609359,19.9535179929914,14.759984406267327,12.44814588400369,71.248001,-726.632019,-630.496033,-21280.0,-19880.0,-8820.0
8.734527728493708,11.923863707614116,16.325951625801373,23.650734556542915,14.178632029600376,13.284225743573968,13.32589967808444,31.771601706777712,15.79069760778868,13.618039270212911,10.133119672895846,6.375785458839943,28.15840992975639,20.432772684602455,15.004828646177216,12.746547584303224,79.05599999999998,-740.296021,-645.624023,-25760.0,-22260.0,-10920.0
8.71720910166657,11.79811626250774,16.31931404768927,23.59195073339437,14.166515878159986,13.30573693264347,13.345269518156508,31.828088761353175,16.79557417569659,14.344404512970405,10.865775623278338,6.662914067958697,30.34856678557647,22.340711930469492,16.376160057733664,13.699265260394286,85.400002,-749.080017,-645.135986,-30100.0,-23380.0,-12180.0
8.825261478224355,11.788716695023636,16.319404491886427,23.85329011233164,14.207000605305073,13.37144599813038,13.405661515610806,31.853706733194795,16.789392520792195,14.287172497617947,10.9084404105357,6.667143836126455,30.315556574900114,22.322939799115208,16.385962124377702,13.692704302247636,89.304001,-751.0319819999999,-656.359985,-30520.0,-23520.0,-12740.0
8.806261890009297,11.825446973230871,16.402571113858645,24.217213127848567,14.209230328046578,13.381196071731898,13.414222486307406,31.861955399212654,18.087563840574035,14.973229327284672,11.172749355349561,6.792539729873603,32.84912181199028,24.381905808394972,17.759501783380582,14.727787853633151,92.232002,-746.6400149999998,-663.679993,-30100.0,-22260.0,-12880.0
8.865650755081187,11.83955114092316,16.593085982189084,24.35378232739558,14.316816022698324,13.580566289461801,13.608443049642517,31.878253724148102,18.087027999942293,14.94764966222251,11.101095387866625,6.752200133560654,33.27532233596144,24.7944698001424,17.956664507102865,15.043573206613154,88.81600199999998,-738.3439939999998,-655.384033,-30380.0,-21000.0,-13160.0
9.656088777631124,12.088447158237067,16.68540860329253,23.987223347482637,14.517381224821513,13.806487433546033,13.83584355792653,31.788121667732597,18.232430253684615,15.323655583035451,11.477228603833318,6.9356635137347284,33.34666239294977,24.988617872614586,18.09104811219472,15.176381765468394,82.95999899999998,-734.927979,-651.47998,-30660.0,-21420.0,-13160.0
11.727838313414031,13.95598595668848,18.851263703114157,25.133334539459142,15.340659661077849,14.502090180973056,14.497970723741357,32.946536674313776,19.67607232761425,17.037674354342965,13.271819606397726,7.592017326315265,33.34217529670944,25.291935302687822,18.281070682798124,15.241516581912986,81.496002,-732.4880369999998,-647.575989,-31500.0,-22260.0,-12740.0
12.636943048224824,14.35527879533117,18.865265301587286,25.048357334886003,15.898568598400965,15.163313596013314,15.148452810939931,33.34097183698362,19.19548325029042,16.69273640119035,13.383264762661293,7.678893770537111,33.985514449562025,25.498821199890774,18.451627170724347,15.246470061673502,77.592003,-726.143982,-651.47998,-33180.0,-23100.0,-12460.0
12.701167528856939,14.367344298291439,18.96582765180793,25.333254881401867,15.804257696372437,15.235282180455483,15.205583168811295,33.22226621498899,19.87585221599547,16.998326551632587,13.434243763632148,7.681519137377609,35.148911005756226,26.09785121056389,18.821640115582873,15.254226616078082,79.543999,-725.16803,-653.432007,-34860.0,-24080.0,-12180.0
12.67841788827658,14.394111696236452,19.04820725187894,25.51397734712613,15.79045058889547,15.189524506335403,15.155541545289353,33.24371579356886,20.072794077097534,17.09981329383894,13.389263114786724,7.679303166106999,35.16880418081279,26.153915509193165,18.874056165230755,15.253159524193975,81.008003,-730.048035,-652.455994,-36820.0,-25900.0,-12460.0
12.665473135317377,14.392525417301062,19.115965979835014,25.681915305512668,15.79067044151855,15.231593141032706,15.200686785982633,33.39110587119032,20.0792862370917,17.141808426560846,13.37547373057251,7.661187720510407,35.14580583589567,26.16223606092118,18.885979314438387,15.25214400795545,87.84000399999998,-736.3920289999999,-675.880005,-37800.0,-28000.0,-12460.0
12.677639319965621,14.394097956674965,19.168204400466692,25.93228371643458,15.858556024719427,15.236620551186675,15.205931992991035,33.69740908934355,19.90450185012007,16.99209747435971,13.206368180055827,7.55465180218936,34.82398885395716,25.883715074817303,18.708969420527996,15.139616056627206,92.720001,-735.416016,-689.05603,-37660.0,-28420.0,-12040.0
12.661360215613458,14.51574105397771,19.2592701348333,26.001710402521596,15.926860437846457,15.274178032247367,15.240556329694693,33.69647200891259,19.797125203824713,16.96069922079673,13.186232498600141,7.416657897441393,34.26471486637626,25.331618592154722,18.278626556905508,14.691864361413836,91.256004,-740.296021,-688.567993,-35280.0,-26740.0,-11760.0
12.644308120011539,14.69183732919542,19.41914052273429,26.005064830866164,15.860778137490783,15.23922546027484,15.21128560455015,33.476753035452646,20.63931246077363,17.6655941144098,13.713916545642277,7.780432208123258,35.14719393280216,25.937925025771055,18.666802608284513,14.783933039610867,91.256004,-727.119995,-694.911987,-32760.0,-25200.0,-11200.0
12.630300485001014,14.50771386923107,19.08039759336126,25.09203994139183,15.654880519830026,15.112963499908417,15.103927737878584,32.358586146207465,20.739788681118032,17.693307904412567,13.779461376055663,7.779008403782348,34.68787333633442,25.597768652756933,18.235760243343805,14.484905790711728,103.456001,-674.903992,-787.143982,-29120.0,-22820.0,-10640.0
12.685938790822027,14.515392607493304,19.04633134796079,25.091441645084164,15.705327957054518,15.154091062196326,15.14546228704764,32.251568968739505,20.1908866905017,17.434001064090047,13.722277609583081,7.758647000936277,34.16317888528341,25.374944198455125,18.154613137020398,14.55501168223414,103.944,-777.872009,-733.952026,-28560.0,-19460.0,-10640.0
12.65807639853611,14.439427014010032,18.961958524105583,25.29624747909025,15.683664406393216,15.14159795543895,15.133109990044888,32.68036480576075,20.164582850899624,17.444525218418548,13.720094615328975,7.793024189144789,34.12281408628701,25.345104782157723,18.13969443160423,14.511987927311036,106.384003,-893.528015,-653.919983,-27720.0,-16240.0,-9660.0
12.667148274300772,14.442437053136516,18.994682813702504,25.578916170213187,15.690866146198251,15.179137250652827,15.169896538678854,32.74030918502287,20.368197938080485,17.42385122849202,13.714053482554748,7.900359130473271,34.045247766934715,25.211343722214522,17.990592965075294,14.401153110173848,69.784004,-812.0319819999999,-596.824036,-10220.0,-6720.0,-5880.0
12.641900063327189,14.435290081668088,18.985062280037962,25.544449567866213,15.668273183117854,15.177984565925016,15.164284061669317,32.7332922962601,20.364561762479234,17.462554471819253,13.699710729043991,7.901860244368349,34.03640507167286,25.227262243829024,17.977421578738614,14.398193719241004,61.487999,-705.160034,-628.544006,8120.0,2940.0,-4060.0
12.640446967373416,14.45148133930453,18.921839508496387,25.282325663017286,15.784808735850083,15.253049882019111,15.24337861106338,32.452803157018714,21.68199166752768,18.108401679775206,13.889971123456428,7.9451971251024,36.091352426373874,26.374995342306768,18.585316936161764,14.728520822503805,55.632,-529.47998,-766.64801,4900.0,-2240.0,-6160.0
12.630078910699892,14.411454932056156,18.66996778798743,24.732509653017935,15.982981152599,15.451022072126733,15.451281615812345,32.86694503414109,22.574930637898145,18.888452428532716,14.246455124430828,8.037054978163694,37.88609923691639,27.501517235874175,19.186916558106066,15.077816649718839,100.040001,-726.143982,-795.927979,-9100.0,-3360.0,-9100.0
12.599998020776749,14.374550458065741,18.62400016798214,24.931913690862388,16.170818436039053,15.622802693797594,15.634247142864364,33.486210817818254,22.59322087497222,18.977847412454157,14.284948513449443,8.004756109271126,38.39333376659886,27.808850917480544,19.289785946799675,15.094303756592891,82.47199999999998,-762.744019,-707.600037,-28840.0,-2100.0,-6300.0
12.592567201497806,14.358494997467178,18.66397083274735,24.914033386380925,16.14764048547442,15.573268655985455,15.588109973835364,33.41070505951548,22.57638433904291,18.990145353475402,14.284372844463315,8.048083879108033,38.39270695663336,27.805347205558675,19.28430377435194,15.10584721277984,64.416,-740.296021,-689.05603,-5040.0,14280.0,420.0
12.581037334775617,14.314990057288485,18.694350319309102,24.85750325931199,16.21067178768473,15.773348244055331,15.792432776226827,33.73087413990346,23.381009528734552,19.76772649437418,14.423660668143496,8.314301366535469,39.53141624819465,28.431232147877378,19.712128385827405,15.110065480086638,69.784004,-714.919983,-736.3920289999999,4620.0,17500.0,280.0
12.716136194348245,14.481403601604562,18.399003027806373,24.60564083325625,16.684135792386137,16.473055793054055,16.504372907463075,34.546084229104,23.60827621794499,20.009020253464854,14.295909804303896,8.297359794347338,41.26869843961504,29.37665218149999,20.40160671062046,15.36803714077214,68.807999,-703.695984,-751.0319819999999,5880.0,7280.0,-2520.0
12.813398623254612,14.974696363090958,18.380324913937624,24.792340649353417,16.924796043289557,16.787889401048957,16.82484811419444,35.02252877817652,23.46715063162766,20.001886262373198,14.26267326281113,8.36219874820984,41.781004729909725,29.72778633623549,20.860887770059996,15.770148439007954,82.47199999999998,-673.440002,-780.312012,5740.0,1540.0,-3220.0
12.83090687713743,15.364134773852555,18.433707096234333,25.127352764791706,16.933824962090974,16.811457672578396,16.849701646487468,35.2526158069857,23.489333213702125,20.012540767140663,14.258514330065863,8.42426096917304,42.406337861992284,30.19288904419181,21.32933242635715,16.205676562170307,85.888,-636.35199,-822.768005,8960.0,1260.0,-2520.0
12.860176645044978,16.06608497382759,18.416945230357378,25.196091475425597,16.680479511030644,16.61027585593968,16.647334902659367,34.97287957913741,23.565085719450376,20.185917513072177,14.443347921637192,8.497110921056395,42.4169608480613,30.198939846712044,21.329541470161722,16.20586495294833,98.087997,-698.328003,-774.455994,9520.0,2660.0,-1960.0
12.852374698717528,16.178702290165603,18.41891878415728,25.18872207211009,16.8082670215611,16.709575008024846,16.7441062089562,35.44613756592475,24.287427687086073,20.88819995190221,14.827844317275824,8.767081084432549,43.44003515980726,30.855144853981418,21.995603353367652,16.617281531256097,97.599998,-725.656006,-713.455994,9660.0,2380.0,-1400.0
12.984403268183959,16.3017905002598,19.795427002195872,26.841378261495787,17.493781947452188,17.152648749758562,17.191725746489073,37.56285009359076,24.242680612868394,20.884418424597115,14.819724446857894,8.86952325322937,43.58004216004508,31.053153952750563,22.340697329612816,16.983555388690483,91.744003,-729.0720209999998,-667.583984,18480.0,1260.0,-700.0
13.208078674037694,17.359447378630367,20.66952941891445,27.804220496110545,17.608417841997117,17.143791808678362,17.190417492293864,37.881897507084105,24.795931481068475,21.491250988544312,15.260882598447292,8.988758760145052,43.639753008292296,31.105597513468474,22.366179102275762,16.977034823187967,87.35199699999998,-710.039978,-657.824036,22960.0,-2660.0,-1680.0
13.111522077593996,18.540454975593125,20.72435133426213,27.691760867836663,17.3207701746041,16.882563383992334,16.93743570990117,37.52158000007032,24.780703526623817,21.630443871653995,15.402325904255072,9.00222337790291,43.47899916927864,30.999351732081738,22.390300694761805,17.145600455403216,90.279999,-699.791992,-670.023987,21280.0,-7980.0,-2940.0
13.11119079622992,18.51879832411033,20.69706098765522,27.547731249833067,17.10977125721459,16.70217912301536,16.75678745696012,36.92446112013366,24.761019607599177,21.57865764713925,15.41004947580256,9.010203551451403,43.24817349498306,30.813874399801207,22.269588064475794,17.077249788243748,91.744003,-701.255981,-668.559998,15400.0,-14700.0,-4480.0
13.287155252553836,18.91492602697696,20.548069266206085,27.309007305745833,16.864221304877148,16.46186059898019,16.51097762552735,36.44230337584926,24.758533577518772,21.617856917587297,15.431552692561697,8.986200456986909,43.25337652550444,30.811913056276556,22.269785252849058,17.089039508938317,91.744003,-713.944031,-665.632019,11620.0,-16800.0,-5460.0
13.287596581920456,18.900011117211584,20.59559910807313,27.362923389596524,16.689013332096952,16.266329711758118,16.318248546919516,36.34243224105204,24.91304096163068,21.692110514146552,15.440237497450145,9.042646512555867,43.3434435804943,30.91505688123311,22.31246833881259,17.07838351440278,89.792,-715.895996,-663.192017,7980.0,-17780.0,-6300.0
13.244466631756497,18.87564366166192,21.14500684485719,27.790520504085436,16.718354951139197,16.22938882947439,16.283377735583347,36.421480594982796,25.58568759409273,22.21996893279514,15.555325053854277,9.185041519744084,43.63960558227474,31.097541286320386,22.349737945590338,17.056915983932722,86.37599899999998,-719.799988,-666.119995,4900.0,-19180.0,-8120.0
13.169846703329064,18.787604768543662,21.22627413555187,27.820933238481373,16.757936280762888,16.21738680248252,16.272838147557604,36.4462897444882,25.583314157606512,22.228822600552405,15.421149049573176,9.228207635748127,43.5497663629636,31.084529752619634,22.347785091796688,17.076117900582698,89.304001,-724.6799929999999,-671.488037,1540.0,-21280.0,-9520.0
13.173491662405006,18.797605189381184,21.161255615249946,27.80980702010252,16.858837993918538,16.21982569769104,16.27372337730723,36.462481312311624,25.35462898061655,21.89544620847795,15.09581619518635,9.154426698771433,43.455475931743116,30.959824359660704,22.276480005791726,17.01891975931284,89.792,-728.583984,-675.880005,-2100.0,-24360.0,-10920.0
13.236785394770477,18.870689964544912,21.215517877428688,27.8060826263547,16.758526259543107,16.0424550248702,16.09420953567866,36.17692549941882,24.7709148633594,21.279571115548993,14.771596154010327,8.952353828708972,42.7295525437084,30.291619118782755,21.858994989356553,16.640395351412117,87.84000399999998,-732.9760129999999,-676.367981,-4200.0,-26040.0,-11620.0
13.466778198813964,18.984021476805182,20.945250658810053,26.921316258496027,16.3701927562808,15.658379471827859,15.71434407131567,35.039165557158235,25.045637137306247,21.680651787340455,15.100025603261239,9.132583685642599,42.42211082020573,29.921748721584414,21.649112248694035,16.296095529301162,86.86399799999998,-740.296021,-677.343994,-6300.0,-26320.0,-12040.0
13.691318383425719,18.869813779006513,20.81752924401244,26.43430522417059,15.906641248733866,15.213355331872108,15.268438921430779,34.2623317557557,25.12778787622296,21.883989507633792,15.452508074465166,9.345501783528118,41.74896155370898,29.344947582078206,21.247716973672325,16.022209624563725,81.984001,-737.367981,-672.952026,-7140.0,-25760.0,-11900.0
13.726929931171425,18.869152277560207,20.87382412662274,26.494303833304915,15.874567459784494,15.20327990295628,15.256877269816101,34.28241050804297,25.27805511674015,21.932863083427794,15.44250834509755,9.33627884801425,42.026924973000156,29.482138351061888,21.243718569815776,16.01495783734597,78.56800099999998,-738.3439939999998,-653.919983,-6860.0,-24780.0,-11480.0
13.724207819371996,18.892818960570143,21.02439609711706,26.315323871113446,15.633350568876164,15.020089831791068,15.062046775442289,33.30358749085321,25.08692788977571,21.71912500974857,15.36715975878026,9.229052656023637,40.88111490084286,28.730394812390557,20.756547977676746,15.511535811671127,96.624001,-757.376038,-716.384033,-7560.0,-23380.0,-10920.0
13.697788274266621,18.98492282966638,21.530127857480696,26.112317861552437,15.03015043273385,14.479991738417299,14.49835747288969,32.36822132353677,25.053159136603004,21.674604617274863,15.401006068400834,9.205703837019799,40.085120964170606,28.14452406074819,20.44546707155486,15.288045302822802,91.744003,-753.960022,-725.16803,-9100.0,-22680.0,-10360.0
14.003568307847157,19.64645562307334,22.828571920539062,27.14875175629994,15.205076286225216,14.561648774961327,14.573570362677561,33.22955944289509,25.316062327120264,22.14500991692922,15.910336398882807,9.489204277074398,40.09054017095416,28.132101884490645,20.457040870843944,15.26139989639849,79.543999,-745.176025,-688.080017,-2100.0,-14420.0,-8260.0
14.48672536437796,20.08545189245032,23.330251170755073,27.30252675645454,15.646196199610916,14.847112675914678,14.863330210144449,33.163309461427325,25.444867250395582,22.550622757042312,16.52834362097036,10.742439255751586,40.06636784146221,28.225781814494972,20.739019707062138,15.866417517807804,84.912003,-760.304016,-711.504028,3220.0,-7280.0,-6160.0
14.421376976991121,19.885523466787593,23.085194471429173,27.366080366909692,15.611421010914441,14.788309770379268,14.79304969355521,32.95396856750157,25.248496534767327,22.320409107548205,16.415509088301537,11.484790644645573,40.128146019947216,28.244834553683756,21.119516676417092,16.80775948573541,87.35199699999998,-745.176025,-719.799988,4760.0,-7420.0,-4900.0
14.160422853412072,19.78063800170017,23.005810170168214,27.285951434009206,15.504705707817688,14.639073723006529,14.647373386692745,32.98947043090071,25.13656737840841,22.183731445541135,16.21938195462312,11.5828350664969,40.739490546329876,28.43137099677593,21.459314000128,17.056172872049956,78.08000199999998,-737.8560179999998,-716.872009,11340.0,-2800.0,-2660.0
14.106250264314472,19.76774624682627,22.970108435802768,27.20584303731588,15.326822759604857,14.42303403756065,14.426240160978743,32.62351714958869,25.738709205801378,22.455156384730696,16.318395092687712,11.746249340532756,41.363886259817306,28.65909178862775,21.576398629731997,16.984794439261186,75.152,-733.4639889999999,-710.528015,15820.0,1540.0,-1260.0
14.007053677705477,19.71814903398427,22.755389283827526,27.000459277698067,15.13625176273086,14.231828065612268,14.23027852863847,32.00746604437595,25.71794804101998,22.43300651681343,16.315215631557408,11.746632686896595,41.07233250156374,28.59141872526883,21.42662301883364,16.93681740061909,70.760002,-724.1920169999999,-697.840027,19880.0,5320.0,140.0
13.840228252342438,19.64551080559605,22.550824505539865,26.861777604704493,15.054932426499384,14.076018105172635,14.082216661764036,31.798754018645564,25.607385299376148,22.309822351324637,16.03904905338522,11.677692789251303,40.98945356494277,28.276359098197243,21.13367662353259,16.720384061512764,68.807999,-715.895996,-698.815979,22680.0,7420.0,980.0
13.756392864151877,19.646664802921578,22.45636290666766,26.956879460675243,15.062909713792642,14.064742882641847,14.071677926673996,31.9474864486271,24.823223785128032,21.728413843494657,15.554636653520808,11.531400493192393,39.38027598772546,26.84612971942318,20.14228022486357,16.043712364566442,64.903999,-717.359985,-699.791992,24500.0,7980.0,1400.0
13.682034534671024,19.702874306193586,22.46391397404764,26.720724099909244,15.038168385849076,13.991530926835948,14.001709596559609,31.81810244637938,24.886488522908806,21.83860787083081,15.656598806507887,11.59546940364289,39.453127974880694,26.961827537535086,20.20816246257663,16.119336317291626,64.903999,-719.312012,-697.35199,25620.0,8260.0,1680.0
13.732014351577043,19.99304378584295,22.74539977245403,27.09594625653432,15.19511888992012,14.155367579825485,14.162090940700446,32.60884691431584,24.23138735135188,21.50821805540591,15.678626088931699,11.533663787463068,37.35879225392777,25.130816398798167,18.996365787301738,15.144509618260798,70.272003,-718.335999,-700.280029,26180.0,7980.0,1960.0
13.873513226810148,20.65416948304599,23.379613214878546,28.21561693362278,15.543399024210624,14.404460135058851,14.418607774520686,33.888524723447965,24.662275197651145,21.776164950193348,16.039944043524127,11.631744657208866,36.89081743510089,24.575693052822615,18.70449610856157,14.711924638390094,70.272003,-712.47998,-702.231995,27160.0,7700.0,1960.0
13.398226512369,20.668432836980813,23.255659429857495,28.167948442350387,15.478212154759296,14.316513919423294,14.329214518371279,33.96607047781955,24.45467142811926,21.47510226358142,15.734876837966898,11.573148506822667,37.17226883938041,24.4931632574156,18.585054170979433,14.540279068029223,72.223999,-705.64801,-698.815979,28700.0,7140.0,2100.0
11.628362531535016,19.4670668618904,21.568701690941094,27.155042653549817,14.573764494223155,13.52590406653719,13.570765166900793,32.77333884777461,23.305537388496475,20.136077711145898,14.257378214326957,11.22364711526067,37.11602052478125,24.202651909347153,18.474167986184526,14.456616001241093,79.543999,-708.575989,-705.160034,31640.0,6860.0,2800.0
10.604516752585777,19.161612557591106,21.41404387314397,27.14537647142315,13.93365876480477,12.761943526831287,12.818029936033918,32.378590847095424,23.801921221756793,20.471753980103657,14.288347241185543,11.34778213780059,37.245948170168006,24.75282525907333,18.87122646238642,14.716918587891099,74.17600299999998,-705.160034,-691.984009,32060.0,6160.0,2380.0
10.549831097575701,19.165722296765765,21.361121877374753,26.956198760524085,13.880041059757342,12.512357941518143,12.57666576946704,32.39302025918835,23.286306767630013,20.165359697532004,14.241052747566632,11.36037476672737,36.360888298438276,24.281507406637466,18.582022173466896,14.729512067432587,80.031998,-702.231995,-699.304016,33880.0,6300.0,2100.0
10.626898729854556,19.115282178392388,21.251431364997327,26.798458683103622,13.861330883452489,12.508122371865692,12.572264788777359,32.32996673191446,23.11970193058966,20.02668304488334,14.177579472424194,11.356108707193036,36.28908165177314,24.221836819124015,18.540719006238948,14.760725505673296,83.447998,-710.528015,-699.791992,32200.0,6020.0,1120.0
10.624123843676935,19.281573468224703,21.433714645879366,26.951936842619595,13.902547802173242,12.457773944530578,12.51827575442629,32.45844780914051,23.413020944570604,20.189594320002097,14.260336542838443,11.356418003931587,36.441748251325016,24.350368379020438,18.574487761447408,14.760659579615107,86.37599899999998,-714.919983,-708.575989,31920.0,5320.0,420.0
10.614395817620279,19.485647829550246,21.58920896949782,26.802082587947304,13.906302021971538,12.454174017810972,12.514204284660853,32.228344793064,23.82252196464017,20.55367252997872,14.482211607798922,11.391534504581069,36.84652176280852,24.736543896215213,18.725843571580903,14.778223001872458,89.304001,-715.895996,-706.135986,32900.0,5600.0,0.0
10.608781695062428,19.458048732496383,21.544371728760463,26.710677209941544,13.835433915145288,12.402256308130871,12.466482619160395,32.232166638301265,23.65262779347373,20.40725708639481,14.334915967652783,11.338152445312423,36.66887878066688,24.596888119973094,18.603740012413645,14.79761673694044,91.256004,-716.872009,-707.600037,34440.0,5180.0,-420.0
10.61797127926002,19.320541667430547,21.43517437790934,26.73931564289641,13.788745272551825,12.358530136452117,12.422936625088154,32.229343036992574,23.139628706115676,19.915889868353425,13.859131108668775,11.120651652157594,35.9825023975499,23.984568444638846,18.217234098018626,14.687793201954527,88.81600199999998,-719.799988,-707.112,36120.0,4760.0,-700.0
10.5594560875688,19.35853979647695,21.585604985476074,27.024496922627435,13.570389246972635,12.163525501604559,12.225386437239601,31.99687090913972,23.379908669171755,20.16824486707984,13.846287376478248,11.135753097402883,35.67671408449093,23.741009657965392,18.136803881234524,14.665314679159035,90.767998,-707.600037,-711.015991,37800.0,4200.0,-700.0
10.519036100503675,19.35983365673276,21.57279897350339,27.03440910576523,13.507444156935343,12.148704752361082,12.21187095912217,31.98728582890738,23.341514467224524,20.107723710613524,13.893105258326726,11.168526871421223,35.66007467539013,23.78854236180121,18.10294838465585,14.675072514996296,90.767998,-718.824036,-706.135986,39620.0,4060.0,-700.0
10.69308472639008,19.615126354910927,21.78386479279292,27.052570696033236,13.526952579496204,12.230040714267178,12.288725308739746,31.568322879045922,24.178565736537017,20.676233470094022,14.425211446481706,11.355911050892226,36.4187323557043,24.563013957377862,18.35586293750751,14.842164948637551,92.720001,-731.512024,-693.936035,40040.0,4060.0,-980.0
10.908872728235606,19.973329461597352,22.125024519836398,27.36000978925616,13.531013105361358,12.207552626180558,12.266242951551758,31.73806472864237,24.56462906436122,21.14870295373597,14.93694898761371,11.459997179185176,36.425104731332695,24.859200332525617,18.498033496750093,14.90748359853491,92.720001,-731.512024,-689.05603,40880.0,4060.0,-840.0
11.284432211508085,20.577274031093232,22.87015218010363,28.450641064344747,13.783332814806407,12.384149315344716,12.44731358400452,32.47348248116711,25.3751853238612,21.728204528474905,15.51949824779029,11.707902542745305,36.69492759904661,25.156863156752724,18.67036242952698,14.983093560599743,89.304001,-729.0720209999998,-689.05603,42980.0,2940.0,-700.0
11.455555091317454,20.749334502463803,22.961517717911953,28.519571509959597,13.76679628728746,12.448326811257125,12.506797498521792,32.659206184788424,24.37550596621087,21.334362703714493,15.526888255029482,11.784947233631433,34.73686565957528,23.997910578096647,18.137786547985126,14.755508996350494,85.888,-723.703979,-682.712036,43260.0,2380.0,-1260.0
11.465645526126965,20.83753130949938,23.274254226062443,28.899347961972136,13.524525884178574,12.1729504368452,12.22616714783743,32.32368655242835,23.754391106435488,20.73698034589555,15.222788582385174,11.718447726525781,32.8377341647629,22.75745775324196,17.476685293900523,14.45088658443112,87.84000399999998,-726.143982,-678.320007,41720.0,1120.0,-1400.0
11.52111655769764,20.913860435326548,23.360440317156137,28.704861167204864,13.315934429725523,11.994094182114328,12.041900943665276,31.69352187852624,23.883744119740346,20.755598227096826,15.2250624660241,11.745170135858938,32.428495612038354,22.63323301883063,17.35458528386812,14.38121973713702,85.888,-720.7760009999998,-678.807983,41300.0,-560.0,-1120.0
11.591238515911076,20.974585251654922,23.314260362941457,28.593539584283,13.297668927137302,12.021971182498088,12.070145807667954,31.648878796973055,24.015943276685515,20.951033508261382,15.376538750823373,11.777908723473066,32.720779369860125,23.164277759270668,17.596551367101664,14.555150452564455,82.95999899999998,-721.752014,-673.927979,40040.0,-700.0,-980.0
11.619319167947724,21.01202527048387,23.241428405391368,28.602983835499035,13.26714562019472,11.78880153082601,11.830766148695108,31.36481925683546,23.22463743877819,20.205839662099873,15.22231457423574,11.587482646620144,31.381025624418175,22.396118184920006,17.107402393647963,14.472270813187992,85.888,-724.1920169999999,-683.200012,38920.0,-840.0,-1120.0
11.501695213699692,21.07390183459143,23.49069917368902,28.816188719789814,12.662006564829834,10.714746489306348,10.747500911200989,30.365127031327916,23.532606572402898,20.445029343083444,15.513628099446601,11.583761721688095,29.595886299146024,21.741824260229052,16.422702459231665,14.220187133414974,83.447998,-723.216003,-674.416016,36820.0,-840.0,-1680.0
11.535492496497561,21.015508374349626,23.68266452330989,28.626988489199597,12.324751849409251,10.183938961007428,10.207885159234353,29.509413573233218,24.41157707722084,21.044557057409776,16.009503908952965,11.68550003043712,29.591322763870433,21.9107445162468,16.073827976874004,13.846878211443435,89.304001,-729.5599979999998,-679.296021,36400.0,140.0,-1680.0
11.616809252342206,20.897590720233257,23.68319904607368,28.25822898179121,12.303787222078514,10.112675827649898,10.136759472865052,28.897960839273416,24.63050157605743,21.188580730827418,16.407816093488503,11.8495213892108,28.924220812071393,21.605969270272475,15.68704062520201,13.452452600287735,86.37599899999998,-722.23999,-682.223999,34860.0,700.0,-1680.0
11.837537062810263,20.519328413770776,23.72053673997431,28.06429382813125,12.638973760917041,10.477284640368994,10.508661021531681,28.855901456877405,24.659879221619622,21.31176072881994,16.794720126975044,12.306901276872507,28.936599377442512,21.746851208023898,15.985884238968428,13.848798452820912,85.888,-722.23999,-685.640015,34440.0,1960.0,-1400.0
11.834726847919326,20.40218097028672,23.726024002898217,28.100216171064197,12.345310537035312,10.311172478663504,10.35033834373711,28.096647216738866,23.988001311749155,20.564221908542464,16.467035749128463,12.166958481343439,27.217081922748743,20.74876475150013,14.965206911731705,13.33947768000053,83.447998,-710.039978,-688.080017,33180.0,2380.0,-1400.0
11.696585337779007,20.36037043528937,22.767530483722094,26.761214894953167,11.435022712034971,9.781438977386513,9.816387682368608,25.22023223247624,24.63063452245096,20.97049075666841,16.55646917481049,12.090269096015243,27.782787947254793,21.30972858481935,14.869168746660163,12.929692171447302,81.496002,-712.968018,-689.05603,32060.0,3080.0,-1260.0
11.45342874185029,19.513111462951144,22.0856072970205,25.776607501455917,11.087903899223889,9.612015085655546,9.62601016697472,24.62605117004277,24.415334710416467,20.73065625269411,16.313967548417963,12.074303228840435,28.321124874414306,21.935616247063244,15.229271782337563,13.026019322307473,85.888,-714.919983,-686.127991,30800.0,3500.0,-840.0
11.5632521688776,18.35785210813883,22.135354769632187,25.82519916035976,11.482733271848474,9.905162355883698,9.93931823228667,24.638117867919973,24.488383460661776,20.68666435044795,16.2798563430879,12.127524280055285,28.350779725788023,22.00269089962527,15.181129796938194,12.788198852063434,84.912003,-711.015991,-685.151978,28980.0,3080.0,-560.0
11.537065523710465,18.243691998910545,22.10974892166774,25.741650412863066,11.643187053198794,10.06710960995345,10.102786768103204,24.602236648868125,24.461818559438832,20.70622236433548,16.307807003176404,12.19567734053417,28.385040756819667,22.074984478357987,15.215697080275163,12.827576971216022,86.37599899999998,-713.944031,-688.567993,28420.0,2660.0,-140.0
11.323597808448001,17.713110139394526,22.12079525060171,25.74213716651577,11.765800237169344,10.218670284170765,10.256546271117386,24.605506401879875,24.509273622812763,20.723804645491153,16.366565818535268,12.393982262081769,28.504196318570703,22.246805919271964,15.350871175877717,12.997577148074438,91.256004,-714.919983,-693.447998,27580.0,2100.0,0.0
