0.842773,-0.529037,-0.634699,-0.802913,0.644348,1.5421,0.43727,4.28564,-1.06365,-0.283706,-1.0716,-1.10466,0.137915,0.535192,0.488251,1.72038,15.616,-880.84,-467.992,5180,-1120,840
-0.550606,-0.688923,0.365282,-2.39137,0.224622,1.91742,-1.22582,4.0457,0.302014,1.89834,1.21085,1.84347,1.95017,2.84294,-0.679542,1.47077,18.056,-880.84,-467.016,5460,-980,840
-0.4776,0.52827,0.679356,0.74581,-0.4409,1.02185,-3.217,3.0678,0.558342,-0.487888,0.246909,1.45891,-1.55902,-0.19564,-3.26206,-3.06346,17.08,-882.792,-467.016,5320,-700,1120
-2.61608,-1.2437,-0.587822,1.14813,-2.52576,-0.0651636,-2.43748,3.00143,-2.72094,-1.621,-1.76681,-1.39513,-3.03842,-2.00447,-1.94499,-2.88631,14.64,-881.816,-467.016,5320,-420,1120
-3.46011,-2.05938,-0.634524,0.155753,-4.40002,-0.564604,-0.368498,2.44488,-4.38318,0.289893,-0.203336,-1.05928,-1.96301,-0.879941,0.115355,-0.187275,13.664,-881.816,-467.992,5460,-560,1400
-4.31332,-2.2901,-2.05149,-0.160557,-4.64916,-2.08534,0.368377,2.11897,-5.33103,0.543185,-0.733286,-0.796572,-0.496441,0.301785,-0.102678,0.487285,13.664,-884.744,-464.576,5320,-420,1540
-3.68973,-0.961498,-2.62906,1.6351,-1.48781,-1.975,2.51011,1.07597,-6.92116,-1.71714,-4.52919,-2.14628,-2.21117,-0.922553,1.18771,-1.75516,13.664,-883.28,-467.016,5320,-560,1680
-1.31337,-0.318404,-2.01848,3.41524,-1.52279,-1.60106,2.08176,-0.744707,-5.2334,-3.58234,-4.79957,-4.59891,-4.02056,-2.89447,-0.0448757,-2.93727,13.176,-884.256,-467.504,5320,-700,1960
0.09224,0.484996,-0.301834,3.90098,-1.40219,-1.91907,2.12562,-1.83072,-1.97549,-2.95126,-4.71957,-4.07862,-3.72007,-2.62123,0.362654,-3.03642,14.64,-881.816,-464.088,5180,-560,2240
-0.344381,0.355275,0.0202283,4.08002,0.59526,-1.82488,2.14153,-3.94093,-1.79979,-3.2041,-6.0581,-3.44318,-4.25906,-3.27847,2.10906,-2.4969,12.688,-883.28,-466.528,5180,-280,2100
-0.0564691,0.230933,-0.621928,3.68439,2.55717,-1.31181,1.96102,-6.28244,-1.83847,-2.09391,-5.76312,-4.53562,-3.64734,-3.61937,1.67612,-1.95019,17.568,-883.28,-463.6,5180,-700,2380
1.15851,2.8891,0.825362,3.67767,4.49724,0.449257,4.51274,-6.48129,1.02447,-0.691698,-4.11964,-3.28089,-2.35304,-1.76449,1.53348,0.331696,15.128,-879.864,-466.528,5040,-560,2380
-1.55282,0.381133,-0.419821,2.26348,2.34325,-0.0202947,1.86114,-4.21036,0.946988,-1.98538,-3.67307,-2.2791,-2.16177,-1.07093,-2.89545,0.165814,13.176,-879.864,-467.016,4900,-560,2240
-1.64703,-2.07358,0.138006,-0.745553,1.79565,0.285959,0.150037,-1.16428,1.50013,1.92744,0.82172,-0.0766291,1.93314,1.1378,-2.2381,1.75995,12.688,-880.352,-467.504,4900,-280,2240
-0.992997,-3.61746,2.00287,-3.84408,0.953205,1.20782,-3.47813,0.643498,3.45505,4.99939,7.21514,3.12259,6.43865,4.47809,-3.37317,4.39033,14.152,-880.352,-466.528,4900,-420,2240
-0.421488,-3.67405,1.96422,-4.23692,0.692085,0.0873903,-4.97418,-0.885648,3.94745,4.91452,8.28428,4.40834,6.35817,3.75445,-3.31987,3.29137,11.712,-881.328,-464.576,5040,-140,2240
0.815022,-3.36517,3.1038,-4.61566,1.95393,2.60002,-2.87361,-0.815285,4.22681,4.4368,9.04543,5.11333,7.58151,4.97578,0.0662337,4.25625,9.76,-880.352,-465.552,5320,-420,2380
2.48765,-0.289754,2.63174,-3.00418,2.00576,2.23744,-1.01132,0.836424,3.92425,1.51046,7.88516,3.93563,5.01934,2.8898,0.875657,1.94166,12.2,-879.376,-466.528,5180,-280,2240
4.56799,4.21086,1.8684,-0.27876,0.954047,0.611807,-0.211802,0.537481,4.79351,-1.12636,4.58136,1.66357,0.895785,-1.15438,0.751771,-2.13262,13.664,-879.864,-467.992,5320,-140,2240
5.76688,5.71218,0.822381,2.3478,1.19949,0.011577,0.283206,1.17211,3.46314,-3.36111,0.637594,0.4345,-4.13018,-4.90261,-0.189384,-4.36798,11.712,-879.864,-471.408,5040,0,2240
5.47525,3.75259,0.0478063,0.405323,-0.253149,-0.087687,-0.362661,1.27346,4.14646,-1.1561,3.16731,1.81595,-3.15672,-4.60377,1.12135,-2.84592,13.176,-881.816,-472.384,5040,-140,2100
1.74014,-0.520353,-1.82773,-4.2535,-2.48828,-0.849096,-2.57237,1.45332,4.24924,2.45188,6.938,4.2526,0.808543,-0.446207,1.89615,-0.109537,10.736,-878.888,-469.944,5180,-140,2100
0.0231704,-1.14656,-1.76069,-3.01868,-3.09171,-1.00301,-2.33118,2.09118,2.1102,1.96441,4.3861,3.60026,1.18281,-0.0505708,0.396894,0.456409,12.2,-878.888,-471.408,5320,0,1960
-0.148889,0.0308376,-0.485293,-1.83947,-1.90769,-0.362823,-0.763593,1.35133,1.44656,1.41963,0.338282,3.49051,1.9543,1.71822,-0.397336,-0.200706,13.176,-881.328,-474.824,5460,0,1820
-0.0951039,1.99461,-0.658601,-1.14448,-0.163938,-0.950035,0.858332,-0.62456,3.12167,1.46107,-3.0959,3.63909,1.70486,2.74544,-0.462492,-0.905535,15.128,-879.376,-468.968,5320,140,1820
-0.0457109,2.32462,-0.919355,-0.914724,-0.408514,0.228662,1.54394,-0.680261,3.88565,1.35062,-4.16523,1.8756,1.76166,3.19987,0.13141,1.21724,13.664,-877.912,-471.408,5320,0,1540
-0.540726,0.326334,0.270234,-0.891852,0.252088,1.3727,2.86234,2.25233,-0.0715595,1.58853,-3.9121,0.843435,1.61906,5.19029,2.40103,3.90118,12.2,-881.328,-469.456,5320,280,1680
-0.5206,-0.00920167,0.221101,0.325993,0.769108,1.29522,3.05493,2.89028,-2.60158,0.60187,-3.16183,0.128033,-0.406712,4.39832,2.28288,4.43895,14.64,-876.448,-470.92,5320,420,1540
0.405101,3.13928,1.59536,5.47523,3.62388,2.01716,6.1267,2.64982,-6.10412,-3.64871,-8.3611,-2.63312,-5.36114,-0.18113,2.08178,2.2134,15.616,-877.912,-472.872,5320,420,1540
1.59684,5.82274,3.03401,9.40254,4.85466,4.15096,7.38908,3.39492,-9.09451,-7.55146,-12.2903,-4.48539,-7.46625,-3.85921,2.30875,0.346106,13.664,-877.424,-470.432,5040,280,1540
-0.726471,3.59707,0.524004,6.12635,1.98658,2.45239,4.04824,0.620748,-9.1607,-6.63,-9.85693,-5.28329,-6.43603,-4.02167,2.24157,-1.3823,12.688,-882.304,-473.36,4900,280,1540
-1.12956,1.20093,-0.799761,2.03189,-0.540047,-0.33222,0.14186,-1.59035,-5.27979,-2.57625,-4.09657,-4.49595,-3.1028,-2.96295,-0.275427,-3.29449,13.176,-882.792,-470.92,4620,420,1680
-1.81853,-1.99232,-2.41161,-0.256475,-0.926953,-1.79951,-1.59086,0.391752,-4.97354,-0.215467,0.983285,-3.08133,0.0372466,-1.79149,-1.35808,-2.45628,10.736,-884.256,-466.528,4620,280,1540
-6.14591,-7.67004,-4.00662,-3.2481,-2.78455,-4.82153,-4.99353,-1.94296,-6.80384,1.74673,4.61716,-2.03951,1.99792,-1.02614,-0.600258,-2.2585,13.176,-885.232,-467.992,4340,420,1540
-6.2871,-9.49771,-4.85673,-6.13419,-5.07542,-5.80317,-8.25697,-5.52079,-0.479314,5.07226,6.24397,-0.0452264,3.37889,-0.58031,-1.21377,-0.893962,10.248,-886.208,-467.016,4200,280,1680
-3.65127,-7.29026,-2.79514,-5.37998,-5.40343,-4.08744,-6.39864,-4.18024,1.23938,4.18815,3.98206,0.119611,2.48681,-0.121012,0.802802,0.706429,10.736,-888.16,-468.48,4200,140,1680
-2.32189,-3.19269,-0.422626,-3.30995,-3.829,-0.749076,-3.53785,-0.312532,1.13423,2.76038,4.02457,0.147755,2.05029,1.16678,2.41921,1.48956,13.176,-886.696,-464.576,4060,140,1540
-2.54523,-3.30085,0.327228,-1.87371,-3.96393,0.526681,-3.94106,0.235481,1.7955,1.68097,3.76566,-0.304163,1.54132,0.746684,-1.9509,-0.0488795,12.2,-881.328,-463.112,4200,0,1540
-4.22387,-5.73006,-0.287485,-3.72621,-4.96356,-1.25165,-4.82094,-1.92194,1.62714,1.65141,4.2195,0.783792,3.40439,2.13066,-3.73965,0.526496,11.712,-885.72,-463.112,4200,-280,1820
-3.04057,-4.52981,-0.641682,-2.88512,-2.91118,-0.897025,-4.10148,-1.81485,3.12968,1.36646,3.35834,0.270861,3.46879,1.29569,-4.66462,-0.305826,12.688,-882.792,-466.04,4060,-560,1960
-0.151223,-1.70495,-0.473611,0.596285,-0.784961,-0.619783,-2.42497,-0.954893,2.3263,-1.81433,0.403107,-3.03856,-0.386768,-2.64278,-5.42981,-2.70272,14.152,-883.768,-460.672,4340,-980,1960
3.64303,1.65341,1.09083,1.61575,1.87808,1.27433,1.26683,1.22303,3.62942,-1.14113,1.2594,-2.12512,-0.227085,-1.49543,-2.96058,-1.67635,11.712,-882.304,-460.184,4060,-1400,2240
7.69604,5.3588,3.19233,3.41885,4.11733,2.78525,4.46027,2.94986,4.82349,-0.187384,1.68294,-0.711256,0.374477,-0.559876,-1.53967,-1.41502,17.08,-883.768,-462.624,3920,-1960,2380
6.42256,7.97083,3.62014,5.18937,5.68737,3.08067,7.32453,1.67649,2.50842,-0.309075,-0.263449,-0.513771,-1.72527,-1.23216,-0.42172,-0.363797,16.104,-877.424,-466.528,4060,-2380,2380
1.4296,4.89286,2.13305,3.87486,4.19718,2.51305,5.87414,-0.974933,-1.45187,-1.66029,-1.43591,-2.05303,-1.38158,-1.34364,0.86114,0.397085,17.08,-878.4,-468.48,3780,-2660,2240
0.260612,3.81738,1.12195,1.92545,2.2139,1.2429,4.83428,-0.962694,0.0774527,-1.09596,-0.52413,-1.41331,0.555413,-0.518161,3.8817,2.18894,19.52,-884.744,-466.528,3640,-2660,1960
1.92229,4.72002,2.11977,0.470647,2.36726,1.51749,4.05792,0.0317039,4.77378,1.31372,0.52519,0.76869,1.95534,2.41606,4.94997,3.05151,19.032,-886.208,-465.064,3640,-2380,1680
4.08955,6.09024,2.35585,1.35046,3.66076,1.5714,3.40213,2.02145,6.63031,0.736352,-2.10984,0.994849,-0.849709,1.70504,4.53492,2.24145,22.448,-887.184,-464.088,3780,-2100,1120
6.96578,8.11655,2.45789,4.10636,5.07549,1.32684,4.31207,4.31172,5.09092,-1.46035,-5.67977,0.22523,-5.25862,-0.840519,3.4305,-1.09576,20.984,-888.16,-462.624,4200,-1820,980
7.89726,8.01945,2.02062,6.22118,5.97891,0.433334,5.15759,4.88884,1.42016,-4.18459,-7.85991,-0.474712,-7.80639,-3.53091,1.96398,-4.15329,18.056,-888.16,-462.136,4620,-1260,560
7.00842,9.24899,3.05247,9.70497,8.54938,1.24369,6.53,3.65917,-5.44323,-8.40639,-11.4036,-0.368721,-11.1167,-7.00316,-0.0551211,-5.74678,18.544,-890.6,-458.232,4760,-1120,420
1.8818,2.81646,2.3273,5.19864,5.75994,1.83179,3.40631,2.58673,-10.1899,-7.1815,-7.3374,2.51309,-6.31507,-2.46875,-1.32095,-1.59273,20.008,-890.112,-459.208,5040,-1120,280
-2.14262,-4.09474,-0.756004,-3.85937,-1.79384,0.457115,-4.66287,1.87449,-5.40708,0.422615,1.95311,9.48113,2.64624,3.6078,-5.01615,2.75329,18.056,-890.6,-459.208,5320,-1120,280
-6.22604,-11.76,-4.67302,-12.2423,-9.32655,-2.88279,-11.9811,-2.68573,-0.284721,6.27924,8.77383,11.9747,9.42487,8.06956,-4.7566,4.49386,19.52,-888.16,-461.16,5320,-1540,420
-7.48761,-12.3624,-5.22801,-10.7554,-8.59283,-3.50795,-9.2867,-5.32792,-0.622058,4.24352,7.86731,6.66277,8.72151,6.59653,-1.86913,5.26211,14.152,-887.184,-462.136,5320,-1540,560
-6.75126,-6.75227,-3.19092,-4.40792,-4.43213,-2.31973,-3.80452,-4.2797,-1.57621,0.862981,2.35664,1.22752,3.81949,2.48484,0.0492449,3.99172,14.64,-882.792,-460.184,5320,-1960,700
-9.86072,-8.25385,-4.12347,-3.54614,-5.47787,-2.51613,-2.82154,-4.91682,-2.79563,0.262812,1.49617,-1.52214,2.67711,1.64808,1.09637,2.01002,17.08,-882.792,-458.72,5740,-2380,1120
-7.80085,-5.62584,-3.90214,-1.3357,-3.60386,-1.61676,-1.27985,-3.99379,-4.5827,0.118082,-0.312091,-4.75672,0.620745,-0.153277,1.62337,-0.714882,14.64,-881.328,-463.112,5600,-2800,1680
-5.75392,-6.99425,-4.44426,-3.7617,-5.41571,-1.96363,-3.39733,-1.67558,-3.62968,3.33237,2.04031,-4.50315,2.50884,0.283341,1.17983,-0.528323,10.736,-881.816,-459.696,5600,-2800,1960
-1.77904,-4.53719,-2.62874,-2.34151,-2.75845,-0.728474,-1.9939,0.0103888,-1.00531,2.24001,3.0797,-3.14011,2.48329,-1.05901,0.64572,-2.11891,10.248,-878.4,-463.6,5040,-3220,2520
1.15258,-2.14417,-0.129552,-2.23414,-0.784749,-0.113828,-1.22476,0.31213,4.42951,5.11406,5.11067,-1.57646,3.70935,-0.235905,1.20452,-0.805058,8.784,-879.864,-458.72,4480,-3220,2800
2.73726,1.83297,2.60184,-0.482877,0.547813,0.937108,0.476653,0.948449,5.27123,3.79788,4.24132,-2.53854,2.48697,0.314883,-0.096485,-0.828059,8.296,-879.864,-460.184,3920,-2800,3360
5.31615,7.94187,3.85874,2.6581,2.20053,1.34253,1.65325,0.456481,6.13835,-0.22673,-0.198128,-1.92817,-1.42305,-0.814799,0.109896,-1.6141,3.904,-879.376,-463.112,3360,-2100,3920
7.93512,9.92523,4.85389,5.39987,3.36794,1.46289,1.54361,0.423629,7.90728,-3.07184,-1.66355,-0.670673,-3.95687,-2.77988,-1.96626,-3.85284,3.416,-880.84,-465.064,2800,-1680,4200
6.85246,7.76292,4.42479,5.75254,4.8163,2.70012,2.75249,1.44732,3.84898,-3.86871,-1.45907,-0.817602,-4.13304,-3.55739,-1.93418,-3.66613,1.952,-882.304,-468.968,2380,-840,4340
-1.32447,-1.03433,-0.786215,-0.904008,-0.865092,0.513538,-2.49385,-1.87696,0.0350522,-1.09087,1.11754,0.0271765,0.023598,-0.700498,-0.727789,0.887877,2.44,-881.816,-467.504,2240,-420,4620
-3.86782,-2.84115,-1.2341,-2.49381,-1.30328,0.44952,-1.57587,-1.72929,-1.58982,1.59616,1.28134,0.404287,1.65006,1.4588,3.27151,3.23051,2.928,-881.816,-469.944,2240,0,4620
-3.87719,-3.71532,-2.29521,-4.37494,-2.1762,-0.773172,-1.24812,-0.381099,-0.954078,5.77178,1.74726,1.41778,3.2187,2.90924,4.93254,4.60955,2.44,-881.816,-466.528,2380,420,4480
-1.01462,-1.39974,-1.03217,-2.76891,-0.460544,-0.785358,1.17278,2.03622,1.57793,4.54327,1.06853,1.45828,1.60476,2.35472,5.30761,3.26027,1.464,-884.744,-471.896,2660,560,4200
-0.452483,-2.23944,-0.954474,-2.45389,0.112833,-1.11852,1.79644,1.38262,0.632489,2.97906,1.05395,1.25898,0.164035,1.95329,2.91269,2.29485,1.464,-880.84,-467.992,2940,700,3920
0.611982,-0.0319047,-0.757508,1.23638,1.52176,-2.08195,1.6085,-1.06382,-2.75543,0.686501,-1.15241,-0.725152,-3.16961,-1.05009,-1.85764,-1.51133,6.344,-884.256,-465.552,3220,560,3500
4.72503,6.67615,2.78726,6.69203,5.07017,0.0797143,4.84589,1.57847,-5.97124,-2.60902,-4.22047,-1.81681,-6.00129,-4.13089,-2.52715,-4.05519,3.416,-884.256,-467.992,3780,140,3080
2.64576,4.2753,1.95533,5.96047,2.98209,0.134808,4.94429,3.786,-7.58638,-5.81376,-5.59097,-2.52423,-5.60131,-3.84094,-1.56773,-2.68316,7.808,-883.768,-464.576,4060,-280,2520
1.89569,3.51538,2.1928,5.07249,2.26746,0.85308,4.65732,4.83057,-3.90644,-4.12955,-5.6804,-0.947307,-3.70301,-2.13996,-1.63763,-0.953382,7.808,-885.232,-461.16,4760,-560,2100
2.48767,3.7232,2.46428,3.89938,1.52259,0.804052,1.91223,1.9767,-0.302824,-3.02854,-3.95586,0.611252,-2.1925,-1.74527,-4.57974,-1.2271,9.76,-884.744,-463.112,5180,-1120,1680
-0.0517662,2.91817,0.843085,5.31237,1.62109,0.81405,2.27754,0.885223,-2.98103,-7.8023,-5.81964,-2.85911,-5.07949,-3.44839,-4.17542,-2.78381,11.712,-885.232,-463.112,5600,-980,1400
-0.173846,2.6397,0.657422,5.72964,1.53651,2.00354,3.5632,3.32009,-3.66685,-8.83314,-6.41917,-5.78523,-3.84762,-3.37187,-1.82421,-3.09298,13.664,-885.72,-467.504,6160,-1540,1120
1.51518,1.78895,0.718384,1.91476,-1.14071,1.87864,0.709542,2.62606,3.67518,-1.65392,-1.48479,-1.78148,1.5908,-0.941155,-0.287374,-1.90864,14.152,-885.232,-463.6,6300,-1960,560
3.30195,2.06383,0.605186,-1.49692,-1.08267,0.703293,-1.05945,1.82695,6.80174,2.58307,0.594214,1.49175,3.3451,1.63255,0.665618,0.195024,13.176,-884.256,-462.624,6720,-1820,560
1.6752,0.326014,-0.90718,-2.04368,-0.350098,0.822243,-1.75676,1.31009,4.1426,1.14609,0.905946,0.20068,2.55845,0.971037,1.90001,0.0846431,12.688,-884.744,-464.088,6860,-2100,560
-0.174399,0.132282,-1.21033,-1.52867,0.689373,1.2037,-2.94105,0.066777,3.3344,0.468804,2.34664,0.139188,2.04887,-0.155302,2.18802,-0.367984,13.176,-881.816,-462.136,7140,-2100,140
1.87011,0.0888812,0.799707,-1.55649,0.886007,0.22139,-1.25481,-3.11194,3.66488,2.38401,3.51696,0.978579,1.53069,0.215128,3.41678,0.407257,12.2,-885.232,-461.16,7140,-2520,140
1.57265,-0.878799,0.245474,-0.711061,0.0743554,0.480199,0.288426,-3.51962,1.3207,1.24187,0.966742,0.550848,-0.137382,0.462551,3.34948,0.940607,14.152,-885.232,-460.672,7140,-2240,140
-2.58957,-3.98459,-2.03327,-3.52611,-2.13752,0.602508,-2.36579,-1.94551,-0.424219,1.81928,3.07685,2.47902,2.72534,3.65578,1.9594,4.29128,12.688,-883.28,-458.232,7000,-2100,0
-3.51569,-5.80319,-1.85092,-7.47997,-3.25713,-0.86046,-6.27737,-4.69086,2.53541,6.30691,7.13539,6.16077,5.70947,6.46276,-1.85283,5.46759,12.688,-885.72,-462.136,7000,-1960,0
-5.49569,-7.35323,-3.31696,-7.61748,-5.38059,-3.21321,-7.91812,-5.18642,1.15004,4.17963,5.62311,3.99878,3.96112,5.18351,-5.04902,3.116,13.176,-882.792,-460.184,7000,-1680,0
-10.5094,-11.4465,-5.51652,-6.90329,-8.24818,-3.76005,-8.24697,-5.19629,-4.42842,0.696227,3.60304,0.383399,3.00835,2.72093,-4.56331,1.16539,11.712,-885.72,-458.72,7000,-1400,140
-9.16325,-8.96243,-4.37723,-5.01528,-4.38206,-3.64755,-2.72588,-4.50188,-4.81517,0.193419,0.657632,0.478261,2.19156,1.53596,-0.541045,2.13255,13.176,-880.352,-463.112,7000,-980,420
-5.82664,-5.79859,-2.58865,-3.9328,-2.68448,-3.85274,0.736881,-4.23863,-3.87726,1.81183,-0.107428,1.44018,2.29472,1.2116,2.10379,1.74702,14.152,-882.792,-460.672,6720,-560,420
-0.161947,-0.843086,0.752379,-1.50618,0.840539,-1.44625,2.53119,-2.0571,-2.46151,3.38445,1.69922,2.61957,2.04771,1.1841,2.72638,1.3835,13.664,-883.28,-468.48,6720,0,700
4.17682,3.37284,3.261,0.57404,3.38314,1.53749,4.0818,0.616622,0.925026,3.98484,2.92548,4.05372,1.79261,1.5985,2.62206,3.25822,11.224,-881.328,-463.6,7000,140,980
8.20689,6.88376,5.30855,3.59208,3.85814,1.44267,3.41132,-0.0184236,5.38583,2.0658,-0.180916,3.0871,-0.89677,-0.348302,-1.72831,-0.481506,17.568,-885.72,-459.696,6440,560,1120
6.62055,6.48325,4.14709,4.1968,2.56695,0.483462,0.340314,-2.26231,7.03087,-0.256287,-0.643233,0.824356,-2.49817,-2.63221,-4.21501,-3.97836,15.616,-882.792,-465.064,6440,560,1540
-0.336822,0.578067,0.468876,1.61173,0.626098,-0.117122,-2.39449,-2.28529,1.50318,-2.89858,0.679458,-2.27551,-1.33399,-2.08115,-2.88798,-3.23066,15.616,-884.256,-465.552,6300,700,1820
-1.60057,-0.939956,-0.402631,4.102,3.13642,0.677535,1.8098,1.93787,-7.41844,-6.85659,-1.24945,-6.89568,-3.79857,-2.53928,-0.401496,-2.57055,14.64,-886.696,-465.064,6300,1120,1820
-0.402072,-1.15824,0.357371,6.22311,4.35156,1.38557,2.38804,4.96002,-10.2548,-7.39369,-2.70851,-7.42415,-5.97898,-3.89342,-1.58396,-4.19947,14.64,-884.744,-460.672,6300,980,2380
-1.78063,-2.52304,-1.29602,1.77709,1.63135,1.22986,-0.103385,6.3366,-5.06834,-2.32304,0.131034,-4.48002,-2.71121,-2.11432,-1.47607,-2.48554,17.568,-882.792,-462.624,6300,1260,2660
0.959339,3.92269,0.209828,2.71725,2.96594,2.38136,1.91985,4.68924,1.07042,0.873782,-2.76503,-2.01397,-1.74754,-2.40564,0.903513,-2.22698,16.104,-883.28,-460.672,6160,1260,2660
1.36294,6.46638,1.72455,4.28357,4.38935,1.85579,4.42417,4.03703,-0.150552,-0.71257,-4.38067,-2.04403,-2.01855,-2.96776,3.73984,-2.64439,12.688,-886.208,-463.112,5880,1120,2940
2.07373,4.10021,1.21655,2.89096,1.37295,1.94815,3.69749,4.22063,0.96531,-0.0957463,-2.04119,-2.76314,-1.54427,-2.36849,4.45586,-0.854205,13.176,-882.792,-462.624,5880,1120,3080
4.22716,4.17926,0.177134,2.32761,-1.14342,2.28437,2.57183,5.0282,3.45057,1.24604,-3.45662,-1.70818,-1.70764,-2.75803,3.77566,-0.0702138,16.592,-884.256,-464.088,5740,980,3220
2.70005,5.16452,-0.0687463,3.48055,-1.18016,0.978952,3.05955,5.62869,-0.00664986,-1.91832,-6.22255,-1.15932,-4.24667,-3.9,3.06881,-2.16075,16.104,-884.256,-460.672,5740,980,3080
4.27216,7.16368,1.0364,4.51325,1.38658,0.104936,3.03562,2.90969,0.884746,-2.41968,-6.98409,0.436433,-4.77641,-3.01574,0.756413,-2.71381,15.128,-881.816,-460.184,5740,560,3220
3.13476,4.64364,0.984049,-0.298821,-0.931324,0.0419758,1.30865,2.37879,3.75674,0.757302,-1.15205,3.45157,0.62415,2.30374,0.520734,0.396369,15.128,-880.84,-460.184,5460,420,3220
1.29063,2.77055,1.34705,-1.07216,-1.54522,0.672662,2.22476,2.13956,2.09945,0.0885617,-0.349133,3.34684,1.71377,4.30946,1.20881,2.68125,14.152,-882.304,-458.232,5040,280,2940
0.291304,-0.367149,-0.45566,-4.12524,-2.61448,0.289923,-0.931212,0.00644439,3.16358,1.48865,2.3713,4.10423,3.97008,5.00818,-0.0556984,4.67678,14.152,-882.792,-464.088,4620,140,2800
-0.620132,-3.835,-1.99939,-8.04636,-4.25532,-2.17269,-5.0832,-0.993722,5.80454,4.66764,4.98262,5.67505,6.27729,5.71673,-0.896618,4.86637,12.2,-881.328,-462.136,4340,-140,2660
-1.18672,-4.74748,-2.84999,-6.83455,-3.92725,-3.28368,-5.93906,-2.436,5.08179,4.70652,4.27424,3.49656,4.59994,3.18967,-0.948857,2.45912,12.2,-881.816,-460.184,4200,-140,2520
-2.41781,-3.57893,-1.97661,-4.47338,-1.94871,-2.44478,-4.45175,-2.94474,1.79873,1.86917,2.83806,1.25183,2.08617,1.24157,-1.24794,0.619526,12.688,-881.328,-462.624,4060,-140,2380
-5.04881,-6.26657,-1.5272,-5.30255,-2.0541,-1.69231,-4.20246,-3.80938,-0.83546,2.50754,4.88355,1.45177,4.45269,2.98962,-1.97739,3.54054,12.2,-885.232,-460.184,3920,-280,2380
-2.8697,-6.79395,-0.499642,-2.83089,-1.61888,-0.760172,-3.14844,-4.13515,-1.65879,0.979522,3.52757,0.853383,3.34341,1.82907,-4.66797,2.08126,11.224,-879.864,-462.624,3640,-280,2240
-0.214781,-2.74254,2.35904,0.334686,2.16201,0.514502,-1.29699,-5.66925,1.27235,-0.0293892,1.67747,1.53533,1.83713,0.358457,-4.43134,-0.522735,7.32,-883.28,-462.136,3500,-560,2100
-0.447534,-2.97191,2.39988,-0.991982,1.40521,0.960085,-2.04825,-5.72217,4.31336,2.68683,4.96505,3.59812,3.5856,1.76618,-1.82343,0.727475,8.784,-881.816,-460.184,3640,-420,1680
-3.2994,-4.45542,0.188571,-0.873043,0.441002,-0.206691,0.346667,-3.80935,-1.36216,-0.712969,1.17646,1.29593,0.0114011,0.537801,2.66709,1.84607,6.344,-881.816,-464.576,3500,-560,1680
-3.23124,-3.48241,-1.05651,0.423935,-0.664499,-1.19648,0.13334,-2.68938,-2.7739,-3.43575,-0.465481,-2.18682,-2.61547,-2.86779,3.20928,1.47361,8.296,-881.816,-465.064,3640,-280,1540
-0.315602,-0.473654,-1.33416,3.05407,-0.191601,-0.977845,0.352989,-2.5129,-3.89739,-4.93021,-1.57467,-5.58641,-5.34447,-5.65552,2.18554,-1.13148,8.296,-883.768,-463.112,3500,-420,1400
-1.62118,0.0337583,-1.7269,3.5459,-0.146194,-1.30639,2.08226,-4.37478,-8.54049,-6.07081,-3.33542,-6.61537,-5.86936,-4.56138,3.53371,-2.42506,8.296,-883.28,-465.064,3640,-560,1540
0.207603,1.42399,-0.919841,3.85036,0.64921,0.0999076,3.13487,-2.76758,-7.88303,-5.16785,-3.03588,-6.72729,-3.49429,-2.23511,0.554754,-2.26159,5.856,-881.328,-465.064,3500,-420,1540
4.33246,4.262,0.829753,1.39674,0.29795,0.844045,0.00646368,-2.712,0.452333,0.486572,0.413059,-2.27177,0.324709,0.478707,-2.35324,-2.19876,7.808,-881.816,-462.624,3780,-560,1540
0.988236,1.09907,-1.23656,1.38922,-0.426624,0.201119,0.0693782,-0.807145,-3.08238,-0.915445,-0.926142,-3.14903,-1.18907,-0.755999,-1.74559,-2.1838,7.808,-884.256,-464.576,3780,-420,1540
-1.27964,1.13501,-1.38391,4.43061,1.63186,-0.0653065,1.01891,3.35022,-6.54971,-4.31964,-4.45631,-4.47983,-4.2166,-4.17537,-2.37624,-3.53987,4.88,-882.304,-463.112,3780,-420,1540
-1.75698,3.49399,0.514863,4.51761,2.46226,0.372962,0.650476,3.88618,-5.1036,-2.70837,-4.45272,-1.02025,-3.29358,-2.04054,-3.51777,-3.46185,5.368,-882.304,-462.624,4060,-280,1540
-3.09739,0.75571,1.00956,2.63571,1.5488,2.46642,1.60729,3.69911,-5.88539,-0.839874,-2.27799,-0.209033,-1.20667,0.275012,-2.72792,-1.3283,6.344,-882.304,-461.648,4200,-280,1820
-1.11759,-1.35396,0.339647,-2.02022,-1.12848,1.63333,-0.353879,4.22418,1.22846,4.49412,1.00634,2.61353,2.70476,2.04437,-0.578517,1.60997,5.368,-881.816,-461.648,4200,-280,1820
2.08534,2.20144,1.89714,-3.82766,-0.437439,0.953251,-1.12126,3.12017,6.72531,8.49652,3.16907,3.49128,5.92939,4.19612,-0.288092,2.14557,6.344,-881.328,-462.136,4060,-140,1820
3.82725,2.13639,3.03997,-5.44505,-0.555191,0.32589,-3.64257,1.24753,10.7987,11.1681,7.06515,5.75105,7.21823,5.43056,-1.39982,1.04543,8.296,-882.304,-461.16,4060,-560,1960
0.932229,0.259099,0.650223,-5.14899,0.522767,-0.082174,-1.01578,2.54003,7.32271,7.20633,5.28955,5.67193,4.78701,4.67051,4.09016,2.70075,8.784,-882.304,-463.112,4060,-280,2100
0.513845,3.78156,-0.132876,3.01232,4.02048,0.0792795,6.14921,6.16096,-0.92895,-3.65402,-5.96873,0.72194,-4.21227,-1.93608,6.80154,-0.464206,6.344,-882.304,-464.576,4060,-560,2100
0.468761,1.77781,-0.116552,5.99616,4.72294,0.861722,7.93121,7.42789,-4.57319,-8.39989,-9.48079,-2.48741,-7.1164,-2.79027,5.28388,-2.26993,6.344,-881.816,-460.672,4060,-420,2240
1.7884,-1.90112,-0.855967,1.08202,0.958232,0.481893,3.81575,3.7478,0.167583,-2.10179,-1.97379,-1.60275,-1.55462,0.0912144,4.38223,-0.592755,7.808,-881.328,-465.064,4480,-560,2380
6.76691,0.431301,-0.305709,-0.818856,-2.87195,-1.74076,-2.85089,-1.87599,8.12427,4.27746,4.1503,1.03549,1.12505,-1.17538,-0.772047,-2.9407,5.368,-881.816,-463.6,4340,-700,2380
8.52237,5.89565,2.5907,1.7044,-0.0286848,-0.860441,-2.20621,-2.40676,7.81242,3.36466,3.20736,3.24752,0.272048,-1.2015,-2.27646,-3.38052,8.296,-882.792,-464.576,4480,-560,2380
4.31513,3.84953,2.93139,2.54568,2.7029,0.694433,1.38386,-0.746366,3.03702,-0.768644,0.558709,3.7788,-0.604601,0.143291,-1.37714,-0.188924,4.88,-883.768,-461.16,4620,-560,2380
-0.450035,-0.231739,0.925813,-0.164789,0.417044,-0.0152039,-0.344869,-1.20838,0.0543438,-1.7856,1.56331,3.69567,0.890141,0.839203,-2.88837,1.08429,7.32,-882.792,-461.648,4760,-560,2240
-4.33023,-2.73397,-1.61655,-0.546297,-2.57118,-0.639792,-0.118348,-1.17653,-3.86113,-4.15534,-1.8004,-0.697525,-0.534813,-1.08414,-2.93064,-0.376451,5.856,-883.28,-459.696,4620,-560,2380
-6.5854,-2.30764,-1.11026,0.989552,-2.85649,-0.333857,-0.0568957,-0.274301,-2.91653,-5.62452,-4.32691,-5.18596,-1.36742,-2.97848,-3.24582,-1.51346,7.808,-883.768,-459.208,4480,-840,2380
-5.07437,-1.09613,-0.219291,-2.04059,-3.49471,0.480942,-2.44742,-0.135425,0.591655,-0.104593,-1.00709,-3.0486,2.18027,-0.52186,-2.48482,2.61633,9.76,-882.792,-464.088,4480,-840,2380
-2.39349,-1.3411,-1.27569,-3.75542,-4.77169,-0.208751,-4.25851,-2.50395,2.34059,2.5949,2.1519,-0.497756,2.98073,-0.263811,-1.66945,3.38251,8.784,-885.232,-460.672,4480,-980,1960
-2.60433,-2.94922,-2.06746,-1.27918,-2.74719,-1.69404,-1.35011,-1.39343,-1.58728,-1.40701,0.00752832,-1.67711,-0.678169,-2.18297,0.724592,1.44471,8.784,-882.304,-462.136,4900,-980,2100
-4.28984,-6.37551,-1.95186,-2.82453,-0.895787,0.167368,0.00169255,0.258541,-2.61159,-1.0897,1.21634,0.627438,1.93652,1.26105,2.07517,4.93733,10.736,-884.256,-457.256,4760,-840,1820
-3.77748,-5.41568,-2.49059,-6.24805,-1.67353,1.02021,-3.15829,-1.05688,2.04024,4.19728,4.95546,4.63005,5.04718,4.11459,0.459667,5.95649,8.296,-881.328,-461.648,4620,-840,1820
-1.41191,-3.48709,-0.829203,-5.27601,0.152392,0.807293,-2.08124,-2.77403,2.20252,5.98105,4.80972,3.92468,3.88442,4.81302,2.19655,5.72717,7.808,-882.792,-461.16,4620,-840,1820
0.273858,-1.20399,0.914061,-0.905927,2.98863,0.757411,1.81768,-2.82703,-0.305506,1.93705,1.26816,-0.399035,-0.178325,2.72547,5.00148,3.60264,8.296,-881.816,-462.624,4620,-700,1680
2.43511,0.511683,2.39989,0.593327,3.99446,1.73536,1.84521,-4.25716,-0.501117,2.75645,2.3959,-1.57709,-0.667992,2.8352,3.20676,0.796269,7.808,-883.28,-460.672,4200,-560,1400
4.74228,2.25999,1.28109,0.151601,2.71774,0.398028,-1.02629,-5.95583,0.763638,3.52525,2.43072,-1.46006,-1.02416,1.72068,1.62767,-1.74954,7.808,-881.328,-462.624,3500,-840,1260
4.88043,5.12396,-1.93033,3.98436,1.77389,-1.83447,0.689867,-4.09748,-2.05746,-4.57977,-5.23771,-5.11099,-6.79912,-5.26692,1.80972,-5.12813,8.296,-881.816,-463.6,3640,-280,1260
0.714278,3.20593,-2.99755,3.71789,-0.655806,-2.63145,1.07562,-1.32773,-5.48919,-7.39164,-6.36317,-5.8012,-5.93737,-5.91426,1.0935,-3.66344,7.808,-886.208,-461.16,3920,0,1120
-4.90834,-2.27648,-4.18042,0.535139,-2.55578,-3.52013,-0.0175534,0.88361,-8.48138,-6.40998,-3.82523,-4.94038,-3.39502,-1.27597,0.94043,-1.19035,11.712,-885.232,-459.696,4060,280,1120
-2.50962,-0.242241,-1.206,1.29059,-0.4359,-1.82319,-0.820217,1.7235,-6.46867,-3.56334,-0.716099,-1.40015,-1.94333,0.283299,-3.3532,-3.45687,9.76,-885.232,-456.28,4060,140,1120
0.682243,0.282219,2.09028,0.725484,0.859002,0.9265,-1.23798,3.95898,-1.7062,0.355405,2.58438,3.41848,1.70025,1.58322,-4.98088,-2.9345,11.712,-881.816,-456.768,3640,0,980
3.18604,1.00969,2.53083,1.8888,0.887922,1.21849,-0.154591,5.17495,2.33246,1.94061,2.15092,3.95077,1.93615,0.634921,-4.22614,-2.67585,10.248,-886.208,-457.744,3360,0,1120
5.29417,3.36835,3.03363,1.76281,-0.896104,-0.242384,-2.47406,2.48987,6.29434,3.28317,1.28725,4.30461,1.03151,0.0495237,-7.36401,-3.5292,8.296,-883.28,-462.136,3360,0,980
0.333393,0.964899,2.45813,1.58235,-1.14983,1.15764,-0.162875,1.39165,1.96005,-0.586418,0.491604,3.88783,1.22474,-0.284311,-4.70248,-0.481285,10.248,-887.672,-458.72,3080,-140,840
-1.91418,2.94075,2.66669,3.8933,1.26867,1.62347,3.56983,1.29178,-2.4967,-2.84276,-2.14784,1.77046,-0.779886,-2.26032,1.45136,-0.205661,11.224,-885.232,-460.672,3220,-140,1120
-2.84219,-0.4728,2.32954,3.59905,2.78852,2.18742,4.47971,3.43996,-5.9332,-1.80705,-3.42711,-2.40583,0.424863,-1.41626,2.33555,0.97062,8.296,-885.232,-458.72,3500,-420,1400
-4.1241,-5.19154,-1.50556,-0.918743,0.0883626,1.57151,3.71156,6.17389,-3.48896,-0.224813,-1.91655,-3.72211,3.01198,-0.176531,5.25482,4.46204,10.248,-882.304,-464.088,3640,-280,1260
0.897796,1.50541,-0.276237,0.0598057,0.13524,-0.332462,2.31849,4.01561,3.33062,-0.208117,-3.05539,-1.91722,0.716774,-0.638406,3.64851,1.29056,7.808,-884.256,-463.112,3780,-420,1400
3.84369,3.46624,1.19595,1.6547,1.43542,-0.365394,0.815879,1.71181,5.21474,0.0459113,-2.67967,-0.841351,-1.78416,-1.6426,0.208588,-2.25003,9.76,-886.208,-462.624,3920,-420,1400
4.93909,5.24525,1.84986,2.02537,2.63343,0.981862,0.313697,-0.882971,5.42669,1.4499,-1.17909,1.58647,-0.74751,-1.66234,-0.118266,-3.19341,9.272,-886.696,-461.16,4200,-700,1260
4.57059,4.64642,1.9794,3.95327,3.19533,1.70243,1.19447,-2.29894,1.67701,-0.198151,-2.56215,0.17118,-1.99142,-2.5109,-0.52071,-4.44989,9.272,-882.792,-462.136,4620,-840,1400
1.34636,-0.551345,-0.933807,0.458899,0.162627,0.110694,-1.23025,-2.21478,0.398241,0.564712,-0.306942,-0.534716,-1.74923,-0.759704,0.835616,-2.23608,6.832,-885.232,-458.232,4760,-980,1400
-1.90249,-3.83402,-2.62293,-4.99462,-2.99887,-2.11032,-4.637,-2.55222,1.65531,4.13053,5.14125,1.19515,2.68151,2.82098,-1.1706,0.726502,10.736,-886.696,-460.184,4760,-840,1400
-2.75068,-6.79458,-2.29908,-8.35362,-4.96754,-2.7266,-7.09095,-4.19331,3.34878,6.53512,9.34674,3.66787,4.95947,4.46498,-3.87072,1.9124,8.784,-885.232,-459.696,5040,-1120,1540
-0.493758,-3.65763,-0.96059,-8.44204,-4.58716,-2.02716,-7.7186,-5.37795,6.69335,6.76888,10.3149,5.42372,4.50861,3.84235,-6.07587,1.48324,9.76,-884.744,-463.112,4900,-980,1400
-2.46163,-5.92511,-3.23348,-9.32668,-5.99244,-2.0543,-5.58327,-4.13119,7.53998,5.61715,7.73167,2.3984,3.99059,4.85735,-0.917857,5.53843,9.272,-887.184,-458.72,5320,-980,1260
-3.91178,-4.14059,-4.39287,-2.37325,-3.45028,-0.691956,1.18907,-0.458752,-1.29203,-2.32235,-2.29452,-3.41482,-1.27478,1.17329,6.10633,4.03869,10.248,-886.208,-463.112,5460,-1120,1400
-2.23214,0.407663,-2.14196,-0.118506,-1.86917,-0.780102,1.15554,0.62686,-3.23712,-3.07084,-3.36297,-2.86726,-1.74838,-0.00785918,4.22684,-0.0863119,7.808,-886.208,-461.16,5460,-980,1400
-2.47449,2.01011,0.0765757,0.424714,-0.0584756,0.539885,2.77402,0.387423,-4.55794,-2.61046,-2.56621,-1.39626,-1.28039,0.412292,4.20133,1.13553,7.808,-886.208,-462.624,5880,-980,1400
-1.89677,1.40778,1.05163,1.2653,1.52664,1.47119,4.4922,1.46017,-5.63965,-2.19558,-2.42728,-0.175869,-0.638191,-0.43971,4.9368,3.22476,8.296,-886.696,-460.184,5740,-840,1260
0.0340846,0.487965,2.18352,0.242466,1.78966,1.21629,1.82109,0.0360745,-2.74057,1.29446,1.86496,1.34811,2.14505,-0.0683081,0.339068,2.79416,12.2,-884.744,-460.184,6020,-980,1400
0.110742,0.640293,1.78737,2.82183,3.42633,1.88367,3.31977,-0.478799,-2.71742,-2.26065,-0.545266,-1.53302,-1.47992,-2.26809,0.169677,1.60939,9.272,-885.232,-461.16,6020,-700,1260
0.807214,1.2152,2.0587,5.70533,6.24338,2.25191,6.15352,0.679547,-2.72566,-5.37058,-3.93374,-4.00496,-4.64546,-2.79009,1.60796,0.806393,6.832,-883.768,-460.672,6160,-560,1120
5.60264,4.89524,3.30972,10.0275,8.17349,3.12071,8.15706,1.81073,-2.04227,-7.18321,-8.0368,-5.23033,-8.05792,-5.85453,1.07221,-3.1304,6.344,-883.768,-460.672,6020,-420,1260
5.6094,5.06509,1.70364,7.10058,5.4671,1.95278,4.42792,1.35351,-0.298993,-5.71286,-7.25037,-2.51667,-5.87142,-4.55605,-0.270289,-3.89924,9.272,-883.28,-459.208,5880,-280,980
1.62682,3.41497,0.626153,2.30956,3.40522,0.410504,0.657686,1.40612,0.839714,-1.55267,-4.11087,1.6578,-1.6772,-0.960631,-0.82069,-2.11088,5.856,-885.72,-461.648,5740,-140,980
-0.746852,-0.0923005,-0.506976,-1.22219,0.419754,-1.23594,-3.76167,1.39646,4.13072,3.05369,-1.58879,3.65622,1.26487,2.54488,-3.12029,-0.694979,8.296,-881.816,-459.696,5740,-140,980
-3.42371,-0.924716,-1.43228,-0.726264,-0.529334,-2.03879,-2.97909,1.30501,-2.56579,1.83196,-1.55426,0.119305,0.80498,2.49834,-3.40629,-0.862647,7.32,-881.816,-458.72,5460,0,840
-1.45096,0.925652,-1.40361,0.327757,-2.75552,-2.04066,0.16125,1.16765,-1.33313,2.05765,-0.426732,-1.2664,-0.00704016,0.274883,-0.206456,-0.103682,8.296,-883.28,-459.696,5320,-140,700
4.25955,7.24471,2.75022,2.2013,0.50645,1.31452,2.54185,1.12051,2.73104,2.78107,-0.57495,1.61864,1.12524,1.1365,-0.84672,-1.26268,7.32,-883.28,-457.256,5180,140,700
2.76256,5.28681,3.29679,-1.42061,0.136347,2.38069,0.357532,-0.251918,2.36033,2.36277,4.23865,4.29763,5.11532,4.3946,-1.869,1.18787,4.88,-884.744,-461.16,4900,140,840
-0.577586,-1.54816,0.436006,-4.27732,-3.68014,-0.438229,-3.56636,-3.56602,0.926348,2.55577,7.64478,4.49846,5.98067,3.95151,-2.15047,1.10211,8.784,-883.28,-459.696,4620,280,560
-2.22432,-7.26988,-1.41899,-5.3258,-6.82522,-1.98446,-7.13173,-4.97772,-0.908418,3.2076,8.73056,2.4582,5.80167,1.66011,-4.24376,-0.22998,9.76,-885.232,-455.304,4620,140,700
-2.55727,-11.1131,-3.66654,-6.52396,-8.84897,-3.42763,-9.41658,-2.81496,2.25919,3.43176,9.16034,1.28371,5.73503,1.23067,-5.28775,0.547273,9.76,-885.72,-458.72,4760,280,420
-1.16126,-6.24927,-2.81658,-1.92042,-3.03487,-2.77013,-3.1713,1.29161,0.83197,-2.01374,0.183136,-0.79601,-1.02126,-1.46621,-1.06247,-0.202623,12.2,-885.72,-458.72,4200,140,560
-4.34637,-5.9906,-3.58685,-1.06221,-3.05679,-1.53083,-1.49098,4.17948,-2.52509,-3.526,-1.83672,-2.87069,-2.39079,-1.49777,0.855003,1.11561,10.248,-883.28,-459.208,4200,280,560
-2.62317,-3.26793,-2.48782,-1.72097,-4.08041,-0.921841,-4.60622,2.54622,1.48337,0.666635,0.2866,-0.70517,-0.128356,-2.35109,-0.887655,-1.96174,8.784,-884.744,-462.136,4200,420,560
-1.71186,-2.88539,-1.55337,-3.84204,-6.0916,-1.90667,-7.4716,-0.792779,4.89101,2.86574,2.72143,0.0288373,1.6221,-1.75395,-2.76131,-2.69363,9.76,-888.16,-456.28,4200,420,420
-1.70975,-0.321722,0.301681,0.908368,-2.66362,-0.0792253,-1.60344,0.259514,-0.445983,-0.896247,-1.77004,-2.17979,-2.05013,-2.92082,-1.01506,-3.61503,9.272,-886.208,-456.28,3920,560,420
0.442844,3.596,1.43809,2.98792,3.21767,0.877601,1.85505,-0.55539,-2.27529,-1.37964,-4.13788,-1.37334,-3.01821,-1.93539,2.45534,-2.67939,8.784,-887.184,-455.792,3640,560,560
-4.15093,-1.19753,-1.16485,0.474354,4.23716,0.315753,2.47536,-0.866022,-8.15983,-1.84879,-3.40178,-2.72102,-1.68722,-0.0888336,5.39667,0.764996,10.248,-884.744,-459.696,3640,560,280
-2.9207,-1.7502,-1.44789,-0.685234,4.8758,0.34887,5.27649,-0.293142,-6.74347,-0.804383,-0.102077,-1.68237,-0.440793,0.0225878,8.78606,3.24591,9.76,-886.696,-459.208,3500,700,420
1.54967,0.74353,-0.851435,-2.37037,3.85539,0.948348,5.0681,-0.458321,1.76587,2.2046,3.38218,0.207382,1.62494,3.04908,9.37332,5.26786,7.32,-884.744,-455.304,3080,560,280
4.3046,4.95391,0.761205,-0.724533,4.02013,1.19095,4.91735,-0.351707,6.75685,3.43816,2.9216,1.53037,2.22587,2.72407,4.48978,2.93752,10.248,-883.28,-457.256,3080,560,280
6.27257,8.21295,3.14404,3.66336,6.01997,0.795148,4.85039,-2.50914,5.86616,0.813754,-0.636897,-0.391855,-0.98281,-0.453213,1.06816,-2.21934,9.272,-884.744,-455.792,2660,700,140
5.14049,6.63101,3.86655,6.21154,6.70248,3.04564,6.8526,-0.944003,-0.977359,-2.30875,-4.23501,-1.53277,-4.09435,-1.67207,1.03791,-1.53928,6.832,-883.28,-460.184,2940,980,140
6.81309,2.69141,2.87828,2.29905,2.84431,2.39811,3.26897,0.881784,2.20803,2.37446,0.410888,2.76911,-1.5147,0.798668,-1.13024,1.99768,8.296,-883.28,-455.304,2940,980,140
8.04559,5.05115,4.40479,1.53252,1.03832,2.08349,1.97175,2.48956,8.42012,2.83797,0.262361,4.29844,-1.81502,1.2096,-3.43507,0.948184,10.248,-883.28,-459.696,2660,840,0
6.40965,7.01326,4.90667,5.45678,3.19191,1.88866,3.83214,3.50208,4.06242,-1.82547,-4.01001,1.65333,-4.22573,-2.04531,-4.00923,-1.70001,10.248,-883.768,-461.16,2380,980,-140
0.755452,4.61341,3.78442,6.96109,3.87759,1.00518,2.72368,0.706873,-6.03694,-7.76316,-9.00706,-1.44531,-5.83779,-4.03634,-5.28465,-4.23862,12.688,-884.256,-458.72,2520,980,-280
-5.88858,-1.14061,0.773282,3.56793,2.0461,0.197803,0.596431,0.791023,-12.9795,-8.29481,-7.23573,-2.96892,-2.64393,-1.79105,-4.68459,-1.75834,11.224,-883.28,-461.648,2520,700,-280
-8.54584,-6.39033,-3.90386,-0.800023,-0.765635,-0.825468,-0.773351,1.31882,-12.244,-6.35799,-3.14155,-3.85434,0.361336,-1.18515,0.357854,1.01902,10.736,-885.232,-461.16,2660,840,-140
-6.30611,-4.23936,-3.00959,-2.34685,-0.412378,0.287187,-1.74878,-0.35688,-7.07198,-2.96352,-0.426699,-1.11194,2.1398,0.908887,1.7552,1.94844,11.224,-884.256,-460.672,2660,840,-280
-3.90881,-3.708,-1.95377,-2.67258,-0.642996,1.20702,-2.92988,0.529373,-3.75048,0.186558,0.936932,0.279258,3.41858,3.50863,1.11844,2.89676,11.712,-885.72,-459.696,2520,700,-140
-1.32723,-2.51368,-1.01818,-4.27224,-4.83307,-0.626398,-4.42882,0.351038,4.4986,3.82492,3.75468,2.04034,4.82841,3.44518,0.172825,2.40952,7.32,-883.768,-459.208,2660,420,0
0.0296716,-1.62154,-1.92009,-2.51509,-6.27146,-2.50754,-3.78994,-0.908685,3.74473,3.71697,2.93912,0.386444,1.96803,0.68518,0.647022,-1.27506,11.224,-884.744,-459.696,2520,140,0
0.698344,-1.22385,-2.60965,-0.330281,-7.20577,-2.38159,-2.91213,0.599136,1.52393,1.32787,0.967952,-1.09462,-0.925595,-1.94145,-0.208757,-2.76478,10.736,-884.744,-456.28,2660,280,140
1.73996,0.0484184,-1.12246,-1.40738,-7.00292,-1.31739,-2.00066,0.710097,6.1269,3.09983,3.79746,0.821351,0.879072,0.0540943,1.57646,-0.557831,10.736,-887.184,-460.184,2520,280,140
-0.391631,1.07734,-2.20558,-0.783011,-5.46986,-2.21181,-1.40236,-1.18682,8.22519,0.639661,2.30029,-0.54452,-0.353915,-1.02079,1.15384,-1.25569,11.224,-885.72,-459.696,2940,140,420
-3.27565,-1.9926,-3.01998,-1.76382,-5.41596,-3.54474,-5.16299,-3.26678,5.06273,-0.117307,1.74873,-1.32381,-0.312479,-1.2599,-5.03493,-2.27385,11.712,-888.16,-457.744,2800,140,420
-2.57236,-3.69583,-1.59159,-4.23288,-3.22198,-2.64719,-5.9632,-3.60188,3.29483,3.32924,4.04806,2.0557,2.95364,1.33679,-6.95921,0.0489833,9.272,-884.256,-461.16,2800,560,280
2.90944,0.266559,1.55299,-3.915,-0.0916312,-1.01565,-3.22003,-1.58893,8.49392,7.44245,6.8232,6.00949,5.17711,3.18058,-6.63618,3.06221,7.808,-884.256,-462.624,2940,560,420
3.33238,0.208963,2.53452,-2.12811,3.31535,1.16452,1.75528,2.01981,3.79288,5.06836,6.06638,4.66348,4.89119,3.13666,-0.857404,3.16117,8.296,-883.28,-459.696,2940,560,420
1.33056,-1.76507,0.62349,-0.129509,4.4159,2.09618,2.87399,4.07125,-0.95278,1.62675,1.05393,-0.204937,1.87875,-0.213926,2.40285,2.19047,6.832,-883.768,-455.304,2520,840,280
-0.892602,-3.63693,-0.984976,-1.80973,2.08664,1.20121,0.470389,-0.027342,-0.0921607,2.50464,0.0658253,-1.56911,1.75536,0.00566214,3.47087,1.99733,8.784,-883.768,-458.72,2660,1120,280
-3.90675,-5.17611,-1.38909,-2.91081,0.136315,-0.0794093,-0.06483,-2.39481,-0.299843,2.15178,0.240193,-1.57455,1.19188,1.24703,3.67626,1.54391,8.296,-883.28,-457.256,2380,980,140
-3.30497,-2.76304,-1.35355,-0.790951,0.546474,-0.0894232,1.15344,-2.01163,-0.397248,-0.975538,-2.95457,-2.43345,-2.90359,0.334556,2.22928,0.516029,10.736,-885.72,-459.696,1820,1260,0
0.445091,3.4995,0.93476,2.97535,2.70551,-0.248364,2.16205,-5.48057,-2.71341,-3.73478,-5.46723,-2.34988,-4.41065,-2.51945,0.791835,-4.02888,11.712,-885.232,-457.744,1820,980,-140
4.38641,7.03641,2.93519,6.63498,3.24054,0.169045,0.418445,-5.20983,-4.1609,-4.76279,-5.93938,-2.62057,-5.95943,-5.24511,-2.61473,-6.85724,9.272,-884.744,-462.136,1680,1260,-140
3.8683,4.71918,3.59897,5.34817,3.5702,1.06158,0.851355,-1.90232,-5.75407,-4.91267,-2.49258,-0.18591,-5.24266,-3.39088,-1.67591,-3.6428,8.784,-883.28,-460.184,1260,1260,-420
-6.20271,-5.70443,-1.40466,0.407559,1.21012,0.638714,0.913332,0.680795,-11.7334,-5.94493,-2.11781,-0.633738,-1.94567,0.329558,2.26205,1.60886,7.808,-882.304,-460.184,1260,1120,-420
-6.95553,-4.98691,-3.72465,0.544221,0.995706,0.55395,1.56962,2.89302,-10.0215,-7.06576,-5.57938,-2.41104,-1.41464,0.062325,4.04095,1.93454,10.248,-884.744,-457.744,1120,1120,-560
1.28617,1.93711,0.0100605,1.56213,1.82669,2.27172,1.89377,3.53326,-2.46353,-3.14814,-3.1869,0.473376,-0.612158,0.00746497,2.70529,0.0253515,11.712,-884.256,-460.184,840,980,-840
5.15522,5.40493,1.71547,1.39405,1.69192,2.59688,1.48764,5.14728,4.23027,0.0240996,0.193339,3.35386,-0.589907,0.780554,0.988789,0.468912,7.808,-882.304,-459.208,980,840,-700
5.57462,7.53234,1.98702,1.53688,2.70748,1.68678,2.81428,5.25105,4.46311,2.47118,1.32452,3.94074,-0.954736,1.20034,2.51462,1.41791,10.736,-882.792,-459.696,840,840,-840
2.96871,2.30984,1.71556,-0.983965,1.21448,1.20368,1.60181,5.11317,0.608792,4.13031,3.05804,2.63805,1.43225,3.31597,3.87556,3.53173,12.688,-886.208,-461.648,980,840,-980
3.38502,3.64396,3.29353,2.22483,2.376,1.23169,3.62362,5.49403,0.0420846,1.07906,-0.00445633,-0.752721,-0.761389,0.664513,3.15055,1.4876,12.2,-882.792,-457.744,840,700,-980
-0.91283,-0.347406,0.324737,-0.823491,-1.6862,-1.29818,-0.064929,0.715189,-0.472475,2.43736,1.14315,-2.05616,1.97811,0.680017,-0.00201449,0.470852,9.272,-881.328,-460.184,840,560,-980
-4.50233,-6.56651,-2.08684,-4.10417,-4.69801,-2.86286,-4.23439,-3.06324,-2.91521,3.29124,3.38548,-2.33235,4.19865,1.38814,-3.65912,0.504863,10.248,-882.792,-460.672,980,560,-840
-3.53953,-7.01263,-0.933502,-4.40736,-3.02694,-0.950809,-2.64531,-3.345,-1.70352,4.81949,5.89098,-1.73257,5.25724,2.33715,-0.565944,1.57125,11.712,-885.232,-459.208,840,840,-840
-1.44723,-3.2284,-0.945844,-2.2639,-0.967526,-0.702209,1.31456,-2.13506,3.19385,3.53232,3.93909,-1.72893,2.98963,0.584827,3.1091,2.18683,9.272,-885.232,-458.232,980,840,-840
3.00485,3.77373,1.20672,2.87582,1.76173,-0.768239,4.93305,-1.6634,5.02919,-0.295299,-1.66256,-1.35797,-2.00652,-2.50155,0.718062,-1.51566,10.248,-883.28,-457.744,700,700,-840
6.68862,8.0608,3.40791,2.71334,1.96622,-0.0480719,2.47485,-3.00009,8.26889,2.27764,-0.909875,1.50091,-0.0504452,-1.49983,-2.18074,-3.32624,7.808,-881.816,-460.184,980,560,-700
1.93588,3.26319,0.881202,0.871371,-2.00293,-0.617554,-0.866863,-2.85978,5.73365,1.63928,1.07039,1.91832,1.13724,-2.27159,-4.58872,-1.84985,8.784,-884.744,-460.184,840,840,-700
-3.5392,-4.87615,-2.96001,-3.23318,-6.06266,-2.27551,-4.35759,-4.86463,3.76126,-1.11798,2.30998,1.58627,1.78633,-1.44575,-5.58661,0.244625,7.32,-884.744,-459.208,700,980,-700
-3.64745,-4.5903,-4.21964,-4.17269,-5.45829,-2.2146,-5.29035,-3.40871,3.76409,-3.51173,0.393474,1.7213,0.574852,-0.753438,-4.41499,0.0272047,7.32,-886.208,-458.232,560,980,-700
-1.18959,1.27187,-2.20841,1.17229,-1.1136,-1.44325,-1.62348,0.297105,-1.21447,-6.6486,-4.47633,-1.72723,-2.79178,-3.14303,-2.67637,-3.82874,9.272,-887.672,-458.232,280,1120,-700
2.6324,9.68931,1.39594,6.36337,5.36289,1.83442,3.96089,4.01567,-3.40104,-7.32652,-7.49547,-3.06281,-6.09686,-2.72994,0.409229,-3.91085,8.296,-885.72,-458.72,420,980,-700
2.39419,6.89954,2.28569,1.68167,2.49667,2.02324,-0.887356,1.91781,1.41044,-0.603202,-0.698121,2.52047,-0.379161,2.11842,-3.04539,-1.80921,9.76,-885.72,-459.208,420,980,-700
1.89881,1.49971,1.98368,-3.74479,-1.12326,0.376557,-5.45576,-1.25497,4.3233,6.0026,6.16826,6.07179,6.07724,4.98938,-4.36804,0.649737,10.248,-886.208,-461.648,420,1120,-840
-1.87741,-1.9989,-0.213365,0.00782263,1.59322,1.11625,1.33769,2.81487,-5.23778,-0.446566,0.558946,-0.0590314,1.0699,2.05318,1.48207,1.67541,11.224,-883.768,-461.648,420,1260,-700
-3.76603,-4.99453,-0.909526,2.52331,2.19831,1.30018,3.9704,3.84733,-9.85269,-5.63014,-3.78251,-3.52801,-1.91118,-0.0286415,4.4283,-1.62903,10.736,-886.696,-456.28,840,1260,-700
-0.379634,-4.06882,0.0301577,-0.348709,-0.238585,0.890574,-0.8427,2.39163,-1.83512,-0.623462,0.233183,0.125741,0.727403,1.08254,3.25008,-1.43932,9.76,-885.232,-460.672,700,1400,-840
1.59532,-3.29896,-0.639018,-0.499364,-0.779739,-0.215164,-3.21991,2.07216,2.89329,1.17322,1.12668,2.01362,-1.4103,0.552766,0.421035,-0.519415,9.76,-884.744,-459.696,560,1400,-840
1.54862,-3.28237,-0.999105,-0.0248535,0.179491,-0.388211,-2.05206,3.59849,0.91758,-0.319425,-0.380896,0.821251,-3.14092,-0.369529,1.40854,0.693396,11.224,-883.768,-459.696,700,1260,-840
2.81813,0.19905,-0.100334,3.03333,1.97797,0.124396,1.32359,2.17255,0.165885,-0.979097,-4.14134,-2.58113,-6.19696,-2.82167,3.11139,-0.651237,13.176,-886.208,-461.648,700,1260,-840
3.18144,1.62518,0.301715,3.9676,1.88247,-0.751239,1.95404,-0.142171,-1.39291,0.521022,-3.04917,-3.32628,-6.0368,-4.11804,2.4467,-1.26675,11.712,-884.256,-461.16,840,1260,-1120
-3.53611,-4.70498,-2.14611,1.48256,-0.0039339,-0.0796931,1.38065,0.277982,-8.52569,-0.123295,-2.50147,-4.97237,-2.90726,-2.10639,2.84795,2.39102,10.736,-883.28,-463.112,840,1120,-980
-7.68785,-8.51276,-2.85477,-3.89346,-3.49482,1.20967,-3.33425,-1.77297,-5.60137,3.30749,2.78122,-0.750085,3.23913,2.80759,-2.06319,5.12823,10.248,-884.256,-461.16,700,1260,-1120
-7.18555,-8.92517,-1.61398,-9.07637,-5.10502,-0.254183,-6.90945,-6.47689,-0.881187,7.43159,8.08995,4.5779,8.52711,6.43199,-5.61473,7.21556,13.176,-881.816,-460.672,700,980,-1260
-1.44734,3.86957,2.73458,0.718184,3.21388,1.06363,3.36136,-5.68713,-2.29877,1.07144,-1.93974,1.94291,-0.689139,1.23571,-2.03554,3.08532,9.272,-883.28,-458.232,700,980,-1400
-0.436973,10.1324,5.64593,8.07574,8.85109,2.6814,9.48902,-1.0707,-7.10569,-5.656,-8.76004,-1.85518,-6.01354,-3.10205,0.188271,-0.447148,12.2,-885.232,-459.696,700,1120,-1400
-6.25387,0.126511,2.20503,2.84594,5.16415,2.07963,6.9448,2.29842,-11.8178,-6.02214,-6.14443,-2.95188,-0.986496,-0.576691,2.97307,3.30125,12.2,-883.768,-460.672,840,840,-1400
-0.77555,0.815109,-0.966595,-0.179163,-1.02259,-0.959843,1.98818,0.725835,0.349623,-2.23714,-1.12625,-1.54761,0.965361,-2.70951,1.87053,0.600385,14.152,-885.232,-461.16,700,560,-1540
4.72597,2.76445,-1.61805,-0.887069,-3.55494,-2.07293,0.810742,-1.68576,8.50019,1.68405,2.01853,0.0876234,1.07668,-1.66093,2.10353,-1.2689,12.688,-885.72,-459.208,980,420,-1400
6.46659,4.08,-0.467667,0.429649,-2.26434,-1.11411,2.2367,0.81962,9.832,2.5727,2.37243,-0.391084,0.099863,-1.91215,2.90384,-2.29899,12.2,-885.232,-459.696,1260,420,-1260
8.39116,5.91935,-0.0456101,-0.306476,-4.06414,-3.39211,-2.17544,0.823581,14.3322,4.89061,4.4742,1.3706,1.20055,-3.30797,-0.495143,-5.04683,11.224,-889.136,-460.184,1120,140,-1260
7.92765,5.72853,0.88885,-1.62216,-4.20319,-3.59058,-3.39755,0.246322,12.5951,4.93825,5.01134,3.7043,3.55758,-1.62784,-1.47734,-5.16734,9.272,-888.16,-459.208,1400,420,-1400
4.75331,2.2333,0.806586,-1.71992,-2.77207,-1.63807,-5.65259,-0.463377,7.49851,2.97792,4.35688,3.36792,2.92955,0.067806,-6.39383,-5.97005,13.176,-887.672,-457.256,1680,420,-1260
-5.54738,-11.6908,-4.80576,-13.5543,-9.6977,-2.30284,-14.7102,-4.35721,4.70563,7.441,13.2806,6.28495,11.3301,8.98105,-7.83195,1.60489,10.736,-888.648,-459.696,1960,420,-980
-5.058,-10.9934,-5.3809,-15.8597,-10.3281,-2.38439,-12.6681,-5.84073,9.44537,8.49344,14.4747,5.47085,13.2874,10.7864,-0.310862,6.14029,9.272,-888.16,-459.696,1820,420,-840
-0.607281,-4.23197,-0.736857,-6.23968,-1.80834,1.20049,0.240159,-2.17001,5.49231,3.21887,5.53722,1.75048,5.20635,6.60744,7.398,5.31247,11.224,-886.696,-461.648,2240,420,-700
-3.20023,-5.1201,-0.957242,-2.52089,0.853614,0.750131,3.01175,-0.490257,-0.536356,0.0861048,-0.440816,-1.11688,1.90659,2.52699,7.60187,2.49915,11.224,-888.648,-458.232,2100,420,-840
-4.84727,-5.66795,-4.4446,-1.11305,-1.5333,-3.33531,0.262839,-2.97663,-2.62833,-2.0109,-3.8841,-3.90826,-0.67664,-2.39028,4.57928,-0.00952943,7.808,-886.696,-459.208,2240,560,-700
-4.82388,0.200412,-3.33387,3.59331,2.97772,-1.60325,3.07752,-1.76435,-9.53323,-8.49469,-9.11974,-5.22436,-4.62839,-3.84277,3.51458,-0.428163,10.736,-886.208,-459.208,2240,420,-420
-2.74308,6.65056,2.75167,10.6455,11.5393,4.0882,7.59784,3.10146,-18.4229,-13.1513,-13.5865,-5.14806,-9.32323,-3.90022,-0.446645,-2.35915,9.272,-888.648,-464.088,2520,280,-280
-6.78026,-2.97655,3.01795,5.17222,7.91739,5.5204,3.38612,3.00953,-19.6285,-6.31686,-4.33081,-3.38024,-3.4487,0.282055,-1.20824,2.15823,9.76,-887.184,-461.16,2520,280,-280
-2.35133,-1.79588,1.94474,3.19604,3.98094,3.30631,0.513993,3.17937,-7.22868,-0.469048,-0.94306,-2.96892,-2.91706,-0.581927,-0.741783,2.38231,8.784,-889.624,-463.112,2660,560,-140
4.88687,7.35816,4.9342,8.01531,5.86392,2.53518,5.50406,4.98073,-0.306399,-0.559845,-3.33497,-1.89347,-7.46484,-3.30166,-0.927059,-0.241041,12.688,-889.136,-460.672,3220,420,-140
5.17052,9.04347,3.61942,8.61962,3.76616,2.47627,5.88654,4.64444,0.550073,-3.40664,-5.48074,-2.455,-7.24254,-4.15537,-1.8814,-2.14892,9.272,-890.6,-461.648,3500,280,-140
5.83567,9.13158,2.69844,10.2615,3.64473,2.94184,6.10033,4.8734,-2.28459,-8.69041,-8.68695,-3.74657,-8.54021,-6.99858,-3.15999,-5.25848,11.712,-887.184,-461.16,4060,280,0
9.4821,11.1474,5.51923,9.16727,4.79862,1.98036,3.75564,5.14867,1.33463,-5.98232,-5.45178,0.752804,-6.10292,-5.37194,-4.95821,-7.33772,12.2,-887.672,-462.136,4480,280,140
9.09298,8.84047,5.53146,2.59567,2.99378,0.589789,-0.594862,5.89061,5.52864,0.438896,0.587589,6.9944,-0.389039,0.599095,-6.09252,-3.77287,9.272,-889.624,-462.136,4760,280,140
4.30119,0.79006,2.88446,-4.12965,-0.432828,0.190435,-3.97776,3.07929,5.185,6.58592,7.56077,8.76972,6.19545,5.52726,-4.782,1.67695,9.76,-889.136,-461.648,5180,420,140
1.72207,-1.18929,0.763437,-2.41559,-0.461801,-0.925382,-1.06452,0.305255,3.02315,4.77852,5.06041,4.45803,3.60605,3.26136,-1.17532,0.362364,10.736,-887.672,-460.672,5600,280,280
0.612381,0.408905,2.88786,2.37975,3.28849,0.0628898,4.77043,0.876474,-0.780125,1.54067,0.997438,1.18376,-0.525388,0.569618,1.22961,-1.24967,10.736,-889.136,-459.696,5740,140,140
2.83985,3.50374,3.70739,4.84733,3.98951,0.733451,6.70961,0.371697,2.02297,0.870708,-1.79325,-0.293552,-2.9484,-2.20886,2.7774,-1.81383,10.248,-889.136,-459.696,6160,420,280
2.4307,2.78215,0.939644,2.08696,0.0432818,-1.15426,2.47105,-1.3492,4.65777,1.56965,-2.125,-1.52107,-1.60441,-2.07375,3.88124,-3.30497,10.248,-885.72,-463.112,6020,280,280
1.85093,1.30949,-1.83616,-0.76106,-2.20272,-1.79464,-1.29389,-2.35277,7.33204,3.33371,-1.27292,-0.433087,-0.204709,-0.800694,1.89936,-1.87779,10.736,-885.72,-460.672,6020,140,280
1.55716,-0.239839,-1.66366,-1.80701,-1.05508,-1.60037,-2.04396,-4.59244,6.78,3.90702,0.699812,0.701726,1.09529,-0.241949,1.37337,1.41792,10.248,-883.28,-460.184,5880,280,280
1.00416,0.544312,-0.173127,1.43197,0.854214,-0.448233,0.727799,-3.851,2.91371,0.974058,-1.75626,-1.68334,-0.986271,-1.9789,2.45227,0.202606,8.296,-883.768,-458.232,5600,280,140
-3.1466,-2.49922,-2.60976,-1.28968,-1.99875,-0.518696,0.567781,-3.28434,0.0251668,0.559044,0.00793197,-0.636086,0.788616,-0.953843,3.26006,2.44955,10.248,-885.72,-461.648,5320,140,280
-7.51658,-6.85766,-5.18717,-4.24064,-4.38982,-1.77272,-1.79868,-2.76374,-4.67639,0.135333,0.857886,-2.01728,2.5759,-0.438216,2.25784,3.61841,11.224,-882.304,-460.672,5320,140,280
-8.02223,-7.62666,-6.70604,-3.13504,-4.80852,-2.15376,-2.1228,-2.76479,-6.60379,-3.04504,-1.52,-3.76335,0.406148,-0.932126,0.623629,3.36026,12.688,-881.816,-458.72,4900,140,280
-4.94324,-8.21334,-6.11915,-7.4838,-8.05444,-1.47132,-7.32912,-5.1396,-1.7704,2.48495,3.0963,0.0971374,5.36082,2.56863,-3.02044,3.13653,13.176,-882.792,-458.72,4620,280,280
-5.42523,-9.66657,-6.32811,-10.4486,-9.23083,0.449548,-8.73992,-5.06281,0.37621,3.62607,5.09307,1.71232,6.00697,4.34961,-3.58355,3.93701,11.712,-881.816,-461.648,4480,280,140
-10.8465,-14.489,-7.56768,-13.9622,-10.5813,-1.62864,-10.0927,-5.90693,-2.07939,2.98354,9.47031,2.47325,8.35529,6.75533,-1.67654,5.75593,14.152,-883.28,-461.648,4060,280,140
-14.4225,-16.6465,-9.12606,-14.633,-12.1422,-5.51309,-11.2208,-4.70006,-3.94054,-0.131946,7.29319,0.547437,8.14171,5.15918,-0.620568,5.70234,13.176,-883.768,-460.672,3920,420,140
-14.1626,-14.6386,-9.69037,-11.7001,-12.3925,-6.22549,-13.1135,-4.50025,-4.97274,-4.69312,1.94046,-1.81738,3.47347,1.36977,-4.5563,2.00644,13.176,-881.328,-459.696,3920,140,140
-13.5489,-15.1834,-8.70323,-12.7121,-10.9415,-3.99273,-12.6103,-2.32108,-4.34546,-1.90241,2.38434,-2.58913,5.10247,4.6526,-3.96144,4.02664,11.712,-881.816,-460.184,3500,280,280
-13.6045,-17.1698,-7.9991,-12.6734,-9.75209,-2.86412,-8.13184,0.243859,-6.31862,0.16693,3.04121,-4.38086,6.36929,5.69227,3.60672,6.15251,14.152,-882.792,-461.16,3500,0,140
-4.70927,-5.00818,-3.05357,-2.42022,-3.17054,-1.14895,0.316362,4.08174,-4.05785,-1.92358,-2.1218,-6.30873,-0.217208,-0.915727,6.8621,-0.739495,13.664,-886.208,-463.6,3780,0,280
9.85737,10.5357,4.56619,8.29406,6.96346,2.63796,9.99422,7.72132,3.62796,-1.1477,-6.11835,-3.81706,-5.7743,-3.68907,8.4522,-3.94581,14.152,-884.744,-463.6,3640,-140,420
19.7477,21.908,9.64918,13.47,10.2607,2.57022,11.3434,6.73417,12.4646,1.61773,-3.7613,0.193262,-8.08387,-6.28283,6.06158,-7.51785,13.176,-888.16,-464.576,3780,-280,280
15.2212,16.5753,8.77445,14.9029,9.94719,0.953571,11.7143,3.78535,4.53313,-0.177842,-2.22698,-3.01763,-9.4768,-8.15642,8.3574,-7.95277,13.176,-886.208,-464.576,4200,-140,280
18.7946,19.6326,13.1664,18.6213,13.1264,3.89264,10.4846,1.98892,3.53852,-1.36054,-2.70543,-1.21598,-10.1817,-7.94918,0.783836,-11.5309,12.688,-885.232,-462.624,4480,0,420
23.0223,28.9072,18.8104,17.4343,17.0394,7.9502,4.97642,2.86998,9.39804,3.0049,0.255571,8.7467,-5.347,-1.57634,-15.3417,-11.9058,15.128,-887.184,-461.648,4900,0,420
12.8626,21.879,17.8768,12.9099,18.613,10.0344,5.94051,4.64814,-3.32655,2.56532,1.29723,12.0687,-0.544257,5.27018,-17.9921,-3.94227,15.616,-887.672,-460.672,5180,280,420
6.45766,16.4868,14.6008,6.82006,16.4436,9.08795,2.87835,5.29438,-3.02744,2.54498,3.15539,14.5616,4.14603,9.01506,-20.042,2.0094,14.152,-889.624,-463.112,5320,140,420
-2.15113,-0.330861,7.01739,-5.42808,9.08445,4.90188,0.107669,2.78148,-2.41248,7.47483,8.91206,14.8192,11.2676,14.2639,-10.1028,11.9646,12.2,-890.112,-463.112,6020,420,560
-13.2757,-18.3916,-3.57847,-10.2854,-0.918647,0.464302,4.3323,2.19293,-9.39664,1.76675,8.32656,2.86385,9.30202,9.45015,10.6831,16.2501,15.616,-892.552,-466.04,6580,140,700
-6.9147,-8.26327,-4.93128,1.99719,0.974884,-0.592847,10.903,1.059,-7.64126,-8.33121,-4.5958,-8.11045,-3.93722,-4.03237,15.2392,4.88263,14.64,-895.968,-465.552,7700,140,1120
5.16966,2.44895,-1.76272,3.53675,1.01157,-0.906869,8.23382,-1.33616,7.01075,-1.0001,-3.52352,-2.73968,-2.43016,-5.85085,10.7469,0.984102,13.664,-895.968,-465.552,8960,140,1540
-1.82913,-8.00114,-7.3481,-4.21629,-6.23175,-4.14107,2.50641,-2.74353,4.87995,2.8599,-0.105672,-2.9158,1.31922,-3.85664,13.6332,4.6685,16.104,-899.384,-465.064,10220,-280,1820
-0.477557,-4.93334,-7.68063,-0.374926,-6.01251,-5.82675,1.78909,-2.70551,4.33293,-0.868368,-5.45273,-7.48897,-5.61346,-7.95622,11.9715,-1.46511,13.664,-896.944,-461.648,11480,-140,2240
1.03018,-0.997059,-7.43868,1.42196,-6.96563,-5.89357,-0.844763,-2.90154,5.77367,-2.12626,-6.38913,-9.69925,-7.60445,-10.3497,6.69792,-6.27784,15.128,-899.872,-463.112,12600,-140,2660
0.000435912,-0.19659,-7.43482,0.765377,-8.04293,-5.90768,-4.053,-1.28994,7.30358,-1.89458,-6.33681,-8.44197,-7.51625,-10.0707,1.8856,-6.96635,12.688,-900.848,-463.6,14140,280,3080
3.34068,6.60688,-2.6154,3.7481,-4.47495,-4.61874,-9.45553,-2.34625,7.74551,-2.89417,-8.51435,-2.95929,-9.32752,-8.54131,-12.1711,-12.5057,10.736,-897.92,-464.088,15400,840,3360
-2.82891,7.86844,2.41087,5.87044,2.80289,-0.581891,-6.65905,-1.70644,-8.3437,-8.86216,-12.1537,1.05503,-8.83268,-2.66639,-17.6941,-11.2485,12.688,-898.896,-465.552,17080,1260,3360
-15.0709,-13.3238,-1.30434,-1.92664,-0.0926716,2.68004,-0.163939,1.98123,-21.0787,-8.15874,-4.35161,-0.0631664,0.75914,5.6723,-1.25351,1.06093,12.2,-893.528,-467.504,18480,1960,3500
-7.2977,-20.0185,-3.47676,-13.1053,-9.28789,0.706869,-9.03389,-2.17424,2.46194,7.93508,11.4541,7.35284,12.6237,10.7553,-1.79501,6.33126,11.224,-895.48,-469.944,20020,2520,3640
12.4154,2.65797,4.14233,-4.89956,-2.95875,0.445871,-6.78953,-4.00209,23.0927,10.7105,7.4607,10.0414,7.02501,4.21466,-5.42304,-1.15973,11.224,-894.016,-476.776,22120,3500,3780
5.5097,8.4721,2.046,11.029,6.96105,2.48341,15.2151,3.0204,-2.01864,-11.0402,-12.7093,-8.042,-11.2875,-6.81021,11.7921,-3.03108,11.712,-895.968,-479.216,23800,3780,4060
2.06131,10.2542,-0.548944,13.7665,4.28364,1.64125,12.0473,3.72817,-9.47047,-15.8784,-15.4274,-12.6589,-14.9156,-11.9018,7.6387,-6.26597,12.2,-893.528,-478.24,26460,5180,3920
0.803986,1.19304,-1.93156,0.115084,-5.33563,0.79241,-6.01677,-0.25933,-0.559589,-2.77748,-1.45976,-3.78065,0.751515,-2.77085,-6.09407,-1.36857,14.152,-893.528,-474.336,29400,6020,3920
-0.276009,-10.856,-5.2633,-19.9401,-16.4384,-2.0006,-21.7933,-4.92694,18.6224,15.5478,18.7493,9.82998,22.1224,12.8595,-12.1163,10.5333,11.712,-891.088,-478.24,31220,6860,4200
3.42081,0.315497,-0.353734,-8.26237,-4.72989,-0.120136,-9.85207,-2.48655,14.3086,6.3135,8.42535,4.7528,12.4331,7.11009,-6.26377,5.20157,13.664,-891.088,-482.144,33740,8260,4060
1.74047,11.7388,8.41071,15.0624,17.6739,3.95726,15.0686,3.8911,-17.0515,-14.3739,-13.3588,-8.17271,-7.11612,-3.98943,3.36639,-3.05287,11.712,-889.136,-479.704,35280,9240,3920
-13.2777,-3.39272,0.612602,11.0271,13.0802,3.38617,18.5167,6.64189,-35.2162,-17.1605,-12.9642,-14.232,-7.10261,-3.84068,13.2052,3.82831,11.712,-884.744,-479.216,36960,10780,3500
-11.5363,1.91448,-4.01148,9.43555,5.19112,0.390743,9.49537,3.10878,-26.2483,-14.1234,-11.9009,-14.0182,-11.1563,-9.33403,8.91247,-3.50525,12.688,-881.816,-480.192,38360,12460,3080
0.0587411,8.01812,-0.517483,-1.07072,-4.68933,-4.00947,-12.0158,-7.83695,-1.85425,7.11129,7.55088,2.29347,-2.07176,-4.88954,-13.0469,-9.45732,15.128,-882.304,-483.12,38500,13440,2660
-18.5475,-26.5969,-8.70503,-28.423,-18.0164,-2.99346,-17.9102,-2.60872,-0.905015,22.9867,30.6489,12.1398,21.199,18.6126,-6.41712,19.6449,13.664,-878.888,-480.192,39200,15400,1960
-22.781,-30.5557,-8.03637,-26.3821,-12.3347,-1.59798,-10.081,-0.662533,-12.5113,17.5104,24.0563,10.8788,20.7783,19.68,3.46192,20.5101,12.2,-880.84,-480.192,39340,16520,1540
-12.2751,-16.0096,-3.17861,-8.96551,-3.39731,-2.29784,0.113086,-0.57267,-13.7179,7.44781,10.2045,3.4912,6.44887,4.93961,7.53003,5.84307,10.248,-879.376,-478.24,39060,18060,700
2.7511,-7.46589,0.540446,-7.26004,-4.54098,-1.56271,-1.91073,-2.33785,9.39463,13.9919,12.1437,7.58143,6.98525,3.35614,2.70146,2.68222,12.688,-879.864,-473.36,39340,19740,-280
21.5922,7.94668,7.09113,-20.3293,-9.21717,-2.17135,-24.7694,-11.1859,50.2778,36.4278,28.4194,30.9229,23.5556,17.2944,-21.0951,2.82578,10.248,-878.4,-470.432,38780,20720,-980
16.3715,13.5294,6.92649,-7.29859,0.00135763,-2.82454,-13.7545,-8.13293,30.7602,17.9455,10.886,19.9175,9.54257,8.67489,-13.6584,-3.15921,8.296,-877.912,-467.992,38220,22680,-1960
-2.66956,2.92316,-0.52902,5.72816,3.55266,-1.8128,3.15341,-0.359669,-6.13838,-9.08575,-9.44369,-4.64944,-7.88674,-4.1556,1.77781,-4.03571,11.224,-876.448,-467.016,37660,23940,-2800
-9.68627,-11.4779,-8.96583,-6.94688,-9.3724,-2.55171,-7.11142,0.478196,2.85186,-4.07693,1.77659,-5.76527,1.85531,1.6567,2.21923,4.87502,6.832,-878.4,-465.064,36680,25060,-3780
5.63921,2.13355,-1.01665,-0.991971,-1.05429,-0.743301,-5.3745,-2.6215,12.4254,0.990253,1.702,-1.21911,-0.270202,-0.796562,0.146529,-2.02499,8.296,-874.984,-459.696,35140,26600,-4760
21.0424,20.8974,9.63894,14.5198,13.6988,3.86676,8.52455,0.957322,16.4999,-5.44291,-10.0195,-0.538477,-10.7253,-6.31041,2.37518,-9.29327,6.832,-873.52,-454.816,33880,27440,-5740
9.0072,11.4951,1.28618,13.1445,6.90341,4.2885,11.9297,7.73059,6.17463,-16.5631,-15.7073,-9.86155,-13.9139,-8.58867,6.67767,-6.71667,5.856,-874.008,-454.816,31360,28560,-7140
5.65935,17.6175,1.7362,25.7236,15.9465,6.73506,25.0588,12.1053,-9.95673,-31.7148,-30.1351,-19.8484,-27.0319,-16.8768,11.5794,-11.489,5.368,-872.056,-447.008,29540,29400,-8120
3.94567,16.0803,2.77444,27.0702,17.7984,6.91749,28.8571,12.3172,-18.2345,-32.2123,-31.2943,-17.4358,-27.7559,-16.8051,13.9812,-8.33144,8.296,-874.008,-442.616,27020,30240,-9520
6.26317,8.46326,5.9163,19.2313,14.0064,5.51944,23.6928,11.2894,-20.4843,-16.0891,-18.099,-8.11422,-16.4622,-9.53773,9.91933,-2.22665,7.808,-878.4,-441.152,24920,30800,-10500
2.14174,5.05247,6.35109,19.1427,12.9465,5.55267,22.5645,9.74731,-26.5419,-16.2641,-17.2773,-9.7771,-14.7827,-9.08982,10.3955,-3.77122,11.224,-878.888,-438.712,22960,30940,-11480
-10.8249,-8.05571,0.0374974,10.5158,6.09586,4.36152,16.1066,10.1216,-29.3737,-17.7972,-16.0818,-11.7524,-9.98921,-5.2543,9.19874,1.5517,13.664,-880.352,-437.736,20160,30520,-12180
-4.48038,-11.6767,-0.200543,-3.33674,-2.85703,1.35972,1.49725,2.64809,-5.18453,1.60006,0.96733,1.27223,5.28688,3.73708,0.175476,5.9438,17.568,-883.28,-434.32,18900,30380,-12740
6.31408,-4.07165,2.10905,-8.03612,-5.96362,-3.18451,-6.81706,-5.98141,15.8979,16.3684,12.7207,10.7726,11.9445,5.86418,-5.57774,3.65379,16.104,-885.232,-431.88,17640,30240,-13160
15.4384,17.2607,11.0983,8.66037,8.63313,-2.26601,3.36178,-10.4361,13.6961,9.1757,0.172754,6.58515,-2.08071,-3.28231,-2.52944,-10.0295,15.616,-882.792,-427.488,16240,29400,-13300
19.3662,27.8084,13.6029,12.7458,9.7942,-2.558,-3.08618,-11.2068,16.5203,6.1054,-2.75492,6.28693,-3.68583,-6.92732,-9.54025,-19.5859,19.032,-887.672,-427.488,15540,29120,-13300
4.1742,5.18031,0.39858,-6.33158,-9.34486,-4.82383,-16.1586,-2.78788,14.9568,14.8717,11.909,6.46746,9.92797,-0.166699,-12.7786,-4.06741,20.008,-891.576,-424.56,14700,28560,-13440
-15.7009,-18.6648,-15.1831,-30.2355,-35.4575,-10.2199,-46.3841,-10.4206,16.2449,24.628,27.198,8.13096,23.7912,6.08842,-22.1069,-1.08011,22.448,-888.16,-418.704,14140,27580,-13440
-23.9232,-27.3454,-19.2386,-32.2895,-33.9229,-10.0302,-44.0768,-11.5016,4.93356,19.044,25.3865,5.28889,23.328,7.12325,-18.3076,0.130352,20.008,-894.504,-419.192,13300,26600,-13300
-31.8906,-37.8459,-18.2248,-31.705,-20.4437,-3.58922,-15.1638,3.3309,-11.4034,13.249,23.4514,3.64826,23.7986,17.4917,-1.71388,25.5647,20.984,-894.016,-419.68,12320,26040,-13160
-12.7974,-22.7859,-5.94259,-24.6502,-10.0969,-3.41543,-8.47081,-1.14824,3.47152,20.6071,24.0036,12.2454,22.0146,19.2341,-1.75709,24.4867,26.84,-898.408,-420.168,12040,25620,-13020
-7.72078,-18.0607,-1.27017,-19.7019,-6.39202,-1.9351,-8.80581,-5.12164,2.35292,18.1113,17.9794,11.7317,17.345,17.8934,2.05256,17.8223,23.424,-901.336,-419.68,11340,25620,-13020
10.8303,11.2924,7.34859,12.9849,16.2306,2.39995,13.9319,-1.42135,-5.25957,-5.97976,-11.5138,-3.66296,-12.0248,-3.69532,8.55907,-3.2731,25.376,-899.384,-418.704,11200,25760,-13020
26.4952,31.0415,10.5403,30.0633,24.0557,3.58869,25.7459,0.836898,2.90357,-13.9425,-22.6925,-10.2095,-26.4448,-18.6209,8.44586,-14.7025,25.864,-898.896,-416.752,11060,25900,-12740
20.0343,19.6634,5.11025,13.8237,8.75099,1.25849,8.80191,-1.55886,14.8655,-3.34055,-9.1776,-4.42184,-12.4919,-9.57711,3.26601,-9.57434,26.352,-903.288,-420.656,10780,26180,-12320
-7.03154,-4.36109,-9.95981,-5.04384,-9.05807,-2.77493,-3.16884,-1.02291,10.0409,-5.32113,0.535286,-8.84595,0.0110003,-1.99209,7.1324,2.70063,25.376,-902.8,-417.728,9940,25480,-12040
-22.01,-13.3633,-13.0727,-4.56707,-2.7399,1.16668,10.8692,8.27599,-8.45579,-19.0446,-8.05494,-13.7768,-2.62536,1.66779,13.8778,16.096,28.792,-898.896,-419.68,9100,24780,-11480
5.91047,24.4772,11.6641,23.6351,28.8291,9.51029,27.7355,8.13612,-14.9968,-23.8247,-25.4366,-5.3608,-19.2143,-4.50472,3.85432,0.0837912,27.328,-898.896,-421.144,8400,24360,-10920
-10.6862,20.9659,12.0365,37.0302,34.5468,13.3247,31.3324,9.85885,-57.9671,-45.0336,-43.0334,-17.6638,-30.6325,-13.19,2.83428,-12.9548,29.768,-901.824,-427.488,7420,23800,-10360
-30.6752,-17.1068,-2.93057,13.334,8.84147,8.08758,14.7425,6.84593,-61.2079,-36.4966,-24.6672,-19.8114,-13.266,-5.20645,8.59857,-2.7187,28.792,-900.848,-427.488,7140,23240,-9800
-4.68328,-22.9864,-6.71101,-18.9078,-22.948,-2.99706,-22.1731,-7.84771,10.4236,13.1907,19.2577,6.62988,17.2257,5.95561,-2.62158,1.33195,29.28,-898.896,-428.464,7000,23100,-9380
24.2401,4.03892,3.67354,-16.001,-15.7207,-2.62405,-23.3472,-8.84668,47.9932,28.7371,23.2691,21.7536,18.2543,7.70177,-14.2601,-3.34994,26.352,-895.48,-432.368,7000,22400,-8400
18.638,4.07924,1.75504,-14.4552,-9.16954,-1.19892,-13.7544,-2.43441,37.6855,24.8348,19.425,19.1157,15.8556,10.5304,-9.17832,4.62989,28.792,-889.136,-430.904,7140,21840,-7700
17.6116,10.1642,6.26532,0.866561,2.06636,0.387785,1.06582,1.032,14.0804,10.4731,6.04106,10.7316,2.28011,1.97166,0.0983445,-1.79766,20.984,-886.208,-435.784,7280,21420,-7420
7.76746,15.0526,7.96807,14.4833,11.0179,1.66138,10.1194,6.33899,-15.6159,-9.31834,-10.8726,0.159127,-12.1263,-6.51297,2.10102,-9.663,23.424,-883.28,-431.88,5460,21420,-6720
-10.9487,0.226009,1.33432,11.1575,5.7024,-0.474437,5.90876,4.90521,-33.4958,-16.7031,-11.9239,-8.08504,-11.8035,-6.5367,-0.50718,-9.77743,25.376,-886.208,-438.224,4900,21420,-6300
-4.98076,-12.6739,0.343363,-5.98689,-6.3727,-4.12001,-9.67406,-3.72796,-4.81178,8.33467,11.1099,4.3335,6.36306,4.18534,-4.81296,-3.79578,23.424,-888.648,-435.784,4060,21560,-5880
13.9869,-6.78595,-2.85233,-18.3065,-17.8208,-7.64109,-17.7858,-5.08547,41.3802,32.6301,26.7919,15.894,17.9869,7.42926,-4.37858,3.28704,18.544,-888.16,-435.296,3360,20860,-5320
11.2374,-7.24912,-6.53925,-29.442,-24.9455,-8.77279,-29.114,-6.63972,55.2223,39.4907,34.5945,21.6003,27.4666,13.577,-13.432,7.43685,16.104,-888.648,-438.712,2520,20580,-4620
-9.68801,-18.8479,-13.3575,-31.9944,-22.3257,-7.21933,-23.3083,-2.32571,27.7579,26.3133,27.8431,12.6508,25.3011,16.2389,-9.21511,16.7054,12.2,-886.208,-437.736,1260,20860,-4060
-31.1724,-30.4381,-13.7191,-13.1853,-3.32657,-1.75049,8.28836,4.92566,-28.9128,-6.87878,1.25092,-10.299,3.27286,7.319,15.7461,19.6962,10.736,-885.232,-440.664,700,21140,-3780
-8.53959,1.18185,0.0288308,24.6707,19.673,1.02334,30.7718,3.86168,-42.6559,-30.0533,-28.7155,-25.6176,-27.6713,-18.6759,26.7758,-6.9581,8.296,-887.184,-437.736,-980,21560,-3500
15.3649,23.1846,9.75231,28.0871,18.0468,3.12558,17.2064,-1.10559,-13.9927,-18.547,-21.4575,-15.3479,-23.0725,-20.051,7.43296,-17.6832,1.952,-889.136,-437.736,-1680,21560,-3500
1.13291,-3.97335,0.998046,-4.28662,-9.58008,-0.402007,-17.1621,-9.8215,7.0311,5.57703,8.41171,0.440023,8.05775,-0.00923392,-7.39698,-7.16885,10.248,-892.064,-442.128,-3500,21700,-3500
23.4725,29.1757,10.8556,14.7527,9.29775,3.68128,-1.20502,-3.64199,23.1347,-1.39082,-11.2929,1.70936,-9.47734,-8.74139,-11.3136,-14.7427,6.832,-899.872,-437.248,-4900,21980,-3640
14.7131,41.4769,14.6352,40.6962,36.1568,12.4285,35.1202,13.2013,-14.1197,-34.4062,-45.2526,-16.4703,-36.2665,-18.0466,1.83284,-12.1901,8.296,-896.456,-437.736,-4760,21700,-3920
-27.7892,12.7677,2.2524,34.2968,31.1757,11.5069,36.8309,15.7326,-65.2337,-53.461,-50.191,-30.8407,-33.5448,-14.1801,5.91216,-4.77122,5.368,-900.848,-440.176,-5320,20580,-4060
-48.1841,-40.4845,-11.6179,-9.41466,-1.99205,2.79391,4.4324,3.24916,-58.6784,-18.1245,-3.44184,-14.9711,5.91696,8.73043,1.53223,17.0225,10.248,-901.336,-447.984,-5320,19460,-4340
-22.2613,-53.5229,-12.496,-48.1981,-32.3888,-5.93094,-31.938,-11.9579,15.5569,37.2816,47.9437,20.1862,45.1434,32.1446,-6.26683,30.8181,8.784,-912.56,-420.168,-4620,18620,-4620
27.3756,4.70524,4.82841,-22.3728,-13.4934,-5.06879,-21.9377,-14.7979,60.822,39.2467,33.7974,28.1864,25.5379,15.1941,-9.21536,6.08649,13.176,-902.312,-443.592,-4760,15260,-4760
40.99,32.8039,12.1599,6.17265,5.39135,-1.20307,1.49129,-5.40613,50.3435,19.9609,7.26126,16.3304,0.16784,-3.77675,-0.451625,-10.4703,9.76,-893.04,-437.248,-4760,14140,-5180
33.0949,34.0231,10.03,16.01,9.81273,2.13812,13.8128,6.45771,32.8273,4.69282,-7.64461,5.28997,-12.2858,-10.4672,4.79805,-9.02788,13.176,-897.92,-431.88,-5040,12180,-5600
16.2822,7.73451,-1.9203,-6.97089,-13.067,-2.2705,-6.57779,4.21034,35.8419,16.3862,12.6534,6.85688,6.96551,-1.37884,-0.236367,2.40923,17.08,-905.728,-433.832,-5180,10640,-6160
12.224,-1.01816,-5.65814,-24.3199,-26.8499,-6.69807,-32.4028,-1.14754,48.1644,31.7479,29.2935,18.3215,22.6458,8.3376,-18.5507,4.00684,15.616,-900.36,-432.856,-5180,9520,-7000
6.91409,11.3498,-3.51445,-2.61994,-7.93506,-3.3768,-9.30454,4.55295,17.4489,4.33767,2.07884,4.83129,-0.996073,-3.16288,-7.14807,-1.39385,18.544,-897.92,-435.296,-4900,8960,-7840
-16.479,11.4016,-2.54885,24.7092,13.7738,0.995721,19.9759,10.3433,-47.4971,-37.8844,-31.8425,-21.4117,-29.0345,-19.3842,10.6892,-11.013,20.984,-898.408,-429.44,-4900,8260,-8400
-38.0021,7.06582,-2.48523,48.073,30.9154,4.43752,43.6501,15.7564,-111.024,-71.3819,-60.9947,-45.3963,-52.5693,-34.3347,24.0153,-20.3463,20.984,-895.48,-430.416,-4900,7420,-9100
-40.9574,-25.3136,-5.77711,16.3846,8.74497,1.29595,15.8841,5.71234,-91.9484,-33.7296,-22.6672,-26.1481,-17.9877,-12.2062,11.3951,-5.69249,21.472,-890.112,-416.752,-5600,6160,-9520
-38.8084,-67.7007,-20.5043,-35.2201,-25.3657,-4.81822,-11.0958,-0.714908,-25.5628,17.1313,29.2826,-0.239067,27.6843,20.0404,14.5941,30.7943,22.936,-896.456,-412.36,-8540,3360,-9660
-9.22498,-22.8285,-8.69099,-16.7767,-5.04936,-0.31942,1.93184,0.373332,14.3132,7.07225,8.57617,4.56636,11.6114,14.202,13.2508,20.6785,27.328,-894.992,-427.488,-11200,1540,-10500
26.3985,28.5053,14.9281,18.8242,22.9041,6.14307,13.4808,0.400602,22.1229,-5.61804,-16.3245,5.30314,-12.4301,-2.39137,-3.96253,-8.47522,32.208,-896.456,-431.392,-12320,1820,-11060
25.8769,8.32499,16.2896,-15.0815,-1.07292,1.41022,-27.5206,-16.6046,48.661,32.6166,25.1797,32.8102,26.4289,23.9587,-29.5949,-2.45047,31.232,-893.528,-444.08,-12460,1680,-11340
32.1395,15.398,18.1044,-18.8831,-2.96402,-0.185746,-32.6179,-21.5973,59.5353,41.039,33.0045,38.7899,29.3919,24.5781,-31.3459,-4.22999,33.184,-905.24,-438.224,-11340,2800,-11620
10.4786,16.0115,8.80278,7.02247,10.8955,3.46966,2.9657,-5.29883,7.94241,-2.18417,-5.03291,3.84907,-4.45193,1.04086,-3.7563,-8.01321,35.136,-904.752,-449.448,-9100,3780,-11760
-7.76362,5.87146,-0.622095,15.3775,9.10419,2.71099,11.6006,0.0427028,-22.8521,-23.74,-20.8017,-16.8806,-17.7819,-10.8072,7.4229,-11.5074,33.184,-898.408,-435.296,-7000,3500,-10500
-14.4685,-14.2806,-10.1764,-5.5502,-12.4559,-1.68799,-6.73616,-1.88904,-12.9441,-7.32343,0.494696,-12.1444,-0.891108,-4.16042,2.81176,0.0692846,33.184,-890.6,-432.856,-6860,3080,-9940
-25.9287,-27.6558,-18.7781,-19.4847,-23.8909,-4.64389,-13.7915,0.647944,-11.9112,-3.07266,9.00616,-10.4224,9.48393,1.89027,3.4249,11.8258,32.208,-886.208,-419.68,-7980,3500,-9520
-11.807,-6.26383,-3.58747,-2.01276,-3.0431,-1.5962,1.09978,0.571248,-23.5476,-5.72716,0.243161,-5.87348,0.457253,-2.37377,1.53882,0.47325,29.28,-883.768,-417.24,-9940,2380,-8960
-1.68771,-25.1011,-2.29215,-32.3837,-22.4656,-7.45867,-31.4016,-14.1323,12.1547,39.3367,42.4494,23.2569,34.9742,18.7072,-15.0273,8.2892,27.328,-878.888,-408.456,-13860,1120,-8260
18.4577,-20.4039,-10.6019,-39.5564,-30.9505,-10.8171,-25.6226,-6.08737,65.4579,53.6229,48.9696,25.3569,37.5826,18.6172,1.81953,23.6418,26.352,-875.472,-410.896,-17920,-280,-7420
26.7333,13.6339,-5.25847,-5.62502,-9.48605,-6.21661,-0.292595,3.01748,57.3535,19.4159,11.4486,3.92254,4.67828,-5.48354,9.34154,5.87323,32.696,-887.672,-424.56,-23520,-2100,-7000
10.8593,20.7958,-1.88399,16.6306,9.63918,1.07384,19.6915,8.54359,15.8915,-15.066,-19.5869,-13.3899,-17.0541,-14.9615,13.0252,-3.708,35.136,-894.504,-436.272,-25900,-3640,-6440
3.67142,21.1918,10.125,28.1761,28.0362,11.3377,34.1135,11.9225,-15.8507,-29.4487,-35.6917,-13.6234,-24.0363,-7.30187,13.4483,-3.30793,36.112,-896.944,-438.224,-25760,-4200,-5460
-5.92173,4.25388,5.98287,17.2382,14.6631,8.14145,20.4451,4.61111,-25.869,-20.4866,-23.7985,-11.9131,-13.7436,-3.58329,11.73,-2.82325,35.136,-904.752,-439.2,-24920,-4900,-4340
-0.528759,26.8285,10.93,25.4497,18.0303,5.13672,5.94708,-1.96852,-30.0277,-24.2096,-28.5657,-8.47899,-20.2482,-13.3014,-10.0426,-23.5091,34.648,-904.752,-439.2,-23940,-6160,-3360
-3.29225,16.1118,3.95888,23.6262,13.9769,3.07022,11.4956,6.51755,-35.5583,-23.0777,-24.3136,-14.5985,-21.7406,-15.8238,-6.90759,-15.6314,33.184,-902.8,-435.296,-22540,-7140,-2520
2.97717,-2.29254,-0.538142,4.62025,-2.53174,-1.43959,2.58484,4.87342,-7.31586,1.97982,1.71792,-5.02218,-2.28154,-6.99091,-1.27284,-2.93996,30.744,-899.872,-433.344,-22120,-8820,-1540
9.13489,17.2761,10.7448,20.1969,14.7522,1.3681,11.4865,2.57573,-17.9954,-9.81063,-12.5608,-3.9681,-13.6978,-13.5141,-0.80317,-16.2363,36.112,-915,-458.72,-22260,-9380,-1120
-7.5316,4.2815,7.3037,19.0259,17.8977,3.92526,17.3838,5.28888,-40.7718,-21.345,-18.4177,-7.5237,-16.0703,-9.93241,4.33007,-9.3863,33.672,-908.656,-450.424,-17640,-8820,-420
-7.20706,-12.0799,4.59975,-10.7385,-1.38503,1.70714,-11.2459,-0.484102,-7.14278,8.75158,10.5499,15.3653,11.4721,13.2102,-12.4727,5.78241,36.112,-900.36,-443.104,-14700,-10220,700
-2.47364,-20.2527,-3.35349,-23.4817,-12.1571,-1.2897,-13.0113,3.442,18.8164,22.959,21.25,19.341,18.9804,19.8698,-7.91583,19.467,31.72,-894.992,-433.344,-14840,-11620,1400
6.74636,-14.8614,-8.44558,-23.923,-21.9797,-7.67032,-19.3467,-5.80753,41.0191,27.9714,26.6311,14.4324,17.423,9.48241,-4.04353,9.91179,34.16,-895.48,-435.296,-16380,-13300,1820
-2.30941,-0.759963,-6.79176,-6.50903,-7.95561,-2.34423,-4.67789,-0.338593,16.8156,-0.466574,1.157,0.0201621,0.0459597,2.00633,-2.65818,2.68354,34.16,-899.384,-446.52,-17220,-13440,1680
-14.4878,-1.67321,-1.52509,5.28474,8.55035,4.163,10.0209,6.3088,-17.9566,-18.7903,-15.358,-6.29707,-10.1472,3.18299,-0.652908,2.58704,29.768,-895.48,-442.616,-16520,-13300,2100
-7.07826,-6.31356,-2.05648,-1.1397,2.4999,1.28213,5.52474,2.86923,-2.53922,-3.26355,-1.2035,-3.50433,-3.49443,2.93973,4.39357,3.55007,30.744,-899.384,-433.344,-16660,-13440,2240
2.78634,-6.16935,-2.43421,-20.5493,-14.1578,-3.17061,-21.1692,-5.6052,33.14,21.8318,24.0649,13.8701,16.9798,11.4772,-7.20018,6.09618,28.792,-901.336,-435.296,-16800,-14280,1960
-5.64113,-3.92793,-6.0455,-14.9149,-17.1593,-7.10845,-25.422,-9.88175,12.7952,9.74206,18.7374,5.06386,10.3159,0.766496,-7.63106,-5.07043,37.088,-901.824,-437.248,-16660,-14280,1820
-18.5951,1.24445,-6.54269,13.4473,4.70836,-1.48767,3.89796,0.750046,-42.5676,-27.7595,-15.0217,-22.0995,-18.3353,-17.1589,-0.164974,-13.2979,23.424,-900.848,-433.344,-16660,-13860,1400
-9.85882,-6.61559,-2.51009,6.96376,7.01812,2.54791,8.8,2.93579,-30.3936,-13.071,-5.35072,-11.9805,-8.30297,-4.66938,4.02484,0.479836,17.568,-901.336,-431.88,-16940,-14140,1260
6.44511,5.36685,3.35795,6.58938,10.7553,4.17939,11.0359,2.8251,-2.7437,-3.48277,-3.41313,-1.0677,-2.89936,0.767168,6.80572,3.6882,22.936,-895.48,-441.64,-17920,-14700,1120
8.06249,0.906816,0.514908,-0.344536,3.2578,1.34407,6.23035,0.892141,9.92574,4.80548,2.47575,0.593963,2.97689,3.16846,10.9464,7.10712,22.936,-920.856,-453.84,-17640,-13720,140
20.3218,-1.37177,1.1237,-13.9218,-10.2068,-3.0759,-9.57365,-5.4029,41.1593,27.6889,22.3937,12.4779,17.6783,7.96984,2.03211,8.98743,19.032,-918.416,-444.568,-13580,-12740,0
22.8728,2.86317,1.81253,-20.1113,-13.242,-3.9473,-19.1517,-10.8935,56.9392,35.3305,28.3239,20.401,22.5754,12.0195,-6.08366,9.45176,10.248,-896.944,-399.672,-11200,-13300,0
-0.0196848,20.0064,4.60726,19.6927,16.2998,1.41876,14.9286,-4.51209,-12.3677,-19.4544,-24.0369,-10.5107,-16.1694,-12.0855,9.54023,-7.37792,9.76,-908.168,-400.648,-16940,-17080,0
-28.62,-10.4869,-4.74587,13.7662,9.97015,3.40646,20.2902,4.53045,-50.8981,-30.3582,-25.8543,-22.1503,-9.17249,-8.31692,20.9305,3.83817,45.384,-956.968,-550.952,-19320,-19040,-560
-8.12824,-19.035,-4.92175,-3.51005,-6.66113,1.28021,9.56942,4.05167,-3.91347,0.632191,-0.272772,-6.13579,9.5874,1.63818,22.7191,12.4109,19.52,-912.56,-492.392,420,-13160,-280
30.473,27.6243,11.1492,15.7557,8.94834,2.06556,12.0081,0.683988,29.5187,3.86643,-9.57805,4.25208,-8.31016,-8.97955,3.80858,-6.80456,5.368,-904.264,-463.6,11620,-10360,140
18.6103,10.423,1.06013,-2.12962,-8.17372,-1.1204,-4.66262,0.64769,30.2894,15.3482,6.21141,7.63354,1.51053,-0.559782,-2.23148,0.992513,13.176,-917.928,-413.824,16380,-11900,140
26.2919,16.1272,8.60525,2.29246,-4.61927,-1.50767,-8.19058,-2.42954,29.3369,19.0732,6.81413,13.3446,1.15393,-2.82929,-7.91933,-10.5255,1.464,-896.944,-362.096,15820,-13020,280
18.692,8.44074,9.42142,-3.65827,-7.94348,-1.7383,-20.39,-9.95591,22.3598,19.9458,11.5971,17.7066,11.044,1.58769,-15.358,-17.1156,44.408,-982.344,-439.2,7840,-20020,980
-13.6259,-1.31617,-2.08553,-2.08251,-5.62978,-2.7427,-15.8359,-8.63904,-15.5712,-8.49815,-6.6719,0.920804,5.18564,-0.452022,-11.1175,-13.637,21.96,-900.848,-561.2,18060,-23380,1820
-19.3006,-4.53504,-4.1972,7.22421,4.58626,-1.02093,6.12291,3.06679,-40.341,-21.074,-17.772,-12.2709,-12.8748,-5.3752,2.95966,-5.58931,2.44,-835.944,-457.256,42560,0,1120
-24.3503,-7.23487,-6.53554,13.195,12.8714,2.0342,23.88,11.1158,-53.7449,-31.1304,-25.3829,-20.5276,-26.9357,-7.15386,15.0109,0.402578,20.008,-895.48,-518.256,42560,0,1120
-38.6584,-4.58359,-5.07892,21.6806,24.1955,6.47982,36.6171,14.6822,-86.5092,-49.6829,-38.0847,-26.1768,-32.8877,-8.9399,15.3218,1.27379,6.832,-908.168,-350.384,37380,-2660,3360
-50.8147,-51.7706,-17.1204,-15.3992,-10.2429,0.372599,5.32424,7.96992,-73.3026,-14.1294,5.14915,-14.5002,13.025,9.19956,9.98072,18.1609,43.432,-982.344,-468.968,37380,-2660,3360
-6.14034,-42.0985,-8.13395,-49.0914,-39.3256,-9.07623,-52.8975,-17.3546,30.0317,49.7119,59.943,26.7111,56.5191,27.8394,-38.0452,12.5005,58.072,-841.312,-595.848,9240,-9800,3220
33.6993,10.4669,19.8848,-27.8145,-8.28328,-0.0104024,-45.4856,-14.7376,66.7227,50.0684,43.931,47.1906,36.6649,29.6198,-57.9783,0.555415,8.784,-815.936,-465.064,45080,-10360,3080
17.5965,20.7051,18.6263,8.57382,25.28,10.1899,8.731,9.19457,21.9979,-2.73875,-9.81423,15.7802,-9.06337,13.0297,-19.7829,2.76728,42.456,-874.984,-508.008,56140,5740,1540
29.7002,31.8721,7.82967,22.8177,15.8312,3.97387,19.792,10.1934,35.1607,-8.9072,-17.6101,-5.08793,-23.3483,-14.6482,-7.29184,-6.92412,40.016,-914.024,-498.736,49420,3640,1260
24.7217,26.8863,0.938783,14.0447,4.24344,-0.879357,7.51983,3.77295,35.7341,-2.00819,-7.37547,-5.86131,-13.4443,-15.017,-16.1109,-6.09666,42.456,-882.792,-469.456,51380,5740,2380
-3.30144,-7.18219,-12.3668,-9.16323,-16.1356,-3.88501,-5.39687,1.95056,18.4292,4.01081,7.92395,-8.0665,5.03291,-1.94658,-8.1661,7.42405,45.872,-814.96,-431.88,56420,7840,2940
-12.0307,-21.9254,-14.9962,-19.6046,-22.6807,-5.0147,-10.9341,1.96085,12.6086,11.6006,15.3555,-6.5273,11.6866,5.11495,5.58543,11.9082,36.6,-853.024,-437.248,55160,0,3640
4.50455,0.726192,-4.18301,-0.314074,-2.90857,-2.52096,4.55108,-0.452504,12.825,2.06239,1.12601,-7.79955,-1.834,-5.18881,20.6042,-0.910709,41.48,-920.368,-457.744,44660,-7140,4900
4.00011,24.1486,4.31959,28.4305,20.0861,1.47487,25.6369,1.85791,-18.8747,-28.5708,-29.4004,-19.1967,-24.2412,-21.1717,33.9728,-17.0458,43.432,-936.472,-465.064,41860,-8820,5880
-3.92902,11.9882,5.62332,16.8848,12.7535,0.391137,3.67998,-5.30917,-23.3654,-16.5601,-15.3582,-8.17048,-11.5345,-10.4478,18.5965,-17.0503,54.656,-957.456,-541.192,42980,-10080,5740
-2.04936,-0.576327,0.474589,-0.316315,-0.347921,-1.96112,-6.69572,-5.31321,-2.36441,4.19054,5.2792,1.76873,-1.65008,-0.193444,11.4482,-3.06957,7.808,-844.728,-424.56,48860,-11060,6160
-35.3196,-15.8167,-6.07071,17.8063,15.4247,4.62571,26.6004,7.04664,-68.5607,-37.3953,-28.3857,-26.7611,-29.6678,-9.64185,33.0045,0.876242,36.6,-868.64,-432.856,63000,-1260,6300
-28.6794,-33.9611,-9.47867,-2.18755,-2.78586,0.901862,9.9389,0.686928,-42.5688,-13.1475,-4.23454,-14.1755,-5.95903,-0.514082,27.4598,7.21888,43.92,-915.488,-466.04,56140,-2940,6020
13.996,-1.59293,-2.06729,-9.68372,-11.479,-2.70253,-9.86524,-6.85809,32.885,17.0456,16.0472,8.99258,7.27458,1.27032,2.92004,2.06095,41.968,-823.744,-424.56,53200,-3500,6440
26.1245,15.1378,2.84145,-7.07141,-8.02877,-2.12957,-11.8127,-7.21768,43.9355,22.4859,17.291,14.2588,5.47089,0.168785,-6.06949,-2.40733,49.288,-849.12,-448.472,54320,-6020,6160
11.067,1.42277,1.58501,-16.9572,-10.5777,-1.68938,-17.3001,-3.49693,24.1874,26.3673,22.2011,18.8045,15.7017,10.8295,-8.23721,4.86655,38.064,-846.192,-430.416,46900,-4760,4760
-1.01702,-7.22188,0.946638,-20.1271,-10.0371,-0.91952,-19.8542,0.835303,8.54322,22.0158,18.8302,19.49,23.4361,16.0386,-13.6532,9.57858,41.968,-881.328,-424.072,41860,-7980,5040
9.6153,9.16949,6.8125,-7.18555,3.07841,0.960276,-6.60448,3.42723,12.2906,12.7802,6.04675,19.2631,14.4162,8.87104,-12.0013,4.58377,46.36,-890.6,-434.32,34580,-6300,4760
11.1226,16.9615,8.07803,13.3233,15.4539,3.08589,16.8673,3.35938,-1.92528,-8.91933,-12.8495,1.65567,-3.9666,-5.94717,5.03688,-4.04028,47.336,-918.904,-473.36,31640,-9380,5180
15.8851,24.6006,11.1201,16.506,15.9635,1.69929,11.2872,-1.8993,3.79056,-8.23426,-12.7325,1.88814,-8.31005,-7.76016,-5.39921,-11.2351,24.4,-895.48,-443.592,31640,-8260,4480
2.60314,2.45569,5.07179,-3.74731,0.322718,1.54802,-6.98252,-3.24619,5.2139,7.20733,6.11121,10.5888,9.809,7.60159,-14.0093,3.20794,19.52,-892.552,-408.944,37660,-4760,6020
-20.8539,-23.4937,-8.75465,-17.303,-11.1513,-0.0905774,-7.76802,3.34746,-10.5176,5.39682,9.87319,3.79143,15.777,13.8655,-3.07697,18.8318,25.864,-875.472,-405.04,37100,-1680,6440
-15.9416,-1.14173,-1.82337,12.4094,12.4611,2.27205,14.9903,5.01838,-33.9047,-23.0157,-20.4196,-11.3771,-11.7476,-4.69602,4.32633,0.664157,25.376,-914.024,-391.376,33040,-4760,6440
-13.4835,-2.94122,-0.974219,12.3916,11.9308,2.95865,15.3972,4.598,-25.9804,-22.931,-19.565,-11.7774,-8.34125,-2.95058,1.03748,1.0306,55.632,-944.28,-513.376,27300,-8680,6580
-7.33649,-12.5042,-3.98342,-6.56506,-5.90063,-2.27495,-5.36936,-2.84912,3.10385,2.57813,4.99456,-0.115479,7.31918,3.82616,-8.59616,4.11125,9.272,-888.16,-452.864,25620,-13580,7840
9.99625,3.2482,1.37315,11.336,4.1335,-1.06446,10.3399,-3.08135,4.38911,-1.71223,-5.89191,-9.28654,-12.9823,-10.8088,0.359283,-7.41347,8.784,-877.912,-354.288,34720,-5740,6860
0.559771,1.55929,-2.46553,12.3057,2.75818,0.223837,11.2433,2.92145,-9.83528,-11.2073,-12.6968,-15.3572,-12.8376,-11.8073,-4.52166,-6.31205,10.248,-903.776,-345.992,37800,0,6440
-5.16804,-22.8161,-7.96433,-17.3473,-20.2465,-2.88157,-14.9784,-0.484955,8.5571,17.26,21.361,2.511,20.5704,8.1368,-13.2825,9.63369,59.536,-1002.84,-604.144,26600,-9100,7000
4.70995,-13.7956,-6.61167,-21.2206,-25.543,-5.63994,-27.0514,-4.01777,30.2733,24.7381,27.8945,9.35658,16.454,8.23788,-20.8828,4.96845,-22.448,-819.84,-423.584,27020,-10500,6720
-4.24551,3.62933,-3.0785,7.15771,-1.4526,-0.585347,1.71079,3.10287,-9.85784,-14.0845,-9.49938,-12.229,-18.6579,-8.46061,-2.10177,-8.05481,39.04,-919.88,-475.312,56980,12040,6160
-1.45621,7.4902,3.46346,15.8936,9.35668,3.66224,14.5361,4.96584,-24.641,-19.6816,-18.1962,-14.0121,-20.8508,-10.0039,10.0992,-9.116,5.856,-830.576,-383.568,46900,7840,6020
3.65391,-4.23245,2.86451,-5.13011,-4.88876,-0.35959,-5.0575,-2.85789,2.67657,7.57416,6.51736,3.50588,7.17763,3.92884,4.09874,-0.143786,16.592,-900.36,-395.28,43260,3920,5460
30.9011,24.4427,11.6121,-3.63391,-2.01314,-0.107812,-15.8112,-8.02441,46.331,23.0272,10.8558,18.4529,9.148,3.6594,-9.97501,-9.39827,27.328,-898.408,-445.544,29540,1820,5040
24.7788,24.6413,12.2201,-5.2872,0.556495,1.3882,-18.3128,-6.85862,39.449,21.1655,9.52622,20.8408,12.1954,6.96126,-11.6255,-8.66689,23.912,-960.384,-457.256,28980,-2940,5460
-13.1023,-2.59494,-2.44569,5.49529,7.78193,3.67715,16.9502,9.5949,-20.4938,-17.482,-15.0554,-10.0664,-8.4642,-0.417119,28.9478,5.71317,23.424,-894.016,-457.744,41860,9380,3360
-16.4573,-5.41181,-7.3851,5.71566,3.63567,0.981549,17.4718,9.79767,-23.84,-20.0906,-15.6141,-14.8026,-12.1341,-6.00738,28.1647,5.91681,-2.44,-869.128,-345.016,43540,9240,3780
-15.5844,-2.76936,-6.71179,5.71407,2.88981,-1.50846,10.9226,1.67252,-25.3206,-15.9658,-12.3775,-11.2336,-8.07095,-7.267,16.2136,0.232942,27.328,-895.968,-399.184,44800,18760,4200
-14.911,-7.5572,-4.53649,2.66345,1.06142,-1.10537,2.42589,-4.21736,-22.8153,-10.0463,-6.83346,-6.50875,-2.48559,-4.3299,5.91342,-1.11309,18.544,-863.76,-438.712,38920,16380,3080
5.61774,0.00894227,2.29497,-2.47274,0.515493,-0.686805,-6.46829,-4.14445,12.423,6.99034,4.96897,6.50338,4.09002,2.33765,-7.98523,-0.537049,1.952,-838.384,-405.528,38640,13720,2940
12.4675,9.02761,4.38734,1.08094,3.15588,0.222235,-3.11689,-2.84783,18.8861,5.4943,4.54571,5.73703,-1.0924,0.0899303,-6.60371,-3.51629,16.104,-879.864,-441.152,42560,14420,3080
-3.89699,4.10774,1.29977,3.44268,5.93939,0.446378,-1.83624,-4.35867,-8.25703,-6.19585,-2.20759,-0.555482,-4.87051,0.0236507,-3.69658,-6.30844,24.888,-863.76,-434.32,36400,11480,2240
-2.29751,8.69111,4.44222,14.8132,14.6947,1.60465,9.63339,-0.622167,-19.0174,-14.2836,-11.9647,-6.28417,-14.7156,-5.90262,2.20833,-9.99141,23.424,-858.392,-438.224,31080,11340,1260
2.34521,3.95619,1.20879,2.93848,1.32325,-1.53287,-0.203363,-1.72048,2.64623,1.29212,1.79579,-0.721871,-4.47793,-2.99845,-1.53683,-4.08465,13.176,-879.376,-430.416,28560,6020,700
-7.17598,-14.6577,-9.88486,-12.4586,-15.0952,-4.13221,-9.22128,-1.26147,7.43978,10.3175,15.522,-0.106338,8.13427,3.07946,-4.24848,6.16862,21.96,-887.184,-439.2,24780,7700,-140
-2.27732,-16.7057,-6.14711,-18.1527,-13.9654,-2.31855,-8.10143,2.11243,14.2785,20.7125,23.8287,7.97322,15.9671,10.244,-2.68513,14.8177,19.52,-859.856,-420.168,22260,9800,-1120
3.356,-4.12724,1.0056,-10.0017,-2.81472,-0.879254,-2.19423,3.9845,10.6339,13.8523,13.0586,9.02133,11.0652,8.08037,-2.78833,10.233,28.304,-896.944,-417.728,21000,10500,-1820
-4.70548,-16.42,-2.461,-18.1113,-10.1705,-2.78827,-13.3751,-0.679115,6.29587,16.4475,18.262,10.7503,22.4729,11.949,-9.16834,9.30096,23.912,-874.008,-400.16,12040,8120,-2100
1.824,-7.29608,-2.29551,-16.7436,-10.2197,-3.57099,-19.3848,-4.79633,16.1224,18.269,15.7719,14.0966,21.5599,9.95738,-16.8066,4.54845,29.768,-934.032,-414.312,7840,6440,-2520
10.6103,10.9986,4.69327,8.40315,9.37524,2.14524,8.05873,1.70865,3.95061,-2.80753,-9.61293,1.93382,-3.69279,-3.43111,-3.31166,-2.53516,59.048,-936.96,-505.568,6580,6860,-2940
0.662829,8.54564,3.01425,15.94,13.1169,5.0301,22.1618,7.13144,-13.1612,-21.952,-21.9102,-10.5074,-17.8364,-7.77694,11.4463,-0.914749,9.272,-878.4,-428.464,15260,3780,-2240
-8.01027,-5.92685,-2.32028,4.63484,2.01091,3.97244,12.8561,6.62854,-16.9588,-15.2852,-10.9142,-8.41942,-9.93904,-1.91182,9.18416,5.846,21.472,-892.064,-386.008,24360,10780,-2940
-2.40384,-1.54156,1.17853,0.21656,-1.31696,2.82461,0.815762,2.00197,-7.16459,-3.5168,-3.90428,0.382453,-1.5042,1.42412,0.303838,1.57881,21.472,-877.424,-375.76,20580,13440,-2940
-0.00999803,10.4852,4.84621,14.5199,12.3696,4.68124,12.5675,4.11707,-14.0648,-16.4008,-21.3277,-7.8759,-13.6235,-6.03268,4.85937,-5.03157,65.392,-917.44,-497.76,19460,11340,-1960
12.0156,17.8946,9.14889,17.0683,15.678,5.65084,14.5011,5.22185,-0.443329,-9.68942,-18.9241,-5.17956,-14.0552,-6.54479,5.50364,-6.68568,14.152,-856.44,-394.304,12040,6860,-1960
12.7438,9.86871,4.69056,3.00133,1.26191,1.61216,-1.38557,0.282701,11.5952,6.7995,1.91753,2.35267,-0.610536,-1.34369,1.11077,-3.82625,27.816,-887.184,-416.752,16940,9940,-2520
8.9723,-1.88418,-0.0775615,-8.00283,-7.50167,-0.802663,-9.45015,-3.28237,15.6459,16.5159,14.9233,8.33885,10.9703,5.13778,-0.730225,1.47541,20.496,-885.72,-382.104,13020,11060,-3500
-3.01002,-10.113,-5.07266,-11.6169,-10.9547,-3.19957,-14.1221,-6.98417,7.88073,10.7846,13.9927,5.45801,11.7424,4.52534,-3.58842,0.752258,20.984,-903.288,-385.032,12600,11340,-3360
-7.12889,-7.24248,-3.92233,-4.7129,-4.24069,-2.45572,-8.54479,-6.8477,-3.48894,1.5394,3.92568,0.853083,3.82565,0.0304156,-3.85472,-0.883369,47.336,-914.024,-442.128,7560,12740,-3920
-7.33242,-5.58546,-3.30444,-2.92881,-1.68409,-2.23989,-5.01948,-4.99192,-2.34784,0.5481,1.95001,1.98184,1.44713,-0.017816,-1.72497,-0.231723,22.448,-869.128,-393.816,9240,13160,-4620
-5.44816,4.26178,-2.94345,9.08865,6.2656,-1.70838,6.92322,-1.4805,-9.06729,-11.8253,-10.2145,-7.01926,-11.4085,-9.57863,3.00413,-4.86027,31.232,-915.488,-405.528,14840,14840,-3640
-14.0044,1.51032,-2.8358,10.8904,6.49121,-1.34319,7.90757,-2.84818,-30.5746,-18.8061,-14.0182,-12.662,-11.8222,-10.284,2.88352,-6.02567,31.232,-899.384,-393.328,10640,15400,-4480
-19.1812,-15.072,-5.61881,-0.894664,-4.25076,-3.88802,-1.03266,-5.592,-30.3572,-8.20331,-0.362033,-9.71225,2.50243,-2.06692,3.26602,-0.683969,34.648,-935.984,-391.376,11340,13300,-4060
6.6535,-4.84298,1.06367,-12.8868,-11.7201,-5.1199,-17.4242,-8.56963,19.9366,19.13,19.8521,10.4344,17.4476,7.3101,-9.10097,0.0228965,30.256,-905.728,-416.752,8960,10080,-3780
9.62433,3.73053,1.50548,-7.26704,-7.34923,-3.29702,-10.0035,-1.90057,22.545,13.0633,12.0858,6.61124,6.26919,2.05719,-4.71657,-0.971516,29.28,-924.76,-435.296,11340,6160,-3080
7.39165,4.18693,0.238602,-1.40075,-2.27567,-0.16772,-0.599822,4.02212,14.5996,4.54511,3.60976,-0.0792341,-1.92558,-0.0279004,0.27386,0.440987,25.376,-888.648,-396.744,15540,11760,-3920
13.5184,13.0903,6.71826,7.27219,8.31422,1.56692,8.2021,6.17321,12.0604,0.22934,-4.01652,0.271552,-8.45365,-0.891529,0.137294,-3.62732,33.184,-866.2,-406.016,18620,12880,-3920
7.2078,10.6173,5.27292,10.974,8.70692,1.85678,11.482,8.64262,0.185652,-7.78877,-10.038,-5.12221,-11.4906,-3.69438,0.0816269,-3.82409,39.04,-856.928,-411.872,15540,11900,-3780
-3.53495,-1.01817,0.184401,1.49891,0.613665,3.15513,4.45806,8.99028,-4.50491,-5.48092,-3.93229,-4.26891,-1.74371,2.1848,-2.58291,4.21613,35.136,-868.152,-405.04,10920,10640,-4060
5.90461,8.30319,2.9647,8.89374,3.48844,2.08066,8.96342,6.24012,1.25114,-7.62413,-7.97569,-6.00347,-7.77298,-5.0489,1.54739,-2.54914,36.6,-867.176,-403.576,5600,9520,-4060
1.19414,-1.4514,-0.885148,-0.386351,-5.699,0.71551,1.23862,5.38539,2.51007,-2.22934,2.20595,-3.69118,-0.365081,-1.67159,2.26909,0.708819,37.576,-893.04,-416.752,-140,6860,-4200
-2.59243,-6.36434,-2.75449,-6.6523,-8.19688,0.422573,-4.75284,2.97612,1.54496,3.25199,8.34663,1.45137,6.90202,2.79264,2.16478,3.67945,32.696,-910.608,-405.528,-4340,4620,-4340
-5.38898,-1.35137,-2.89056,-1.32092,-0.477597,1.69733,1.1279,0.235235,-3.81559,-1.9142,-0.28209,0.947333,2.08864,0.713647,5.43088,2.95375,42.456,-918.416,-427.976,-6860,2660,-4200
-14.3117,-7.44656,-4.00828,-2.40525,2.1581,2.13891,4.0078,-0.261393,-14.1657,-6.61004,-5.80812,-0.861134,1.05956,3.23633,8.90931,6.52916,37.088,-919.88,-414.312,-7700,1820,-4060
-0.848264,-12.2249,-3.7021,-16.4868,-11.0787,-3.16259,-14.7787,-9.57183,16.4599,16.7269,13.2925,11.2193,15.5325,9.4409,-4.21818,8.06833,38.064,-920.856,-419.68,-7140,420,-3920
9.55368,-1.66029,-1.75726,-11.0785,-7.40427,-3.23721,-11.267,-11.5281,24.5213,18.2696,10.0519,10.3422,10.2918,4.98532,-4.82902,4.08623,34.16,-921.344,-411.384,-6440,840,-3920
8.93557,8.71375,2.61773,2.00845,3.27687,-0.531695,-1.57358,-8.11176,8.99128,4.37009,-1.56041,2.03368,-0.437907,-2.43737,-1.53763,-4.14248,30.744,-925.248,-412.848,-5180,2100,-4200
-7.52786,0.994283,0.243408,2.06103,6.8813,1.72695,1.43064,-0.455135,-15.9014,-6.96094,-6.96986,-1.8233,-1.6352,0.50041,-2.43939,-0.469874,38.064,-920.368,-440.664,-2940,1260,-3920
-6.86594,0.749678,0.180614,0.642775,6.21675,1.27928,0.965849,1.37322,-14.5037,-3.57407,-5.22389,1.1749,-0.813419,3.06667,-2.10765,1.66448,20.496,-876.448,-401.624,-560,1260,-4060
4.41786,15.504,9.18187,15.0251,17.8718,3.96865,14.1122,4.48138,-13.2933,-10.2145,-16.0774,-0.0476541,-13.9543,-3.52931,3.37407,-4.11854,27.328,-889.136,-402.112,6860,6720,-5180
-3.26238,2.77555,7.28617,9.30955,12.7541,4.42763,11.3543,5.32032,-20.5065,-10.0212,-11.3458,0.559923,-6.87909,1.93959,3.35574,-0.302141,31.232,-892.552,-403.576,3220,6720,-6020
1.40299,-1.01098,4.29216,2.71792,2.72694,1.74535,2.19477,1.72614,-4.78922,-1.85349,-1.77937,4.09227,0.321777,1.68266,-2.5751,-1.44475,32.208,-891.088,-408.456,1260,6580,-6020
0.391413,0.364235,2.79065,8.0556,5.33679,3.34395,7.47574,5.08908,-10.3162,-8.24774,-7.14407,-0.446083,-7.08699,-2.89486,0.55831,-4.01332,31.232,-895.48,-407.968,-280,5320,-6300
-2.16633,-9.90308,-3.85728,-4.31865,-7.66983,0.312027,-1.89368,4.23203,2.31102,1.49859,5.91292,0.658134,1.67303,1.43224,1.85619,0.509145,26.352,-898.896,-404.552,-1400,3920,-6020
-1.00665,-8.86402,-6.55613,-7.03354,-10.9509,-3.23354,-4.71019,-0.232856,7.27479,3.10174,7.41575,-1.88926,2.44125,0.279637,0.912641,0.218799,27.328,-904.264,-409.432,-3640,2940,-5880
-2.4484,-10.0922,-7.823,-8.3884,-10.8128,-5.31979,-6.70709,-3.40965,4.27085,5.92084,10.1635,-4.105,4.57846,0.200133,1.49383,0.849587,26.352,-906.704,-414.312,-6300,1540,-5600
1.57375,-7.98212,-4.9234,-9.67395,-9.97732,-4.8129,-12.0892,-6.54874,10.6109,11.2052,14.0215,0.593803,7.98099,1.59416,-2.4129,-0.126746,21.96,-907.68,-410.408,-7420,1120,-5320
-2.7478,-13.5475,-7.24082,-14.8951,-12.6621,-4.58958,-17.123,-8.72797,11.6272,15.854,20.4988,3.77484,13.6057,4.37369,-4.957,2.37568,15.616,-908.168,-407.968,-8400,1540,-5040
-2.95902,-4.66674,-6.24853,-4.9432,-6.30562,-3.67365,-6.0698,-5.58431,6.6872,4.29749,8.09343,-2.93109,2.49938,-3.47458,1.48344,-0.684805,11.712,-911.096,-420.656,-9520,1540,-4760
0.290809,4.87227,-0.799967,6.11335,1.78197,-1.72698,1.98628,-2.55467,0.273859,-3.93565,-3.11808,-7.42373,-7.33351,-9.13506,0.900343,-6.40049,11.224,-914.512,-423.584,-10780,1820,-4480
-1.99387,5.25258,1.54117,6.52693,4.44163,-0.361963,4.85202,2.65938,-4.89422,-5.26736,-5.02424,-6.05902,-5.61632,-6.09423,0.449433,-4.19678,6.344,-904.752,-420.656,-11200,3500,-4200
-4.80598,7.19252,3.29767,8.94186,7.02929,2.22035,5.41767,7.89348,-12.3755,-11.2505,-10.4416,-5.81504,-7.16059,-4.13272,-4.20571,-4.15949,6.832,-906.216,-421.632,-10500,4480,-4060
-2.78801,0.384535,2.1963,1.25616,0.482215,2.03159,-0.0310966,6.10331,-1.77991,-2.47622,-3.44818,-0.741152,-0.79922,1.03196,-4.77832,0.0492079,4.392,-904.752,-418.704,-11060,5320,-4060
12.5985,12.5595,8.25262,5.59374,4.16779,3.14844,3.50262,3.66101,13.8575,2.8929,-3.9347,3.64147,-1.29025,0.0630236,-1.77041,-1.77714,4.88,-901.336,-423.096,-11340,5880,-4200
15.8215,17.2389,9.8857,10.0478,9.2963,3.5883,7.19666,3.0035,14.8277,1.67874,-6.35918,3.48245,-3.6394,-2.5883,-0.805998,-1.69049,5.368,-900.848,-423.096,-11480,6300,-4200
5.79319,10.7538,4.29002,6.47342,6.76581,1.70446,6.2193,-0.193777,7.09672,-2.41774,-7.47361,1.13625,-2.6224,-1.99179,1.46813,1.23659,8.784,-900.848,-422.12,-12320,5880,-4200
-6.07859,0.756629,-0.458465,4.00793,4.37238,1.25653,6.6981,-0.655086,-9.35557,-9.12276,-7.3839,-3.59784,-1.98781,-1.08744,6.65203,2.98457,6.832,-903.288,-414.312,-12880,5600,-4200
-5.6851,-7.83603,-3.13095,-4.11204,-1.6424,-0.366474,1.89874,-1.04608,-5.04056,-1.40487,1.08956,0.197375,3.91034,4.70869,7.75262,7.85281,18.544,-917.928,-428.952,-13860,4620,-4620
-3.02517,-4.23447,-4.66233,-6.42395,-5.58318,-2.12154,-2.18506,-1.83844,3.74624,0.456311,2.74874,1.79369,4.16443,4.10567,3.14449,6.56605,17.08,-903.776,-423.584,-14700,3500,-4760
0.246817,-0.502875,-1.61583,-3.4181,-2.28561,-0.349621,-0.816657,-3.44741,0.846579,-0.521814,2.4283,2.27353,1.65513,1.9416,-1.22642,5.46121,16.592,-906.216,-419.192,-13160,2940,-5180
1.68398,3.81694,0.959667,0.572793,2.84602,1.7202,2.43093,-2.33061,-3.62023,-0.935479,-0.059872,1.63243,-0.105494,0.919319,-1.37483,5.14585,20.496,-908.168,-415.288,-12740,3080,-5740
-1.81466,-0.973639,0.18733,-2.97295,1.1506,0.0448015,-2.00441,-2.70809,-5.84568,1.74875,2.94594,1.16486,2.9639,2.52479,-2.5407,4.02473,24.888,-903.776,-416.752,-12460,2800,-6160
6.81856,6.85706,3.49096,-0.518861,3.25726,-0.310171,-2.82028,-3.65059,2.42523,4.68074,2.39461,2.61622,1.84498,0.796124,-5.86277,-1.2496,24.888,-907.192,-412.36,-11620,2520,-6720
3.79692,7.2474,2.16092,1.23319,2.93097,0.719627,-0.773935,-1.20582,-1.98737,0.566211,-1.75675,1.06813,0.309142,-0.863153,-2.91263,-3.56133,38.064,-914.512,-432.856,-12040,2100,-7000
-1.58374,0.87912,-0.503229,0.995867,1.14687,1.26174,-0.239917,2.6406,-10.0002,-1.19557,-5.09609,-1.76015,-1.88089,-0.920095,-1.06545,-4.00347,34.648,-905.24,-426.512,-12040,980,-6860
-1.99861,-2.22624,-1.38154,0.613854,-0.357786,1.26881,1.30287,5.63282,-7.6679,-1.08279,-4.79388,-2.34907,-2.65604,-0.29858,2.2341,-3.25996,40.504,-905.24,-418.216,-10500,980,-7140
4.39768,3.01727,1.86631,5.24372,2.54316,0.42989,3.60124,4.7763,-2.05051,-4.05769,-5.83024,-1.00947,-7.50712,-3.32172,2.58048,-7.42059,39.528,-904.752,-418.216,-10220,1260,-7140
-1.0385,-5.50155,-1.17575,2.40391,-1.4753,-1.49148,0.634715,3.30268,-4.18567,-3.659,-3.3561,-2.90092,-5.86626,-4.58311,3.37175,-6.5551,42.456,-899.872,-421.632,-10220,980,-6860
-5.97928,-18.5481,-6.03877,-8.93992,-11.0014,-4.1682,-9.32102,-2.13872,-1.62931,5.93473,8.45727,0.242684,5.16597,1.70191,1.75284,-1.38239,45.384,-900.848,-423.096,-10360,280,-7000
-4.79518,-14.1437,-5.0098,-7.24998,-10.1306,-4.48313,-9.24825,-3.9628,-0.464612,5.1277,7.48491,1.13433,4.75198,2.02949,-2.56,-1.95,46.848,-900.848,-416.752,-11340,0,-6720
-7.49652,-11.7266,-4.12725,-5.75507,-7.09242,-2.86804,-6.05311,-3.15144,-2.87847,3.67735,5.61385,0.827166,3.52024,3.01512,-2.78236,-1.18732,46.848,-902.312,-424.56,-12180,-420,-6580
-6.26393,-7.6984,-1.39826,-1.93518,-0.578557,-0.0969615,1.26484,3.07514,-3.027,0.124842,2.00048,-0.968438,-0.163362,3.27979,0.683788,0.880948,43.92,-900.36,-423.584,-12320,-980,-6300
5.01337,2.56784,4.68824,1.54777,3.41761,3.28932,3.72054,6.01505,8.42646,3.30414,2.81837,4.46782,-0.803816,4.48807,0.169298,1.05538,47.824,-902.8,-422.608,-12320,-1120,-6160
4.90279,6.68922,3.42667,2.17145,4.17844,3.81479,6.36525,4.05386,10.8582,1.07746,0.352638,4.37047,-0.884415,3.97796,3.63143,3.03558,50.752,-902.8,-428.464,-12740,-1120,-5740
0.0412816,2.80478,1.90096,-0.406098,1.50577,2.51116,3.37597,0.103597,9.18364,1.68809,2.29067,2.59938,2.24291,4.01084,3.25977,4.03686,48.312,-900.848,-426.024,-13020,-1260,-5460
0.615066,2.29242,2.0001,-1.98541,-1.01325,0.392009,-1.65231,-4.53465,10.7677,3.48915,4.43356,3.07646,3.41746,3.28072,-0.751557,2.04124,44.896,-899.384,-427,-12600,-1120,-5180
-4.92465,1.17115,-1.77486,-1.01266,-3.22343,-1.69213,-2.78115,-3.8005,3.13665,-2.65701,1.07641,-1.76814,1.41766,-1.66418,-3.68701,1.31669,46.848,-896.944,-423.584,-12740,-1120,-4620
-2.73759,-0.896704,-2.44008,-4.16227,-5.37854,-1.94613,-4.77139,-1.61216,3.66513,1.21145,6.09249,1.82187,6.84062,-0.626656,-2.15886,4.28427,46.36,-897.432,-428.952,-13020,-980,-4340
4.23413,0.351115,-0.7864,-3.52734,-3.70214,-1.1105,-2.37025,0.464321,9.28175,3.53052,7.72084,4.58643,7.26252,-0.0932477,1.97096,4.34139,42.456,-895.968,-424.072,-13300,-700,-3920
5.37098,3.72141,0.982399,1.85636,0.682309,1.14999,1.26575,2.06659,4.88038,-1.15036,2.06652,2.15495,0.243874,-3.44801,1.57106,0.328059,45.384,-897.92,-429.44,-13580,-420,-3500
1.09291,2.01308,0.50828,3.45714,3.29776,1.9397,3.39974,3.46069,-3.87808,-5.52383,-2.2963,-1.5796,-2.20331,-4.30689,3.01079,0.643316,41.968,-899.872,-426.512,-14140,-140,-2940
0.504021,2.35989,0.348158,4.23443,4.10693,1.7316,2.47926,0.202146,-6.21973,-6.72964,-4.8127,-4.06961,-2.70356,-4.33867,1.5305,-1.81149,43.92,-899.872,-430.904,-14280,-140,-2520
-1.29255,3.77451,-0.0725449,5.88744,4.72968,0.104215,2.73291,-4.25473,-11.5184,-8.72213,-10.8062,-5.96472,-5.97295,-5.32991,1.05277,-4.49344,40.504,-901.824,-424.56,-14560,140,-1680
-1.66595,4.40858,0.272049,6.31271,6.4047,-0.638067,2.75635,-5.89319,-14.8576,-6.90124,-12.3602,-5.84507,-6.81772,-4.31641,-0.727236,-3.52727,38.552,-897.92,-432.856,-14840,-140,-1260
2.93085,7.0595,1.39027,8.54,7.60577,-0.644334,3.94193,-6.48568,-9.93298,-4.26829,-12.3291,-6.4935,-9.00387,-5.06419,-1.19663,-4.12814,34.648,-899.872,-433.832,-14000,-140,-840
8.03648,10.7638,5.25452,9.72288,8.84742,-0.521591,3.01024,-5.80805,-3.05397,0.723388,-8.30013,-3.82521,-8.59343,-4.9502,-3.29849,-7.22121,36.6,-900.36,-431.392,-14840,280,0
0.0702026,1.84441,-0.482423,1.26,2.10277,-0.824519,-1.5327,-2.53961,-2.32192,4.03144,-0.968747,-2.85762,-2.23269,-2.82784,-3.98498,-3.10092,36.6,-898.896,-428.952,-15120,0,280
-4.21562,-2.8397,-4.29804,-0.688325,-0.677219,-1.3676,0.83605,1.47598,-2.35858,0.886803,-2.06587,-4.68423,-1.59081,-3.2537,-1.57891,0.645105,37.576,-896.944,-422.608,-15120,-140,980
-4.0757,-5.18023,-3.40432,-5.11462,-2.70016,-1.00091,-1.34324,0.401159,2.02032,2.98396,2.59286,-0.447715,2.50121,1.3359,-2.70682,3.48895,35.136,-897.432,-429.44,-15260,-420,1680
0.97025,-3.59879,-1.35055,-6.91559,-3.8791,-0.169672,-3.77792,0.276936,7.98013,7.91594,7.5598,3.53469,6.20756,4.90794,-4.70014,4.6081,37.576,-894.504,-426.024,-16380,-700,2100
0.436926,-2.78797,0.261501,-4.71347,-1.93668,0.190305,-2.75735,3.06973,3.90882,4.74255,5.1669,2.92332,5.3948,6.18705,-4.52471,4.85444,38.552,-898.896,-426.024,-17360,-1540,2660
1.92706,-0.154548,2.52575,-2.86007,-0.0883803,0.75093,-0.700672,6.44748,3.31317,3.93191,3.97102,3.22441,4.02738,5.82319,-4.10712,4.00264,37.576,-896.944,-428.952,-17780,-2240,3080
4.62346,4.1936,6.04396,-0.786331,1.16728,1.89369,0.365184,8.65621,4.34237,5.46778,3.26794,4.75421,3.91546,5.52127,-2.8905,2.23824,39.04,-895.48,-429.928,-18340,-2940,3780
-0.402201,-1.78775,2.58381,-4.05185,-4.7714,0.88287,-2.35352,6.95711,1.27919,5.49138,6.69219,4.66761,5.43341,5.10396,-1.50121,1.40502,43.432,-895.968,-426.512,-19320,-3640,4200
-0.732988,-0.029261,0.875084,0.195911,-2.58994,1.98829,3.68985,8.00858,-0.988457,-1.5825,2.83696,1.53234,-0.464976,0.774371,2.2482,0.935012,41.48,-894.016,-429.928,-20440,-4340,4620
-3.11704,-1.48313,-1.60847,-1.55675,-5.6982,1.29455,0.0678528,2.56653,-0.511857,-3.18257,1.89519,2.0711,-0.842072,0.476704,3.06177,1.31182,43.92,-895.48,-426.024,-21000,-4900,5040
-5.08453,-6.05282,-4.38723,-6.17419,-9.33995,-1.42973,-4.81952,-2.39234,1.84934,0.581048,5.40908,2.58983,3.46252,3.13342,3.60845,2.28164,41.48,-894.992,-428.464,-21280,-5180,5460
-5.379,-3.30995,-3.18141,-2.27874,-4.73229,-1.54588,-1.85245,-3.18762,0.302372,-3.54478,-0.611152,-0.59846,-0.362561,1.43672,5.72784,-0.029107,41.968,-896.456,-424.56,-21980,-5600,5880
-1.62309,1.32367,0.381775,3.78213,2.05567,-0.708786,3.85689,-2.38017,-2.35278,-9.10801,-6.75607,-2.105,-5.75549,-2.17755,6.47954,-3.40786,44.896,-896.944,-427,-22680,-6300,6440
-4.10194,-4.35802,-2.72162,-0.955299,-0.905374,-1.63526,-0.470997,-5.13251,-2.03271,-6.5327,-3.26799,-1.39069,-1.71085,-0.978914,7.10105,-1.60023,45.872,-897.92,-426.512,-23660,-6580,6720
-4.62547,-6.58913,-3.62432,-4.30074,-2.64022,-1.99109,-4.04409,-6.31653,-0.521328,-1.72393,0.293688,1.26504,2.32801,0.446163,6.51342,-2.0183,43.92,-896.944,-426.512,-24360,-7140,7000
0.618882,0.380077,-0.602532,-0.629725,2.24206,-0.900659,-1.40763,-5.5931,0.811536,-1.02152,-0.12793,1.67166,-0.294635,-1.8178,7.70891,-3.65841,41.968,-897.92,-427.488,-24640,-7840,7420
3.83579,2.88456,1.83028,3.23405,4.70694,0.834077,0.977277,-5.61393,-0.189936,-0.194351,-2.27988,0.455025,-3.26641,-2.28637,8.02622,-4.3154,42.456,-899.872,-431.392,-24780,-8120,7700
4.50108,2.88553,2.69421,5.34815,7.16939,1.30055,3.64774,-1.97223,0.60859,-1.56153,-3.73065,-2.9121,-4.88181,-1.72692,8.597,-4.8143,40.016,-899.384,-429.44,-25200,-8680,8120
5.41225,3.50795,4.14906,5.92464,7.8665,2.95953,2.99941,2.36126,0.649735,-0.312525,-2.60767,-2.69842,-3.37502,-2.16328,3.83942,-4.8389,40.504,-904.264,-432.368,-25760,-8960,8540
4.05706,-0.540343,2.56512,0.753229,2.98818,2.2683,0.198769,3.60543,2.10867,4.97147,1.69957,0.672974,2.47423,1.21904,-3.81751,0.731107,32.696,-902.8,-432.856,-25900,-9240,8820
4.00589,0.267319,0.504848,-0.506523,1.43033,-0.333381,0.937577,4.24102,3.48343,5.83443,2.06225,1.9688,2.7797,1.10382,-10.9188,3.61989,33.184,-901.336,-431.88,-25620,-9520,9100
3.03938,1.90989,0.560913,4.83829,3.31762,-0.0172747,5.22329,8.83562,-3.32742,-0.749568,-3.26677,-1.20317,-2.74633,-2.86208,-16.4682,3.23761,30.256,-902.8,-432.856,-25900,-9660,9380
3.02847,1.60998,-1.03416,5.72208,-0.220441,-0.749217,2.45747,5.24042,-3.96258,-2.89815,-3.54254,-4.62161,-4.25534,-5.28828,-18.3319,1.60972,29.768,-902.8,-433.832,-25900,-9940,9660
3.73398,3.95811,-0.0167581,7.1167,0.653071,0.352208,4.57703,4.03656,-3.34572,-5.96216,-5.17761,-4.91621,-5.27791,-6.42515,-12.4353,0.945236,24.4,-906.216,-431.88,-26040,-10080,9800
0.464685,1.19277,0.279012,3.33058,-0.510855,0.738404,2.10462,0.614985,-2.36822,-4.64439,-2.3303,-3.03032,-2.81092,-3.6124,-3.87905,0.980534,20.496,-908.168,-433.344,-25760,-10220,9940
-1.75721,-2.00379,0.602447,-2.59925,-2.37411,0.0490186,-2.59451,-3.09319,0.719614,2.48358,4.44648,0.58421,3.53373,1.19523,-0.0921177,0.310166,24.888,-902.8,-437.736,-25480,-10220,9940
-2.61083,-2.79524,-0.712957,-6.70028,-4.95546,-0.476469,-3.87207,-3.28071,4.85465,7.16173,9.14477,3.04523,7.92001,4.84307,6.23573,1.73408,21.96,-906.704,-436.272,-25200,-10500,9940
-1.54477,-0.126278,-1.8408,-6.33914,-5.67552,-1.92289,-4.81751,-4.70713,7.79777,7.20551,6.83409,3.52139,7.80466,3.84632,10.2192,-1.40756,18.056,-902.8,-442.616,-24640,-10220,9800
-4.61964,-3.1112,-3.19147,-7.70199,-7.41577,-3.71446,-9.86724,-8.10226,5.46558,7.38693,4.16881,3.22746,6.0429,1.4331,7.54681,-3.90179,19.032,-902.312,-437.248,-24360,-9940,9800
-3.15881,-1.30139,0.00774772,-6.31395,-2.36844,-0.983575,-7.76648,-7.4113,0.76396,7.84014,3.76296,5.03386,5.16818,3.20028,6.92492,-1.34682,16.104,-903.288,-441.152,-23940,-9940,9800
-6.00464,-1.4626,-0.882836,-2.49358,1.78877,-0.635845,-0.860125,-3.50152,-7.23734,0.396084,-0.626621,1.98195,0.235347,2.63098,8.59195,1.47259,16.592,-901.824,-441.64,-23800,-10080,9800
-9.85796,-6.59326,-4.96376,-4.56225,-1.67036,-2.10465,-1.2387,-1.77351,-9.40449,-1.83018,-0.65556,-0.836903,0.0756524,2.58725,4.05643,3.64988,15.128,-900.36,-443.592,-23660,-10220,9660
-6.79745,-5.37188,-4.57634,-4.77518,-2.59773,-1.21273,-1.35971,1.15677,-5.55946,-0.985553,0.594379,-1.30782,2.12731,4.09826,-3.14609,4.13324,13.664,-896.944,-443.592,-23660,-10360,9660
-3.38579,-4.03047,-1.35456,-0.719809,-0.0161826,0.645302,3.39657,6.49575,-3.92513,-3.75219,-1.5782,-2.03563,-1.65227,2.31704,-6.07335,5.65818,16.104,-898.896,-446.52,-23240,-10640,9520
2.98324,2.72648,3.1168,1.69953,2.4893,1.93904,3.16462,6.47461,5.56741,-1.6099,-0.675845,1.37416,-1.40456,0.339218,-9.57756,4.10648,18.056,-895.48,-443.592,-23240,-10920,9380
5.35946,5.01428,2.37399,1.52784,0.88906,0.756374,-1.21991,0.509387,9.25966,-0.207486,0.3381,1.73401,-0.604183,-2.03787,-11.6506,0.020494,14.64,-894.992,-443.592,-23100,-11340,9100
4.12436,3.17619,0.79828,1.93459,1.59334,-0.202902,-0.714747,-0.172096,5.58302,-2.20215,0.388771,0.534072,-0.51222,-2.77185,-7.25489,-0.79974,10.248,-892.064,-444.08,-22960,-11900,8960
2.85579,2.15127,0.792698,2.06671,1.50388,-0.506923,-0.565646,0.104741,2.47377,-2.92348,-0.588128,0.430878,-1.20148,-2.37917,-1.80171,-2.21517,12.2,-890.6,-446.032,-22960,-12040,8680
1.81699,3.25943,1.83806,4.21252,3.34888,1.63889,1.28861,0.832674,-1.47813,-4.65867,-3.93211,-2.0244,-3.55031,-2.97911,0.789616,-3.01456,15.616,-891.088,-448.472,-22820,-12460,8260
1.57998,6.04839,3.20745,5.17396,5.11335,3.82464,4.28544,-0.0412162,-2.37294,-4.63778,-4.25482,-2.75784,-2.74513,-1.3985,3.93839,-1.59179,12.688,-893.528,-447.496,-22680,-13020,7980
2.86925,6.45601,3.93691,4.96633,5.02081,3.58379,6.62806,0.841843,-0.0177712,-1.76585,-3.68714,-1.29726,-2.04498,-1.02588,6.10573,-1.24681,16.104,-895.48,-448.96,-22540,-13440,7840
3.63901,7.09176,2.70139,6.13231,3.13964,1.06416,5.11755,0.293965,-0.766363,-2.66893,-4.77842,-3.2915,-3.89158,-3.72486,3.72923,-4.47243,17.08,-896.456,-451.888,-22400,-14000,7280
4.65015,5.40152,1.62134,4.18147,-0.0409923,0.039321,1.51075,-2.81589,-0.61176,-1.353,-3.41921,-2.25735,-3.07044,-2.82303,0.769243,-4.49279,17.568,-894.992,-454.816,-21280,-14000,7140
6.04264,3.45097,2.81013,5.79186,2.12154,-0.505189,3.50242,-1.93216,-1.7684,-2.16185,-4.57703,-1.87099,-4.64776,-2.5329,0.483862,-2.48265,17.568,-893.528,-454.328,-19880,-14000,6720
7.53751,2.51011,3.13695,5.04795,3.80595,0.981971,6.50446,1.82366,-0.949144,-1.092,-2.54097,-0.55497,-3.31903,-1.35936,4.12013,1.55949,16.104,-890.6,-455.304,-18900,-14280,6440
5.8232,0.288621,0.760996,0.0937974,-0.111529,1.01137,2.75423,2.09587,3.44512,2.48004,2.31338,2.47638,0.856131,0.58343,5.87424,2.82169,18.056,-890.112,-453.352,-18200,-14560,6160
2.04742,-0.367434,-1.50672,0.517636,-2.04126,-0.239038,2.42987,3.08115,0.405389,-1.02999,-0.638932,-0.560877,-1.65274,-0.309129,4.69757,0.841174,18.544,-888.16,-456.768,-16940,-14560,5600
-0.763983,-4.43531,-3.05765,-3.99632,-5.19381,-1.65073,-1.57974,2.02713,0.862185,2.29257,3.61169,0.878583,1.72231,2.09945,2.74413,1.42218,17.08,-887.184,-456.768,-16380,-14560,5460
-3.31747,-3.00572,-3.06122,-1.11782,-2.95577,-1.98678,0.0107816,1.11761,-4.39872,-1.83617,-0.948135,-1.77901,-3.49154,0.0373954,3.11403,-1.48883,15.616,-883.768,-460.184,-15260,-14280,4900
-5.57305,0.580811,-1.39708,3.80681,2.01598,-0.918014,3.48608,0.424406,-9.2255,-6.13224,-7.50818,-3.08146,-8.48459,-2.32092,1.90297,-5.62774,16.104,-882.304,-450.912,-14420,-13860,4480
-8.5989,-3.79104,-1.72124,0.237891,0.615289,-0.355187,0.0503867,-1.00238,-10.5058,-4.18803,-4.08593,-1.19892,-2.93571,0.743842,-1.1467,-4.38898,15.616,-876.448,-446.52,-14000,-13580,4060
-7.93006,-9.0425,-2.54353,-4.92789,-3.77672,0.145443,-3.06003,-0.576889,-6.88398,2.35807,2.9818,0.154386,3.82757,3.15143,-0.375933,0.405393,15.616,-873.52,-441.152,-14280,-13160,3500
0.711181,-2.99958,1.56662,-4.56664,-1.67937,1.02416,-3.63749,-0.306823,3.43744,7.17548,7.14619,4.35678,4.76702,3.02538,0.448086,0.328247,11.712,-871.568,-438.712,-15400,-13020,2940
0.833615,-0.0532613,1.19269,-1.31881,0.169476,0.0599243,-3.29431,0.854194,2.75447,3.56982,4.51175,1.68963,1.48816,0.215822,-1.2098,-1.35939,15.616,-868.152,-437.736,-17920,-13300,2240
-3.54436,-5.94306,0.0820214,-6.07716,-1.46153,-1.57133,-7.10092,-0.625147,1.69665,7.68466,8.88105,4.20655,6.41484,3.95924,-4.2126,1.69474,16.592,-861.32,-433.344,-21840,-14000,1400
-5.33831,-10.4435,-0.373685,-10.0243,-3.00618,-0.423231,-8.86144,-0.600822,4.52257,11.6977,13.4617,6.50399,9.91863,7.21356,-4.80437,5.37272,14.64,-860.832,-431.88,-24500,-13720,700
-8.86532,-17.3578,-5.89294,-16.6281,-11.0563,-2.63822,-16.3455,-3.2426,10.5732,14.3396,18.6663,7.09985,14.0302,9.58866,-6.53724,8.54343,18.544,-878.4,-426.024,-28560,-13020,-560
-7.05773,-12.3832,-7.16096,-17.275,-11.5574,-3.27646,-18.1284,-6.19658,14.6834,11.5924,16.0631,7.30404,12.7316,8.28767,-7.99381,7.7214,21.472,-885.232,-431.88,-31920,-13440,-980
-8.23219,-9.20339,-7.1673,-10.0566,-6.85882,-3.43817,-10.4278,-4.64189,4.76115,1.77859,4.86621,1.18403,6.83431,2.43486,-4.30322,6.18674,21.96,-882.792,-440.664,-34860,-15260,-1400
-8.28367,-6.91525,-7.26316,-6.79572,-5.43323,-3.80402,-8.40608,-2.88143,3.21823,-1.02963,0.375457,-0.482953,4.68784,0.365181,-1.54733,4.24952,19.032,-870.592,-431.392,-35280,-16800,-1400
-3.66518,1.24197,-4.40831,0.098094,-0.186683,-2.07193,-1.45008,-0.507602,0.448989,-4.74778,-5.71136,-3.6674,0.00161374,-4.37615,0.0495611,0.304433,20.008,-873.52,-446.032,-35560,-17080,-1260
5.54192,13.2518,3.44415,12.2576,11.24,1.5805,12.1078,3.29652,-5.60456,-10.635,-16.2249,-7.65105,-9.32665,-7.67155,2.34553,-2.69604,20.984,-888.648,-448.472,-36960,-16800,-1400
12.5732,17.8067,9.97719,16.185,14.5494,5.2075,15.8484,4.55517,-5.48249,-6.15963,-14.9824,-5.58981,-8.86834,-6.18893,1.12247,-4.4004,21.472,-897.92,-454.816,-37380,-16380,-1120
6.63539,8.34988,3.72643,10.2627,6.39763,3.69759,11.5025,4.65239,-8.24351,-5.31748,-11.1142,-6.70738,-4.16044,-4.61123,2.20299,-2.44946,21.472,-895.48,-470.432,-35980,-15680,-420
7.09984,11.9963,3.64817,11.9903,7.48354,3.04697,12.9521,4.60289,-5.90733,-8.14998,-13.2951,-6.65542,-5.22927,-6.27586,4.37721,-4.40925,26.84,-895.968,-485.56,-33180,-15400,280
9.71138,13.969,6.17111,10.9832,8.93516,2.22714,12.3937,2.64695,-1.67599,-5.86748,-9.66789,-3.73028,-3.19687,-4.22895,5.41355,-2.91587,29.28,-895.48,-493.856,-30380,-14560,1120
9.0015,12.2308,5.02263,9.47511,7.75056,2.03512,10.6937,2.09279,0.724153,-4.09777,-6.60705,-3.03151,-3.3554,-2.53151,5.24562,-1.9426,31.232,-894.992,-504.104,-25760,-12600,2240
11.0996,13.7143,6.85459,9.61125,6.00144,2.56994,10.0551,2.9837,2.17601,-3.76328,-5.68805,-0.0899717,-5.1395,-2.52414,3.00462,-4.15827,32.208,-890.112,-501.176,-21700,-10920,2800
6.44029,8.33481,4.1438,5.58921,-0.167077,0.310145,4.62476,-0.665941,2.20489,-3.07688,-1.81345,1.76424,-5.09379,-2.60739,0.0709803,-3.90785,30.744,-885.72,-495.32,-16100,-8400,3640
2.4519,2.4542,2.90204,1.61899,-2.83059,0.248205,1.54809,-2.13338,3.69605,-1.72471,3.39741,3.83368,-3.06839,-1.44195,-0.743217,-2.10683,30.256,-883.28,-491.416,-11620,-7000,4200
-0.193073,-1.64375,0.420398,0.183244,-4.61156,0.980837,-0.891806,-1.57765,1.24007,-3.53769,2.89015,1.63685,-3.11548,-1.05747,-3.6383,-1.08057,28.792,-877.424,-482.632,-9240,-5880,4200
1.91111,-0.257269,2.17606,1.75639,-1.05358,1.99376,-1.02555,-1.57033,1.20889,-2.58975,1.25583,2.47233,-2.93241,-1.08235,-6.26643,-1.52886,25.864,-877.424,-479.704,-7700,-4480,3920
2.30352,1.41675,3.69251,1.86497,3.05073,2.73315,0.628191,-0.507704,-1.81265,-1.50875,0.37803,3.70179,-4.48566,0.10623,-2.35576,-1.8437,22.936,-879.376,-476.288,-7140,-3360,3360
-2.23483,-5.37654,-0.150361,2.02707,1.60914,1.46186,0.963099,0.161634,-11.4226,-3.15997,-0.153546,-0.150957,-6.05926,-2.08599,0.289671,-3.09013,24.888,-882.304,-466.04,-7560,-1680,2520
-5.59912,-14.7008,-5.48743,-8.48675,-7.22093,-2.69954,-8.25451,-0.357391,-1.53383,5.00838,9.0178,2.67973,2.75797,2.72015,0.223098,1.51868,22.936,-884.744,-458.232,-7980,-140,1820
-8.0628,-15.6553,-6.98905,-14.8441,-10.1109,-4.33181,-13.723,-1.74677,7.02524,10.4293,12.9129,4.92479,8.19749,7.09272,-0.734199,5.75309,19.032,-891.088,-462.136,-8820,1260,1260
-8.47746,-14.7382,-7.02671,-15.1762,-10.6102,-4.93503,-14.1298,-4.27161,6.04249,10.1969,12.1943,4.21539,8.15633,7.54329,1.3314,4.93272,21.472,-894.992,-455.304,-9240,2520,700
-10.7777,-14.6036,-8.39731,-14.0291,-12.504,-5.80036,-14.281,-7.54749,2.38401,8.59791,9.84464,1.2582,7.09005,6.67587,2.07055,2.49495,18.544,-898.896,-453.84,-9660,3080,140
-9.50524,-9.15575,-6.3928,-7.21892,-6.50895,-5.58621,-8.91168,-6.55872,-1.20718,1.95743,2.47212,-1.67721,1.01021,2.03518,0.938506,-0.885274,18.544,-903.776,-452.376,-9940,3080,-280
-6.88828,-3.24832,-2.93357,-1.4903,0.416268,-3.63416,-2.71315,-3.85165,-3.23826,-1.65214,-2.00381,-4.23071,-1.67055,-0.45352,1.13989,-2.29233,17.08,-902.312,-456.28,-9940,2800,-560
-7.22518,-4.82414,-2.85072,-2.16969,-0.914196,-1.24996,-3.03083,-0.949758,-6.73731,0.689472,-0.171083,-3.50522,2.5496,0.151818,0.735792,-0.054562,17.08,-902.312,-456.28,-9940,2240,-700
-3.19236,-0.845263,-0.738146,-0.471932,0.986866,1.25781,-0.364463,3.07921,-4.2938,2.49325,-0.0869659,-1.05017,3.0871,1.64753,1.17626,2.838,16.104,-903.776,-456.768,-9660,1120,-980
0.149093,5.01369,0.583596,1.74685,3.77037,2.17237,4.44049,5.53338,-0.385802,0.996488,-2.03801,-2.00155,0.736987,0.74431,2.71305,4.2517,16.592,-901.824,-459.696,-8960,420,-980
-0.299437,7.06067,-1.90784,4.13172,3.08384,1.045,5.11636,5.36683,-2.28145,-4.19773,-6.79715,-4.14461,-3.05436,-3.3809,1.36215,2.47508,17.568,-902.312,-464.088,-7700,-1260,-1120
1.78008,7.93606,-1.12397,4.35139,4.6857,1.87039,5.90194,4.28691,0.136501,-3.716,-6.23821,-2.08774,-2.37743,-2.69333,-0.793683,4.22888,17.568,-897.432,-464.088,-6440,-1820,-1260
9.30514,12.5133,4.30708,3.64163,6.80495,3.62958,4.78365,2.40984,9.38372,1.21912,-0.897549,4.2553,1.31746,0.767547,-3.87237,3.46611,20.008,-896.456,-464.576,-5600,-2240,-1120
13.4257,15.2981,9.65504,5.85719,9.24264,5.79514,7.65388,2.31153,10.8312,3.53192,-0.499999,6.64853,2.00611,3.15952,-3.07113,1.76123,23.424,-893.04,-466.04,-4340,-2520,-980
9.01362,8.11042,7.79718,4.86997,8.43609,5.28233,10.3975,3.49206,2.86235,1.94544,-0.110282,3.01367,2.54204,3.25143,4.87353,2.13658,20.496,-892.552,-466.528,-3220,-2660,-840
6.02204,6.74687,5.46434,8.58402,7.30026,2.44769,10.3076,1.96235,-4.56703,-5.55931,-5.10679,-3.54852,-3.46373,-3.03605,5.59843,-4.23822,25.376,-889.136,-467.504,-1960,-2380,-700
3.43474,3.47178,2.00501,6.49823,1.99273,-0.993654,5.47151,0.140886,-3.96482,-6.85077,-4.93321,-5.21966,-4.37317,-5.56622,2.69197,-7.85255,27.328,-882.792,-471.408,-1120,-2100,-560
0.725781,-3.25765,0.862133,1.6409,-0.889268,-1.04143,2.12975,0.300884,-2.34492,-2.89215,-0.246301,-1.39505,0.951367,-3.205,0.647707,-5.17442,25.864,-880.84,-469.456,0,-1540,-140
-0.710623,-8.1611,-0.975762,-4.38636,-4.85057,-2.59608,-3.21672,-2.76703,1.28844,2.1819,5.30495,3.45173,5.2811,-0.578137,-0.86559,-2.8178,25.376,-880.84,-469.456,560,-840,140
-1.11399,-6.76654,-0.156233,-4.10234,-3.19277,-1.48195,-4.79903,-4.15328,1.4645,1.14812,4.07811,5.25569,3.79227,0.607657,-2.75442,-2.89753,28.792,-880.352,-465.552,980,-280,420
0.179756,-3.56327,1.60902,-1.04055,-0.188926,1.74211,-4.96459,-0.220546,-0.145874,-0.53201,0.741353,4.44686,1.71003,1.32185,-7.93762,-1.86624,25.864,-878.888,-466.528,1400,560,700
-0.132078,-5.16785,0.478493,-3.818,-1.92527,1.54106,-7.3565,2.3935,-0.738722,2.24402,2.86832,2.82058,5.3617,3.49331,-9.3237,1.68865,30.744,-882.792,-467.504,1680,420,1260
-1.93978,-7.2217,-2.26033,-6.07694,-6.74548,-1.30886,-10.6704,-1.53877,0.1453,3.34919,3.361,0.39487,4.28106,1.04433,-8.75095,0.505453,26.84,-892.552,-470.92,2520,0,1960
-1.84879,-4.50515,-3.84068,-4.03738,-7.60063,-2.28005,-8.26631,-2.93353,1.1452,1.10694,0.75346,-1.43484,-0.458112,-2.00068,-4.71918,-1.20668,27.328,-890.112,-469.944,4200,-560,3080
-0.154156,0.560458,-2.4855,1.21491,-2.4596,-1.523,-0.224435,-1.0308,0.58589,-0.630427,-4.61551,-3.67281,-5.42367,-4.43012,1.57364,-0.932253,25.864,-890.112,-469.944,5880,-1260,3780
0.954454,4.2155,-0.608438,7.01211,2.0536,-0.411241,5.45779,1.29086,-0.972416,-3.84765,-10.8567,-5.74335,-11.368,-6.11797,3.42117,-1.52411,26.352,-885.232,-466.528,7840,-1680,4620
-0.422912,5.04456,1.05453,7.57114,3.65873,0.588899,6.14251,3.94658,-2.09962,-4.81324,-10.9908,-5.62199,-10.8787,-3.57274,2.99822,0.920497,23.424,-881.816,-462.136,8540,-1820,5320
-2.76293,2.43067,-0.763409,3.84196,1.6526,-0.300461,3.01984,3.92285,-1.52342,-1.81756,-4.95969,-4.78635,-6.60828,-1.44809,1.49497,1.97528,22.936,-880.84,-457.744,8680,-1680,5320
-4.4547,-0.29223,-2.55198,-1.4662,-1.1483,-1.89291,0.278238,2.2548,0.668822,1.34665,0.447195,-1.8697,-2.10899,1.00256,0.567221,3.49445,20.496,-877.912,-461.16,8120,-1260,5600
-6.28118,-3.82788,-5.12219,-8.28941,-5.06672,-3.06509,-4.3175,-1.75388,2.73262,5.43927,5.95851,2.23326,3.72469,4.4974,2.01807,5.96878,19.032,-874.496,-450.912,8260,-420,5320
-6.20905,-4.59052,-5.06577,-7.6456,-4.32335,-2.38435,-5.03362,-3.13678,-0.00466558,4.66972,7.59348,1.50469,4.36661,5.11867,1.75208,5.02007,18.056,-874.496,-447.496,6860,140,5180
-2.54691,0.799263,-1.21506,-2.8995,0.209049,-0.175861,-0.576179,-1.49405,-1.26439,1.57937,6.03591,0.785728,1.71549,3.72814,2.48002,3.14199,17.08,-870.592,-444.568,5180,280,4620
-1.35971,0.745985,1.94092,-0.123171,3.37395,1.46663,2.31175,-2.96716,-2.56161,0.3821,3.38901,0.599651,0.87624,2.8234,3.11534,1.94393,18.544,-870.104,-449.448,1960,0,4340
0.861274,-1.30723,1.01919,-0.870774,0.00291927,-1.06396,-1.03557,-6.49622,0.221651,0.864277,4.7646,0.600012,2.83163,1.01231,0.687329,-1.1965,17.568,-875.96,-446.032,-980,280,3500
2.11437,1.45592,1.02819,1.09976,1.13977,0.30985,1.16312,-4.78477,0.569232,-2.04517,2.64548,1.31916,1.69017,-0.29399,1.94223,-1.31112,20.008,-882.304,-447.008,-2800,140,3220
5.46113,6.92628,3.9968,5.15275,4.88291,2.13326,5.06907,-2.06326,0.136374,-3.17838,-0.657508,2.59806,-0.226764,-1.96436,1.71687,-3.10729,20.496,-887.184,-447.008,-4760,-280,2800
2.74333,5.50692,4.09926,5.17029,4.16225,1.9714,5.64017,-0.0720829,-4.40477,-4.48342,-1.63915,1.72227,-0.366287,-0.703073,2.22728,-3.45145,20.984,-891.576,-444.568,-5460,-1260,2800
-0.156978,2.9826,4.41956,6.27117,5.26817,3.10225,6.93413,4.75399,-7.67583,-7.5713,-4.52694,-1.81969,-2.54608,0.865025,3.22102,-2.70169,19.032,-896.456,-447.008,-5880,-2240,2800
2.24235,3.22785,3.83666,4.59095,3.3335,2.67651,3.48512,5.91562,-2.33612,-5.52195,-3.27039,-0.885689,-0.834246,-0.426274,0.408291,-4.3202,19.52,-897.432,-447.984,-6020,-3780,3080
1.06147,0.469196,-0.173244,0.856818,-1.48499,0.211052,-1.74284,1.72854,-0.952946,-2.6093,-2.7381,-1.50103,0.110784,-1.83067,0.64787,-5.40773,19.032,-898.408,-452.376,-5740,-4620,3220
2.42543,1.33219,-1.27661,1.57545,-1.78204,-1.21962,-0.611362,0.55525,-0.895052,-1.36782,-1.44378,-0.69646,-1.41961,-4.57451,3.31986,-5.46477,17.568,-897.432,-453.352,-5040,-5740,3640
-0.475099,-2.02219,-1.73819,-1.53029,-3.63595,-0.395714,-0.378988,1.20757,-0.0277284,1.88971,2.83214,1.82932,1.16779,-2.44158,4.66048,-0.672705,17.568,-894.016,-450.424,-4060,-6860,3780
-0.0819347,-3.04864,-0.508788,-3.06902,-2.50644,1.22277,-1.03186,2.14285,2.39331,4.02626,3.12692,2.21871,2.94221,0.309838,3.49976,0.96803,16.592,-889.624,-448.472,-3920,-6860,4200
-2.01971,-5.82894,-1.38189,-5.28351,-2.67463,1.19867,-2.22188,1.37685,4.20705,5.36969,3.04892,2.39141,4.82903,2.06848,3.17498,1.77585,16.592,-886.208,-448.472,-4200,-7420,4200
-1.69221,-4.31499,-2.5249,-5.07195,-2.46584,0.426392,-2.08848,-0.0536214,6.13297,4.53348,0.843731,0.413996,2.49442,1.90546,2.57187,2.7942,18.544,-885.72,-451.888,-4340,-7700,4480
-0.493031,-3.10955,-3.63655,-5.50418,-3.52231,-1.4207,-4.63712,-0.707352,6.99188,5.4369,0.990864,-0.330266,2.05313,0.814418,-3.04202,3.97394,17.08,-881.816,-451.4,-5740,-8120,4480
1.18963,-3.97773,-3.65961,-5.78918,-4.19119,-1.98834,-4.86021,-2.35663,7.72363,6.5279,2.99272,-0.0876746,1.83689,1.08862,-6.66939,4.57572,18.056,-881.816,-450.424,-6860,-8260,4620
5.99955,1.64548,0.00696044,-2.35301,0.072114,-1.32014,-1.75151,-4.06344,8.36582,5.33114,1.87623,1.5491,1.03157,0.675146,-8.61638,2.90963,20.984,-880.84,-450.912,-8540,-8540,4620
2.29703,0.399618,-0.309621,-1.84386,0.236427,-1.59686,-2.68996,-3.19507,4.16587,2.15854,0.174132,0.570923,1.44408,0.753266,-11.1708,1.29212,18.056,-878.4,-450.912,-9660,-8680,4760
