-4908.443082,-844.627719,-10168.680271,7261.880608,7005.506099,-10412.828375,2284.974132,-13226.287154,-3956.839914,-7145.897406,-10176.436326,-5936.869197,-6432.519130,5893.216240,-17166.005631,-1874.730214,47.336002,-679.296021,-722.728027,19740.000000,-1960.000000,-1260.000000
-4902.653981,-854.373080,-10152.095276,7266.038032,7011.049332,-10392.734157,2275.206420,-13192.379557,-3881.581590,-7143.125790,-10158.197303,-5932.532958,-6424.092522,5923.860481,-17089.987348,-1858.972235,51.728001,-674.903992,-724.192017,19180.000000,-2240.000000,-1260.000000
-4909.851242,-860.877438,-10151.245910,7259.734840,7009.149433,-10386.207448,2276.055786,-13186.277531,-3877.111241,-7143.326955,-10151.134151,-5937.606804,-6417.923441,5923.994592,-17061.511226,-1860.983892,52.704002,-674.416016,-724.192017,18200.000000,-2660.000000,-1540.000000
-4823.707619,-721.961346,-9871.871456,7450.439924,7370.174810,-10144.875663,2544.053202,-13068.550893,-3453.433925,-6638.132827,-9916.396131,-5710.781301,-6125.875548,6191.410862,-17172.778210,-1524.992469,59.535999,-707.112000,-706.624023,16520.000000,-3500.000000,980.000000
-4822.522977,-721.827235,-9868.608101,7447.288328,7371.381804,-10138.997154,2542.645042,-13065.421649,-3453.366870,-6631.606118,-9906.986047,-5708.903755,-6118.879452,6193.601333,-17156.416733,-1526.043001,63.928001,-711.015991,-707.112000,17640.000000,-4900.000000,1680.000000
-4816.219785,-698.469662,-9875.179514,7451.065773,7373.684034,-10151.804704,2558.380670,-13091.550838,-3508.888603,-6620.899632,-9913.602163,-5700.879479,-6117.471292,6169.282635,-17210.776175,-1542.695051,63.440002,-715.408020,-707.600037,17780.000000,-5040.000000,2100.000000
-4815.996267,-698.402607,-9883.606122,7450.059944,7368.856057,-10165.215750,2556.525476,-13107.085300,-3543.220883,-6624.095932,-9921.469977,-5703.606391,-6124.757960,6156.899769,-17258.273632,-1549.221760,61.000000,-717.359985,-705.648010,16660.000000,-5600.000000,1960.000000
-4810.318924,-695.273363,-9884.410785,7447.780066,7365.011557,-10171.809515,2555.541999,-13118.104710,-3549.881703,-6621.167853,-9922.632268,-5702.958191,-6126.076713,6146.863836,-17283.620511,-1553.692109,64.416000,-721.264038,-713.455994,16520.000000,-6020.000000,2240.000000
-4817.382075,-698.156738,-9892.077433,7447.802418,7364.519818,-10175.497553,2560.817011,-13121.032789,-3568.366595,-6631.740228,-9942.212396,-5707.652057,-6136.671440,6141.991155,-17314.644732,-1549.489981,65.879997,-721.264038,-707.600037,17220.000000,-6720.000000,2380.000000
-4827.999154,-728.353945,-9885.081337,7438.995831,7359.513028,-10161.483009,2538.688783,-13095.305931,-3516.756417,-6645.732420,-9936.445646,-5718.582060,-6137.699620,6167.807420,-17265.247377,-1535.497789,63.928001,-718.824036,-703.208008,16520.000000,-7000.000000,2240.000000
-4841.298442,-750.750393,-9886.757718,7422.142616,7346.660775,-10153.324622,2518.683972,-13081.984291,-3481.328902,-6654.114324,-9927.259079,-5732.507197,-6135.509149,6173.618874,-17221.035626,-1540.348117,70.272003,-719.799988,-704.671997,16940.000000,-7420.000000,2100.000000
-4837.096314,-742.413192,-9883.919046,7428.669325,7352.785153,-10147.669631,2527.758780,-13076.619873,-3478.020844,-6648.593443,-9919.614782,-5726.740447,-6131.977574,6175.138792,-17204.495335,-1537.621205,72.223999,-720.776001,-708.088013,15820.000000,-7420.000000,1540.000000
-4835.397582,-749.431640,-9879.292235,7421.025028,7346.683126,-10146.552044,2514.638306,-13080.777297,-3472.835240,-6643.474894,-9905.399073,-5727.858034,-6125.249699,6176.770470,-17189.586722,-1546.561902,74.664001,-719.799988,-708.575989,15820.000000,-7560.000000,1540.000000
-4824.556985,-724.330631,-9882.935570,7429.786912,7354.238016,-10151.089448,2532.363240,-13093.964826,-3505.915821,-6632.030801,-9910.517622,-5717.956211,-6120.622888,6162.510057,-17214.710082,-1553.692109,78.568001,-723.703979,-710.528015,15960.000000,-8400.000000,1400.000000
-4826.479235,-712.886538,-9894.066738,7437.610023,7357.769592,-10164.545198,2545.036679,-13113.388492,-3560.431726,-6636.054115,-9927.013210,-5717.173900,-6129.161254,6145.992118,-17266.029688,-1557.648368,79.543999,-720.776001,-709.552002,16380.000000,-9520.000000,1400.000000
-4819.863119,-707.745636,-9890.110480,7444.069677,7361.301167,-10166.310986,2547.003632,-13116.361274,-3562.286921,-6630.510882,-9923.816910,-5711.787130,-6127.864853,6145.343917,-17277.160856,-1556.173152,82.472000,-715.408020,-707.600037,16940.000000,-10360.000000,1540.000000
-4828.222672,-707.432712,-9904.817927,7436.313622,7353.187484,-10179.900846,2545.483714,-13133.460359,-3590.964209,-6639.853911,-9946.772152,-5718.984392,-6140.158312,6124.690905,-17326.044122,-1567.349025,85.400002,-713.455994,-705.160034,17500.000000,-11620.000000,1120.000000
-4835.911672,-725.269404,-9899.006474,7438.124113,7355.646176,-10167.160352,2539.582853,-13102.436137,-3550.999290,-6653.242606,-9944.648736,-5723.030057,-6146.483856,6149.948376,-17294.282293,-1543.656176,88.816002,-711.992004,-702.231995,17640.000000,-11620.000000,840.000000
-4837.096314,-739.283948,-9883.293198,7435.441904,7356.942577,-10146.216768,2529.055182,-13069.869646,-3485.799251,-6652.549702,-9924.554518,-5722.337153,-6135.039763,6176.569304,-17224.231926,-1530.066315,87.351997,-708.575989,-694.424011,18060.000000,-11760.000000,560.000000
-4835.017602,-737.048773,-9882.421480,7434.503130,7358.998937,-10139.108913,2533.302013,-13062.582977,-3477.842030,-6649.934548,-9927.236727,-5722.851243,-6132.134036,6179.944417,-17199.309730,-1528.836969,89.792000,-702.720032,-697.351990,18060.000000,-12880.000000,420.000000
-4825.786331,-737.294643,-9874.397203,7438.280575,7361.904664,-10135.443227,2531.133894,-13059.789009,-3466.219123,-6638.490455,-9911.098768,-5719.006743,-6122.858062,6189.712130,-17177.561483,-1528.546396,96.136002,-704.184021,-701.255981,17920.000000,-13020.000000,560.000000
-4818.969049,-725.627032,-9873.100802,7440.806322,7364.542170,-10135.934965,2537.660603,-13068.305024,-3483.117042,-6626.867548,-9905.421425,-5713.843490,-6114.722027,6181.285522,-17178.410849,-1535.520141,91.256004,-699.791992,-696.376038,17220.000000,-12320.000000,280.000000
-4822.098294,-712.104227,-9888.054119,7439.532273,7360.988243,-10155.693907,2548.098868,-13100.223315,-3550.775772,-6628.275708,-9921.559384,-5713.798787,-6121.584013,6151.222426,-17244.840234,-1552.060431,97.599998,-698.815979,-700.280029,16800.000000,-12740.000000,280.000000
-4826.345125,-718.161549,-9892.815041,7435.486607,7356.562597,-10163.069983,2544.567292,-13105.163050,-3574.133345,-6634.310679,-9929.069570,-5717.352714,-6127.484873,6147.020298,-17275.819752,-1552.976853,96.136002,-697.351990,-703.208008,16240.000000,-11900.000000,0.000000
-4820.667782,-706.896270,-9898.112404,7438.191168,7357.009632,-10170.736631,2552.211589,-13119.043484,-3588.930200,-6632.522539,-9938.859634,-5714.961078,-6132.066981,6133.810417,-17303.312397,-1559.414155,100.040001,-694.911987,-707.600037,15400.000000,-12040.000000,0.000000
-4821.226576,-713.646497,-9895.005512,7441.320412,7358.686013,-10171.965977,2547.316557,-13120.183423,-3574.178049,-6637.261109,-9941.631251,-5714.804615,-6136.246757,6142.818170,-17307.268656,-1552.328652,100.040001,-691.496033,-701.255981,14140.000000,-11620.000000,-140.000000
-4819.550195,-729.359773,-9879.605160,7441.365116,7362.731679,-10155.224521,2533.302013,-13088.131021,-3497.623324,-6636.948185,-9923.660448,-5715.586926,-6131.105856,6172.635397,-17235.720722,-1533.240263,95.648003,-694.424011,-696.376038,12740.000000,-11060.000000,-420.000000
-4817.225613,-729.180959,-9875.492439,7439.800494,7361.614092,-10148.787218,2530.418638,-13080.173800,-3462.776955,-6631.784932,-9911.925782,-5714.983429,-6126.657859,6177.686891,-17194.928789,-1532.748524,97.112000,-691.984009,-693.936035,11340.000000,-10920.000000,-700.000000
-4813.738741,-723.704782,-9870.977386,7445.075505,7365.682109,-10141.634660,2536.654775,-13074.630567,-3455.803210,-6627.158121,-9903.812099,-5709.484900,-6121.472254,6186.158202,-17179.148457,-1528.904024,95.648003,-692.960022,-692.960022,9380.000000,-10500.000000,-1120.000000
-4806.273258,-715.971078,-9861.723764,7452.540988,7374.354586,-10129.072980,2545.461362,-13057.553835,-3446.571940,-6617.055132,-9891.742157,-5700.857127,-6111.011638,6198.541069,-17155.008573,-1520.410361,91.744003,-690.031982,-688.080017,7420.000000,-10220.000000,-1960.000000
-4804.708636,-697.732055,-9872.184381,7452.138657,7373.482868,-10145.054477,2558.112449,-13088.600408,-3505.178214,-6612.048341,-9901.398111,-5697.191441,-6110.609306,6169.550856,-17209.680940,-1539.498751,96.136002,-690.520020,-691.496033,5740.000000,-10500.000000,-2380.000000
-4816.040971,-705.018724,-9883.203791,7445.053154,7367.269083,-10157.213826,2554.267949,-13105.140699,-3552.027470,-6623.872414,-9916.172614,-5705.685104,-6119.684114,6156.229217,-17260.709972,-1548.975891,97.112000,-695.888000,-691.007996,3780.000000,-10360.000000,-3500.000000
-4816.286840,-703.498805,-9887.160049,7444.069677,7365.033908,-10161.080678,2554.603226,-13108.448757,-3562.689252,-6627.359286,-9926.744989,-5708.501423,-6124.377981,6148.271996,-17284.089897,-1547.992414,98.087997,-693.936035,-689.056030,2660.000000,-10220.000000,-4200.000000
-4825.831035,-709.869052,-9897.039520,7438.727610,7357.590778,-10172.524771,2549.574083,-13123.737350,-3585.085700,-6637.864606,-9944.984012,-5717.218604,-6134.346859,6134.972708,-17323.585430,-1553.490943,97.112000,-697.840027,-686.616028,1400.000000,-10360.000000,-5040.000000
-4829.831997,-731.952576,-9885.707186,7438.571148,7357.009632,-10160.030146,2534.464304,-13097.541105,-3524.892452,-6643.765467,-9934.791617,-5721.800711,-6134.011583,6162.733574,-17267.840179,-1535.028402,102.480003,-699.791992,-698.815979,840.000000,-10640.000000,-5880.000000
-4822.075942,-728.376297,-9870.463296,7447.735363,7368.118449,-10138.952451,2538.957004,-13066.025146,-3464.430984,-6634.087161,-9919.704189,-5713.083531,-6123.416856,6186.918162,-17194.749975,-1520.276251,103.456001,-700.280029,-695.888000,280.000000,-10360.000000,-6580.000000
-4826.389828,-725.068238,-9873.212561,7447.109514,7368.498429,-10135.599689,2543.315595,-13062.739439,-3465.570923,-6637.439923,-9920.240631,-5714.916374,-6123.305097,6184.414766,-17180.824838,-1524.433675,106.872002,-702.231995,-694.424011,420.000000,-10780.000000,-7700.000000
-4829.809645,-729.359773,-9868.786915,7446.327203,7368.274911,-10130.235270,2540.074592,-13054.625756,-3457.323129,-6636.948185,-9906.740177,-5715.653982,-6118.007734,6192.126118,-17155.790884,-1524.970117,107.848000,-701.744019,-698.815979,140.000000,-10500.000000,-8400.000000
-4825.160483,-716.976907,-9878.219352,7441.253357,7362.910493,-10141.813474,2544.209664,-13081.626663,-3498.316228,-6628.678039,-9911.210526,-5715.162243,-6115.884318,6166.712185,-17194.548809,-1545.444315,107.360001,-705.160034,-685.640015,-420.000000,-10500.000000,-9240.000000
-4816.197433,-701.844776,-9886.087166,7446.036630,7362.374051,-10159.337242,2553.597397,-13108.113481,-3545.500761,-6623.023048,-9919.950058,-5710.848357,-6120.511129,6150.216597,-17251.813978,-1553.692109,104.919998,-702.231995,-681.736023,-280.000000,-10780.000000,-10220.000000
-4817.449131,-704.370523,-9888.724671,7443.846159,7360.272987,-10165.081640,2552.189237,-13109.968675,-3553.346223,-6628.007487,-9929.114274,-5712.636496,-6125.987306,6148.428458,-17270.209464,-1553.803868,112.728004,-706.135986,-689.544006,-980.000000,-10640.000000,-11340.000000
-4814.722218,-694.491052,-9894.536125,7445.097857,7361.323519,-10176.793954,2558.961816,-13126.285449,-3571.138212,-6628.834501,-9941.363030,-5711.071874,-6131.195263,6130.837635,-17309.660293,-1559.056528,110.776001,-706.135986,-696.864014,-2380.000000,-9520.000000,-12600.000000
-4816.845634,-710.941936,-9883.539067,7449.635261,7366.397365,-10163.941701,2553.664452,-13098.613989,-3528.267566,-6637.417571,-9937.049143,-5713.038828,-6134.458618,6156.765658,-17275.193903,-1535.877769,116.144005,-705.160034,-700.768005,-2380.000000,-8960.000000,-13300.000000
-4823.439398,-733.740715,-9876.028881,7438.392334,7358.842475,-10151.402372,2531.692687,-13078.340957,-3466.867324,-6641.239720,-9920.084169,-5721.912470,-6130.524710,6174.110612,-17211.782004,-1530.848626,117.608002,-703.695984,-702.720032,-2240.000000,-9240.000000,-13580.000000
-4824.355820,-729.292718,-9875.917122,7438.057058,7360.831781,-10144.540387,2534.106676,-13072.440096,-3454.149181,-6638.110475,-9914.607992,-5718.135025,-6126.099065,6176.904580,-17187.485658,-1533.486132,119.071999,-702.720032,-699.791992,-1960.000000,-8120.000000,-13860.000000
-4822.522977,-728.331593,-9870.373889,7442.885034,7366.240903,-10134.884433,2538.398211,-13059.677250,-3445.789629,-6632.835464,-9902.850974,-5712.144758,-6120.511129,6189.779185,-17164.731582,-1528.322879,121.512001,-701.744019,-701.255981,-1960.000000,-7420.000000,-14280.000000
-4815.504529,-713.400628,-9867.445811,7448.160046,7371.359452,-10133.364515,2547.830647,-13064.549931,-3456.227893,-6622.374847,-9895.519602,-5703.852261,-6110.162271,6185.577057,-17163.390477,-1534.849588,121.512001,-702.231995,-700.768005,-2520.000000,-6300.000000,-14560.000000
-4817.382075,-699.900174,-9882.555590,7444.717877,7366.263254,-10155.157465,2554.714984,-13099.865687,-3520.757380,-6622.307792,-9910.159994,-5706.422711,-6116.152539,6154.664594,-17231.742112,-1555.100269,119.071999,-703.208008,-695.888000,-2940.000000,-6300.000000,-14700.000000
-4820.913651,-704.705799,-9887.942360,7440.739267,7361.949368,-10162.086506,2551.809257,-13108.046425,-3540.829246,-6627.985135,-9916.172614,-5712.457682,-6123.282745,6150.104839,-17259.704144,-1553.692109,117.608002,-698.815979,-701.744019,-3780.000000,-5460.000000,-14560.000000
-4823.215881,-699.140215,-9897.397148,7439.040534,7359.177751,-10171.943625,2556.570179,-13121.010437,-3562.353976,-6631.449655,-9931.349448,-5714.402284,-6129.854158,6135.106818,-17291.734194,-1557.447202,112.239998,-696.376038,-691.496033,-3920.000000,-5460.000000,-14140.000000
-4833.452980,-717.111017,-9902.739215,7430.591575,7349.566501,-10180.124364,2542.019193,-13128.162995,-3560.230560,-6642.849045,-9938.233785,-5725.667563,-6139.979498,6133.408086,-17307.603932,-1559.257693,119.071999,-697.351990,-719.799988,-4200.000000,-5040.000000,-13720.000000
-4824.825206,-724.151817,-9878.979311,7441.700392,7362.776382,-10152.698773,2541.460400,-13083.593617,-3477.305588,-6638.892786,-9919.435968,-5718.291487,-6130.859987,6175.094089,-17225.193051,-1529.574577,118.584000,-701.255981,-710.039978,-3360.000000,-2940.000000,-12740.000000
-4813.872852,-714.674677,-9867.512866,7448.405915,7370.845362,-10139.019506,2546.802467,-13068.550893,-3434.367887,-6626.845196,-9903.856802,-5708.389665,-6120.600536,6187.275790,-17176.868579,-1522.019687,110.288002,-693.936035,-717.848022,-2800.000000,-3080.000000,-12040.000000
-4818.432607,-715.859320,-9867.110535,7449.411744,7370.733603,-10138.259547,2546.936577,-13067.813285,-3438.614719,-6627.314583,-9900.772262,-5708.881403,-6119.080617,6187.767528,-17166.452666,-1523.807826,113.704002,-693.936035,-709.064026,-2240.000000,-2100.000000,-10780.000000
-4827.574471,-722.073105,-9867.334052,7443.801456,7365.972682,-10136.270241,2543.427353,-13064.281710,-3446.907216,-6633.081333,-9895.698416,-5713.329400,-6114.587917,6188.371025,-17154.650945,-1527.495864,112.728004,-691.007996,-722.239990,-1960.000000,-2240.000000,-10080.000000
-4831.553081,-704.906965,-9882.309721,7441.588633,7363.603397,-10152.497608,2555.027909,-13092.958998,-3509.000362,-6634.511844,-9909.243573,-5712.703551,-6115.839614,6160.721917,-17212.944295,-1545.824295,108.823997,-688.080017,-719.799988,-1260.000000,-1260.000000,-8960.000000
-4830.636660,-702.492976,-9890.244590,7443.689697,7365.011557,-10164.209922,2559.766479,-13106.012417,-3544.941967,-6637.059943,-9923.548689,-5713.642325,-6126.032010,6149.747211,-17257.446618,-1550.339347,103.456001,-683.200012,-720.776001,-1260.000000,-980.000000,-7700.000000
-4821.785369,-692.859375,-9889.328169,7450.864607,7370.845362,-10164.835771,2568.796583,-13108.605219,-3545.120781,-6630.287365,-9930.723599,-5707.182670,-6126.300231,6147.579091,-17273.606929,-1545.377260,99.064003,-685.151978,-719.312012,-560.000000,-560.000000,-6860.000000
-4818.231442,-689.014875,-9894.200849,7453.278596,7370.375975,-10174.692890,2571.344682,-13120.451644,-3554.419107,-6630.175606,-9941.519492,-5707.652057,-6131.955222,6141.186493,-17306.441642,-1544.818466,100.040001,-677.832031,-721.264038,-420.000000,-700.000000,-5740.000000
-4824.333468,-717.356887,-9885.170744,7446.751886,7365.145667,-10164.165218,2550.021118,-13095.462393,-3498.182118,-6637.976365,-9925.292125,-5716.860976,-6132.335202,6166.980406,-17258.117170,-1532.346193,101.015999,-676.856018,-735.416016,-560.000000,-840.000000,-5040.000000
-4826.568642,-729.270366,-9876.542971,7442.885034,7363.201065,-10150.731820,2542.265063,-13073.065945,-3448.516542,-6634.578900,-9906.583715,-5718.716171,-6123.573318,6181.240819,-17200.852001,-1528.725210,89.792000,-673.440002,-720.776001,0.000000,280.000000,-3780.000000
-4821.830073,-722.654250,-9873.346671,7445.120209,7366.330310,-10147.937852,2548.009461,-13072.462448,-3443.889730,-6625.928775,-9898.514736,-5713.932897,-6117.247774,6181.173763,-17186.569236,-1531.318013,93.208000,-666.608032,-735.903992,700.000000,-560.000000,-2940.000000
-4812.196471,-717.558052,-9864.115401,7453.815037,7374.667510,-10136.717276,2552.949196,-13056.257433,-3424.331954,-6617.926850,-9884.857820,-5706.422711,-6110.609306,6195.724749,-17154.494483,-1522.891405,86.863998,-671.976013,-723.216003,1120.000000,140.000000,-2240.000000
-4809.849538,-700.973058,-9870.843276,7451.825732,7372.924074,-10145.479160,2559.252388,-13082.051347,-3462.240513,-6613.300039,-9891.339826,-5702.980543,-6105.624867,6172.724804,-17189.050280,-1541.733926,83.936005,-662.703979,-731.023987,840.000000,-700.000000,-1540.000000
-4817.627945,-699.050808,-9887.875305,7442.750924,7363.804563,-10164.858122,2559.073574,-13114.573135,-3525.585356,-6621.793702,-9908.595372,-5710.267211,-6115.303173,6146.573263,-17259.055943,-1560.889371,83.447998,-663.679993,-724.192017,1400.000000,-1120.000000,-1120.000000
-4810.676552,-695.988619,-9885.863648,7447.891825,7367.425545,-10167.003890,2563.767441,-13113.790824,-3529.698077,-6620.653763,-9909.020055,-5707.786168,-6116.018428,6149.277824,-17268.220159,-1555.346138,78.568001,-659.288025,-724.679993,1680.000000,-1960.000000,-840.000000
-4811.481215,-690.311276,-9894.357311,7446.260148,7365.659757,-10176.101050,2570.204743,-13127.872423,-3555.491991,-6624.632373,-9927.326134,-5709.641362,-6123.059228,6134.972708,-17310.107328,-1559.481211,76.615997,-660.752014,-723.216003,1260.000000,-1960.000000,-700.000000
-4820.488968,-712.238337,-9891.719805,7442.438000,7361.167057,-10169.507285,2556.346662,-13109.164013,-3521.003249,-6637.395219,-9930.231861,-5717.710342,-6131.128208,6153.189379,-17289.007281,-1545.511370,76.615997,-658.312012,-733.463989,1400.000000,-2100.000000,-840.000000
-4813.917555,-718.809750,-9873.167857,7450.641090,7369.884237,-10147.222596,2552.770382,-13073.356518,-3447.309547,-6630.868510,-9909.131814,-5710.803653,-6121.226385,6186.158202,-17209.368015,-1524.321917,75.639999,-658.799988,-728.583984,1680.000000,-1260.000000,-1120.000000
-4814.096369,-713.713552,-9871.312663,7453.412706,7371.851191,-10143.981593,2556.234903,-13068.528541,-3431.976251,-6627.225176,-9901.755738,-5708.121444,-6115.392579,6187.923990,-17180.467210,-1524.679545,72.711998,-659.288025,-732.000000,1680.000000,-1820.000000,-1400.000000
-4817.538538,-716.865148,-9867.937549,7456.966633,7375.136897,-10138.348954,2557.419545,-13057.173855,-3429.450504,-6628.879205,-9894.133794,-5707.495595,-6112.352742,6196.060025,-17156.796712,-1520.678582,70.272003,-656.359985,-725.168030,1960.000000,-2100.000000,-1820.000000
-4811.749436,-704.705799,-9866.641148,7459.470029,7379.607246,-10138.058381,2565.600284,-13060.392506,-3443.442696,-6619.759693,-9888.434099,-5702.466452,-6104.909611,6188.773357,-17153.600413,-1526.847664,74.664001,-658.312012,-737.367981,2520.000000,-2100.000000,-2240.000000
-4812.487043,-689.081930,-9880.901561,7456.586654,7375.427470,-10156.029183,2571.948179,-13094.031882,-3509.268583,-6619.603231,-9903.812099,-5701.482976,-6109.290553,6159.380813,-17223.695484,-1548.104173,74.176003,-659.776001,-736.880005,2660.000000,-1820.000000,-2660.000000
-4823.439398,-698.112035,-9891.116308,7449.076468,7366.442068,-10166.758021,2561.018176,-13108.761681,-3537.811761,-6633.193092,-9912.797500,-5711.027171,-6117.270126,6149.367231,-17262.185188,-1554.250902,73.688004,-657.824036,-732.488037,3080.000000,-1680.000000,-3360.000000
-4817.203262,-688.098453,-9894.424366,7451.624567,7368.721946,-10170.311948,2569.802412,-13115.064873,-3551.826304,-6630.577937,-9924.979201,-5708.434368,-6118.767693,6139.644222,-17290.795421,-1553.557998,73.200005,-661.239990,-727.119995,3360.000000,-2100.000000,-3780.000000
-4814.923384,-695.072197,-9891.675102,7454.776162,7369.504257,-10169.708451,2568.841287,-13109.789861,-3536.627118,-6632.231967,-9930.388323,-5709.127272,-6125.853196,6148.160237,-17292.404746,-1542.873865,71.736000,-658.312012,-728.096008,3360.000000,-2240.000000,-4480.000000
-4812.017657,-714.026477,-9877.191171,7456.296081,7372.454688,-10149.524826,2556.793696,-13074.027070,-3463.603969,-6630.130903,-9912.015189,-5710.110749,-6120.153501,6181.576095,-17220.163908,-1522.176149,76.127998,-658.799988,-735.416016,2660.000000,-2240.000000,-5320.000000
-4808.083750,-711.165453,-9868.652805,7461.973424,7379.137859,-10137.454884,2561.129935,-13055.944509,-3425.851873,-6622.352495,-9898.067701,-5704.813386,-6110.765768,6193.690740,-17170.252463,-1514.688315,73.200005,-663.192017,-732.000000,2240.000000,-1540.000000,-6160.000000
-4812.934078,-715.054657,-9870.284482,7457.659538,7374.019310,-10137.745456,2556.525476,-13061.085410,-3429.562262,-6621.972516,-9890.356349,-5707.160319,-6109.357608,6190.270923,-17164.552768,-1522.600832,77.104004,-657.824036,-739.320007,1680.000000,-560.000000,-7140.000000
-4806.295610,-710.651363,-9863.221331,7461.638148,7378.064976,-10130.794064,2559.788830,-13054.804570,-3424.734285,-6614.372923,-9878.509924,-5701.371217,-6099.612248,6197.267019,-17141.485768,-1520.209196,74.664001,-667.096008,-731.512024,1540.000000,560.000000,-7420.000000
-4804.038084,-691.317104,-9875.805363,7459.917064,7376.299188,-10147.222596,2570.472964,-13083.839486,-3484.391091,-6609.768463,-9891.228067,-5698.510194,-6101.065111,6168.433269,-17197.052204,-1538.448219,71.248001,-664.168030,-728.583984,980.000000,140.000000,-8260.000000
-4810.073055,-693.954610,-9884.366081,7455.469067,7371.113583,-10160.410125,2568.506011,-13101.296199,-3528.982822,-6613.769426,-9902.001608,-5702.734673,-6108.329428,6156.206865,-17248.304754,-1545.198446,80.031998,-665.632019,-734.927979,140.000000,1960.000000,-8680.000000
-4810.587145,-691.697084,-9885.997759,7456.094915,7369.973644,-10165.841599,2570.003577,-13108.113481,-3539.555197,-6616.071655,-9910.182346,-5704.746330,-6114.140882,6151.177722,-17269.762429,-1547.545379,80.031998,-666.119995,-741.272034,-420.000000,2240.000000,-8820.000000
-4814.833977,-693.105244,-9894.312608,7455.826694,7366.553827,-10175.274035,2571.702310,-13117.814138,-3559.425898,-6625.615850,-9926.208547,-5708.188499,-6123.506263,6141.789990,-17304.921723,-1549.132353,73.200005,-669.536011,-728.583984,-140.000000,3220.000000,-8960.000000
-4821.025410,-719.927337,-9884.254323,7449.791723,7362.061126,-10164.031108,2552.569217,-13090.612065,-3504.798234,-6635.383562,-9915.457358,-5716.324534,-6123.550966,6165.013452,-17257.424266,-1534.536664,78.568001,-669.048035,-729.559998,-280.000000,2380.000000,-8680.000000
-4820.667782,-726.744619,-9872.787878,7449.679965,7366.665586,-10146.037954,2549.015289,-13063.655861,-3451.802248,-6633.014278,-9899.118233,-5716.458644,-6114.900841,6184.101842,-17192.157172,-1524.076047,81.496002,-668.072021,-730.048035,140.000000,2660.000000,-8400.000000
-4825.674573,-718.653288,-9872.229084,7454.887921,7373.549923,-10141.075866,2557.531304,-13058.447904,-3448.024803,-6634.131865,-9898.447680,-5712.971772,-6112.129225,6186.761700,-17172.375878,-1523.360792,78.568001,-670.512024,-727.119995,280.000000,3080.000000,-8120.000000
-4817.158558,-715.278174,-9861.030860,7462.554570,7379.540191,-10131.643430,2556.793696,-13052.077657,-3431.909195,-6621.950164,-9882.957921,-5704.031075,-6103.233230,6198.161089,-17140.971677,-1521.304431,81.496002,-669.048035,-726.632019,280.000000,3080.000000,-7700.000000
-4803.769863,-695.742750,-9865.881189,7465.303834,7379.875467,-10139.958279,2565.265008,-13074.742326,-3465.772088,-6608.449710,-9887.338863,-5695.649170,-6098.360550,6179.072699,-17169.067820,-1537.487094,82.472000,-671.976013,-717.359985,700.000000,3080.000000,-7000.000000
-4801.691151,-684.566877,-9876.833543,7466.890808,7378.936694,-10155.559797,2573.624560,-13099.619818,-3520.869138,-6608.002676,-9902.694512,-5694.933915,-6105.200184,6158.263225,-17230.602173,-1545.600777,82.472000,-668.072021,-734.927979,-140.000000,2940.000000,-6720.000000
-4801.534689,-686.064444,-9878.465221,7467.360195,7379.562542,-10159.136076,2574.429223,-13099.731576,-3526.904109,-6609.679056,-9905.779052,-5695.537412,-6107.167138,6159.850199,-17248.103589,-1541.756277,81.496002,-675.392029,-734.440002,-140.000000,4060.000000,-6160.000000
-4803.054607,-681.862316,-9890.356349,7464.499171,7375.695691,-10171.161314,2576.284418,-13114.193155,-3550.999290,-6614.596440,-9923.079303,-5697.839641,-6116.756036,6143.332260,-17291.242455,-1547.657138,83.936005,-672.952026,-736.880005,-700.000000,4200.000000,-5460.000000
-4808.910764,-705.197538,-9886.154221,7458.419497,7369.526609,-10167.182704,2558.961816,-13098.949265,-3516.801121,-6624.185339,-9917.424311,-5706.221545,-6122.165158,6158.978481,-17273.249301,-1537.285928,83.447998,-678.320007,-734.927979,-980.000000,4200.000000,-4900.000000
-4806.005038,-715.211119,-9871.066793,7462.062831,7376.768574,-10145.277994,2555.117316,-13059.744306,-3444.917911,-6621.905461,-9900.369930,-5703.405226,-6115.951373,6190.382682,-17196.024024,-1516.923489,81.008003,-675.880005,-722.239990,-980.000000,3500.000000,-4060.000000
-4802.361703,-708.706761,-9869.233950,7463.582750,7377.774403,-10140.114741,2556.994862,-13057.486779,-3426.567128,-6616.362228,-9891.965674,-5699.605429,-6110.005809,6192.193173,-17171.615919,-1520.790341,84.912003,-682.223999,-731.512024,-980.000000,2940.000000,-3500.000000
-4803.568697,-714.719381,-9866.261168,7461.369927,7376.500353,-10137.611346,2551.250464,-13053.083486,-3424.242547,-6614.708199,-9881.058023,-5700.521851,-6104.060245,6196.976447,-17157.154340,-1523.137274,83.447998,-682.223999,-738.343994,-140.000000,3080.000000,-2660.000000
-4803.367532,-708.974982,-9868.473991,7458.397145,7374.689862,-10140.427666,2554.647929,-13060.996003,-3445.543760,-6610.751940,-9879.672215,-5700.186574,-6099.053454,6187.298141,-17162.027021,-1532.145027,83.447998,-681.736023,-728.583984,280.000000,3080.000000,-1960.000000
-4804.373360,-693.887555,-9881.169782,7460.229988,7374.108717,-10155.939776,2569.400080,-13087.751041,-3513.560118,-6609.902574,-9895.251381,-5698.398435,-6103.903783,6161.325414,-17226.020065,-1543.186789,82.959999,-682.223999,-731.512024,700.000000,3220.000000,-1260.000000
-4811.794139,-701.487148,-9887.227105,7457.346613,7369.861885,-10162.622948,2565.779098,-13092.668425,-3538.549368,-6618.172719,-9906.382550,-5703.315819,-6112.553908,6156.430382,-17256.820769,-1542.449181,84.912003,-678.320007,-734.927979,1120.000000,3220.000000,-420.000000
-4813.247003,-695.854508,-9895.005512,7456.005508,7368.520781,-10169.842561,2570.674130,-13103.509021,-3558.665938,-6621.123150,-9923.235765,-5705.752159,-6117.270126,6144.606309,-17288.984929,-1545.198446,80.520004,-677.832031,-725.656006,1820.000000,2940.000000,280.000000
-4818.566718,-706.896270,-9898.246515,7455.066735,7367.671414,-10173.172971,2565.890856,-13102.637303,-3554.329700,-6631.449655,-9933.226995,-5711.340095,-6127.529577,6149.367231,-17299.222028,-1540.079896,83.936005,-681.247986,-725.168030,2240.000000,2380.000000,700.000000
-4818.834939,-725.783494,-9881.572113,7455.267901,7369.839534,-10153.034050,2553.105659,-13069.489666,-3482.737062,-6632.522539,-9916.619649,-5712.770607,-6122.120455,6181.106708,-17229.484585,-1520.343306,81.008003,-681.736023,-729.559998,2520.000000,2240.000000,1120.000000
-4817.113855,-728.018669,-9874.307796,7451.646918,7367.202028,-10143.467503,2547.852999,-13061.510093,-3451.198751,-6626.889900,-9904.147375,-5711.407150,-6112.777425,6187.454604,-17185.831629,-1519.896271,84.912003,-679.783997,-736.392029,3360.000000,1960.000000,1540.000000
-4816.778578,-726.968137,-9872.787878,7454.440886,7368.341967,-10140.517073,2547.115391,-13060.660727,-3451.489324,-6624.453559,-9897.106576,-5709.239031,-6108.441187,6187.253438,-17175.192198,-1523.964289,83.936005,-681.247986,-733.463989,3360.000000,2100.000000,1960.000000
-4812.755264,-724.062410,-9866.864665,7460.095878,7373.460516,-10132.358686,2549.395269,-13052.949375,-3446.437829,-6618.507995,-9886.377738,-5704.567516,-6098.628771,6194.495403,-17153.756875,-1523.316088,80.031998,-678.320007,-730.536011,4060.000000,1820.000000,2380.000000
-4812.822320,-704.526985,-9876.587674,7462.956901,7375.874505,-10143.154579,2566.226133,-13075.032899,-3504.261792,-6615.356399,-9903.141547,-5699.985409,-6100.931001,6172.411880,-17206.909324,-1535.810713,81.496002,-675.392029,-736.392029,5460.000000,1260.000000,2800.000000
-4819.281974,-709.198500,-9888.769375,7456.117267,7367.917284,-10156.923253,2560.749955,-13097.094071,-3549.836999,-6621.056094,-9914.607992,-5705.483938,-6109.089388,6158.084411,-17263.392182,-1548.461801,79.543999,-675.392029,-724.679993,5600.000000,1540.000000,2940.000000
-4818.410256,-707.678581,-9891.429233,7455.290253,7368.230208,-10158.420820,2565.063842,-13098.055196,-3558.934159,-6622.084275,-9922.520509,-5706.378008,-6112.911536,6153.122324,-17284.916912,-1545.153742,79.056000,-676.367981,-730.048035,6300.000000,1120.000000,2940.000000
-4823.886433,-712.372448,-9902.091015,7446.930700,7361.100001,-10172.055384,2560.146458,-13114.640190,-3578.648398,-6631.114379,-9936.445646,-5713.798787,-6122.075751,6139.845388,-17329.173366,-1551.769859,80.520004,-677.832031,-730.536011,6860.000000,1120.000000,3220.000000
-4832.603613,-737.339346,-9894.424366,7443.890863,7358.775420,-10159.583111,2541.728621,-13089.852105,-3521.986726,-6643.027859,-9924.979201,-5720.616069,-6123.662725,6165.236970,-17277.429077,-1538.895254,79.543999,-677.832031,-726.143982,6720.000000,980.000000,2940.000000
-4825.987497,-743.150800,-9882.041500,7446.953052,7361.614092,-10144.138055,2536.230092,-13066.472181,-3467.157896,-6634.936528,-9908.193041,-5718.112674,-6115.191414,6182.268999,-17211.357321,-1532.033268,81.984001,-679.296021,-726.632019,6300.000000,1260.000000,2660.000000
-4822.165349,-741.787343,-9881.058023,7444.673174,7359.825952,-10141.791122,2536.073629,-13068.260320,-3467.247303,-6630.555586,-9905.846108,-5715.676333,-6110.832824,6180.570266,-17196.962797,-1538.559978,76.615997,-677.343994,-721.752014,6580.000000,840.000000,2380.000000
-4814.901032,-739.283948,-9870.508000,7451.244587,7366.754993,-10130.794064,2539.672260,-13056.257433,-3449.678832,-6619.938507,-9891.876267,-5707.585002,-6102.070940,6193.869554,-17164.217492,-1533.754353,78.080002,-678.807983,-711.992004,7000.000000,-420.000000,2380.000000
-4810.743607,-719.748523,-9874.710128,7454.105610,7368.900760,-10138.684230,2549.842304,-13076.619873,-3483.832298,-6610.349609,-9895.072567,-5701.840604,-6098.271143,6173.708281,-17193.721794,-1548.215931,78.568001,-680.272034,-723.703979,6860.000000,-840.000000,1960.000000
-4815.884509,-713.378276,-9886.154221,7453.189189,7364.050432,-10154.822189,2555.229074,-13101.743233,-3542.595034,-6615.490510,-9910.785843,-5703.405226,-6106.094254,6152.876455,-17260.151179,-1558.318920,76.615997,-679.296021,-729.559998,6720.000000,140.000000,1960.000000
-4814.409293,-714.249994,-9886.064814,7456.832523,7365.369185,-10156.945605,2558.179505,-13099.396300,-3548.294729,-6617.859795,-9918.027808,-5702.242935,-6109.715236,6155.849237,-17274.076316,-1550.428754,73.688004,-680.272034,-718.824036,7420.000000,140.000000,1820.000000
-4815.236308,-709.533776,-9897.866535,7451.803380,7359.893007,-10172.100088,2557.754822,-13119.714036,-3573.731014,-6620.832577,-9933.830492,-5706.422711,-6117.694809,6136.626737,-17319.383302,-1560.084708,72.223999,-679.783997,-719.312012,6720.000000,280.000000,1540.000000
-4817.829110,-727.124599,-9890.736328,7452.630395,7361.010594,-10163.315852,2548.367089,-13098.479879,-3538.817589,-6628.208653,-9932.869367,-5710.893060,-6122.791007,6157.793839,-17293.857609,-1542.292719,74.664001,-682.223999,-721.264038,5180.000000,700.000000,840.000000
-4818.678477,-744.581311,-9878.107593,7449.456447,7361.256464,-10144.607442,2535.604243,-13067.813285,-3474.891600,-6626.845196,-9915.211489,-5713.172938,-6116.554870,6181.844316,-17225.751844,-1528.479341,73.200005,-679.296021,-716.384033,4340.000000,840.000000,420.000000
-4817.829110,-742.323785,-9875.581846,7449.478799,7363.066955,-10137.231366,2537.481789,-13063.901730,-3460.541780,-6619.960859,-9905.108500,-5710.066046,-6109.379960,6184.973560,-17203.936542,-1529.887501,75.152000,-682.712036,-725.656006,4200.000000,140.000000,280.000000
-4815.415122,-739.887445,-9869.882151,7458.061869,7369.660720,-10130.123512,2542.309766,-13054.402239,-3451.489324,-6616.026952,-9894.156145,-5702.958191,-6105.110777,6195.456528,-17179.908416,-1526.154760,74.664001,-682.223999,-715.408020,4340.000000,-420.000000,140.000000
-4806.608535,-723.458913,-9866.216465,7466.510828,7379.182563,-10125.094369,2555.340833,-13052.569396,-3460.139449,-6604.873431,-9888.031767,-5691.201173,-6095.611286,6194.562458,-17171.280643,-1524.858358,74.176003,-688.080017,-725.656006,3780.000000,-140.000000,0.000000
-4804.775692,-706.113959,-9878.822849,7465.572055,7377.595589,-10143.713372,2565.108545,-13086.097012,-3524.668935,-6601.453614,-9900.325227,-5689.636551,-6098.315847,6166.689833,-17236.011295,-1541.555112,76.615997,-685.640015,-731.023987,4340.000000,0.000000,-560.000000
-4810.967125,-714.898195,-9885.506020,7459.738250,7371.940598,-10150.843579,2558.581836,-13097.161126,-3553.010947,-6608.516766,-9908.081282,-5696.252667,-6105.535460,6160.856028,-17273.808095,-1545.153742,75.639999,-687.104004,-718.824036,4060.000000,140.000000,-700.000000
-4815.482177,-713.311221,-9896.748948,7456.273729,7366.732641,-10159.694869,2559.364147,-13110.773338,-3579.117784,-6613.255335,-9923.593393,-5702.153528,-6111.838652,6145.232158,-17311.068453,-1550.406402,80.520004,-686.127991,-724.192017,3500.000000,-420.000000,-1120.000000
-4827.060381,-732.958404,-9904.817927,7449.054116,7358.730717,-10165.774544,2549.462324,-13110.348655,-3582.358787,-6626.755789,-9935.395114,-5712.971772,-6122.634545,6145.232158,-17326.379398,-1546.450144,76.127998,-684.176025,-712.479980,2660.000000,140.000000,-1680.000000
-4826.702753,-751.845628,-9888.948189,7448.897654,7361.524685,-10149.524826,2536.341850,-13076.709280,-3510.185004,-6627.783969,-9914.898564,-5714.134063,-6117.538347,6175.876400,-17254.809112,-1529.172245,77.592003,-683.687988,-723.216003,2940.000000,-1260.000000,-1680.000000
-4823.864081,-746.816486,-9877.951131,7452.138657,7366.576179,-10138.773637,2536.788885,-13062.784143,-3469.080146,-6622.128978,-9899.878192,-5708.233202,-6108.217670,6187.991045,-17206.484640,-1525.640670,80.031998,-689.056030,-717.359985,3500.000000,-980.000000,-1820.000000
-4823.975840,-746.928244,-9876.945302,7451.736325,7365.592702,-10138.460712,2534.620766,-13065.108724,-3471.829411,-6616.541042,-9893.642055,-5707.316781,-6104.931963,6187.409900,-17198.616826,-1529.909853,83.936005,-688.567993,-727.608032,3640.000000,-980.000000,-1680.000000
-4819.818416,-745.944768,-9871.558532,7454.507942,7369.727775,-10127.597764,2536.922996,-13054.335183,-3468.923684,-6610.461367,-9890.132831,-5703.807557,-6099.388730,6194.182479,-17178.746126,-1525.663021,81.008003,-690.520020,-724.192017,3640.000000,-1120.000000,-1820.000000
-4812.509395,-724.509445,-9881.348596,7457.346613,7371.426507,-10139.243023,2552.256292,-13078.318605,-3524.691287,-6602.347684,-9903.432119,-5697.057330,-6099.724007,6168.097993,-17228.545812,-1537.308280,82.959999,-689.544006,-725.656006,3640.000000,-2520.000000,-1680.000000
-4808.776654,-715.859320,-9884.969578,7464.119192,7375.762746,-10146.864968,2562.828668,-13087.304006,-3560.342319,-6599.196088,-9911.255230,-5693.235182,-6103.948486,6162.443002,-17268.957766,-1532.882635,81.984001,-689.544006,-717.359985,4060.000000,-2240.000000,-1680.000000
-4806.295610,-712.506558,-9886.131869,7464.163895,7376.478002,-10148.384887,2566.427298,-13089.315663,-3568.858334,-6599.687827,-9914.004494,-5692.430519,-6105.289591,6160.319586,-17287.174438,-1529.149893,82.472000,-689.544006,-717.359985,5600.000000,-2800.000000,-1120.000000
-4809.693075,-714.741732,-9895.877230,7458.844180,7369.884237,-10161.706526,2560.839362,-13108.001722,-3587.075005,-6607.779158,-9928.756646,-5698.465490,-6114.744379,6146.640318,-17328.614572,-1537.822370,83.447998,-690.520020,-724.192017,5600.000000,-2940.000000,-1120.000000
-4809.760131,-736.132352,-9882.801459,7458.263035,7370.130106,-10147.982555,2545.215493,-13080.151448,-3523.618403,-6609.589649,-9915.569117,-5701.237106,-6113.850309,6175.988159,-17275.082144,-1521.974983,78.080002,-690.031982,-712.968018,5880.000000,-2800.000000,-840.000000
-4805.580354,-740.893273,-9867.535218,7462.107535,7376.165077,-10129.184738,2543.829685,-13053.619928,-3465.347405,-6601.230097,-9896.279561,-5696.878516,-6103.635562,6197.110557,-17209.435071,-1509.972097,78.080002,-692.960022,-717.848022,6440.000000,-3500.000000,-420.000000
-4807.144977,-739.216893,-9868.049308,7459.179456,7375.159249,-10126.793102,2542.645042,-13055.922157,-3465.615626,-6599.330199,-9892.457413,-5697.280848,-6100.103986,6193.131947,-17200.583780,-1517.191710,79.543999,-694.424011,-712.479980,7000.000000,-3500.000000,-140.000000
-4811.145939,-749.476343,-9865.747078,7453.725630,7371.135935,-10123.082712,2534.218435,-13049.373096,-3461.771126,-6601.520670,-9885.058985,-5700.275981,-6097.287666,6198.451662,-17182.501219,-1520.745638,81.008003,-697.840027,-713.944031,7140.000000,-3360.000000,280.000000
-4809.447206,-733.450143,-9871.580883,7455.938453,7373.706385,-10128.894166,2545.930749,-13064.169951,-3500.193775,-6596.603286,-9890.512811,-5695.157432,-6093.890201,6181.196115,-17209.792699,-1529.239300,78.568001,-695.400024,-717.359985,7560.000000,-3080.000000,560.000000
-4812.755264,-726.588157,-9886.735366,7454.642052,7369.012519,-10146.686154,2551.965720,-13091.908466,-3560.834057,-6600.000751,-9906.874288,-5698.554897,-6103.166175,6155.648071,-17275.819752,-1541.041021,81.008003,-693.936035,-720.288025,7560.000000,-3220.000000,840.000000
-4807.703770,-723.771837,-9886.668311,7459.984119,7372.186467,-10148.228425,2556.614883,-13094.590675,-3566.690214,-6599.665475,-9911.389340,-5696.543240,-6105.513108,6157.525618,-17290.303682,-1531.697992,78.568001,-691.007996,-711.504028,7280.000000,-2940.000000,700.000000
-4811.369456,-718.988564,-9897.173631,7457.279558,7369.124278,-10158.465524,2558.917112,-13110.058082,-3597.110939,-6603.666437,-9930.343620,-5699.225449,-6111.592783,6142.505246,-17335.655372,-1537.509446,80.031998,-689.056030,-713.455994,7000.000000,-3500.000000,700.000000
-4820.310154,-742.659061,-9893.351483,7451.602215,7363.156362,-10155.448038,2542.667394,-13095.350634,-3569.394776,-6613.724722,-9930.075399,-5707.272077,-6119.348838,6159.380813,-17318.623342,-1527.138236,87.840004,-687.104004,-723.216003,6300.000000,-4060.000000,280.000000
-4816.242137,-753.454954,-9878.107593,7455.826694,7369.392499,-10133.543328,2537.906472,-13060.168989,-3500.193775,-6610.327257,-9911.366989,-5703.427577,-6112.553908,6189.734482,-17238.760559,-1507.781626,81.008003,-691.984009,-717.359985,6440.000000,-3780.000000,280.000000
-4809.737779,-743.731945,-9871.335014,7462.196942,7377.550885,-10121.853366,2547.897702,-13048.970765,-3480.993626,-6600.112510,-9902.538050,-5694.911563,-6103.322637,6197.043502,-17204.182411,-1499.131501,80.031998,-690.520020,-716.872009,6300.000000,-4480.000000,140.000000
-4802.629924,-743.128448,-9863.735421,7464.365061,7381.730662,-10115.863099,2547.338909,-13042.779332,-3472.969350,-6592.535268,-9888.411747,-5690.910601,-6095.834803,6205.425406,-17184.669338,-1492.895364,79.056000,-688.080017,-715.895996,6720.000000,-4340.000000,280.000000
-4800.372398,-735.618262,-9863.713069,7463.158067,7381.596551,-10116.287782,2549.104696,-13047.696715,-3488.749682,-6586.656760,-9883.762584,-5689.211868,-6089.598666,6198.362255,-17186.971568,-1500.517309,77.592003,-696.376038,-711.504028,7000.000000,-4760.000000,420.000000
-4804.887450,-723.235395,-9878.845200,7461.213465,7377.282664,-10133.185701,2559.520609,-13078.318605,-3559.157677,-6587.461422,-9902.359236,-5690.642380,-6096.594762,6168.410917,-17255.971403,-1512.788416,78.080002,-701.744019,-714.432007,6720.000000,-5040.000000,560.000000
-4804.351008,-723.548320,-9882.421480,7463.135715,7378.601417,-10139.466541,2560.124106,-13087.147544,-3580.727110,-6588.556658,-9906.270791,-5691.581153,-6100.372207,6164.275845,-17284.581636,-1509.279193,76.127998,-701.744019,-712.479980,6720.000000,-4760.000000,700.000000
-4799.813604,-713.534738,-9889.439927,7464.052136,7378.489659,-10150.128323,2561.889894,-13104.626608,-3597.379160,-6586.902629,-9916.999628,-5690.262400,-6104.440225,6148.584920,-17314.823546,-1518.979850,73.688004,-699.791992,-702.720032,7000.000000,-5040.000000,700.000000
-4804.507471,-721.313145,-9891.920971,7465.683814,7376.142725,-10153.548140,2557.732470,-13102.950228,-3590.964209,-6594.703388,-9923.906317,-5692.966961,-6113.827957,6151.423592,-17322.624305,-1515.381219,77.104004,-699.304016,-712.479980,7000.000000,-5600.000000,700.000000
-4803.479290,-732.600776,-9871.871456,7474.915084,7384.569333,-10130.749360,2553.820914,-13059.923120,-3513.314249,-6596.893859,-9905.756701,-5689.323627,-6106.720103,6188.683950,-17242.269783,-1489.207326,78.568001,-696.864014,-716.872009,7140.000000,-5320.000000,560.000000
-4802.093482,-735.171227,-9864.785953,7473.104593,7385.463403,-10119.372322,2551.026946,-13044.120436,-3479.876039,-6590.702425,-9893.172669,-5688.161336,-6098.695826,6198.317551,-17199.041510,-1487.106262,77.104004,-695.888000,-710.528015,7140.000000,-5600.000000,140.000000
-4804.216898,-743.687242,-9867.870494,7466.533180,7379.853115,-10116.556003,2545.997804,-13044.321602,-3485.620437,-6589.115451,-9892.569171,-5693.212830,-6098.852289,6195.322418,-17195.129954,-1494.504690,81.008003,-694.911987,-718.335999,7280.000000,-5880.000000,0.000000
-4801.892317,-746.704727,-9865.031822,7464.834447,7380.121336,-10111.370398,2544.209664,-13041.505282,-3481.150088,-6582.678149,-9882.466183,-5693.972790,-6094.560754,6197.512889,-17176.622710,-1498.371541,81.008003,-694.911987,-711.992004,7420.000000,-6440.000000,0.000000
-4797.511375,-725.738791,-9876.118288,7465.661462,7380.948351,-10124.826148,2558.939464,-13071.054288,-3534.570758,-6575.570294,-9893.642055,-5687.535487,-6095.566582,6172.233066,-17228.970495,-1513.280155,82.472000,-694.424011,-720.288025,7980.000000,-6440.000000,-280.000000
-4799.724197,-724.107113,-9885.818945,7463.739212,7377.617941,-10136.404352,2560.526438,-13088.443945,-3577.441404,-6579.504201,-9906.606067,-5689.010702,-6102.227402,6161.124249,-17279.105458,-1516.588213,85.400002,-696.864014,-724.192017,8400.000000,-6160.000000,-280.000000
-4803.479290,-725.872901,-9890.333997,7461.213465,7376.165077,-10141.500549,2560.928769,-13090.656768,-3593.311142,-6583.102832,-9917.245497,-5692.542278,-6105.222536,6154.128153,-17300.920761,-1514.911832,85.400002,-692.960022,-716.872009,9100.000000,-6300.000000,-280.000000
-4810.296572,-728.421000,-9900.481689,7456.720764,7371.068879,-10154.173989,2557.620711,-13108.560515,-3616.579308,-6592.624675,-9935.663335,-5698.823118,-6116.376056,6140.314775,-17344.618421,-1520.723286,86.863998,-694.424011,-715.408020,9520.000000,-6580.000000,280.000000
-4811.525918,-748.716384,-9889.216410,7457.748944,7371.560618,-10141.411143,2542.823856,-13083.258341,-3556.542522,-6598.257315,-9923.928669,-5702.242935,-6118.946507,6168.477973,-17291.018938,-1500.226736,81.496002,-691.496033,-711.992004,9940.000000,-6300.000000,700.000000
-4805.110968,-751.778573,-9874.888942,7461.928721,7378.176734,-10122.076884,2540.074592,-13055.743343,-3497.377455,-6592.848193,-9908.707131,-5696.878516,-6109.871699,6191.723787,-17223.829594,-1484.714625,81.496002,-689.056030,-709.552002,9660.000000,-6160.000000,1260.000000
-4805.110968,-748.381108,-9875.224218,7463.113363,7380.523667,-10114.410235,2546.333080,-13046.400314,-3498.763263,-6590.858888,-9908.282448,-5695.045673,-6104.641390,6194.651865,-17207.959856,-1483.485279,81.496002,-691.007996,-711.504028,9520.000000,-6160.000000,1680.000000
-4803.144014,-751.711518,-9868.675157,7464.856799,7383.071766,-10108.017636,2545.707231,-13036.051456,-3490.649580,-6584.622751,-9893.195020,-5692.497574,-6096.684169,6205.157185,-17180.198989,-1480.780718,80.520004,-689.544006,-712.479980,8540.000000,-5180.000000,2240.000000
-4799.880660,-735.126523,-9871.446773,7467.181381,7384.524630,-10114.477290,2556.301958,-13053.172893,-3526.792351,-6575.190315,-9896.324265,-5687.870763,-6091.789137,6187.812232,-17207.065786,-1493.565916,77.104004,-689.544006,-706.135986,7840.000000,-5320.000000,2660.000000
-4806.809700,-732.332555,-9887.763546,7461.526389,7375.203952,-10134.839730,2556.279606,-13084.286521,-3590.517174,-6580.331216,-9913.266887,-5693.123423,-6101.176870,6162.532409,-17278.278444,-1512.319030,78.568001,-688.080017,-708.575989,6860.000000,-5320.000000,3080.000000
-4810.967125,-737.965195,-9894.267904,7457.704241,7370.398327,-10141.768770,2550.512856,-13089.427422,-3604.196442,-6585.807393,-9919.950058,-5698.554897,-6108.642353,6158.419688,-17302.820659,-1514.598908,76.127998,-689.544006,-709.552002,5180.000000,-5460.000000,2940.000000
-4809.558965,-726.364640,-9901.420462,7459.872360,7369.124278,-10152.810532,2556.793696,-13104.492498,-3622.636631,-6587.081443,-9933.137588,-5697.280848,-6114.006771,6143.041687,-17343.478482,-1518.622222,76.615997,-689.056030,-718.824036,4060.000000,-5740.000000,2940.000000
-4818.432607,-743.217855,-9897.039520,7461.213465,7370.465382,-10146.306175,2547.897702,-13085.202943,-3590.405415,-6598.056149,-9931.237689,-5701.192403,-6119.013562,6163.202961,-17318.511584,-1500.673771,77.104004,-692.471985,-717.359985,2800.000000,-5460.000000,2940.000000
-4809.514261,-753.119678,-9877.951131,7465.884979,7378.824935,-10122.009828,2541.415696,-13051.496512,-3518.969240,-6589.249562,-9911.523451,-5695.760929,-6110.117568,6193.869554,-17239.744036,-1481.406567,75.639999,-691.984009,-719.312012,2240.000000,-6020.000000,3080.000000
-4798.561907,-742.323785,-9866.976424,7474.356291,7386.603342,-10112.778558,2547.629481,-13045.238023,-3495.969295,-6574.229190,-9900.638151,-5685.300313,-6096.974742,6201.692665,-17209.725643,-1478.813765,75.152000,-689.056030,-713.944031,1540.000000,-6020.000000,2940.000000
-4794.829165,-743.642538,-9860.226197,7475.518581,7388.391481,-10107.168270,2544.656699,-13042.064076,-3490.582525,-6565.757879,-9886.578904,-5681.768737,-6090.112757,6209.292258,-17195.822858,-1478.724358,73.200005,-692.960022,-718.335999,840.000000,-6440.000000,3080.000000
-4795.544421,-740.937977,-9862.237854,7470.601198,7387.832688,-10103.591991,2549.261159,-13043.047552,-3510.721446,-6561.376937,-9881.907389,-5682.685159,-6085.240076,6203.570211,-17197.141611,-1482.948838,72.223999,-694.424011,-715.895996,840.000000,-6300.000000,2800.000000
-4798.897183,-729.538587,-9881.572113,7464.096840,7378.556714,-10125.563756,2553.709156,-13077.983329,-3577.553162,-6565.087326,-9899.833488,-5688.094281,-6092.236172,6169.372042,-17269.382449,-1507.491053,74.176003,-696.376038,-714.919983,560.000000,-6580.000000,2660.000000
-4800.707674,-729.918567,-9888.165878,7466.689642,7378.981397,-10133.476273,2556.257255,-13085.739384,-3598.832023,-6571.099945,-9910.674085,-5689.636551,-6099.388730,6163.784106,-17295.533990,-1506.060541,73.200005,-697.840027,-717.848022,140.000000,-6720.000000,2660.000000
-4799.567735,-721.983698,-9896.257209,7468.276616,7380.188391,-10140.561776,2564.505048,-13097.049367,-3614.679410,-6572.776326,-9926.297954,-5688.451909,-6105.222536,6152.340013,-17322.311380,-1506.149948,73.688004,-696.864014,-722.728027,140.000000,-6440.000000,2380.000000
-4809.067227,-739.552169,-9904.750872,7458.508904,7370.755955,-10146.350878,2551.362223,-13100.893867,-3614.545299,-6586.209725,-9938.524358,-5699.583077,-6118.097141,6150.417763,-17342.472654,-1504.831195,74.664001,-701.255981,-714.432007,280.000000,-6020.000000,2100.000000
-4804.932154,-757.008881,-9887.651788,7459.648843,7373.572275,-10129.385904,2538.487618,-13066.449829,-3540.784543,-6584.399233,-9917.446663,-5699.560726,-6112.665667,6180.860839,-17272.511694,-1483.842907,77.104004,-694.911987,-718.824036,560.000000,-5880.000000,1680.000000
-4800.864136,-755.354852,-9878.398166,7461.504038,7376.142725,-10119.729950,2538.688783,-13053.172893,-3503.367722,-6576.866696,-9903.387416,-5695.068025,-6103.680265,6190.606200,-17223.248449,-1480.758367,72.223999,-696.864014,-717.848022,980.000000,-5600.000000,1540.000000
-4800.841785,-750.884503,-9874.128982,7467.784878,7382.065938,-10112.420930,2544.477885,-13045.573300,-3502.831281,-6574.609169,-9898.514736,-5689.994179,-6099.835765,6198.988104,-17206.842268,-1476.310370,73.200005,-699.791992,-719.312012,1820.000000,-5600.000000,1400.000000
-4797.153747,-748.202294,-9866.261168,7471.271750,7386.759804,-10103.189659,2547.025984,-13037.370209,-3494.807004,-6566.160210,-9883.695529,-5685.054443,-6090.649198,6207.213546,-17180.556617,-1476.243314,73.688004,-697.351990,-720.288025,1540.000000,-5040.000000,1120.000000
-4797.265505,-732.489018,-9878.174648,7466.823753,7380.747185,-10120.199337,2552.412755,-13073.758849,-3554.463810,-6560.348756,-9891.540991,-5684.339188,-6088.861059,6176.077566,-17235.810129,-1499.556184,73.688004,-698.328003,-714.432007,1960.000000,-5320.000000,840.000000
-4804.127491,-732.891349,-9888.434099,7467.047270,7377.908513,-10130.570546,2555.854923,-13086.164068,-3600.351942,-6569.311806,-9910.808195,-5687.982522,-6098.382902,6165.393432,-17289.834295,-1501.299620,72.223999,-695.400024,-719.312012,2660.000000,-5600.000000,700.000000
-4802.853442,-729.493884,-9891.183363,7469.327148,7378.824935,-10133.632735,2559.006519,-13088.131021,-3611.304296,-6570.094117,-9920.844128,-5686.529659,-6102.942658,6160.967786,-17310.688473,-1501.009047,73.688004,-695.888000,-718.335999,2800.000000,-5040.000000,560.000000
-4806.407369,-732.131390,-9900.705206,7462.085183,7372.521743,-10145.434457,2554.335005,-13106.884135,-3635.064201,-6575.413832,-9935.283355,-5691.759967,-6112.352742,6145.343917,-17355.146093,-1508.832158,72.223999,-696.864014,-718.824036,3640.000000,-5040.000000,700.000000
-4810.296572,-755.243093,-9889.059948,7458.531256,7371.180638,-10131.129340,2537.325327,-13080.598483,-3578.916619,-6582.275818,-9923.459282,-5696.163260,-6113.850309,6172.121307,-17309.906162,-1491.040169,68.807999,-696.376038,-719.799988,4200.000000,-4900.000000,700.000000
-4806.787349,-760.719271,-9876.587674,7460.609968,7376.098022,-10114.320828,2533.905510,-13055.028088,-3521.494987,-6578.833649,-9908.796538,-5693.726920,-6105.401350,6193.802499,-17242.962687,-1478.322027,66.368004,-695.888000,-720.288025,5040.000000,-4760.000000,700.000000
-4799.947715,-751.733870,-9871.759697,7466.421421,7381.909476,-10108.375264,2543.919092,-13050.066000,-3512.666048,-6571.368166,-9900.749910,-5685.747348,-6096.862983,6199.233973,-17223.539021,-1474.276361,67.344002,-695.400024,-715.408020,5600.000000,-4760.000000,420.000000
-4803.144014,-756.405384,-9870.351538,7467.851933,7384.301112,-10099.769843,2544.008499,-13038.353686,-3505.379379,-6574.095079,-9891.362177,-5685.479127,-6093.689036,6209.336961,-17197.633350,-1469.403680,63.928001,-696.864014,-714.919983,5740.000000,-4900.000000,560.000000
-4800.327694,-737.786381,-9874.576017,7471.227046,7388.056205,-10103.927267,2556.950159,-13052.211768,-3543.310290,-6565.914341,-9896.525430,-5680.137060,-6091.006826,6191.723787,-17218.152251,-1477.830288,64.903999,-698.815979,-714.919983,6020.000000,-4900.000000,420.000000
-4800.394750,-731.125561,-9886.377738,7466.443773,7382.758842,-10120.691075,2558.380670,-13081.045518,-3605.917526,-6564.662643,-9915.524413,-5681.656978,-6097.198259,6168.723842,-17286.503886,-1495.197594,63.928001,-699.304016,-713.455994,6020.000000,-5040.000000,420.000000
-4803.076959,-742.457896,-9892.993855,7455.938453,7372.521743,-10130.078808,2546.198970,-13091.059100,-3622.144892,-6566.361376,-9919.078340,-5690.284752,-6101.176870,6160.364289,-17314.130642,-1503.020704,62.952000,-699.791992,-714.919983,6160.000000,-4900.000000,0.000000
-4804.753340,-736.601739,-9903.767395,7457.525427,7370.063051,-10140.762942,2552.390403,-13108.560515,-3648.497599,-6566.987224,-9931.528262,-5692.430519,-6107.077731,6143.265205,-17350.318116,-1509.502710,63.928001,-696.864014,-716.384033,6440.000000,-5040.000000,-140.000000
-4810.229517,-754.304320,-9902.426291,7458.531256,7370.241865,-10134.347991,2545.282548,-13088.779222,-3617.406323,-6575.704405,-9930.500082,-5699.046636,-6114.722027,6161.928911,-17324.524203,-1493.320047,62.464001,-700.768005,-714.432007,6440.000000,-4900.000000,-560.000000
-4807.502604,-767.916533,-9888.747023,7459.537084,7374.600455,-10112.532689,2537.325327,-13054.692811,-3545.970147,-6571.278759,-9911.746968,-5697.593772,-6107.636524,6190.852069,-17247.701257,-1473.717567,63.440002,-699.791992,-711.992004,6440.000000,-5040.000000,-840.000000
-4805.178023,-764.764937,-9886.936532,7459.291215,7376.254484,-10105.938924,2538.465266,-13048.188454,-3526.993516,-6566.294320,-9905.197907,-5695.246839,-6102.786196,6192.774319,-17219.359245,-1474.812803,63.440002,-700.768005,-715.408020,6720.000000,-5040.000000,-980.000000
-4799.165404,-762.730928,-9881.236837,7464.074488,7379.853115,-10101.513279,2538.599377,-13044.679230,-3515.571775,-6561.689861,-9890.959846,-5691.849374,-6098.673475,6200.977409,-17198.885047,-1470.677730,61.976002,-703.695984,-714.432007,6720.000000,-5180.000000,-1400.000000
-4790.850555,-749.766916,-9876.744136,7466.913160,7385.239885,-10097.154688,2547.271853,-13046.780294,-3522.791388,-6552.011556,-9885.796593,-5684.450946,-6090.939771,6198.026979,-17195.755803,-1471.549448,62.464001,-700.768005,-713.944031,6860.000000,-5040.000000,-1820.000000
-4789.420043,-731.416134,-9888.724671,7466.711994,7382.870601,-10112.465633,2558.112449,-13076.709280,-3584.191630,-6547.630614,-9902.962733,-5679.377100,-6095.544230,6169.953188,-17265.470894,-1486.033378,63.440002,-701.744019,-713.455994,7280.000000,-5320.000000,-2380.000000
-4795.834994,-736.154704,-9893.373834,7464.879151,7380.501316,-10119.573488,2557.196028,-13083.727727,-3614.366485,-6553.464419,-9910.584678,-5683.445118,-6102.160347,6164.968749,-17296.472764,-1487.754463,60.512001,-700.768005,-715.895996,7280.000000,-5320.000000,-2520.000000
-4799.075997,-731.080858,-9899.833488,7464.677985,7379.182563,-10127.597764,2563.499220,-13094.233047,-3634.550111,-6556.347794,-9923.861614,-5685.210906,-6106.250716,6152.518827,-17326.647619,-1491.710721,62.464001,-701.744019,-709.552002,7700.000000,-5460.000000,-2940.000000
-4806.966163,-744.916587,-9904.884983,7459.760601,7371.314749,-10132.604555,2553.016252,-13096.267056,-3632.091419,-6568.194219,-9937.295012,-5692.229353,-6115.124359,6152.407068,-17347.322982,-1489.162623,61.976002,-701.255981,-707.600037,8120.000000,-5600.000000,-3500.000000
-4807.502604,-765.994282,-9893.597352,7455.916101,7368.721946,-10117.494776,2533.659641,-13066.762753,-3560.208209,-6569.714137,-9920.933535,-5696.207964,-6111.615135,6177.552781,-17282.949958,-1474.455175,63.440002,-703.208008,-709.552002,8260.000000,-5740.000000,-3780.000000
-4807.234383,-770.285817,-9887.696491,7452.988023,7370.331272,-10106.609476,2531.424467,-13048.255509,-3526.501778,-6564.506181,-9907.969523,-5697.973752,-6103.188527,6185.688816,-17234.826652,-1469.247218,64.903999,-702.231995,-705.160034,8400.000000,-5600.000000,-4340.000000
-4809.402503,-772.073957,-9886.981235,7451.713973,7372.678205,-10103.413177,2534.263138,-13043.516939,-3529.943947,-6564.059146,-9903.007436,-5697.884345,-6101.176870,6187.946342,-17221.661475,-1468.464907,63.440002,-704.184021,-704.184021,8680.000000,-5740.000000,-4620.000000
-4798.785424,-763.177963,-9876.252398,7459.984119,7380.903647,-10093.891334,2538.867597,-13036.722009,-3515.124740,-6552.123314,-9886.802421,-5688.228391,-6091.140937,6197.557592,-17193.319463,-1464.732166,67.344002,-701.744019,-705.160034,8400.000000,-5740.000000,-5040.000000
-4792.236363,-740.334480,-9886.824773,7463.761564,7381.797717,-10106.743587,2552.815086,-13065.935739,-3568.187781,-6545.730715,-9898.447680,-5680.628798,-6092.414986,6172.568342,-17242.739170,-1479.596076,66.368004,-701.744019,-702.231995,8820.000000,-6020.000000,-5320.000000
-4800.618267,-743.217855,-9897.687721,7459.157104,7375.248656,-10121.629849,2551.719851,-13086.834620,-3620.580270,-6554.425544,-9911.366989,-5684.942685,-6101.489794,6157.771487,-17299.087918,-1489.073216,66.368004,-700.768005,-704.184021,8960.000000,-6440.000000,-5600.000000
-4802.048779,-744.827180,-9900.280523,7457.659538,7373.996958,-10124.893203,2552.748031,-13088.890980,-3631.577329,-6554.805524,-9915.457358,-5688.071929,-6103.792024,6152.384717,-17320.165613,-1487.776814,67.344002,-701.255981,-702.231995,9100.000000,-6440.000000,-5740.000000
-4800.908840,-740.379183,-9908.394207,7458.307738,7372.119411,-10135.264413,2555.273778,-13100.893867,-3642.820256,-6559.544094,-9929.740123,-5689.167164,-6113.045646,6141.030030,-17356.666011,-1489.944934,69.295998,-703.208008,-703.208008,8960.000000,-6580.000000,-6020.000000
-4803.144014,-757.232399,-9896.480727,7460.051174,7373.661682,-10121.920421,2542.868560,-13072.507152,-3580.481241,-6566.629597,-9916.485538,-5689.904772,-6114.409103,6170.109650,-17303.401804,-1469.940122,67.832001,-698.815979,-700.768005,8820.000000,-6300.000000,-6020.000000
-4798.561907,-763.334425,-9883.226142,7463.023956,7377.819106,-10104.307247,2539.448743,-13045.103913,-3524.020734,-6560.102887,-9899.609971,-5685.993217,-6106.898917,6191.902601,-17233.664362,-1458.540733,67.344002,-699.791992,-705.160034,8820.000000,-6160.000000,-6300.000000
-4792.415177,-756.092460,-9879.538104,7465.169724,7382.110641,-10099.613380,2545.439010,-13041.952317,-3520.600917,-6553.173846,-9897.285390,-5680.315874,-6100.595725,6192.394339,-17215.335931,-1458.518381,70.272003,-700.280029,-702.720032,8540.000000,-5740.000000,-6580.000000
-4793.376302,-764.317902,-9875.894770,7460.811133,7381.417737,-10093.310188,2538.331156,-13036.923174,-3517.963412,-6549.552864,-9886.802421,-5681.969903,-6095.253658,6200.306857,-17195.979321,-1456.260855,67.832001,-702.720032,-700.280029,8400.000000,-5740.000000,-6720.000000
-4786.313151,-743.061393,-9877.369985,7468.366023,7388.525592,-10094.874811,2554.424412,-13047.920233,-3553.480334,-6538.466399,-9886.757718,-5673.923275,-6089.777480,6188.035749,-17216.207649,-1462.385233,73.200005,-699.791992,-697.351990,8120.000000,-5320.000000,-6720.000000
-4789.442395,-732.176093,-9889.797555,7469.304796,7387.631522,-10108.844651,2562.560447,-13072.171875,-3614.299430,-6540.500407,-9900.079358,-5673.789164,-6096.483004,6166.689833,-17281.452391,-1473.225829,70.272003,-701.744019,-694.424011,7840.000000,-5460.000000,-7000.000000
-4795.812642,-739.865093,-9893.440890,7463.716860,7382.982359,-10111.504508,2555.989034,-13074.854085,-3630.236224,-6547.183579,-9908.014227,-5678.952417,-6100.506318,6163.314720,-17305.480517,-1473.114070,74.664001,-699.304016,-700.768005,7140.000000,-5040.000000,-7140.000000
-4796.885526,-735.551207,-9903.074491,7459.045346,7377.215609,-10124.803796,2555.162019,-13095.507097,-3654.599625,-6548.748201,-9922.609916,-5681.902848,-6107.524765,6145.478028,-17348.909956,-1481.741843,76.615997,-697.351990,-704.184021,6580.000000,-4760.000000,-7560.000000
-4805.692113,-755.578370,-9902.627457,7458.106572,7376.545057,-10121.473386,2546.109563,-13080.732594,-3626.928166,-6561.376937,-9924.822739,-5690.038882,-6116.756036,6162.465353,-17326.491156,-1468.755480,77.592003,-702.720032,-704.671997,6720.000000,-4760.000000,-7560.000000
-4800.282991,-766.642483,-9885.908352,7462.889846,7383.518801,-10100.954485,2541.348641,-13048.076695,-3555.849618,-6558.471210,-9904.370893,-5687.200211,-6108.910574,6192.148470,-17249.288231,-1448.527151,77.104004,-698.815979,-704.184021,7140.000000,-4200.000000,-7560.000000
-4793.800985,-760.383995,-9879.001663,7464.163895,7385.463403,-10094.070148,2544.097906,-13040.164177,-3537.029450,-6548.032945,-9892.479765,-5680.762909,-6100.238097,6196.305894,-17221.773234,-1448.437744,75.152000,-703.208008,-705.160034,7140.000000,-3920.000000,-7420.000000
-4796.170270,-764.116736,-9875.090107,7463.359232,7383.474098,-10090.382110,2542.622691,-13035.738532,-3535.978918,-6546.423620,-9882.421480,-5680.382929,-6098.137033,6202.296162,-17204.897667,-1448.929483,78.568001,-703.208008,-706.135986,7560.000000,-3360.000000,-7420.000000
-4797.019636,-754.863114,-9874.821886,7467.337843,7388.212667,-10087.878715,2551.183409,-13034.308020,-3549.412316,-6543.830817,-9876.990006,-5677.052519,-6091.655027,6198.675179,-17196.694576,-1451.678747,81.496002,-701.744019,-704.671997,7560.000000,-3500.000000,-7420.000000
-4803.501642,-740.714460,-9893.262076,7465.236779,7383.854077,-10107.302380,2559.408851,-13064.996966,-3617.383971,-6549.888140,-9896.503079,-5677.991292,-6099.098158,6167.785068,-17265.716763,-1468.666073,81.496002,-700.280029,-703.695984,7980.000000,-3500.000000,-7560.000000
-4800.797081,-739.798038,-9895.072567,7467.114325,7383.921133,-10115.170195,2557.911284,-13071.344861,-3638.729887,-6549.999899,-9904.996741,-5677.141926,-6104.909611,6164.007624,-17297.322130,-1469.470736,81.008003,-703.695984,-701.255981,8120.000000,-3360.000000,-7560.000000
-4797.109043,-734.634785,-9900.146413,7463.850971,7382.334159,-10121.227517,2561.129935,-13082.498381,-3656.477172,-6546.893006,-9919.123044,-5676.560781,-6109.715236,6151.512999,-17328.525165,-1473.002311,81.496002,-704.671997,-703.208008,8400.000000,-3640.000000,-7420.000000
-4798.673665,-745.721250,-9903.163898,7459.090049,7377.752051,-10127.061323,2552.971548,-13089.986216,-3653.638500,-6552.547998,-9924.800387,-5682.618103,-6119.102969,6152.630586,-17346.965354,-1471.460041,86.863998,-703.208008,-703.695984,8260.000000,-3640.000000,-7420.000000
-4796.662008,-767.313035,-9888.456451,7454.664404,7376.679167,-10112.018599,2536.073629,-13058.693774,-3581.397662,-6552.257425,-9905.376721,-5685.836755,-6115.549042,6182.559572,-17282.815848,-1454.048032,84.424004,-704.671997,-699.304016,8260.000000,-3920.000000,-7420.000000
-4796.729064,-771.001073,-9882.242666,7450.551683,7375.650987,-10100.730968,2531.849150,-13042.265241,-3543.310290,-6546.468323,-9892.591523,-5686.015568,-6107.010675,6191.835546,-17238.112359,-1450.941140,83.447998,-703.695984,-701.255981,8260.000000,-3640.000000,-7280.000000
-4795.410311,-768.944713,-9881.281541,7451.915139,7375.874505,-10097.422909,2534.151379,-13039.985363,-3544.897264,-6545.082515,-9887.092994,-5683.199249,-6103.367341,6192.930781,-17226.757673,-1452.908093,84.424004,-701.744019,-701.744019,8120.000000,-3920.000000,-7140.000000
-4791.141127,-765.234323,-9873.681947,7455.714936,7380.836592,-10090.493869,2537.571196,-13032.363419,-3540.449266,-6539.539282,-9873.659596,-5677.991292,-6095.968914,6199.859822,-17201.433146,-1452.036375,85.888000,-704.671997,-702.231995,8260.000000,-3920.000000,-7000.000000
-4792.906915,-746.347099,-9884.544895,7457.212503,7382.647083,-10102.474404,2552.636272,-13056.235082,-3599.659038,-6537.549977,-9887.942360,-5674.794993,-6095.276009,6174.892923,-17251.232833,-1468.040224,86.863998,-704.671997,-705.648010,8260.000000,-3920.000000,-6720.000000
-4798.584258,-746.660024,-9894.983160,7453.658575,7377.103850,-10116.421892,2551.272816,-13074.339995,-3646.664756,-6544.791942,-9903.230954,-5679.332397,-6104.596687,6159.716089,-17304.832316,-1477.204439,86.375999,-704.184021,-708.088013,8540.000000,-3920.000000,-6580.000000
-4797.556078,-743.575483,-9897.933590,7456.027860,7376.656816,-10120.579317,2553.597397,-13078.720937,-3653.370279,-6545.171922,-9909.064759,-5678.863010,-6107.927097,6154.910464,-17320.858517,-1475.997445,86.863998,-705.160034,-707.600037,9100.000000,-3920.000000,-6300.000000
-4802.629924,-742.055564,-9906.203736,7454.776162,7374.287531,-10130.838767,2558.023042,-13094.121289,-3673.553905,-6550.983375,-9924.062779,-5681.679330,-6115.951373,6143.578129,-17356.196625,-1478.858468,86.863998,-703.695984,-707.600037,9100.000000,-3780.000000,-6020.000000
-4811.883546,-769.615265,-9899.587619,7448.629433,7370.040699,-10121.294573,2537.839417,-13070.294329,-3624.670640,-6562.829800,-9917.647829,-5691.424691,-6120.846405,6169.439098,-17311.917819,-1464.642759,86.863998,-702.720032,-708.088013,9660.000000,-3920.000000,-5880.000000
-4809.402503,-779.025350,-9886.154221,7446.126037,7370.241865,-10105.782462,2526.238862,-13048.635489,-3568.478354,-6558.493562,-9900.079358,-5691.961133,-6111.726893,6188.460432,-17250.942260,-1458.719547,88.328003,-704.184021,-710.528015,10080.000000,-3780.000000,-5460.000000
-4808.463729,-776.477251,-9883.516715,7444.941395,7370.890066,-10103.033197,2526.372972,-13051.787085,-3563.918598,-6553.822047,-9895.877230,-5689.904772,-6107.323600,6186.538182,-17240.436940,-1466.117974,86.863998,-703.695984,-707.600037,10780.000000,-4060.000000,-5040.000000
-4809.871889,-781.171117,-9879.001663,7447.400087,7373.974606,-10094.047796,2526.350621,-13037.370209,-3554.754383,-6553.732640,-9885.327206,-5688.988351,-6103.255582,6197.870517,-17214.285399,-1457.758422,88.328003,-704.671997,-708.088013,11340.000000,-4200.000000,-4620.000000
-4809.626020,-760.875733,-9884.321378,7454.776162,7378.467307,-10097.020578,2542.868560,-13048.233157,-3589.354883,-6550.715154,-9889.641093,-5683.020435,-6099.947524,6183.587752,-17230.266897,-1462.228771,83.936005,-702.231995,-704.671997,11900.000000,-4480.000000,-4480.000000
-4813.202299,-751.689166,-9897.128927,7452.831561,7373.907551,-10116.466596,2549.752897,-13079.838524,-3655.493695,-6552.235073,-9905.644942,-5685.166202,-6108.083559,6157.324452,-17296.986854,-1478.634951,85.888000,-701.744019,-705.160034,12600.000000,-4760.000000,-4200.000000
-4814.118721,-758.439393,-9900.414634,7448.584729,7368.721946,-10123.507395,2544.142609,-13087.840448,-3671.341082,-6557.264216,-9916.284372,-5689.390682,-6114.543213,6153.211731,-17323.093691,-1478.322027,85.888000,-702.231995,-710.528015,13300.000000,-5040.000000,-3780.000000
-4812.308229,-753.678471,-9911.791672,7447.288328,7364.542170,-10134.370343,2548.769420,-13103.911353,-3696.352684,-6557.979471,-9932.399980,-5691.178821,-6120.935812,6135.956184,-17365.450247,-1486.323951,85.888000,-705.648010,-709.064026,13860.000000,-5040.000000,-3640.000000
-4815.437474,-770.442280,-9909.109462,7446.573072,7363.625749,-10127.709523,2540.007536,-13082.543085,-3662.199219,-6565.735527,-9930.589489,-5695.157432,-6126.859024,6154.865760,-17345.870119,-1471.571800,81.008003,-700.768005,-704.671997,14560.000000,-5320.000000,-3500.000000
-4813.179948,-785.306190,-9893.217372,7444.472008,7366.643234,-10107.950581,2527.356449,-13050.669497,-3592.506479,-6564.081498,-9909.623553,-5695.492708,-6117.359533,6183.028958,-17273.875150,-1456.931407,84.912003,-702.231995,-704.184021,14980.000000,-5460.000000,-3500.000000
-4806.072093,-775.806698,-9886.489497,7449.143523,7372.320577,-10100.529802,2532.296185,-13043.226366,-3568.612465,-6553.665585,-9899.900544,-5688.451909,-6108.262373,6189.935647,-17243.588536,-1456.417317,83.447998,-699.791992,-705.648010,15400.000000,-5740.000000,-3360.000000
-4805.200375,-774.733815,-9883.293198,7451.825732,7373.482868,-10096.774709,2532.005612,-13039.203052,-3562.130459,-6551.318652,-9891.116308,-5685.546182,-6105.267239,6196.529412,-17224.656609,-1455.635006,84.424004,-699.304016,-703.208008,15680.000000,-5880.000000,-3220.000000
-4799.120700,-764.340253,-9879.515753,7454.619700,7374.756917,-10094.651293,2535.581891,-13044.366305,-3570.601770,-6542.333250,-9883.807288,-5680.047653,-6096.125376,6191.746139,-17219.269838,-1462.496991,84.424004,-701.744019,-701.255981,15960.000000,-5880.000000,-3220.000000
-4797.287857,-747.107058,-9891.071605,7455.312604,7373.460516,-10111.459805,2547.383612,-13074.921140,-3633.209006,-6539.539282,-9899.855840,-5677.857182,-6100.349855,6164.253493,-17282.547627,-1478.858468,81.496002,-699.304016,-700.280029,15960.000000,-6020.000000,-3220.000000
-4803.345180,-750.772745,-9895.832526,7453.479761,7372.588798,-10118.567660,2548.501199,-13080.956111,-3661.372204,-6545.462495,-9909.511794,-5680.092356,-6106.541289,6160.364289,-17316.097595,-1478.009102,83.936005,-701.255981,-702.720032,15820.000000,-5880.000000,-3220.000000
-4802.607572,-743.575483,-9900.995779,7453.658575,7373.639330,-10125.675514,2555.385537,-13089.717995,-3678.225419,-6546.356564,-9919.346561,-5679.377100,-6109.894050,6148.964900,-17344.640773,-1480.668960,81.008003,-699.304016,-700.280029,15400.000000,-6160.000000,-3220.000000
-4808.731950,-755.176038,-9904.661465,7448.920005,7368.811353,-10131.464616,2550.244635,-13089.449774,-3680.125318,-6558.359451,-9927.303782,-5686.797880,-6119.929984,6148.987251,-17360.443456,-1477.338550,82.959999,-699.304016,-705.648010,14840.000000,-5740.000000,-3360.000000
-4809.000171,-772.520992,-9889.998721,7450.037593,7370.912417,-10112.398578,2538.487618,-13054.223425,-3607.728017,-6562.516876,-9912.238707,-5689.010702,-6115.951373,6178.960941,-17288.850819,-1455.679709,84.912003,-701.255981,-698.815979,14280.000000,-5740.000000,-3360.000000
-4805.714465,-767.938884,-9882.734404,7456.340785,7378.936694,-10097.132337,2542.287414,-13031.156424,-3564.142116,-6555.431373,-9904.192079,-5683.199249,-6108.217670,6194.026016,-17234.916059,-1445.844942,83.936005,-700.280029,-702.720032,13720.000000,-5180.000000,-3780.000000
-4802.741683,-764.697881,-9880.834506,7457.860703,7380.948351,-10096.126508,2541.862731,-13035.067980,-3562.286921,-6546.736544,-9893.552648,-5680.293522,-6101.422739,6195.344769,-17224.343684,-1451.164657,85.888000,-699.304016,-705.648010,13160.000000,-5040.000000,-3780.000000
-4809.447206,-769.816431,-9881.303892,7453.479761,7377.886162,-10091.544401,2536.967699,-13031.826977,-3562.845714,-6549.195236,-9885.818945,-5684.138022,-6097.354722,6196.171784,-17207.646931,-1454.964454,81.496002,-700.280029,-702.231995,12460.000000,-5040.000000,-3640.000000
-4811.123587,-752.292663,-9895.586657,7452.026898,7373.728737,-10106.810642,2547.294205,-13060.481913,-3623.575404,-6547.518855,-9898.559439,-5683.869801,-6098.248791,6167.360385,-17259.793551,-1475.036320,83.936005,-698.815979,-698.328003,11900.000000,-5180.000000,-3500.000000
-4808.888413,-748.314053,-9903.230954,7453.435058,7371.985301,-10119.573488,2551.339871,-13078.318605,-3666.490753,-6548.390573,-9911.277582,-5683.623932,-6104.909611,6157.167990,-17306.754566,-1479.484317,84.912003,-702.231995,-697.351990,11200.000000,-4900.000000,-3500.000000
-4809.849538,-752.158553,-9907.097805,7448.361212,7366.889103,-10124.893203,2547.517723,-13087.482820,-3678.694806,-6550.111657,-9919.346561,-5688.094281,-6109.335257,6148.696679,-17329.016904,-1483.284114,84.424004,-705.160034,-702.231995,10640.000000,-5040.000000,-3360.000000
-4813.537575,-750.102192,-9915.435006,7447.064811,7364.922150,-10133.431570,2551.473981,-13098.502230,-3698.811376,-6555.140800,-9935.953907,-5691.558801,-6119.348838,6138.303118,-17366.456075,-1485.072253,86.375999,-703.695984,-702.231995,10080.000000,-4900.000000,-3080.000000
-4815.616288,-769.257637,-9901.532221,7445.991927,7368.900760,-10118.433549,2537.548845,-13067.545064,-3639.467494,-6560.661681,-9922.699323,-5692.363464,-6119.035914,6168.075641,-17318.489232,-1466.252085,83.447998,-702.231995,-700.280029,9520.000000,-4480.000000,-2940.000000
-4813.984610,-778.243038,-9888.009416,7443.555587,7371.270045,-10102.429700,2527.647022,-13043.360477,-3583.968113,-6558.985300,-9906.315494,-5691.245877,-6110.251678,6186.873458,-17257.044286,-1459.814782,83.936005,-703.208008,-704.184021,9100.000000,-4200.000000,-2800.000000
-4813.582279,-776.007864,-9886.735366,7441.432171,7370.353624,-10101.110947,2528.094057,-13043.673401,-3580.190668,-6555.520780,-9901.398111,-5691.000008,-6106.988324,6185.554705,-17245.577841,-1465.156849,86.863998,-703.208008,-704.184021,8260.000000,-3640.000000,-2800.000000
-4815.146901,-780.612323,-9882.488535,7443.309718,7372.030005,-10093.980741,2527.043525,-13033.838634,-3569.908866,-6552.905625,-9887.987064,-5690.664731,-6102.450919,6194.808328,-17218.129899,-1460.284169,87.351997,-700.768005,-703.208008,8120.000000,-3780.000000,-2520.000000
-4810.967125,-758.886428,-9886.713014,7451.222235,7378.713176,-10097.042930,2545.237845,-13044.388657,-3599.837852,-6545.820122,-9890.848087,-5681.791089,-6099.165213,6181.710205,-17230.713931,-1466.944989,83.936005,-703.695984,-703.208008,7700.000000,-3500.000000,-2380.000000
-4811.972953,-743.799000,-9898.268866,7453.569168,7378.042624,-10114.007904,2555.944330,-13071.322509,-3655.158419,-6545.730715,-9905.957866,-5678.550086,-6106.697751,6159.738440,-17292.248284,-1479.394910,85.400002,-705.160034,-699.791992,7140.000000,-3220.000000,-1960.000000
-4808.620192,-741.161494,-9897.844183,7459.090049,7379.562542,-10117.986514,2557.687766,-13074.518809,-3662.020405,-6543.204968,-9906.181384,-5676.717243,-6110.050513,6160.990138,-17309.347368,-1475.483355,85.888000,-702.720032,-703.208008,6860.000000,-3080.000000,-1680.000000
-4808.284915,-736.422925,-9906.583715,7456.117267,7373.125240,-10130.794064,2557.106621,-13094.456565,-3688.171946,-6546.311861,-9922.431102,-5680.494688,-6116.309001,6143.220501,-17357.068343,-1488.268553,87.351997,-701.744019,-705.160034,6580.000000,-2800.000000,-1260.000000
-4817.315020,-761.233361,-9906.270791,7446.818941,7364.184542,-10131.017581,2538.442914,-13084.130059,-3663.517971,-6559.208817,-9926.052085,-5692.408167,-6124.847367,6154.284615,-17349.178177,-1482.054768,84.424004,-704.184021,-702.720032,6160.000000,-2800.000000,-980.000000
-4822.455921,-778.801832,-9893.038558,7445.231968,7366.620882,-10110.275162,2529.435161,-13047.495550,-3598.630857,-6561.578102,-9911.523451,-5695.380949,-6120.108798,6183.923028,-17274.344537,-1463.011082,83.936005,-701.744019,-703.208008,6020.000000,-2800.000000,-560.000000
-4817.963221,-772.699806,-9886.444794,7447.735363,7370.398327,-10101.759148,2532.765571,-13041.058247,-3578.603694,-6554.850227,-9903.074491,-5691.961133,-6112.352742,6188.102804,-17242.761522,-1462.899323,86.375999,-702.231995,-703.208008,5740.000000,-2520.000000,-140.000000
-4810.944773,-766.933056,-9876.699433,7457.056040,7378.981397,-10093.623113,2537.615900,-13030.485872,-3566.109069,-6547.205931,-9889.462279,-5683.534525,-6104.574335,6199.546897,-17219.828632,-1459.278340,86.375999,-700.768005,-704.184021,5460.000000,-2520.000000,0.000000
-4805.803872,-755.198390,-9873.659596,7460.632320,7384.032891,-10087.878715,2544.947272,-13027.356628,-3573.082813,-6538.801675,-9882.063852,-5676.739595,-6096.527707,6199.435139,-17212.430204,-1462.742861,83.936005,-700.768005,-706.135986,5460.000000,-2240.000000,280.000000
-4810.207166,-743.799000,-9889.574038,7455.871398,7378.936694,-10106.274200,2552.233941,-13059.431381,-3642.864960,-6541.729753,-9898.961770,-5678.661845,-6101.400387,6171.026071,-17284.492229,-1482.591210,83.936005,-698.328003,-707.600037,5320.000000,-1820.000000,700.000000
-4818.298497,-747.151762,-9897.598314,7453.435058,7373.527571,-10117.137148,2548.300034,-13072.104820,-3670.402309,-6552.950329,-9907.880116,-5682.528696,-6108.418835,6162.465353,-17321.573773,-1485.139309,85.888000,-699.791992,-708.575989,5320.000000,-1820.000000,840.000000
-4818.387904,-741.720288,-9905.488480,7451.624567,7371.091231,-10124.803796,2550.602263,-13084.353576,-3690.965914,-6556.593663,-9921.715846,-5685.009740,-6114.029123,6148.629623,-17350.563985,-1488.223849,85.400002,-700.280029,-711.015991,5740.000000,-1820.000000,1120.000000
-4821.159520,-754.572541,-9910.070587,7445.835465,7364.609225,-10132.179872,2539.627557,-13091.774355,-3694.631600,-6563.634463,-9932.779960,-5693.168127,-6125.204995,6146.796780,-17371.127590,-1489.833175,84.912003,-697.840027,-711.015991,5600.000000,-1540.000000,1260.000000
-4813.515224,-769.369396,-9888.434099,7449.657613,7369.012519,-10111.057474,2529.591623,-13058.872588,-3618.345096,-6556.638367,-9910.964657,-5690.508269,-6119.147673,6181.039653,-17297.545647,-1468.688425,83.936005,-699.304016,-709.064026,5600.000000,-1540.000000,1540.000000
-4807.837881,-767.178925,-9875.827715,7453.636224,7374.756917,-10097.333502,2533.480827,-13043.002849,-3574.066290,-6548.122352,-9898.067701,-5685.032092,-6108.731760,6194.026016,-17240.772216,-1462.027605,85.888000,-697.351990,-711.992004,5880.000000,-1680.000000,1680.000000
-4811.727084,-769.168230,-9877.124116,7450.886959,7372.879371,-10096.081805,2534.486656,-13044.746285,-3578.111956,-6548.725849,-9895.094919,-5686.194382,-6106.921268,6192.908429,-17228.232888,-1466.162678,83.936005,-697.351990,-713.944031,5880.000000,-1540.000000,1820.000000
-4812.263526,-771.738681,-9873.860761,7451.870436,7375.092193,-10087.856363,2535.693650,-13032.274012,-3573.932180,-6544.546073,-9882.801459,-5684.249781,-6099.724007,6200.239801,-17205.724681,-1464.374538,85.888000,-696.376038,-714.432007,6020.000000,-1400.000000,2100.000000
-4803.747511,-745.631843,-9879.940436,7459.335918,7378.377900,-10099.881601,2550.557560,-13058.961995,-3621.474340,-6533.951346,-9886.087166,-5676.091394,-6094.627809,6176.926932,-17253.557414,-1479.216096,87.351997,-694.911987,-712.968018,6440.000000,-1400.000000,1960.000000
-4800.819433,-734.903006,-9884.656654,7463.895674,7380.568371,-10109.939886,2558.224208,-13075.569341,-3658.332367,-6533.124332,-9893.016206,-5672.135135,-6098.986399,6167.293330,-17300.965464,-1480.713663,84.912003,-696.864014,-714.919983,6300.000000,-1540.000000,1820.000000
-4800.417101,-734.165398,-9887.897657,7462.778087,7380.903647,-10113.627924,2558.224208,-13079.436192,-3665.887256,-6535.739486,-9900.593448,-5672.291597,-6102.741492,6163.672348,-17319.137432,-1480.445442,84.424004,-696.376038,-711.504028,6440.000000,-1120.000000,1820.000000
-4800.193584,-732.556073,-9895.586657,7460.453506,7380.523667,-10123.440340,2561.331101,-13091.483783,-3684.506260,-6541.170960,-9915.904393,-5675.554952,-6109.938754,6153.278786,-17356.286032,-1483.395873,88.328003,-694.911987,-713.944031,6720.000000,-980.000000,1820.000000
-4799.925363,-749.163419,-9880.633340,7463.672157,7384.837554,-10110.744549,2552.368051,-13062.024184,-3622.010782,-6546.021288,-9898.715901,-5675.622007,-6107.167138,6183.453641,-17303.491211,-1463.860448,90.767998,-695.400024,-711.504028,7000.000000,-840.000000,1680.000000
-4790.425872,-747.464686,-9862.550779,7474.535105,7395.052301,-10091.633808,2555.944330,-13029.971782,-3554.642624,-6537.527625,-9881.125078,-5666.726013,-6098.204088,6207.615877,-17227.852908,-1446.180218,89.304001,-695.888000,-712.968018,7000.000000,-700.000000,1540.000000
-4780.635808,-735.238282,-9857.096953,7482.849954,7402.406025,-10086.582313,2563.700386,-13025.367323,-3542.438572,-6528.072837,-9877.884075,-5658.947606,-6094.069015,6209.426368,-17207.781042,-1446.426087,88.328003,-696.864014,-711.992004,7140.000000,-420.000000,1540.000000
-4772.790345,-732.287852,-9848.335069,7491.254209,7410.452653,-10075.182924,2568.170734,-13010.145785,-3528.044048,-6520.808520,-9867.266997,-5652.890283,-6087.654065,6223.127988,-17174.678108,-1437.306575,92.720001,-696.864014,-710.528015,7000.000000,-560.000000,1540.000000
-4766.107174,-712.461855,-9852.648956,7494.182288,7412.419607,-10079.675624,2579.056034,-13025.344971,-3555.469639,-6511.577250,-9868.451639,-5644.374269,-6081.954370,6206.833566,-17192.201876,-1447.588378,94.183998,-696.864014,-711.015991,7280.000000,-420.000000,1400.000000
-4776.657197,-709.779645,-9870.619758,7487.968503,7403.970647,-10098.898125,2580.575953,-13056.615061,-3624.469474,-6519.914451,-9888.344692,-5650.297481,-6090.604495,6178.759775,-17263.995679,-1465.089794,89.304001,-696.376038,-709.552002,7000.000000,-420.000000,1400.000000
-4786.804889,-721.111980,-9877.951131,7480.301855,7397.935676,-10106.587125,2573.199877,-13061.532445,-3646.262425,-6529.704515,-9899.677026,-5658.746440,-6099.165213,6173.507115,-17289.700185,-1467.995521,96.624001,-697.840027,-709.064026,7140.000000,-280.000000,1400.000000
-4790.381168,-715.725209,-9892.144488,7475.943264,7393.867659,-10118.344142,2577.312598,-13076.865742,-3675.207934,-6535.806541,-9917.200794,-5662.054498,-6108.150614,6157.346804,-17331.699113,-1475.416300,92.720001,-698.815979,-706.624023,7140.000000,-140.000000,1680.000000
-4798.852479,-737.428753,-9891.585695,7470.444735,7386.603342,-10116.108968,2560.928769,-13069.601425,-3652.029175,-6546.803599,-9916.820814,-5671.933969,-6114.587917,6169.886132,-17323.183098,-1468.129631,92.720001,-701.744019,-710.039978,7000.000000,280.000000,1820.000000
-4797.623133,-754.550189,-9877.057061,7466.779049,7386.603342,-10097.042930,2547.651833,-13040.007715,-3580.749462,-6545.417791,-9895.787823,-5673.655054,-6108.798815,6196.305894,-17255.524368,-1454.428012,93.695999,-700.280029,-709.552002,7000.000000,420.000000,1960.000000
-4798.025465,-751.175076,-9874.732479,7467.181381,7389.732586,-10086.939941,2550.088173,-13031.223480,-3559.872932,-6541.461532,-9890.356349,-5670.659920,-6101.914478,6201.178575,-17226.511803,-1457.445497,94.183998,-700.768005,-710.039978,6860.000000,560.000000,2240.000000
-4806.116796,-763.110907,-9877.839372,7459.626491,7382.468269,-10086.090575,2542.086249,-13030.776445,-3562.666900,-6545.440143,-9887.025939,-5677.276036,-6101.668608,6201.223278,-17215.559449,-1463.234599,93.695999,-701.744019,-707.112000,6580.000000,840.000000,2520.000000
-4808.799006,-761.143954,-9880.409823,7455.424363,7380.456612,-10084.928284,2543.762629,-13033.056323,-3579.900095,-6543.473189,-9884.321378,-5678.371272,-6097.824108,6195.076548,-17212.094928,-1469.917771,93.208000,-702.720032,-710.528015,6440.000000,980.000000,2800.000000
-4813.649334,-745.698899,-9896.368968,7455.200846,7379.271970,-10100.328636,2556.369013,-13058.224387,-3651.269215,-6547.004765,-9906.382550,-5678.818307,-6104.283762,6166.488667,-17275.931510,-1484.781681,92.720001,-701.744019,-706.624023,6160.000000,1120.000000,3360.000000
-4817.605593,-748.559922,-9902.426291,7455.625529,7377.573237,-10108.330561,2555.229074,-13068.595596,-3680.482945,-6553.218550,-9915.345599,-5681.634627,-6110.430492,6160.274882,-17310.129679,-1485.139309,93.695999,-702.720032,-707.112000,6160.000000,1120.000000,3780.000000
-4819.080808,-742.480247,-9908.662428,7455.558474,7375.494525,-10115.840747,2558.783002,-13079.324434,-3698.520803,-6554.917282,-9924.979201,-5683.333359,-6114.543213,6148.987251,-17339.745741,-1488.872050,90.767998,-705.648010,-702.720032,6160.000000,1400.000000,4340.000000
-4824.132302,-753.052622,-9914.250364,7450.328165,7368.140801,-10125.161424,2545.818990,-13086.767565,-3698.364341,-6562.941559,-9931.908242,-5689.860069,-6124.534443,6146.036821,-17362.656279,-1491.710721,89.304001,-702.720032,-704.184021,5600.000000,1120.000000,4900.000000
-4824.802855,-774.487945,-9899.542916,7448.383564,7368.721946,-10107.727064,2529.971603,-13054.134018,-3629.856244,-6565.355547,-9915.367951,-5692.944609,-6120.332315,6177.441022,-17297.277426,-1472.220000,89.792000,-705.160034,-708.575989,6160.000000,1400.000000,5740.000000
-4826.076904,-781.662855,-9892.993855,7442.214482,7368.029042,-10096.305322,2525.188330,-13042.265241,-3596.216869,-6562.025137,-9906.091977,-5695.179784,-6113.179757,6186.560534,-17253.020972,-1469.403680,89.304001,-703.208008,-707.600037,6160.000000,1400.000000,6440.000000
-4827.507416,-783.719216,-9890.848087,7437.230043,7364.631577,-10095.075976,2522.774341,-13046.489721,-3599.837852,-6559.767611,-9899.989951,-5697.258496,-6109.961106,6184.213601,-17246.471911,-1473.806974,88.328003,-702.231995,-707.600037,6160.000000,1260.000000,7000.000000
-4819.974878,-780.053530,-9882.667349,7442.169779,7368.163153,-10086.470555,2525.836530,-13038.353686,-3587.142061,-6552.436239,-9886.735366,-5691.067063,-6102.674437,6191.522621,-17220.454481,-1470.878896,87.351997,-703.695984,-708.575989,6580.000000,980.000000,7980.000000
-4813.850500,-756.807716,-9890.848087,7447.556549,7370.107754,-10099.255752,2541.952138,-13063.946434,-3636.204140,-6543.517893,-9893.552648,-5684.026263,-6100.260448,6166.466316,-17267.191978,-1486.927448,84.912003,-700.768005,-711.015991,6860.000000,840.000000,8540.000000
-4822.746494,-749.990433,-9899.386454,7451.535160,7371.739432,-10108.710540,2550.669319,-13077.804515,-3680.862925,-6551.609224,-9907.164861,-5684.070967,-6106.720103,6156.519789,-17313.303627,-1489.453195,82.472000,-701.744019,-707.600037,7840.000000,560.000000,9520.000000
-4825.316945,-747.799962,-9903.700340,7454.284424,7375.114545,-10108.397616,2556.078441,-13076.195189,-3692.888164,-6558.717079,-9920.508852,-5684.115670,-6111.145748,6156.206865,-17328.413406,-1483.306466,80.520004,-701.255981,-707.600037,7980.000000,420.000000,10080.000000
-4819.863119,-742.949634,-9910.964657,7456.340785,7372.678205,-10120.735779,2558.492429,-13092.556666,-3707.796777,-6560.058184,-9936.244480,-5683.333359,-6120.108798,6143.891054,-17363.349183,-1487.262724,78.080002,-701.744019,-708.088013,8540.000000,280.000000,10780.000000
-4818.276145,-765.524896,-9899.252343,7455.156142,7372.700557,-10108.755244,2544.656699,-13067.232140,-3649.659890,-6562.338062,-9926.834396,-5688.004874,-6120.667591,6169.729670,-17312.253095,-1467.816707,76.127998,-700.768005,-709.064026,9380.000000,140.000000,11340.000000
-4808.910764,-769.078823,-9881.862686,7457.860703,7379.473135,-10090.270351,2540.365164,-13041.527634,-3582.559953,-6551.229245,-9904.706169,-5682.305179,-6108.418835,6194.249534,-17241.934507,-1454.472715,74.176003,-704.184021,-706.624023,9380.000000,-140.000000,11620.000000
-4808.217860,-765.256675,-9880.789802,7456.564302,7377.886162,-10087.766956,2540.588682,-13044.567471,-3575.027415,-6545.440143,-9897.419500,-5679.935894,-6103.166175,6191.477918,-17232.278554,-1460.664148,73.688004,-702.231995,-709.552002,9940.000000,-140.000000,12180.000000
-4810.028352,-770.755204,-9877.057061,7456.474895,7377.953217,-10082.179020,2536.341850,-13038.286631,-3567.427822,-6543.048506,-9885.617779,-5680.002949,-6098.025274,6200.284505,-17211.491431,-1460.172410,70.272003,-700.280029,-707.600037,10780.000000,-140.000000,12320.000000
-4809.447206,-757.098288,-9883.740232,7454.619700,7376.366243,-10088.683377,2541.862731,-13056.726820,-3603.123558,-6538.846378,-9890.244590,-5678.415975,-6096.147728,6183.587752,-17235.810129,-1473.784622,68.320000,-701.744019,-708.575989,11200.000000,-140.000000,12320.000000
-4815.348067,-752.136201,-9897.866535,7447.958880,7369.683071,-10105.871869,2543.136781,-13087.728690,-3669.865867,-6541.886215,-9905.063797,-5683.623932,-6103.635562,6157.369156,-17306.463993,-1491.911887,70.272003,-700.768005,-708.088013,11200.000000,280.000000,12040.000000
-4813.850500,-752.605588,-9897.911238,7449.925834,7371.515914,-10108.084692,2544.388478,-13089.047443,-3679.879448,-6543.383782,-9908.014227,-5682.841621,-6105.200184,6158.732612,-17325.462976,-1486.636875,67.344002,-699.304016,-703.208008,11200.000000,420.000000,11760.000000
-4816.666820,-744.670718,-9908.416558,7449.925834,7369.548961,-10119.372322,2552.368051,-13102.391434,-3704.332257,-6548.301166,-9926.856747,-5684.920333,-6112.799777,6142.505246,-17362.410410,-1489.676713,65.391998,-699.304016,-704.184021,11480.000000,560.000000,11200.000000
-4827.686230,-764.429660,-9906.673122,7446.058982,7364.966853,-10117.785349,2539.806371,-13088.600408,-3678.314826,-6563.165076,-9926.499120,-5692.028188,-6118.991210,6156.519789,-17348.820549,-1479.171393,66.368004,-698.815979,-707.600037,10920.000000,840.000000,10640.000000
-4830.167273,-780.388806,-9891.652750,7445.053154,7367.202028,-10098.920476,2530.373935,-13053.351707,-3613.293602,-6567.814239,-9913.892736,-5693.793976,-6113.738550,6185.353540,-17272.846970,-1459.032471,66.856003,-698.815979,-704.671997,10220.000000,980.000000,10080.000000
-4821.494796,-774.063262,-9883.024977,7450.484628,7373.818144,-10088.616322,2536.319499,-13043.516939,-3589.891325,-6555.923111,-9905.667294,-5685.188554,-6105.289591,6190.807365,-17237.330048,-1454.137439,64.416000,-700.280029,-704.184021,9660.000000,1400.000000,9100.000000
-4815.728046,-775.851402,-9875.671253,7450.708145,7375.494525,-10084.771822,2533.525531,-13038.867776,-3583.208154,-6546.200102,-9891.876267,-5681.120536,-6100.506318,6198.295200,-17222.801414,-1455.657358,65.391998,-699.304016,-707.600037,9100.000000,1540.000000,8400.000000
-4808.866061,-767.827126,-9874.017224,7450.819904,7377.729699,-10083.095441,2535.112504,-13040.879433,-3588.192593,-6537.482922,-9885.215448,-5676.337263,-6092.996132,6195.434176,-17218.867507,-1463.145192,65.879997,-704.671997,-703.208008,8400.000000,1540.000000,7420.000000
-4809.313096,-751.465649,-9889.819907,7448.450619,7374.399289,-10101.557982,2542.376821,-13074.898788,-3649.972814,-6536.208872,-9901.308704,-5675.487897,-6097.980571,6164.186438,-17288.739060,-1486.569820,65.391998,-705.648010,-701.744019,7840.000000,1680.000000,6580.000000
-4811.056532,-753.901989,-9894.759642,7446.908348,7370.912417,-10110.901011,2539.158170,-13087.818097,-3676.772556,-6541.997974,-9910.182346,-5679.690025,-6105.289591,6156.653900,-17326.357046,-1491.844832,64.903999,-708.575989,-702.720032,7700.000000,1400.000000,5740.000000
-4807.435549,-745.073050,-9897.173631,7451.356346,7373.773441,-10115.617229,2548.300034,-13094.903600,-3690.474175,-6542.087381,-9921.358218,-5677.879534,-6108.597649,6149.166065,-17350.005192,-1489.497899,67.832001,-711.015991,-701.744019,7140.000000,980.000000,4760.000000
-4813.314058,-755.310149,-9902.403939,7448.540026,7368.453725,-10123.328581,2542.712097,-13098.748100,-3694.005751,-6552.503294,-9930.924765,-5684.518002,-6119.438245,6148.540217,-17369.004174,-1485.273419,70.760002,-707.600037,-701.744019,7280.000000,980.000000,4200.000000
-4815.325715,-774.555001,-9887.450622,7449.747020,7370.040699,-10104.374302,2532.318536,-13062.381811,-3628.246919,-6557.308919,-9917.334904,-5686.931990,-6116.465463,6182.179592,-17299.959636,-1461.804087,72.711998,-711.992004,-703.208008,7420.000000,700.000000,3360.000000
-4812.576450,-773.325655,-9876.542971,7454.284424,7376.254484,-10088.683377,2535.134856,-13042.175834,-3587.834965,-6552.212721,-9903.365064,-5681.053481,-6108.329428,6197.646999,-17246.181339,-1454.450363,77.104004,-711.504028,-696.864014,7420.000000,560.000000,2660.000000
-4811.168291,-768.944713,-9873.123154,7456.832523,7378.646121,-10085.643540,2538.286452,-13041.259413,-3586.650322,-6547.742372,-9895.363140,-5676.918409,-6104.395521,6198.518717,-17234.513728,-1456.618483,79.543999,-710.528015,-702.720032,7840.000000,280.000000,2100.000000
-4807.681418,-766.128393,-9865.009471,7459.917064,7382.915304,-10079.385052,2538.822894,-13032.005791,-3576.726148,-6540.031021,-9882.913218,-5672.202190,-6095.097196,6206.252421,-17209.971513,-1454.562122,81.984001,-709.552002,-704.184021,8120.000000,280.000000,1540.000000
-4803.456939,-747.710556,-9876.140639,7458.732421,7381.305978,-10091.991436,2548.367089,-13059.878416,-3630.750314,-6532.006744,-9891.675102,-5669.005891,-6092.437338,6179.653845,-17260.151179,-1474.254009,82.959999,-708.575989,-700.768005,8260.000000,420.000000,980.000000
-4805.066264,-746.257692,-9886.422442,7454.507942,7376.254484,-10105.536593,2549.194103,-13081.157277,-3682.159326,-6536.767666,-9902.113366,-5672.336301,-6099.165213,6163.113554,-17313.504793,-1485.631047,84.424004,-708.575989,-702.231995,8820.000000,700.000000,840.000000
-4809.626020,-746.660024,-9890.423404,7453.502113,7373.974606,-10110.342218,2549.954063,-13083.973597,-3696.464443,-6544.456666,-9912.417521,-5676.605484,-6105.378998,6157.056231,-17332.056741,-1484.871088,86.863998,-711.015991,-698.328003,9100.000000,1120.000000,420.000000
-4814.051666,-744.246035,-9899.542916,7453.211540,7372.633502,-10123.708561,2552.859789,-13101.095033,-3717.117455,-6551.050431,-9927.080265,-5678.706548,-6115.102007,6144.226330,-17370.591148,-1489.564954,89.792000,-710.039978,-703.208008,9380.000000,1260.000000,420.000000
-4818.253794,-766.329559,-9889.998721,7452.876264,7374.712214,-10111.258639,2540.722792,-13073.110649,-3662.534495,-6557.957120,-9917.536070,-5682.483993,-6118.700638,6173.350653,-17320.255020,-1471.281227,90.767998,-710.528015,-698.815979,9660.000000,1400.000000,700.000000
-4820.690134,-777.304265,-9879.940436,7449.121171,7375.583932,-10091.589104,2532.363240,-13043.159311,-3607.392741,-6560.482867,-9905.242611,-5683.825098,-6114.498510,6194.182479,-17256.463141,-1459.881837,93.208000,-711.015991,-701.744019,9660.000000,1400.000000,980.000000
-4823.640564,-773.325655,-9877.839372,7447.847122,7377.729699,-10086.805831,2534.061972,-13040.991192,-3604.554070,-6559.164114,-9901.800442,-5682.573400,-6109.648181,6192.349636,-17243.409722,-1462.072308,91.744003,-711.992004,-699.791992,9940.000000,1400.000000,1400.000000
-4817.113855,-777.527783,-9869.278654,7448.696488,7380.054281,-10079.429755,2532.519702,-13032.944564,-3595.479261,-6551.408059,-9890.736328,-5680.740557,-6102.719140,6201.983238,-17219.582763,-1459.434802,94.672005,-713.944031,-698.328003,9940.000000,1120.000000,2240.000000
-4809.894241,-762.239189,-9873.816058,7451.155180,7382.691787,-10084.078918,2544.544941,-13047.204977,-3625.832930,-6540.634518,-9894.379663,-5675.532600,-6098.785233,6186.359368,-17239.140539,-1468.464907,91.744003,-711.015991,-699.304016,9940.000000,1260.000000,2940.000000
-4810.408331,-751.510352,-9885.483669,7452.831561,7380.724833,-10099.546325,2553.306824,-13073.580035,-3684.930943,-6537.684087,-9907.321323,-5673.163315,-6105.513108,6164.499362,-17303.826488,-1479.774890,89.792000,-710.039978,-697.840027,9940.000000,700.000000,4200.000000
-4815.102198,-759.042890,-9892.122137,7447.623604,7373.058185,-10106.140090,2546.064859,-13080.531428,-3700.711274,-6544.590777,-9913.780977,-5679.354749,-6112.330390,6159.783144,-17333.330790,-1482.278285,88.816002,-709.552002,-698.815979,9940.000000,420.000000,4900.000000
-4811.145939,-747.777611,-9900.928724,7447.981232,7370.554789,-10117.204203,2549.462324,-13098.658693,-3718.615022,-6547.854131,-9928.063742,-5678.483031,-6118.387713,6142.482894,-17378.950701,-1488.872050,91.256004,-711.015991,-697.840027,10080.000000,140.000000,6440.000000
-4812.531747,-762.015672,-9894.469070,7449.434096,7369.794830,-10112.398578,2539.471095,-13085.068832,-3687.903725,-6553.844399,-9923.191061,-5681.768737,-6122.992173,6158.374984,-17365.673764,-1475.192782,85.888000,-711.992004,-699.791992,10080.000000,140.000000,7560.000000
-4818.387904,-783.942733,-9883.002625,7444.874340,7369.548961,-10091.834973,2527.870539,-13050.848311,-3626.011744,-6556.370146,-9907.589544,-5687.423728,-6118.812396,6185.241781,-17293.477630,-1458.250160,87.840004,-710.528015,-697.840027,10500.000000,-420.000000,8820.000000
-4818.454959,-780.299399,-9878.487572,7448.271805,7374.131068,-10083.207200,2534.419600,-13039.851253,-3606.789244,-6550.983375,-9898.648846,-5684.383891,-6112.352742,6189.555668,-17256.910176,-1454.584474,85.888000,-710.039978,-701.744019,10640.000000,-700.000000,10220.000000
-4817.784407,-781.841669,-9875.581846,7448.070639,7372.789964,-10080.793212,2530.418638,-13037.459616,-3600.553107,-6548.994070,-9890.624570,-5684.540353,-6108.061207,6192.863726,-17242.940336,-1457.266683,81.008003,-712.479980,-699.791992,11060.000000,-1120.000000,11060.000000
-4811.794139,-770.777556,-9872.251436,7451.378697,7377.416775,-10075.473496,2536.230092,-13036.677305,-3604.084683,-6539.494579,-9882.868514,-5678.393624,-6099.500489,6192.282580,-17235.676019,-1459.658320,80.031998,-712.479980,-700.280029,11340.000000,-1400.000000,12320.000000
-4813.090541,-753.410250,-9886.333035,7452.406878,7376.008615,-10093.265485,2547.227150,-13068.103858,-3669.396480,-6537.460570,-9898.358273,-5676.717243,-6102.607382,6163.247664,-17299.445546,-1477.986750,79.543999,-709.064026,-696.864014,11760.000000,-1540.000000,12740.000000
-4818.119683,-755.712480,-9893.731462,7450.506979,7373.259350,-10104.419005,2545.483714,-13081.067870,-3698.699617,-6544.635480,-9907.500137,-5680.114708,-6110.341085,6154.731650,-17334.157805,-1481.831250,79.543999,-708.575989,-701.255981,12180.000000,-2380.000000,13580.000000
-4816.935041,-750.370413,-9899.028826,7450.484628,7371.962949,-10111.079825,2548.791772,-13092.847239,-3714.792873,-6545.462495,-9918.005457,-5679.824135,-6113.336219,6143.779295,-17362.589224,-1484.401701,76.127998,-707.600037,-699.304016,12880.000000,-3080.000000,14000.000000
-4818.164387,-756.986529,-9901.845145,7451.132828,7370.934769,-10116.131320,2547.182446,-13094.367158,-3712.647106,-6550.625748,-9927.437893,-5683.311007,-6122.500434,6144.472199,-17378.794238,-1477.830288,73.200005,-705.160034,-703.208008,13160.000000,-3360.000000,14420.000000
-4811.436511,-770.486983,-9882.846163,7454.150314,7377.215609,-10095.411252,2537.280624,-13057.486779,-3635.533587,-6547.205931,-9908.148337,-5681.724034,-6116.532518,6177.373967,-17305.413461,-1455.366785,73.200005,-705.160034,-701.255981,13860.000000,-3920.000000,14420.000000
-4805.379189,-766.262503,-9869.233950,7460.319395,7385.083423,-10077.216932,2540.566330,-13036.945526,-3589.354883,-6537.840550,-9890.959846,-5674.482068,-6103.724969,6193.981313,-17249.690562,-1448.035413,69.784004,-706.135986,-705.160034,14140.000000,-4340.000000,14420.000000
-4814.163424,-768.676492,-9873.257264,7458.240683,7382.222400,-10077.328691,2539.538150,-13038.979535,-3594.674599,-6540.768628,-9888.456451,-5677.387795,-6101.914478,6191.612028,-17242.381542,-1453.086907,65.879997,-703.208008,-702.231995,14700.000000,-4760.000000,14140.000000
-4813.381113,-774.443242,-9871.245607,7454.798514,7379.406080,-10073.059508,2533.771400,-13036.096160,-3590.204250,-6537.080590,-9880.566285,-5677.812478,-6098.204088,6194.741272,-17223.740187,-1456.193800,64.903999,-705.648010,-703.208008,15400.000000,-5040.000000,13860.000000
-4806.005038,-753.969044,-9880.365119,7456.184322,7381.775365,-10082.223723,2548.903531,-13059.565492,-3642.216759,-6527.357582,-9891.049253,-5671.129307,-6097.913515,6171.383699,-17267.795475,-1470.163640,60.512001,-705.160034,-701.744019,15540.000000,-5320.000000,13720.000000
-4804.999209,-751.398593,-9885.640131,7455.491418,7379.853115,-10095.366549,2551.496333,-13077.670405,-3687.479042,-6526.597622,-9900.191116,-5671.553990,-6104.775501,6156.877417,-17319.048025,-1473.248181,60.512001,-702.720032,-702.720032,15960.000000,-5320.000000,13020.000000
-4807.569660,-753.499657,-9889.886962,7453.166837,7378.221438,-10099.546325,2549.596435,-13081.805477,-3698.744321,-6531.850282,-9907.835413,-5675.130269,-6109.357608,6152.004737,-17336.661200,-1471.124765,60.512001,-702.231995,-702.720032,16240.000000,-5600.000000,12740.000000
-4811.525918,-751.264483,-9899.766433,7450.641090,7374.488696,-10109.671665,2550.624615,-13097.451698,-3721.610155,-6540.925090,-9922.855785,-5678.639493,-6116.867795,6137.476103,-17376.849637,-1474.186954,59.048000,-703.208008,-701.255981,16520.000000,-5600.000000,12040.000000
-4813.716389,-772.833916,-9888.389395,7448.562378,7373.929903,-10095.813584,2536.319499,-13070.584902,-3667.384823,-6547.027117,-9912.998666,-5682.863973,-6118.052437,6164.007624,-17333.353142,-1456.037337,55.144001,-701.744019,-697.840027,16520.000000,-5880.000000,11340.000000
-4817.069151,-786.133204,-9878.062889,7445.857816,7373.728737,-10081.173191,2528.116408,-13046.579128,-3612.354828,-6546.848303,-9899.565268,-5685.322664,-6111.078693,6183.990083,-17270.254167,-1446.314328,53.680000,-701.255981,-702.231995,16520.000000,-5740.000000,10780.000000
-4816.957392,-780.768786,-9875.470087,7447.534197,7376.500353,-10077.663967,2532.787923,-13044.232195,-3607.839776,-6543.540245,-9896.145451,-5681.656978,-6106.965972,6184.258304,-17249.936432,-1446.470791,51.240002,-701.255981,-698.328003,16940.000000,-6300.000000,9940.000000
-4812.934078,-778.421852,-9865.367098,7454.530293,7384.457574,-10066.421040,2534.665469,-13032.363419,-3595.389854,-6537.371163,-9884.343730,-5675.644359,-6099.366379,6195.970618,-17221.125033,-1440.502875,52.216000,-702.231995,-697.840027,16800.000000,-6720.000000,9380.000000
-4813.470520,-764.854344,-9868.608101,7456.676061,7386.938618,-10067.672738,2544.209664,-13045.573300,-3628.895119,-6532.297317,-9888.076471,-5673.163315,-6094.404291,6181.911371,-17240.928679,-1448.884779,52.216000,-701.255981,-702.720032,17080.000000,-7140.000000,8680.000000
-4826.993326,-764.004977,-9885.707186,7448.495322,7379.406080,-10086.761127,2545.886045,-13077.312777,-3704.108739,-6541.550939,-9906.516660,-5681.299350,-6102.294457,6154.619891,-17313.705959,-1462.407584,51.240002,-702.231995,-702.231995,17360.000000,-7700.000000,7560.000000
-4824.981669,-768.318864,-9889.752852,7447.891825,7377.550885,-10091.119717,2544.321423,-13079.838524,-3716.782178,-6543.942576,-9912.953962,-5683.579228,-6108.172966,6152.362365,-17337.018828,-1459.255989,54.167999,-704.184021,-699.304016,17640.000000,-8260.000000,6860.000000
-4811.883546,-752.605588,-9894.983160,7456.229026,7378.959045,-10098.808718,2553.373880,-13092.556666,-3724.627641,-6536.924128,-9924.420407,-5677.387795,-6113.470329,6138.481932,-17374.033317,-1462.228771,55.632000,-707.600037,-702.231995,18060.000000,-8680.000000,6160.000000
-4812.889375,-770.107003,-9891.317474,7453.032726,7373.527571,-10095.768880,2536.900644,-13086.253475,-3691.636466,-6540.366297,-9921.246460,-5681.969903,-6119.393542,6151.155371,-17368.959471,-1456.573779,57.584000,-708.088013,-697.351990,18620.000000,-9100.000000,5320.000000
-4813.649334,-787.161384,-9877.705261,7451.088125,7374.891028,-10073.975929,2526.395324,-13052.278823,-3622.569576,-6540.902739,-9904.214430,-5683.758042,-6114.274992,6180.525563,-17297.120964,-1439.653509,57.584000,-712.968018,-696.864014,19320.000000,-9380.000000,4340.000000
-4808.575488,-779.874716,-9871.290311,7454.731459,7380.009577,-10062.755354,2531.849150,-13041.952317,-3598.899078,-6533.213739,-9892.278599,-5677.231333,-6104.619039,6186.426423,-17259.994717,-1438.759439,62.464001,-714.432007,-694.911987,20020.000000,-9800.000000,3360.000000
-4808.083750,-779.025350,-9866.194113,7457.190151,7383.719967,-10056.183941,2531.916205,-13038.688962,-3596.641552,-6530.643288,-9883.092032,-5673.677406,-6100.729835,6194.182479,-17240.883975,-1437.530093,65.391998,-715.895996,-692.471985,20580.000000,-9940.000000,2520.000000
-4800.975895,-767.581256,-9862.796648,7461.369927,7389.285551,-10052.406496,2538.353507,-13038.063113,-3600.553107,-6521.769645,-9876.990006,-5664.401432,-6093.644332,6193.288409,-17228.143481,-1439.474695,66.368004,-720.776001,-689.544006,21280.000000,-10500.000000,1400.000000
-4798.360741,-746.525913,-9875.000700,7465.795572,7389.218496,-10068.030365,2552.144534,-13068.752059,-3662.310977,-6518.126311,-9889.238762,-5659.595807,-6096.304190,6166.376909,-17289.320205,-1454.964454,71.736000,-719.799988,-689.544006,21840.000000,-10360.000000,560.000000
-4800.171232,-746.637672,-9877.369985,7465.862628,7388.235019,-10076.233456,2552.032775,-13078.296253,-3689.803623,-6521.635535,-9895.832526,-5660.534580,-6101.355684,6161.571284,-17325.753549,-1457.132573,75.639999,-723.216003,-686.127991,22400.000000,-10220.000000,-280.000000
-4801.758206,-742.569654,-9885.573075,7462.263997,7385.508106,-10085.397671,2553.843266,-13088.913332,-3708.512033,-6526.575270,-9909.288276,-5663.864990,-6106.653047,6146.461504,-17359.124703,-1462.899323,76.127998,-720.776001,-683.200012,22680.000000,-9800.000000,-1260.000000
-4807.815529,-751.823276,-9891.138660,7460.788782,7383.295284,-10088.795136,2550.445801,-13087.795745,-3713.451769,-6536.275928,-9921.179404,-5670.570513,-6116.979553,6144.673365,-17377.944872,-1456.149096,82.959999,-726.143982,-683.687988,22680.000000,-9520.000000,-1820.000000
-4815.258660,-778.868887,-9880.856857,7454.262072,7380.166039,-10071.316072,2532.139722,-13054.916329,-3651.112753,-6543.652003,-9908.997704,-5679.399452,-6116.420760,6173.149487,-17314.197697,-1437.999480,83.447998,-728.096008,-682.223999,22540.000000,-9660.000000,-2660.000000
-4813.917555,-783.808623,-9873.905465,7448.875302,7379.137859,-10059.648461,2527.691725,-13038.376038,-3610.633744,-6539.271061,-9896.011340,-5678.885362,-6107.100082,6184.079490,-17264.241548,-1433.596186,85.400002,-725.656006,-678.320007,22540.000000,-9100.000000,-2940.000000
-4814.968087,-782.802794,-9876.319453,7449.657613,7379.383728,-10057.592101,2530.999783,-13036.274974,-3615.148796,-6536.968832,-9893.083262,-5676.985464,-6103.166175,6185.532354,-17252.238661,-1433.059744,88.816002,-726.632019,-681.247986,22400.000000,-8260.000000,-3500.000000
-4805.245078,-775.985512,-9865.635319,7458.553607,7388.279723,-10046.148008,2538.129990,-13022.103968,-3600.173128,-6527.089361,-9877.213523,-5668.447097,-6094.158422,6199.055159,-17219.672170,-1425.326040,88.816002,-724.679993,-678.807983,21980.000000,-7560.000000,-3920.000000
-4806.094445,-760.205181,-9876.498267,7455.267901,7384.368167,-10059.223778,2543.986147,-13051.317698,-3655.605454,-6524.161282,-9888.322340,-5668.938836,-6095.812451,6171.070775,-17272.802266,-1447.856599,91.744003,-728.583984,-676.367981,21700.000000,-7280.000000,-4060.000000
-4806.362665,-752.180904,-9881.795631,7457.726593,7383.742319,-10072.880694,2548.747068,-13072.507152,-3699.638390,-6526.217643,-9896.301913,-5666.413089,-6100.551021,6157.145638,-17327.429930,-1455.187971,91.256004,-725.656006,-676.367981,21140.000000,-6860.000000,-3920.000000
-4811.525918,-750.146896,-9884.656654,7457.860703,7384.189353,-10075.048813,2550.825781,-13074.295291,-3712.021257,-6533.817236,-9905.913163,-5667.195400,-6104.373169,6155.446906,-17345.467787,-1451.656395,91.256004,-722.239990,-675.880005,20440.000000,-6440.000000,-3780.000000
-4812.889375,-749.990433,-9893.999683,7455.334956,7379.629598,-10086.202334,2551.429278,-13089.427422,-3734.663574,-6534.912471,-9923.101654,-5671.241065,-6111.570431,6142.706411,-17386.393832,-1457.087869,91.744003,-724.192017,-676.367981,19460.000000,-5880.000000,-3780.000000
-4806.474424,-768.810602,-9882.846163,7457.570131,7380.858944,-10074.400613,2542.130952,-13061.398335,-3674.000940,-6533.101980,-9911.232878,-5672.738632,-6111.816300,6170.668444,-17335.610668,-1437.910073,93.695999,-722.239990,-674.416016,18620.000000,-5040.000000,-3220.000000
-4796.483194,-769.995245,-9864.808305,7467.583712,7391.856002,-10051.601833,2545.282548,-13027.043703,-3605.068160,-6523.177805,-9891.026901,-5664.513190,-6100.618076,6198.831642,-17257.357211,-1420.140436,88.816002,-720.288025,-674.416016,17780.000000,-4900.000000,-2800.000000
-4796.974933,-766.441317,-9863.042517,7468.544837,7391.565429,-10049.657232,2547.473019,-13029.547099,-3602.922392,-6520.272079,-9885.662482,-5662.948568,-6095.901858,6194.674217,-17240.883975,-1428.142360,86.863998,-721.752014,-675.880005,16800.000000,-4060.000000,-2240.000000
-4801.333523,-773.392710,-9859.265072,7467.561360,7390.671359,-10044.963365,2543.047374,-13022.707465,-3598.340285,-6522.507253,-9877.884075,-5665.966054,-6092.169117,6202.229107,-17220.163908,-1426.980070,88.328003,-718.824036,-672.952026,16100.000000,-3780.000000,-1820.000000
-4792.795157,-753.052622,-9860.315604,7470.176514,7393.308865,-10051.110095,2551.876313,-13038.174872,-3622.301355,-6511.644305,-9873.480782,-5657.427687,-6086.201201,6187.007569,-17237.464158,-1438.290052,85.888000,-717.848022,-674.903992,15400.000000,-3500.000000,-980.000000
-4794.762110,-739.641576,-9873.480782,7470.489439,7391.073691,-10068.879732,2558.805353,-13067.209788,-3684.081576,-6514.259459,-9888.858782,-5655.684251,-6094.359588,6161.906560,-17302.507735,-1455.567951,81.984001,-719.312012,-677.343994,14420.000000,-2940.000000,-280.000000
-4795.857346,-738.412230,-9873.927817,7475.272712,7394.538211,-10069.594988,2563.767441,-13064.013489,-3696.576202,-6517.455759,-9896.793651,-5654.432554,-6100.260448,6163.538237,-17319.182136,-1445.532017,82.472000,-717.848022,-675.392029,13860.000000,-2520.000000,140.000000
-4801.646447,-733.360736,-9885.103689,7472.568151,7391.006636,-10078.379223,2569.176563,-13077.938626,-3725.633469,-6525.457683,-9915.926744,-5659.282882,-6109.603478,6145.835655,-17362.566872,-1448.236578,80.031998,-717.359985,-675.392029,13160.000000,-2380.000000,980.000000
-4809.491910,-754.863114,-9885.416613,7466.890808,7385.150479,-10077.149877,2555.966682,-13066.047498,-3705.025161,-6538.801675,-9917.111387,-5668.000062,-6117.806568,6156.989176,-17354.497892,-1437.083058,79.056000,-714.919983,-678.807983,12180.000000,-2240.000000,1400.000000
-4807.279087,-771.693977,-9872.564360,7464.968558,7386.201010,-10060.274310,2541.907435,-13036.118512,-3631.666736,-6537.997012,-9899.051177,-5669.274112,-6110.989286,6183.565400,-17281.608854,-1423.224976,77.104004,-715.408020,-679.783997,11760.000000,-2100.000000,2100.000000
-4803.523994,-769.458803,-9869.189247,7461.481686,7385.150479,-10053.144104,2539.158170,-13032.385770,-3607.169224,-6531.336192,-9889.529334,-5667.687138,-6104.686094,6184.347711,-17251.076371,-1427.404753,75.152000,-715.895996,-677.832031,10920.000000,-1540.000000,2520.000000
-4801.288819,-769.436451,-9863.154276,7464.119192,7386.402176,-10048.696107,2537.928824,-13030.262355,-3601.536584,-6526.016477,-9875.559494,-5664.423783,-6096.706521,6191.343807,-17234.021990,-1427.717677,74.664001,-712.968018,-677.343994,10360.000000,-1540.000000,2800.000000
-4801.132357,-765.077861,-9862.975462,7462.509866,7387.117432,-10047.377354,2540.074592,-13033.995096,-3613.092436,-6521.188500,-9869.502171,-5664.513190,-6090.068053,6189.287447,-17231.205670,-1436.300747,72.711998,-714.919983,-678.807983,9940.000000,-1120.000000,3080.000000
-4800.841785,-747.554093,-9875.939474,7462.666328,7385.418699,-10064.275272,2552.524513,-13064.237006,-3677.778384,-6519.221547,-9886.042462,-5662.613292,-6094.024312,6161.884208,-17296.182191,-1455.702061,72.223999,-714.432007,-682.712036,9380.000000,-1120.000000,3080.000000
-4807.167328,-748.045832,-9881.214485,7462.711032,7383.407042,-10074.713537,2551.004595,-13075.189361,-3704.734588,-6527.648154,-9894.469070,-5664.423783,-6101.892126,6154.329318,-17332.861404,-1460.842962,69.784004,-712.479980,-681.247986,8960.000000,-840.000000,3080.000000
-4807.502604,-738.993375,-9885.349558,7464.990910,7384.904609,-10080.100307,2557.419545,-13081.090222,-3718.972649,-6530.084494,-9905.197907,-5663.127382,-6107.345951,6145.880359,-17357.269509,-1459.792430,71.248001,-710.039978,-682.712036,8400.000000,-980.000000,2940.000000
-4805.826224,-743.396669,-9887.025939,7467.650767,7386.558638,-10083.140145,2560.034699,-13079.682062,-3719.039705,-6534.577195,-9916.887869,-5664.200266,-6114.006771,6148.540217,-17372.491046,-1451.499933,69.295998,-712.968018,-684.664001,8400.000000,-840.000000,2800.000000
-4805.803872,-767.245980,-9874.084279,7463.739212,7385.441051,-10067.315110,2545.126086,-13049.328393,-3650.576311,-6536.052410,-9904.192079,-5669.341167,-6110.564603,6176.971635,-17306.620456,-1435.026698,70.272003,-711.015991,-684.176025,8120.000000,-840.000000,2520.000000
-4803.166366,-772.342178,-9863.914235,7461.191113,7385.776327,-10054.261691,2540.633385,-13032.944564,-3611.863090,-6527.402285,-9885.908352,-5669.229408,-6101.176870,6189.108633,-17253.579766,-1434.579663,72.223999,-706.624023,-686.616028,7840.000000,-700.000000,2100.000000
-4804.105139,-773.616227,-9864.428325,7457.458372,7381.909476,-10053.702897,2537.951176,-13036.364381,-3616.624012,-6524.228337,-9876.207695,-5669.363519,-6096.192431,6187.544011,-17244.773179,-1442.536884,73.688004,-711.992004,-687.104004,7700.000000,-840.000000,1680.000000
-4800.305343,-768.832954,-9857.208712,7464.365061,7390.179621,-10046.215063,2543.561464,-13026.551965,-3606.789244,-6518.930974,-9864.093049,-5664.177914,-6088.771652,6198.026979,-17212.519611,-1438.200645,70.760002,-711.992004,-691.007996,7280.000000,-700.000000,1120.000000
-4794.873869,-745.341271,-9865.814133,7468.477782,7394.202935,-10057.882673,2558.067746,-13051.742381,-3657.237131,-6513.611259,-9875.157163,-5658.522923,-6087.832879,6173.149487,-17256.418438,-1453.444535,72.711998,-710.528015,-692.471985,6860.000000,-840.000000,420.000000
-4796.617305,-740.133314,-9876.207695,7467.695471,7391.006636,-10070.891389,2559.699423,-13070.987233,-3702.857042,-6517.008724,-9888.657616,-5660.311062,-6095.410120,6158.330281,-17312.163688,-1460.820611,71.248001,-709.064026,-689.056030,6860.000000,-700.000000,-140.000000
-4805.647410,-746.458858,-9884.299026,7462.442811,7385.888086,-10074.758241,2559.565313,-13070.942530,-3720.894899,-6526.731733,-9901.621628,-5667.664786,-6102.160347,6152.451772,-17333.554308,-1461.379404,74.664001,-708.575989,-689.056030,6580.000000,-560.000000,-700.000000
-4816.331543,-748.314053,-9897.419500,7456.340785,7378.936694,-10088.996302,2559.230037,-13087.415765,-3745.973557,-6538.108771,-9917.603125,-5674.526772,-6111.570431,6135.755019,-17376.827285,-1470.163640,76.127998,-708.575989,-690.031982,6160.000000,-560.000000,-1260.000000
-4811.123587,-763.937922,-9885.640131,7457.525427,7379.428432,-10079.362700,2544.097906,-13063.722916,-3685.065053,-6539.472227,-9904.259134,-5674.839696,-6112.620963,6162.018318,-17333.643715,-1454.092736,79.543999,-707.600037,-694.911987,6160.000000,-560.000000,-1820.000000
-4803.166366,-768.967064,-9869.815096,7463.336881,7387.095080,-10058.888502,2541.303938,-13032.676343,-3619.954422,-6533.437256,-9891.250419,-5669.899961,-6105.624867,6187.812232,-17264.308603,-1438.781791,78.568001,-709.552002,-690.520020,6160.000000,-140.000000,-1960.000000
-4798.159575,-761.747451,-9864.294215,7466.086145,7391.744243,-10053.904063,2547.227150,-13031.268183,-3612.600698,-6523.289564,-9884.433137,-5664.356728,-6096.550059,6190.382682,-17245.264917,-1439.429991,80.520004,-707.600037,-692.960022,5740.000000,-140.000000,-2380.000000
-4794.359779,-758.886428,-9854.414744,7472.054061,7397.734511,-10046.080952,2549.864656,-13020.695808,-3599.435520,-6516.740503,-9870.530351,-5657.919426,-6090.626847,6201.580906,-17214.173641,-1433.886759,80.520004,-705.648010,-691.007996,5040.000000,0.000000,-2660.000000
-4790.559982,-739.775686,-9856.873436,7477.597294,7404.015351,-10047.578519,2563.208647,-13030.932907,-3625.050619,-6509.297372,-9870.306834,-5650.766867,-6085.888277,6190.337979,-17225.662437,-1439.608805,81.984001,-707.112000,-698.328003,4340.000000,420.000000,-3080.000000
-4791.744625,-727.526930,-9871.625587,7479.050157,7402.473080,-10065.504618,2571.098813,-13061.130114,-3684.059225,-6510.213794,-9884.991930,-5650.409240,-6092.146765,6167.852124,-17289.901351,-1453.668052,84.424004,-707.112000,-700.280029,2940.000000,1120.000000,-3220.000000
-4789.643561,-727.772799,-9871.759697,7484.436927,7404.998828,-10070.779630,2572.775194,-13064.460524,-3694.162213,-6511.264326,-9888.925837,-5648.442286,-6096.125376,6169.796725,-17307.603932,-1450.650567,86.863998,-709.064026,-695.400024,980.000000,1400.000000,-2940.000000
-4789.352988,-721.871939,-9880.633340,7481.531201,7400.595534,-10083.542476,2575.233886,-13082.006643,-3717.788007,-6513.097169,-9901.532221,-5650.163370,-6103.009713,6152.027089,-17349.446398,-1459.613616,89.792000,-707.600037,-695.400024,1400.000000,1540.000000,-3080.000000
-4799.210107,-745.520085,-9882.019148,7470.154163,7390.559601,-10084.727119,2555.497295,-13078.273902,-3698.230231,-6526.642326,-9904.505003,-5662.278016,-6111.503376,6160.096068,-17350.251061,-1457.780773,86.375999,-709.064026,-693.936035,1820.000000,1820.000000,-2940.000000
-4801.020599,-764.563771,-9869.278654,7465.549703,7389.799641,-10066.801020,2539.426391,-13047.808474,-3630.102113,-6529.637459,-9888.590561,-5666.658958,-6105.736626,6186.158202,-17280.938301,-1447.856599,84.424004,-707.112000,-700.280029,1680.000000,2380.000000,-2520.000000
-4798.494851,-759.802849,-9863.087221,7467.181381,7393.532383,-10056.318051,2543.405002,-13035.850291,-3606.990410,-6523.960116,-9880.901561,-5661.875684,-6097.131204,6192.930781,-17247.187167,-1446.515494,84.424004,-708.575989,-697.840027,1820.000000,2660.000000,-1820.000000
-4796.282029,-758.081765,-9857.856912,7468.276616,7396.192240,-10052.987641,2542.712097,-13031.156424,-3599.927258,-6519.243898,-9872.050270,-5658.142943,-6092.951428,6199.233973,-17233.686713,-1447.409564,87.840004,-705.648010,-700.280029,1540.000000,2800.000000,-1400.000000
-4792.683398,-749.811619,-9854.347688,7470.332977,7399.634409,-10047.422057,2547.338909,-13030.709390,-3604.621125,-6511.867823,-9864.785953,-5653.247911,-6085.687111,6197.758758,-17226.556507,-1449.488276,84.912003,-704.671997,-701.255981,1540.000000,3220.000000,-420.000000
-4793.421005,-735.238282,-9866.618796,7467.918988,7396.236944,-10062.285967,2559.028871,-13060.504265,-3670.983454,-6509.587945,-9878.353462,-5652.107972,-6089.263390,6168.701490,-17291.957711,-1465.514477,84.912003,-706.624023,-703.208008,1400.000000,3080.000000,280.000000
-4803.613401,-742.100268,-9874.911293,7465.728517,7391.297208,-10072.679528,2559.364147,-13071.009585,-3707.796777,-6520.160320,-9891.004549,-5660.892208,-6099.276972,6160.788972,-17328.502813,-1468.219038,83.447998,-702.720032,-704.184021,980.000000,3360.000000,1400.000000
-4806.206203,-736.355869,-9881.706224,7467.449602,7390.559601,-10079.720328,2565.890856,-13078.899751,-3724.985269,-6523.803654,-9904.594410,-5663.015623,-6103.948486,6150.440115,-17352.709753,-1469.984826,81.984001,-705.648010,-701.744019,980.000000,3080.000000,2380.000000
-4808.217860,-743.329614,-9887.897657,7465.572055,7385.821031,-10087.163459,2560.235865,-13085.873495,-3725.856987,-6531.045619,-9915.993800,-5667.262455,-6113.313867,6146.685022,-17376.179084,-1468.420204,79.056000,-706.624023,-702.231995,1120.000000,2940.000000,3360.000000
-4811.950602,-766.173096,-9875.581846,7464.387413,7385.865734,-10068.186828,2545.617824,-13052.167064,-3659.002919,-6535.583023,-9902.962733,-5671.106955,-6111.324562,6177.575133,-17311.873116,-1447.856599,78.080002,-705.160034,-704.671997,1260.000000,2800.000000,4480.000000
-4811.257697,-770.844611,-9866.887017,7462.107535,7386.580990,-10056.295700,2539.918129,-13034.688000,-3617.227509,-6532.654945,-9889.328169,-5670.749327,-6103.501451,6189.242743,-17264.621528,-1445.554369,76.127998,-704.671997,-704.184021,980.000000,2800.000000,5180.000000
-4811.123587,-768.251809,-9865.434154,7463.314529,7388.011502,-10055.647499,2542.980318,-13035.582070,-3617.898061,-6530.822102,-9882.421480,-5668.916484,-6099.478137,6188.974522,-17254.675001,-1448.348337,73.688004,-705.648010,-702.720032,980.000000,2660.000000,6160.000000
-4804.932154,-763.736756,-9856.336994,7470.042404,7394.985246,-10048.092609,2546.802467,-13024.339142,-3603.682352,-6523.378971,-9869.055136,-5664.624949,-6091.453861,6202.005589,-17224.477795,-1443.721526,73.688004,-705.648010,-709.064026,840.000000,2380.000000,6860.000000
-4797.153747,-738.859265,-9861.902578,7476.636169,7398.092139,-10058.486171,2561.554618,-13047.652012,-3648.139971,-6514.237108,-9878.979311,-5657.852370,-6089.039873,6179.117403,-17266.990813,-1460.775907,68.807999,-709.064026,-707.112000,980.000000,2380.000000,7560.000000
-4801.422930,-736.624090,-9874.777183,7475.742099,7393.308865,-10072.903046,2563.678034,-13067.925044,-3697.894954,-6521.166148,-9892.837392,-5661.272187,-6097.198259,6162.957092,-17322.356084,-1470.633026,66.856003,-708.088013,-703.695984,840.000000,2380.000000,7840.000000
