1.61806,0.558901,-0.826857,-3.14864,-3.22853,0.591258,-2.04288,-4.86394,4.16754,0.190577,0.428609,-1.32478,1.12449,-0.948254,-2.61646,-1.36271,92.232,-677.344,-724.68,10220,4900,1400
-1.70871,4.11763,1.13752,5.08195,3.65348,2.72026,6.29787,-0.524872,-0.511097,-3.22258,-1.41967,1.4646,0.766775,1.72137,5.80074,5.11119,90.28,-677.832,-720.776,10360,5040,2240
-8.70174,2.23507,1.29044,9.91391,8.67448,4.94032,12.0801,5.61004,-9.86191,-8.08268,-5.96033,2.49521,-0.231142,4.96944,11.6534,8.93071,94.184,-678.808,-723.216,10500,4620,2380
-13.1787,-0.459431,-1.03734,7.91832,7.97251,4.98982,11.7138,6.34038,-15.2454,-8.9619,-7.17168,0.926313,0.31911,3.70628,9.67129,6.95123,90.28,-679.296,-722.728,9800,4760,2660
-14.2923,-9.49642,-4.8722,-4.12972,-1.8773,0.659386,0.371859,0.670068,-13.7872,-9.85919,-5.29027,-7.27638,-2.70534,-0.983921,-1.67622,0.0737228,92.232,-677.832,-725.656,8960,4620,2800
-8.75818,-9.87928,-5.77021,-9.80931,-7.95803,-1.35495,-7.25109,-4.18555,-7.58537,-5.80523,-3.20163,-9.26101,-3.87483,-5.16838,-10.7739,-6.54155,87.84,-676.856,-722.24,8400,4480,3080
3.52899,-4.74406,-0.688745,-8.6124,-8.09476,-1.51342,-9.28159,-4.70596,3.03433,2.32605,1.80413,-2.87509,-2.57121,-4.78874,-12.0166,-9.03134,88.816,-680.272,-722.24,7980,3920,3220
7.83197,-0.364272,4.30783,-4.28811,-3.55125,-1.00406,-8.06548,-3.21598,7.78655,5.77695,4.57718,2.72475,-0.542326,-1.31651,-6.21858,-7.69308,88.328,-678.808,-720.776,7980,3920,3360
6.75148,3.98197,3.60547,1.714,1.23917,0.170428,-1.1134,-1.7807,3.73238,5.6408,4.53893,5.31126,1.65565,-0.277694,-1.19968,-3.42319,87.352,-678.32,-722.728,7980,3640,3360
6.38369,3.48271,1.55827,4.04809,1.51702,0.18097,2.31291,1.533,5.27866,4.18745,5.69827,3.81414,2.51884,1.42982,4.95892,0.372013,87.84,-681.736,-723.216,7700,3500,3360
0.900967,3.63468,-2.58338,2.83499,-0.290367,-3.11091,0.682964,-0.268741,1.50238,-1.19134,2.77389,1.16839,-0.0734638,-0.908331,2.76412,-2.62498,83.448,-677.344,-719.8,7420,3220,3500
-5.60932,-2.75489,-6.68674,-6.16365,-5.36655,-5.30521,-8.29548,-3.21087,-0.236645,-4.92661,-0.922888,-4.8117,-3.27132,-4.39709,-7.26365,-6.46804,84.424,-677.832,-721.752,6720,2940,3220
-5.1957,-4.03569,-5.03181,-5.70558,-3.6684,-3.25754,-5.47616,-1.86733,-3.6615,-4.53727,-4.37232,-5.44086,-3.15237,-2.38483,-9.22732,-3.6277,85.4,-679.784,-723.216,6440,2940,3080
-1.34553,-2.51362,-1.34884,-1.51842,0.241588,-1.76431,-0.437588,2.52953,-6.29297,-2.58008,-3.26384,-2.47565,-0.679745,2.19558,-6.19227,0.236464,84.912,-681.736,-728.584,5880,3220,2520
-7.09364,-4.28558,-1.45146,0.95369,2.57668,-2.33368,3.65862,4.35036,-16.4236,-5.00403,-7.77342,-2.92503,-0.445147,3.18301,-0.727876,2.39664,81.496,-679.296,-724.68,5460,3500,2380
-6.81741,-3.6776,-0.548036,2.31112,3.24891,-1.09225,7.37016,5.96658,-13.8789,-3.52602,-7.4758,-2.97508,-1.27609,2.41084,5.12498,5.68948,81.496,-678.32,-723.704,5320,3360,2100
5.34519,3.22483,2.1914,0.939882,1.46828,-1.92522,2.46483,1.12019,1.75164,5.69113,-0.0969441,1.41492,0.39208,-1.85172,-0.882785,4.21968,81.496,-681.736,-721.752,5040,3360,1680
6.59911,4.71531,4.35467,4.13364,4.58009,0.982729,2.4871,2.45437,6.60984,5.27812,2.26293,2.95521,1.44824,2.0345,6.17234,5.64691,81.984,-682.712,-725.168,5320,3360,1540
1.49974,-0.402277,-0.787528,-1.78936,-0.429898,0.082202,-1.24939,-0.987881,-1.7579,0.323264,-0.902258,-1.64713,0.0861908,-1.18344,-2.11498,-1.26725,82.96,-684.664,-720.776,4900,3920,1120
5.40492,-0.341316,1.03321,0.0218414,0.372393,2.91456,-0.988234,-0.200089,4.85969,2.70956,2.41898,0.294167,0.857498,1.92823,1.81404,0.605198,79.544,-679.784,-722.24,4620,3780,560
6.4498,3.95333,2.39881,2.48097,0.244848,1.88619,-1.58429,-2.58246,5.77401,3.94771,2.84715,2.31884,1.41977,1.1718,-0.069436,-0.682917,82.472,-682.712,-721.264,4480,3920,280
-0.110975,1.31292,2.89292,1.00577,-0.656875,3.19802,-2.14388,-0.249236,3.51425,1.58174,2.8845,0.622297,1.59735,1.37616,1.77543,1.85769,81.984,-679.784,-716.872,4200,4200,-280
3.19859,4.21907,4.09604,2.702,2.93235,2.29122,2.67516,0.457562,9.44448,3.51379,4.03506,3.67633,1.73604,1.5674,5.69027,4.45271,82.96,-680.76,-721.752,3780,4060,-560
9.30072,5.508,3.38809,-0.423601,0.463803,-0.598328,-0.672079,-2.74767,14.7461,6.20284,5.6152,6.19449,1.46725,0.984632,-0.18396,-0.993701,85.888,-680.272,-719.8,3220,4200,-1120
4.92431,2.81706,-0.528111,-0.348169,0.227526,-0.397801,0.161551,-1.9032,8.97096,2.90267,3.91176,5.1684,0.137308,-0.494819,0.854298,-1.96968,82.96,-681.736,-717.848,3220,4060,-1400
-5.38005,-3.25453,-4.21036,-1.636,-2.38729,-1.1047,-0.182222,-1.47563,-2.09755,-5.15838,-0.967857,-0.269534,-1.69046,-3.51616,-0.775254,-1.98911,85.4,-679.784,-718.336,3080,4200,-1540
-10.9039,-5.19114,-4.50187,-2.94489,-3.41958,0.763159,-1.59609,-1.89767,-5.92386,-8.45112,-0.189076,-2.58686,-0.71944,-1.78676,-3.31863,-0.495495,86.376,-682.712,-723.704,2380,4200,-1960
-7.6781,-1.96097,-2.33891,0.307359,-0.511331,1.19202,-0.41296,-0.598501,-3.61848,-5.69728,1.26707,-1.24045,0.434677,1.61088,-0.601993,1.67996,88.328,-682.712,-722.728,2380,4760,-2100
4.01681,5.37269,2.63648,4.72055,3.83133,2.46895,3.99462,0.974837,4.80873,3.16136,3.09758,4.57049,3.02747,2.57058,3.32959,2.50964,90.28,-677.344,-724.68,2520,4900,-2240
4.58567,2.47645,2.7322,3.65061,3.20274,1.2458,1.84031,2.48853,2.8358,3.50186,1.27008,4.26925,1.84254,2.17544,3.19395,1.56432,91.256,-679.296,-723.704,2240,4900,-2380
3.5953,2.73354,2.67457,5.02704,4.34555,1.53579,3.56722,2.57378,-0.421093,2.85831,-2.41516,3.5109,1.42188,2.7594,3.48719,1.61059,94.672,-679.296,-720.288,1820,5180,-2520
-1.03838,1.01842,2.56941,6.93565,6.08162,2.70794,8.27519,2.76866,-4.06675,0.27525,-3.71962,0.993418,0.844252,2.39472,6.79522,3.82006,95.648,-680.272,-720.776,1540,5460,-2520
-1.19485,-2.05527,1.80845,3.51497,2.46684,3.02266,4.31465,5.49935,-1.55752,0.098,-2.06862,-1.76438,0.220003,1.07936,6.27287,3.45634,93.208,-680.76,-721.752,1540,5460,-2660
-3.3614,-4.2121,-3.3548,-3.87089,-2.3663,0.178763,-1.26199,1.28013,-6.25568,-2.48296,-3.96326,-5.60501,-1.8581,-2.66196,-2.7431,-2.29157,95.648,-681.248,-721.752,1540,5740,-2660
-5.92584,-3.58696,-3.91133,-2.81014,-1.38426,-0.568201,-0.457435,1.95831,-5.0393,-3.70379,-3.14496,-5.74987,-1.70924,-0.766182,0.929846,-0.619919,93.696,-681.248,-726.632,1400,5600,-2660
-3.85779,-1.55331,-2.40022,-2.23987,-2.47408,-1.84995,-0.542466,-2.8084,-6.09253,-0.356494,-3.2143,-4.57252,-1.9079,-2.45214,-3.81794,-1.29052,97.112,-681.736,-719.8,1540,5880,-2660
-2.63295,-4.50699,-1.92057,-6.09777,-5.54718,-2.3717,-4.4385,-3.07757,-4.47898,-0.408165,-1.14187,-5.8692,-2.55958,-3.46164,-4.56853,-2.05002,97.6,-681.736,-723.704,1540,5880,-2660
3.45775,0.443796,0.290705,-2.28374,-2.66541,-2.02601,-2.11527,-2.86516,1.32487,1.54635,1.50574,-1.56291,-1.28762,-1.66864,-1.41758,-0.116602,100.04,-680.76,-718.336,1400,5880,-2800
-0.304437,1.49166,-0.322568,-0.80813,-3.25015,-2.24407,-2.21205,-2.51726,1.6979,-2.29643,1.55186,-1.102,-1.61463,-0.933617,1.24637,-3.8459,99.064,-680.272,-728.096,1260,5880,-2660
-6.09276,-2.25759,-4.31494,-5.55083,-7.26184,-3.62176,-7.69121,-3.7342,-3.90481,-7.4494,-0.477936,-3.87744,-3.58345,-4.13043,-6.49259,-9.20847,101.016,-682.712,-719.312,1120,6160,-2660
-4.78901,-4.78771,-4.05327,-7.30591,-6.9808,-3.55022,-8.73312,-3.73866,-3.83472,-5.64866,-3.37596,-5.2218,-3.32151,-4.08332,-8.93552,-8.22822,100.04,-681.736,-720.288,840,6160,-2520
-1.13207,-1.77453,-0.341062,-2.60777,-2.8868,-3.02465,-4.95786,-2.89247,-0.503999,-1.65893,-2.33939,-1.70855,-0.24547,-2.9531,-4.68814,-4.62835,98.576,-680.76,-721.264,700,6300,-2380
3.7963,-1.90017,3.55432,-3.59154,-2.64053,-2.27839,-6.22562,-2.68121,4.43247,4.13268,2.00941,1.39596,0.433794,-0.741966,-3.23544,-1.97251,101.016,-682.712,-725.656,420,6580,-2380
8.3104,1.74632,4.0185,-3.69213,-2.11729,-1.85726,-4.43758,-3.36383,6.31017,9.04769,2.86781,5.98464,2.00849,-1.2267,-5.25609,-3.21899,100.528,-678.808,-728.096,280,6720,-2100
4.53096,1.06666,3.7011,-0.982168,0.209457,-0.00433713,-0.738046,1.76918,5.94626,5.71408,1.71495,4.80037,3.04967,2.39378,1.4284,-0.363722,98.088,-678.32,-723.704,420,6580,-1960
-0.76902,0.62204,-0.46389,-0.506317,0.321692,-0.955579,3.32788,2.99508,-0.555949,0.601506,-2.97545,1.62413,1.20346,0.845746,-0.3941,1.25483,100.04,-683.2,-727.12,280,6440,-1680
-0.453973,3.00537,1.19133,5.96129,6.29817,3.47983,8.79363,5.86606,-0.338561,0.0835965,-1.15028,4.15142,3.00451,4.62291,6.62609,7.24826,99.064,-686.128,-728.096,0,6860,-1680
3.60412,6.55695,3.54898,10.205,10.53,6.64143,10.6932,7.91581,0.951599,3.55146,2.79891,7.18426,4.70928,6.94596,8.98412,9.78254,97.6,-680.76,-732,0,6720,-1540
2.71949,4.14675,2.20946,8.45989,9.48349,6.51878,8.31107,6.29178,-2.42225,1.15834,2.27186,4.04982,3.34631,5.1917,6.2815,8.37752,97.112,-683.688,-730.536,-280,6580,-1120
3.74331,1.21841,-0.711434,3.78552,5.8036,5.05511,4.60351,3.71127,0.668422,0.693367,2.76958,1.24953,1.05852,2.59937,4.86885,4.97585,94.672,-683.2,-728.096,-280,6580,-1120
7.53315,3.66921,-0.220179,3.2277,3.8224,2.88076,1.45941,0.535006,4.83643,2.88988,4.54556,3.20001,-0.637468,0.831785,0.949398,2.19675,97.6,-683.2,-733.952,-420,6580,-840
3.519,1.74798,-0.602257,0.0419542,1.05405,0.384693,0.0560413,-1.63134,3.31551,0.571649,5.07689,0.496112,0.0300102,-1.7126,0.0308489,0.694404,93.208,-683.2,-732.976,-560,6720,-700
-6.15178,-1.44653,-2.85369,-0.0498748,0.03177,-2.12335,0.299104,-1.78083,-3.57599,-6.70219,3.95298,-2.50568,-0.846383,-1.12243,1.99618,1.7068,93.208,-680.272,-735.904,-420,6720,-560
-5.53818,4.15049,-0.223991,6.65852,5.89925,-1.05294,5.36381,-1.27917,-4.25032,-5.38314,0.496312,0.49465,-0.054012,2.61353,7.32105,5.43273,92.232,-679.296,-731.512,-420,6440,-140
-2.87552,-1.06504,0.318159,1.84498,1.79091,-2.12665,0.44386,-2.07984,-2.93282,-3.5305,-4.9229,-2.24225,-2.43557,2.03776,1.772,1.20918,89.304,-681.248,-732.488,-420,6020,-140
-0.512604,-4.91267,-1.38178,-4.8697,-5.64445,-4.98087,-5.67947,-4.53099,-1.30267,-0.113682,-5.50897,-5.32077,-4.24688,-3.38856,-5.96272,-6.04512,90.28,-681.248,-728.096,-280,5880,420
0.547428,-4.71206,-2.62474,-6.56437,-7.03302,-4.80106,-6.4431,-4.12498,2.57333,3.00617,-3.46292,-4.85966,-3.26934,-5.69129,-8.20069,-6.44207,88.328,-683.2,-729.072,-140,5880,420
0.46138,-1.43583,0.311533,-3.59052,-4.29722,-2.05232,-4.63368,-2.22788,6.09125,2.48475,-2.11599,-2.12794,-2.62147,-2.14358,-7.16202,-4.16735,88.328,-681.736,-728.584,280,6020,840
-0.518768,0.606196,1.31258,-2.33187,-3.62798,-2.03284,-3.55672,-1.74714,2.48087,1.89239,-1.44578,-0.857184,-1.91621,-2.69546,-10.8843,-4.66268,86.864,-682.712,-730.048,980,5600,1120
-4.31271,-3.45537,0.978178,-1.79853,-4.62418,-0.923618,-4.37946,1.29058,-0.0886652,-1.8575,-0.311832,-2.87006,-0.338765,-0.855767,-3.96106,-2.79498,87.84,-682.224,-729.072,700,5460,1120
-2.90685,-2.69656,-0.44222,-2.8899,-4.96573,-1.30242,-2.49568,-2.17197,-2.57444,-0.905304,0.0969202,-2.73328,1.11676,-2.99283,-4.74041,-2.06615,83.448,-679.296,-725.656,1260,5180,1680
-1.15208,-2.16879,1.96583,-1.03,-1.4974,1.82914,1.90991,1.02917,-1.99714,0.297835,1.53387,-0.153781,2.88724,1.40902,2.20908,1.94513,84.424,-678.808,-725.168,1540,4760,1820
-0.980125,1.10887,1.2721,4.0214,3.26895,3.76797,7.1975,3.44046,-5.88212,-0.657869,0.445669,2.85056,2.75528,3.9321,7.44228,4.40462,82.472,-683.688,-727.608,1820,4760,1960
-1.9795,0.63446,-0.910581,1.34453,1.62409,2.87639,3.48785,2.92677,-4.95607,-1.08744,-0.296455,0.999186,0.609529,1.22785,3.02561,1.85257,84.912,-677.832,-728.584,2100,4340,1960
-1.45553,-0.523694,-1.90215,-3.885,-2.59662,0.148584,-2.82879,-2.32813,-2.68438,-1.59239,0.835758,0.0820891,0.533343,-0.371782,-3.65806,-2.90872,80.52,-678.808,-728.584,2520,4060,1960
-6.10798,-1.97577,-3.26409,-3.28852,-2.41337,-1.11301,-3.45465,-3.60768,-4.45539,-6.77227,1.13808,-1.81175,-0.0632038,-1.16773,-0.989648,-3.64915,81.984,-679.784,-727.608,2240,3640,2100
-9.98071,-3.55766,-5.23702,-2.29942,-1.20152,-1.2632,-0.645355,-3.17867,-8.07934,-8.97395,-3.14576,-3.40678,-0.934378,-2.22056,3.45403,-1.81743,81.984,-678.32,-725.656,2380,3500,2240
-2.37772,-2.80749,-2.96279,-1.81746,-0.454575,1.60617,0.0645802,1.08901,0.668759,-3.10658,-3.33832,-1.41498,0.158858,0.25614,6.98317,0.28353,81.984,-680.272,-729.56,2520,3360,2240
9.32452,5.53545,0.0859799,3.25477,2.83357,2.73675,2.48493,2.52185,10.6799,6.74264,-1.0704,5.18502,1.00851,0.0224116,6.45479,0.702025,79.544,-680.272,-728.096,2520,3360,2100
11.0528,4.96544,3.49536,5.04237,4.51614,3.77037,2.93202,5.06086,14.4363,9.15339,1.51006,6.59135,1.71285,3.52999,9.34726,3.30717,81.008,-681.736,-725.168,2380,3080,2100
7.06286,4.00876,2.00088,3.02343,2.84151,1.23423,1.9024,2.07042,6.91579,7.06646,2.54413,3.44497,1.56508,1.21802,4.55028,-1.44012,80.032,-678.808,-726.144,2380,2660,1960
3.3477,1.57849,1.09427,1.46124,1.3791,0.389711,-0.841043,2.16014,3.28561,4.28403,1.78879,0.664128,0.971644,1.91222,2.21591,-0.601832,81.984,-681.736,-726.632,2240,2800,1960
-0.0860268,-0.717611,0.499566,-0.276275,-0.0693002,-0.929712,-2.55884,1.12754,-0.422724,0.190914,-1.48103,-0.864183,-1.76419,0.19591,-1.69566,0.327076,80.52,-682.224,-722.728,2100,2660,1820
-0.139681,0.233686,0.819386,1.01227,1.40823,0.0404288,0.431751,3.18891,-0.810304,-1.15747,-1.94177,-0.437421,-2.39001,-0.433702,-1.0622,1.64101,81.496,-684.176,-723.704,2100,2660,1820
-0.131201,-1.22121,1.26605,-0.360865,0.514995,0.67933,0.607435,3.8598,1.73033,-2.013,-0.559519,-2.12747,-1.75358,-0.537695,-1.62026,3.5082,79.544,-682.224,-724.192,1820,2800,1680
2.56971,1.43793,2.34449,-0.355325,0.345536,-0.798539,-0.984423,-1.92706,2.56786,0.498805,1.19234,0.098712,-0.992155,-2.06751,-6.26807,1.97544,81.984,-682.712,-723.216,1400,2660,1400
3.82149,3.57673,4.71315,3.61723,3.03442,0.229979,2.73732,-0.556241,0.864138,1.23124,1.1527,2.43691,0.718355,0.509727,-0.314437,2.63863,81.984,-683.688,-724.192,1400,2660,1120
3.88089,1.98653,3.0053,2.15751,1.36317,-0.776566,1.47985,-2.67458,0.31878,0.85387,1.12487,2.40736,0.933395,0.886906,-0.0503305,1.05219,81.984,-684.176,-723.216,840,2520,980
3.04943,0.588411,1.05407,-3.74489,-3.08507,-2.47361,-5.02203,-6.38303,0.196829,2.54477,1.60821,0.224345,1.21216,-1.47679,-9.69004,-4.31213,81.984,-682.712,-725.656,700,2800,980
-1.3669,-5.31025,-1.92662,-7.65673,-5.36439,-3.77794,-6.75114,-4.83645,-5.00674,-0.0718991,1.05389,-2.28127,0.456408,-2.78081,-12.2596,-3.30046,85.888,-683.2,-727.12,560,2800,840
0.00347813,0.300881,-0.16723,0.33281,1.40806,-1.22373,4.18017,0.974354,-3.5217,2.38024,1.98548,0.730442,1.89871,0.382522,-0.819733,2.88648,81.984,-681.736,-723.216,420,2940,560
1.10626,1.35864,0.749991,1.14528,1.21187,-1.16047,2.94215,1.30863,-3.22223,3.18033,4.09127,1.53268,2.07674,2.12133,-1.99194,2.16912,84.912,-686.128,-725.168,280,2940,420
-3.33248,-2.1412,-1.96518,0.0620584,-1.44187,-2.37453,-0.549153,-1.80887,-7.23469,-1.29681,2.92109,-1.21788,0.562071,1.48525,-0.97521,0.404495,85.4,-686.128,-724.192,140,2800,280
-7.54891,-1.80903,-4.37851,3.3485,1.71978,-2.05294,4.95904,-2.21692,-14.9022,-5.90378,-0.727414,-2.24028,-1.69023,1.04675,3.34016,1.22238,84.424,-683.688,-726.144,140,2800,140
-10.3683,-5.89306,-5.27089,-0.33524,0.758907,-0.0313389,2.17838,0.591183,-10.8361,-9.08068,-0.0902617,-5.67988,-2.54318,1.39116,6.30502,1.23359,87.84,-683.688,-722.728,0,2800,0
-9.44348,-1.02825,-4.189,-1.23507,-0.853843,0.186973,-3.10735,0.727634,-4.36286,-7.71555,-0.115928,-3.69092,-3.1037,-1.55698,0.694315,-1.6794,89.792,-684.664,-728.096,420,2660,-140
-2.73042,2.9197,-0.426946,1.55754,-1.39606,3.16523,-3.47772,4.98911,4.47648,-3.59169,-1.00057,1.53076,-2.06774,-0.60398,2.46837,-0.446858,91.256,-684.176,-725.168,420,2380,-560
3.37658,6.30387,2.31284,6.90562,2.29866,4.49477,4.46819,3.36641,9.26441,1.38953,-2.11447,4.7069,-0.38769,1.11507,8.3703,0.330686,88.816,-682.712,-724.68,560,2240,-560
3.67784,3.5031,3.24125,4.98629,4.36558,4.03175,6.15711,1.36825,6.77536,2.6528,-1.74014,3.77179,0.661835,1.68394,8.07443,0.697061,93.208,-680.76,-727.608,840,2380,-840
3.69357,-1.64601,0.955122,-2.4664,-1.01995,1.13116,-0.0541842,-4.28807,4.98386,3.33595,-1.57477,-1.22143,-0.0220344,-2.48602,0.124628,-2.881,91.744,-681.248,-723.704,1260,1960,-980
5.03783,-1.56745,1.01017,-6.53595,-4.62578,-0.161534,-4.04777,-5.38569,8.03289,5.38944,-0.788889,-1.09477,0.302987,-3.9515,-4.36597,-5.81304,94.184,-682.224,-724.68,1260,1820,-1260
2.76328,-1.65378,0.973615,-7.38416,-5.61449,-1.56527,-4.54001,-2.35758,4.43476,4.62649,-2.42967,-1.05175,1.2474,-3.4325,-6.97385,-6.51228,96.136,-682.224,-724.68,1260,1680,-1400
-1.50418,-1.26914,1.11129,-1.20539,-0.764012,-0.0161225,-0.901299,2.98794,1.51855,0.493701,-2.6101,0.0575884,1.46842,2.24171,0.468286,0.395158,95.648,-681.248,-721.752,1400,1680,-1400
-1.95279,0.670719,0.155393,0.385766,1.50252,-1.10765,0.335895,1.66381,-1.6,-0.51426,-4.20667,-0.0141467,1.0554,2.25456,-0.0819539,1.00528,96.624,-680.76,-723.704,1540,1400,-1540
1.8462,-0.427559,2.14149,0.810175,2.34745,0.971061,-0.349937,4.81454,4.34232,1.07175,-3.11501,0.37938,1.51062,4.07167,2.7493,2.70102,96.136,-681.248,-723.704,1680,1400,-1540
-0.45368,-1.12822,0.546662,1.98205,2.43864,1.36734,2.10433,3.27435,-0.84354,-0.338062,-4.07207,-0.284116,0.784786,0.231633,1.12675,2.20083,96.136,-680.76,-723.704,1680,1540,-1820
-3.40606,-3.39274,-1.1337,-0.885223,0.19607,-0.725794,-1.73956,-0.357376,-2.24484,-1.88099,-1.05014,-2.44745,-0.56696,-1.04572,-1.15869,0.432959,96.624,-680.76,-719.312,1540,1400,-1820
-1.79532,-1.80423,-2.00028,-0.783278,-0.70129,-2.6971,-2.78161,-2.95894,-2.24816,-1.10234,1.70863,-1.39703,-0.487203,-1.77991,-1.53966,-0.798183,96.136,-680.76,-721.264,1680,1400,-1820
2.27043,-0.0487543,-0.301574,-1.10033,-1.36901,-3.93266,-4.42279,-4.56763,2.26707,1.6724,4.34344,0.30951,-0.151833,-2.89531,-4.45832,-2.00563,97.112,-679.296,-722.728,1680,1400,-1820
0.405969,-4.60649,-2.45316,-5.27796,-6.00118,-3.47903,-8.0053,-3.38844,1.5533,-1.60997,3.81532,-3.66761,-1.58674,-3.92282,-8.24934,-3.42116,96.136,-680.76,-722.24,1680,1400,-1820
-5.4101,-4.8512,-5.34664,-4.9573,-5.70145,-3.42964,-6.19142,-3.93299,-4.43366,-7.10995,1.36461,-5.46053,-3.11777,-4.01733,-9.40533,-3.04693,95.648,-679.296,-726.632,1540,1260,-1680
-4.53599,2.56647,-2.38576,4.07663,3.26468,1.37247,3.53667,1.45628,-3.1144,-6.86807,0.214329,-0.018889,-0.788685,1.67951,3.39195,4.00389,97.112,-677.832,-725.168,1820,1540,-1400
-1.04201,2.01344,-1.23209,6.65711,4.85495,2.52513,6.99352,3.5596,-6.36195,-3.73958,-1.29421,0.838467,0.0205523,3.92632,7.25825,5.09639,94.672,-677.344,-727.608,1960,1680,-1260
5.25937,4.34534,0.0654975,3.8719,3.57674,1.41438,5.24631,2.28021,-2.04025,2.88786,1.42321,3.26856,1.56733,2.72161,2.94369,3.60348,92.72,-678.32,-726.632,2100,1680,-1120
9.48004,5.81758,3.62193,3.64722,2.89649,2.00266,3.24793,2.76611,3.19927,6.92339,3.8585,6.89235,3.04598,3.58544,1.1785,4.36164,94.184,-678.808,-729.072,2240,1820,-980
4.92115,3.71915,3.21308,3.06291,1.64503,1.97392,3.02053,2.78584,1.78041,4.41437,2.36811,5.16856,1.68122,1.19608,0.974236,3.15744,92.232,-675.88,-728.096,2240,1540,-700
-0.530879,-1.21333,-0.554074,-1.13237,-2.00563,1.11894,0.484585,0.210832,-3.00327,0.257213,1.30861,0.151885,-1.0168,-1.77064,-0.361613,0.240823,90.28,-675.88,-731.024,2380,1680,-420
-1.81986,-3.8637,-0.48992,-4.27091,-3.03592,1.0121,0.443462,0.408422,-3.11425,-0.314494,2.24075,-2.23245,-1.78192,-1.32774,2.03811,0.328939,90.768,-674.416,-728.096,2520,1400,-420
0.949424,1.06771,1.2091,-1.69339,0.447149,1.01985,3.75072,0.153122,-0.408605,2.76454,0.88286,0.290972,-0.221335,-0.507424,3.73738,0.334208,86.376,-673.44,-730.048,2660,1540,-140
1.71512,2.43869,3.81058,1.68509,2.2714,3.22285,4.23919,2.67861,6.02851,4.08792,1.84407,2.22439,0.833806,2.43657,6.17716,3.23642,85.888,-674.904,-729.072,2660,1680,0
0.712863,3.75186,3.06009,1.7756,1.56436,1.55107,2.98191,0.0921699,4.31991,3.09628,1.86595,2.31233,-0.119308,0.479305,-0.0984722,-0.276003,87.352,-676.368,-731.024,2940,1540,0
-1.68305,-0.327933,1.21654,-1.55591,-0.5501,0.128139,-1.94468,-0.500294,1.29587,-1.07189,-0.815823,-0.850924,-1.31626,0.280251,-1.8558,-4.24086,86.376,-675.88,-731.024,2940,1680,280
-0.681655,-2.93148,-1.64589,-5.49225,-6.32453,-3.04631,-8.83375,-6.82683,-0.918832,-1.29225,-2.35596,-3.37242,-1.43123,-3.473,-8.48689,-9.15302,86.864,-675.392,-730.536,3080,1260,280
3.23312,-2.04266,0.784094,-7.50191,-7.06397,-3.18354,-10.4124,-8.00634,3.16972,2.16511,1.00077,-2.12628,0.928965,-2.67528,-7.53111,-9.1188,83.936,-678.32,-732,3080,1400,280
-3.92799,-3.34879,0.617412,-1.17472,-0.477065,-1.48935,-0.963167,-2.88958,-6.09678,-2.37655,-2.46439,-3.39642,0.225519,0.407636,3.52315,-1.90057,83.448,-676.856,-732.488,3220,1260,140
-7.18263,-0.622538,0.142413,5.41513,4.84535,-0.439381,4.75515,1.02054,-9.08074,-3.79142,-4.59777,-1.99379,-0.508151,3.28552,8.97199,2.35919,81.496,-676.856,-731.512,3220,1260,140
-6.10251,2.81613,-1.0187,5.39985,5.85997,0.306703,4.25742,1.86485,-2.15657,-3.77249,-3.04582,1.16832,0.284614,2.15336,5.40873,1.38128,80.032,-677.832,-733.464,3360,1400,0
3.48607,6.15544,2.17299,8.17047,7.09413,2.19885,2.23213,2.76085,7.98396,2.34613,2.28989,6.63252,3.33247,5.41273,4.91139,1.86483,81.496,-677.344,-729.56,3360,980,-280
8.44409,5.86049,1.50556,3.81777,3.03209,0.243861,0.40315,1.20012,6.71577,6.22713,2.55717,5.70033,3.39923,1.51327,-1.73977,0.966877,81.008,-675.88,-733.952,3500,1120,-560
8.5453,2.30213,1.43499,1.21627,0.735502,0.869283,-0.631076,2.95029,10.2718,6.82914,4.38377,2.76489,3.24222,0.0397259,-0.331763,2.88293,81.984,-676.368,-732.488,3360,980,-560
4.24163,2.85636,-0.338998,4.35812,3.05577,0.349846,4.98614,4.53337,4.77363,2.61338,-0.15489,2.20385,1.56537,-0.72765,1.3116,4.53464,80.52,-678.808,-733.464,3640,840,-1120
-3.43207,-1.53661,-2.72306,1.49499,1.60889,1.03776,3.97242,6.17071,-1.53419,-4.67456,-4.27421,-0.82627,-0.761598,0.831758,0.763457,4.8461,78.568,-678.32,-730.048,3500,980,-1400
-4.74837,-2.49028,-2.46587,-1.63586,-0.974675,1.0175,2.92427,3.11065,-2.28926,-4.68207,-3.93224,-2.25604,-1.52182,0.22878,-1.18256,3.44419,81.496,-673.928,-731.024,3360,700,-1540
-0.024952,2.96496,0.329111,3.71967,3.33568,2.10182,6.46329,3.76406,1.54262,-0.279192,-1.96508,3.80897,0.219057,3.30834,5.40992,6.11228,80.52,-677.832,-731.024,3500,420,-1960
5.47032,4.58585,3.20181,5.48329,4.67503,1.83706,4.57983,3.3083,4.74826,2.72642,1.12677,5.1631,0.721126,4.14237,7.0448,6.47743,81.496,-675.392,-728.584,3220,560,-2380
3.55191,-0.0644722,2.12575,-1.57257,-1.25045,-2.29144,-1.82382,-0.447859,1.26445,1.02478,1.79978,0.342748,-2.37988,-1.9773,-2.75619,1.69692,82.472,-676.856,-727.12,3640,420,-2800
-0.740861,-3.69172,-0.744963,-6.27188,-4.27204,-4.23432,-5.38396,-2.3579,-1.02083,-1.19081,0.368606,-2.96029,-2.64293,-5.15458,-6.15575,-2.78781,82.96,-676.856,-726.144,3500,140,-3220
-6.34174,-8.36757,-3.5797,-5.77335,-5.15251,-5.79771,-5.70659,-5.29892,-6.76646,-5.79097,-3.58375,-6.46508,-3.681,-6.02264,-5.63024,-4.71558,85.888,-676.856,-730.048,3640,0,-3360
-7.00315,-6.92183,-2.79503,-5.76806,-5.9409,-3.63014,-4.52398,-4.10043,-7.42611,-5.32169,-3.14269,-5.92187,-2.46378,-5.29024,-5.57698,-5.42657,84.912,-676.856,-728.584,3780,-560,-3780
-6.51171,-7.4743,-1.95412,-7.57882,-7.93556,-1.93693,-6.81627,-3.83746,-6.73906,-4.61353,-0.579293,-7.69701,-2.47522,-5.22752,-7.10756,-6.88654,87.352,-677.832,-729.072,4060,-700,-4060
-4.80456,-7.23068,-3.52039,-8.41484,-9.10665,-0.693018,-10.4821,-6.54779,-5.98195,-3.8362,0.518047,-7.46892,-2.37415,-5.22944,-11.1697,-8.37494,88.328,-675.88,-726.632,3780,-700,-4480
-5.89599,-8.0165,-5.6886,-11.3387,-9.57831,-0.767762,-11.6916,-7.17296,-7.52776,-4.96099,-2.32916,-7.8762,-2.65607,-5.54669,-14.0359,-9.42797,86.376,-674.416,-727.608,3920,-840,-4760
-4.70945,-4.31971,-2.41989,-4.68968,-2.71799,1.91534,-4.26224,-2.5015,-4.93536,-1.88074,-0.214528,-3.56095,-0.524439,-1.40037,-3.75067,-3.11956,88.816,-675.392,-728.584,3920,-1120,-5180
-3.66803,-2.9743,-3.65005,-4.08407,-3.00162,1.10421,-2.60107,-5.1645,-7.50672,-0.617528,-1.22395,-4.23929,-0.709477,-3.6476,-5.20457,-5.00719,92.232,-673.44,-726.632,4200,-1260,-5320
-4.63631,-6.62821,-3.19438,-7.73985,-5.6021,0.160861,-6.51609,-2.4845,-5.3291,-1.72193,-2.73938,-7.00534,-1.52655,-2.66778,-4.99593,-6.49289,92.72,-672.952,-721.752,3920,-1400,-5740
-3.21409,-0.743173,-2.96496,-1.68339,-1.83963,-0.151694,-0.764262,-1.08078,-5.04155,-1.05136,-3.7097,-2.5883,-0.664997,-0.983634,-1.25021,-2.73202,93.696,-671,-729.072,3640,-1260,-6020
-4.77151,0.226258,-3.70608,-1.2157,0.61721,-0.175291,-1.6582,-1.03777,-0.600286,-3.57847,-0.519026,-0.525694,0.465481,0.815205,1.49829,-1.85984,94.672,-674.416,-724.192,3500,-1260,-6160
-7.40361,-3.1172,-5.46066,-5.44151,-1.46358,-4.01612,-4.67895,-4.88269,-3.40633,-5.30689,1.12029,-2.31522,-0.438259,-1.15324,-2.71937,-4.85599,95.648,-677.344,-726.632,3500,-1120,-6440
-0.507592,0.654901,-1.44449,1.84128,2.91696,-2.6375,2.02144,-1.67028,-0.692277,0.0418641,1.77308,1.75142,1.5797,2.75755,6.7451,1.28989,96.136,-674.416,-720.288,3220,-980,-6720
7.96016,7.65371,3.57524,11.9913,9.69056,1.60238,10.8077,4.99779,3.80189,6.01944,4.67226,8.49652,3.81587,6.89992,15.21,9.45954,97.112,-676.856,-720.776,3080,-980,-7000
16.2333,12.7675,8.7061,15.2121,12.1023,5.66216,14.32,10.5318,10.2138,11.762,7.21169,12.3414,5.0684,10.263,15.3715,12.5474,97.6,-676.368,-721.264,2800,-560,-7140
18.1839,17.4881,13.1057,18.312,14.389,6.85858,16.5416,12.2824,13.495,14.4374,7.66229,15.7733,6.99674,12.2537,16.0562,13.686,99.064,-677.832,-721.264,2520,-420,-7000
16.7174,16.4666,15.1091,18.7015,13.7468,6.94219,16.3356,13.6407,16.4447,12.0544,8.02684,15.8865,6.54324,13.3048,19.1181,16.6224,100.528,-678.32,-720.776,1680,-420,-7140
15.8678,14.0458,10.7215,13.2242,8.63019,4.68185,11.9274,7.45397,15.1022,10.3612,5.88835,12.6599,4.85789,6.76708,10.1199,11.002,98.576,-679.296,-717.848,1400,-280,-7140
12.5646,9.70275,7.60115,9.17101,3.8517,2.59439,5.15911,2.54069,14.634,8.16909,5.6685,8.0547,2.32828,3.84704,6.8886,5.39594,100.04,-680.76,-717.36,1400,-280,-7140
6.36833,4.68411,4.13,2.88932,0.475468,0.319639,0.768145,-1.891,7.06679,5.73921,2.8483,3.39297,-0.00352908,-0.63742,-1.00364,-1.4872,99.064,-681.736,-721.264,700,140,-7000
3.96224,3.60317,3.88596,1.34686,1.75311,1.53943,0.823761,0.785041,7.47214,4.13886,1.0307,3.87948,-0.198297,0.375783,-0.335944,-2.08274,99.064,-679.784,-718.336,420,280,-6860
-0.263596,0.945054,1.83584,0.284125,1.35651,1.12734,1.72849,3.15426,3.79188,-1.0017,-3.44268,1.28163,-1.61377,0.237857,-1.57131,-0.110556,99.552,-678.32,-717.848,-420,280,-6860
-9.77777,-7.48996,-4.46189,-6.66245,-4.56645,-2.83681,-4.77917,-1.92216,-4.78643,-7.41027,-7.72581,-6.31909,-4.3025,-4.69517,-7.36533,-6.68621,99.552,-678.32,-717.848,-980,840,-6580
-16.0387,-10.9836,-8.02371,-9.52922,-6.93325,-3.66698,-8.20215,-3.42243,-6.96358,-13.2788,-7.50135,-10.4268,-5.12297,-5.82303,-7.43364,-8.03143,95.16,-679.296,-720.288,-1680,840,-6580
-17.234,-10.4091,-9.87814,-9.27872,-7.46125,-3.69664,-6.92397,-6.32421,-10.4734,-14.5157,-6.6724,-9.54267,-5.07371,-7.10989,-10.6557,-6.21242,98.088,-679.296,-720.288,-2240,1120,-6580
-10.384,-7.22725,-6.55457,-6.89669,-4.16772,-1.70267,-3.70327,-5.99077,-7.81696,-9.15168,-5.16355,-6.44474,-2.8291,-4.38811,-6.22958,-3.16458,101.504,-680.76,-719.312,-2520,1400,-6440
-6.29674,-7.74455,-4.7552,-7.37741,-2.88789,-2.21194,-3.49449,-5.16656,-7.72356,-6.05195,-6.51718,-6.68705,-1.9117,-2.79707,-5.74417,-2.32635,98.088,-679.296,-719.8,-3220,1680,-6160
-1.37938,-3.64549,-2.44976,-4.20905,-0.772077,-2.20414,-1.91128,-2.59857,-4.89775,-0.851974,-4.15746,-3.59577,0.693013,-1.28084,-1.50801,-0.0501461,97.6,-682.224,-721.752,-3360,1820,-6160
-1.92121,-5.51577,-2.39237,-4.00518,-2.98756,-0.957661,-3.73027,-1.66269,-4.99678,-2.10733,-1.06536,-4.22487,0.844901,-3.54528,-0.601827,0.744239,94.184,-679.784,-722.24,-3640,1960,-6160
-1.29973,-3.80513,-2.82586,-4.07903,-4.01407,-0.271615,-4.15541,-1.88211,-2.57943,0.157954,0.295893,-2.66296,0.99065,-5.02088,-1.30253,-0.482482,94.672,-680.272,-719.312,-4200,2100,-6160
1.72217,-0.768643,-1.38484,-1.06484,-2.29666,-0.999346,-2.54049,-0.679741,-1.33433,2.38711,1.46993,-1.04935,0.430913,-2.55475,-0.78634,0.953649,94.184,-681.248,-724.192,-4480,1960,-5880
0.761229,-2.93904,-1.32104,-3.47762,-3.82581,-1.4943,-5.50601,-0.578173,-3.52054,0.406382,2.10359,-2.78717,-1.44335,-2.29901,-4.88649,-0.888497,96.624,-679.296,-721.752,-4620,2240,-5880
-0.999257,-3.30244,-2.89961,-6.06336,-5.58882,-3.29037,-7.68105,-4.95694,-6.77712,0.615631,1.11736,-3.31302,-1.46137,-3.59806,-11.4869,-6.47711,96.136,-679.784,-719.312,-4900,2380,-5740
-3.82046,-5.78128,-2.26748,-6.74355,-6.40845,-3.58036,-9.14174,-4.34027,-4.37847,0.214676,1.78471,-4.2357,-1.92882,-1.94858,-10.0404,-8.06485,97.112,-679.296,-724.192,-4760,2380,-5740
-2.85893,-2.8041,-2.05074,-4.50443,-4.1576,-4.65521,-6.13471,-4.22127,-3.88427,1.28714,1.36986,-2.7266,-2.2501,-2.62354,-9.71135,-8.39844,97.6,-679.296,-721.264,-4620,2660,-5740
2.85128,4.54972,2.86283,5.01423,2.74834,0.447333,1.39173,2.23055,5.02386,3.76686,2.7017,3.1654,0.680439,2.57343,2.90408,-0.699049,95.648,-679.296,-724.68,-4620,2520,-5460
-0.958722,3.37082,1.61773,5.91487,3.99291,1.1259,4.71958,4.45547,-0.55038,0.870805,-0.715966,1.8007,-0.0340443,3.18281,4.17078,3.99972,95.648,-678.32,-724.192,-4480,2520,-5460
-2.13029,-0.316489,-0.734437,1.5877,3.10408,2.03653,2.83791,5.84519,-3.89853,-1.33892,-2.17045,-0.380319,-0.0757733,3.31428,4.70552,4.71379,94.672,-676.368,-723.216,-3920,2240,-4900
-0.289378,-3.21775,-1.46881,-4.58096,-1.26794,1.23944,-2.26509,2.66293,-4.8302,-2.44086,-0.476726,-2.05773,0.540089,-0.451828,-1.60693,0.313384,93.696,-676.368,-724.68,-3780,2100,-4620
-0.428633,0.307867,0.608019,-1.35654,-0.134153,0.677369,1.42644,2.9116,-2.54484,-3.24703,2.2688,0.104784,2.49645,0.172367,1.12625,1.8085,98.088,-677.832,-728.584,-3500,1960,-4340
-4.38152,4.42797,-0.512046,4.98046,4.16465,1.81408,8.20681,5.03013,-4.50236,-5.32561,0.642995,1.40524,1.93551,0.722727,8.13392,4.68148,98.088,-676.856,-725.656,-3360,2100,-3780
-0.491537,2.62853,0.368168,4.66775,2.92081,3.17969,6.79918,2.41354,0.447749,-3.19801,0.12935,0.9001,0.854694,1.53984,10.2091,3.86736,96.624,-673.928,-728.096,-2940,2100,-3500
8.47834,7.0193,2.59456,6.88683,3.79653,3.85329,7.45936,-0.60922,6.18348,3.02875,2.36102,4.81771,2.3232,1.888,8.36938,3.31888,94.672,-674.416,-728.096,-2940,2380,-3220
14.5785,8.81931,6.54701,9.90822,5.41837,5.71327,6.88403,2.01168,14.0633,8.96043,6.99232,9.2392,3.04577,5.81941,9.84594,4.87571,96.136,-674.416,-730.048,-3500,2660,-2800
14.0069,10.1542,6.73331,10.6263,7.39358,5.01086,8.0601,2.63872,13.3591,8.89312,5.77501,9.97244,3.00319,6.14318,8.40515,3.79475,99.064,-673.928,-728.584,-4200,2800,-2520
6.89798,3.44467,3.036,3.89301,1.83593,1.93234,1.21721,0.362173,9.25177,4.03791,3.28907,3.63925,0.759179,3.82113,3.32236,-0.477344,98.576,-673.44,-729.072,-4900,3220,-2520
3.65729,3.12055,2.61346,1.93107,-0.535185,-0.360004,0.209867,-1.44058,7.92605,4.10999,1.22599,2.86118,-0.854902,2.95712,0.582886,-1.54844,95.648,-675.88,-728.096,-5600,3920,-2520
-2.92379,-1.76722,-0.481246,-4.25255,-3.95012,-1.90161,-3.73818,-3.97896,1.50631,0.475789,-3.1035,-1.32212,-3.11034,-1.70952,-6.09763,-4.49349,100.528,-677.832,-731.024,-6300,3920,-2240
-3.85645,-4.78567,0.224318,-6.87958,-4.87273,-0.878594,-7.02459,-4.3812,0.408822,-0.515338,-4.90225,-3.17019,-2.2718,-3.5384,-8.06698,-4.75538,99.064,-675.88,-724.192,-6580,4200,-2100
-8.60039,-4.77765,-1.25556,-3.51685,-1.12264,-2.0367,-2.48903,-2.99565,-8.75922,-3.25017,-7.62835,-3.70701,-1.75722,-2.61109,-5.49123,-3.50588,99.064,-677.832,-722.24,-6860,4340,-1960
-9.14382,-4.94829,-3.1134,-2.05783,0.827783,-1.26029,0.282685,0.246575,-8.40714,-5.18644,-6.89436,-3.4931,-1.14092,-0.892941,-0.102858,-1.05834,97.6,-677.344,-726.632,-6720,4760,-1820
-5.28444,-4.71282,-1.85043,-1.91933,0.473028,-3.26132,-0.192142,-0.126791,-4.57146,-3.7889,-4.36294,-2.48128,-1.2856,-1.0998,-0.661183,0.454573,93.696,-677.832,-729.072,-7000,4760,-1820
-0.442435,-1.73529,-0.473273,-2.73819,0.472237,-3.19577,-0.990229,-0.0767439,0.958499,-0.417166,-2.47457,-1.2599,-1.20544,-1.6849,-1.7537,1.90799,96.624,-679.296,-728.096,-6860,4760,-1680
1.41185,0.767631,2.04221,-0.430216,2.00288,-2.23555,0.289968,1.57377,3.41958,0.391158,-0.120458,1.37091,-0.00100678,0.630526,-0.0253807,5.13622,100.528,-678.32,-730.536,-6860,4620,-1540
0.823209,2.11286,3.57155,0.77766,1.95343,-2.19992,1.32651,2.39175,2.23847,0.468568,1.65172,2.33455,0.927904,1.07029,0.6849,3.65781,99.552,-678.808,-731.024,-6580,4480,-1400
-2.12843,-0.261226,-0.581457,-2.62946,-0.745932,-2.50672,-1.8548,-0.470404,0.00157956,0.293237,2.20414,-0.906733,0.833177,-0.799422,-1.75009,-0.437071,99.552,-679.296,-731.512,-6300,4480,-1260
0.535228,0.801298,-1.29699,0.447317,0.337774,-0.661586,-0.394047,-1.02642,1.42857,3.39279,4.59591,0.667302,1.48357,1.2299,3.71589,0.728104,99.552,-677.344,-732,-5600,4200,-1120
3.17802,1.66647,-1.93119,1.51318,0.0191602,-0.0975621,0.297852,-3.16911,1.07203,3.8019,3.58512,1.39128,0.832388,-0.582291,1.85008,-1.31958,97.6,-678.808,-729.56,-5040,4060,-840
1.96197,-1.04199,-0.871391,-1.17891,-3.43221,1.08867,-4.37018,-2.29088,4.48435,2.38645,3.24879,-0.475585,1.3292,-1.8198,-1.10884,-3.64087,96.624,-675.392,-729.072,-4620,3780,-700
0.575683,-1.2845,-2.12179,-1.95307,-4.32305,1.17657,-4.14111,-2.18788,-0.49301,-0.242339,0.471907,-1.81162,0.173773,-3.53535,-6.46941,-4.04643,100.04,-672.952,-732.488,-4200,3780,-560
-0.994647,-5.12546,-2.11567,-4.00813,-4.49139,0.998274,-3.69778,0.0831765,-2.51481,-2.58521,0.862028,-4.26487,-0.639635,-2.29551,-2.68751,-0.851571,100.04,-673.928,-729.56,-3920,3640,-420
-0.152594,-1.72028,-1.32052,-1.12769,-1.62601,0.236043,0.261714,1.92429,-3.91231,-2.12154,1.73592,-1.8238,-0.692013,-1.6078,-1.83387,0.771844,99.552,-674.416,-730.048,-3780,3920,-560
-1.48174,0.178756,-2.74014,0.930105,0.755315,0.705675,1.97274,1.48854,-3.97961,-3.98994,0.585178,-0.990699,-0.264229,-0.91472,-0.210168,0.0229359,100.528,-676.856,-724.68,-3500,4060,-140
-1.2212,1.51563,-3.02451,1.04281,1.32963,0.803549,1.34378,-0.216456,-4.30554,-3.54416,-0.161091,-0.248618,-0.601429,-0.0455637,-0.679616,0.403548,100.528,-676.368,-730.536,-3920,4060,-420
0.47329,1.88869,-0.590097,1.72879,1.81652,1.90848,1.13311,0.496138,-3.69598,-0.358131,0.50955,0.66213,0.265104,2.51206,-1.23167,0.369127,101.992,-676.368,-728.584,-4620,4340,-420
0.911885,0.0968548,0.365074,0.169888,0.303331,2.37343,0.369159,1.68154,-4.55026,0.457881,-1.28574,-0.321523,0.277756,1.04869,-2.58264,-0.730565,98.088,-676.856,-729.56,-5040,4200,-420
2.17342,-0.312557,1.14453,2.1043,0.444916,1.33004,-0.758371,3.02563,-1.35131,1.2255,-0.25023,0.790677,0.0137339,1.85261,-1.25896,0.81054,101.504,-674.416,-732,-5600,4340,-140
-1.20972,1.78631,1.32002,3.06696,2.29482,-0.426509,2.75138,0.704481,-2.15445,-1.62252,-0.813162,1.44393,-0.105004,0.260024,0.176901,1.88569,100.528,-679.784,-729.072,-5460,4760,140
-10.7941,-2.78871,-1.10317,-0.56587,0.417233,0.981592,2.01753,2.28219,-7.25368,-8.46969,-3.34844,-1.75711,-0.711523,1.02602,2.62781,2.28929,99.064,-679.296,-732,-5600,5180,420
-3.55692,2.38278,-0.880336,4.63276,3.69862,2.94018,8.28391,3.43745,-5.99778,-3.6246,-5.39031,1.78246,1.29769,2.44743,7.49101,4.5737,101.016,-680.272,-730.048,-5740,5320,980
5.98295,5.34646,3.17162,6.3669,4.33053,2.81849,6.4144,3.16709,3.44934,3.03765,-2.64826,4.41012,1.49059,4.32455,8.19736,5.00416,100.528,-680.76,-727.12,-5600,5460,1400
8.05237,3.49748,3.94393,1.7245,-0.20941,0.966757,-0.501806,-1.14639,6.53167,5.09139,1.57894,2.41306,1.83019,1.09502,-0.274654,-0.250801,98.576,-681.248,-729.072,-5460,5600,2100
6.3686,0.942851,2.45044,-1.3794,-1.15644,-0.159691,-2.14,-2.96635,7.24609,3.35908,2.08736,-0.409796,0.721283,-1.36795,-1.75588,-3.66251,98.088,-686.616,-728.584,-5320,5880,2380
2.25749,-2.25798,-0.192505,-2.99554,-1.44834,-1.99054,-2.95283,-3.49808,7.2791,3.00819,1.20991,-2.73563,-0.874912,-1.07069,1.10237,-4.09096,97.112,-685.152,-735.416,-5460,5600,3080
2.49724,-0.115482,-0.219406,-1.24833,0.0984841,-2.71481,0.113599,-2.2532,5.93125,3.74399,0.886809,-1.14784,-0.600031,-0.870158,2.59099,-0.520809,96.136,-685.152,-736.392,-6160,5880,3360
1.82558,2.27272,3.30823,1.57471,2.7257,0.0357464,3.4603,4.03159,6.69656,4.878,1.11904,1.33453,0.463927,2.22809,7.45641,3.93702,93.696,-685.152,-734.928,-6720,5880,3640
-1.15492,-0.339468,3.41717,-0.181069,-0.168717,-1.25405,-0.760711,3.67803,3.27094,4.32019,-0.296405,-0.129985,-1.31632,1.52254,0.375884,1.97154,96.624,-684.664,-735.416,-7280,5180,4340
-3.87884,-5.23344,-0.513926,-8.69557,-8.06799,-3.04807,-13.9287,-1.43852,1.86062,0.649577,-1.03951,-4.24136,-3.33996,-5.18653,-13.6132,-5.46917,100.04,-684.176,-733.952,-7000,4900,4760
-7.24988,-10.0183,-5.00066,-13.3422,-11.9594,-3.50451,-17.3132,-3.54092,-2.01908,-3.52586,-2.021,-6.9256,-4.57229,-7.41593,-17.2479,-10.2198,97.112,-681.736,-736.88,-6580,4480,5040
-6.53942,-5.2381,-3.85209,-6.2451,-5.93943,-2.7597,-7.08038,-3.39725,-3.19823,-3.49408,-0.816717,-3.04814,-1.10434,-5.69787,-7.12723,-9.6482,96.624,-680.272,-737.368,-6860,4200,5180
-4.07232,-1.11989,-0.901292,0.0566014,-0.224606,-2.29604,0.521106,-7.18131,-4.08854,-1.73475,0.693935,1.56785,0.510097,-4.68598,0.809031,-5.3446,96.624,-681.736,-738.344,-6580,4200,5600
-0.136444,1.20159,1.99808,2.81088,2.49565,-1.78025,3.17202,-6.85718,-0.628483,-0.201511,3.26138,4.03816,1.11868,0.0126941,4.8331,0.760649,96.624,-679.296,-735.904,-6580,4340,5880
4.66524,4.45932,1.72312,4.62094,4.74954,-1.42825,6.9272,-4.08174,0.719643,1.41984,2.7311,4.358,0.640082,2.337,5.98435,3.74855,96.624,-674.904,-733.952,-7420,4340,6020
4.906,3.01288,0.310783,4.38899,4.71667,0.656475,5.65182,1.17639,2.94914,0.226602,1.59297,2.65669,0.589962,4.58601,8.50833,5.33114,100.04,-671,-735.416,-7560,3500,6300
2.97226,4.11274,-1.6165,4.05454,4.04259,0.847925,5.44766,1.04734,-2.46273,-1.24684,-0.306598,2.14534,1.75058,1.82664,3.32396,3.52288,98.576,-668.072,-732.488,-8960,4480,6300
-1.0212,4.36258,0.933858,5.77872,5.94268,4.73064,7.74521,4.83079,-2.4642,-3.1279,1.42125,2.233,2.29134,5.19074,9.29797,6.91436,91.256,-666.608,-730.536,-9940,4620,6300
-7.49253,4.19032,0.787016,6.28621,5.56795,3.61709,6.70671,2.79092,-5.62594,-7.1768,0.814245,1.72839,0.720617,4.10956,6.44467,6.4398,93.208,-661.24,-726.632,-9100,2100,7980
-5.9011,0.812669,0.323153,2.86295,2.70309,1.41755,2.20202,2.17773,-6.29982,-5.3014,-1.15491,0.372198,-0.784913,1.81876,2.33599,3.34046,94.672,-661.24,-728.584,-7280,1120,9100
-0.85617,0.485432,1.29245,2.08631,2.58797,0.269582,3.08769,5.8067,-4.95888,-3.33342,-4.14325,0.775161,-0.439417,1.83533,1.95283,3.56173,96.136,-659.288,-732,-6720,2380,9100
2.93284,0.841598,-0.155912,2.06005,0.708266,-0.238968,2.89003,6.02788,-1.12139,-0.90601,-4.19618,1.15472,0.289587,1.30515,-0.310745,2.66852,93.208,-656.848,-725.656,-8680,3220,9100
4.94104,-0.709292,-0.898857,-2.37895,-1.40025,0.825511,-0.53525,4.37304,1.4877,0.514773,-1.15295,0.0909579,1.58924,-0.549307,-3.53737,0.820473,96.136,-657.336,-728.584,-9660,3220,8960
4.9238,-2.38625,-1.02873,-5.70178,-3.25003,-0.414802,-4.34296,2.63913,3.60646,2.8242,1.66394,-1.82824,1.08411,0.145556,-5.2855,-1.47075,94.184,-653.432,-725.168,-10780,4060,8680
-0.756127,-6.03161,-5.6228,-9.69616,-8.20836,-2.44447,-7.64288,-0.551422,-2.31486,3.01872,-1.03741,-6.57502,-1.58405,-3.88017,-12.5169,-5.58438,93.208,-655.384,-732.488,-11760,4620,8680
-1.7182,-7.39937,-4.12586,-8.88104,-7.0488,-0.783335,-6.7252,0.762177,0.516337,3.22895,-1.12365,-4.98152,-1.1665,-1.44664,-8.92738,-3.88964,89.792,-656.848,-736.392,-12740,4760,8400
2.18773,-2.84014,-0.498586,-4.40479,-3.22878,-0.034701,-3.14004,-2.57204,2.18141,6.05823,0.990247,-0.871475,0.978299,-1.86925,-7.9025,-3.88668,90.28,-657.336,-734.44,-13580,4900,8120
0.013582,-4.69927,-0.740487,-3.38925,-3.08571,0.953156,-4.07433,-5.51333,0.343248,2.05399,1.82399,-3.3194,-0.132197,-2.52551,-6.64308,-5.00568,88.816,-657.824,-733.952,-14420,4900,7840
3.31529,0.86637,1.50298,3.20962,0.471356,2.13492,-1.22544,-4.13244,3.66921,2.92673,3.54347,-0.123542,0.0146794,-0.533261,-3.21766,-4.50426,88.816,-659.776,-738.832,-14980,4480,7560
7.26568,8.64415,5.74678,9.9045,5.47072,2.87254,4.46207,-1.00936,9.03686,3.90548,3.90259,6.27278,1.24745,2.22698,4.8209,-0.487695,87.84,-658.8,-737.368,-15400,3780,7420
7.15911,10.3647,5.04106,10.6773,6.28648,2.65299,6.43856,2.10946,11.0581,5.28275,4.26416,7.19339,2.68334,4.45565,9.51412,3.79997,88.328,-664.656,-739.808,-15540,3080,7140
-0.100348,2.9185,-0.936927,3.43146,1.17361,0.864838,2.93663,-0.124969,0.820422,1.10823,-0.699284,0.8548,-0.497544,-0.537156,0.851519,2.81316,87.84,-667.584,-740.784,-15820,2800,6720
-2.81525,-2.96766,-2.79682,-1.59305,-1.54469,-0.110599,-0.765621,-1.13345,-2.23625,-0.49755,-2.5979,-3.63196,-1.79313,-2.23831,0.740424,0.295887,87.352,-669.536,-736.88,-16380,2520,6160
-3.5099,-3.99895,-1.18599,-2.90183,-1.766,-1.41193,-3.22961,-1.05722,-2.68948,-1.68002,-1.05256,-3.23468,-1.91819,-1.80955,-0.356926,0.216142,88.328,-672.464,-738.832,-16520,1960,5740
-3.15321,-1.35812,-0.0133048,-1.65434,-0.604329,-0.681228,-2.93805,-1.88416,-1.52931,-1.49696,-1.83864,-1.99429,-2.03907,-0.587103,1.60511,-0.405601,90.768,-672.464,-733.464,-16520,1680,5460
-4.25292,0.17784,0.804267,0.44472,0.413859,-0.0287759,-0.882947,-0.662627,-1.77341,-1.90974,-2.11817,-0.601605,-0.44565,1.04204,5.51361,1.30867,90.28,-676.368,-736.88,-15960,1400,5180
-9.69737,-0.0859012,-0.92102,-0.012151,0.687502,-1.05829,1.08697,-0.853584,-4.77788,-6.89166,-0.734721,-0.753188,0.0672811,0.0779854,7.30413,3.00567,92.72,-680.76,-734.44,-15120,980,4760
-9.22545,-1.55128,-2.36728,-0.0480987,0.340962,-1.99536,0.626446,0.106889,-7.67199,-7.57449,-0.130396,-1.47972,-0.290617,-0.582535,5.52111,1.2666,93.696,-682.224,-735.416,-14700,840,4200
-3.06439,-1.85011,-0.380542,-1.00977,-0.803363,-1.24562,0.208414,1.97298,-4.67469,-3.96172,-2.7568,0.218486,-1.01438,-0.363553,3.93239,0.633721,91.256,-682.712,-733.952,-14000,700,3920
2.77716,1.14176,2.35378,-1.31782,-1.16269,-1.89184,0.116714,-0.659373,-3.52247,1.34238,-4.73797,1.43167,-0.32691,-2.63229,-0.893151,-0.605133,96.136,-684.664,-732,-13720,700,3500
4.62071,0.286617,3.88653,-1.18228,0.133826,0.00872329,-0.35364,2.0882,1.63411,2.27598,-0.428508,1.48997,1.15518,-0.511255,2.74547,0.863848,98.576,-686.616,-736.88,-13300,700,3080
1.19735,-1.55463,0.453853,-1.97031,0.487406,0.197245,0.565878,-0.942906,-3.44594,-2.04065,-0.534699,-0.690469,-0.372933,-2.32858,-1.20896,-2.54444,97.6,-688.08,-733.464,-13300,560,2520
0.364809,-0.308177,0.023063,1.43015,1.28469,-0.350224,-0.786487,-1.79794,-0.835003,-2.71791,-0.746576,0.180287,0.405827,-0.100392,0.326977,-1.5954,96.624,-688.568,-733.952,-12880,840,2660
4.40931,3.47178,0.998386,4.65895,2.30973,-2.05557,1.93221,-4.00183,1.99951,1.57397,1.61929,3.456,1.35635,1.2873,0.0272788,-0.655928,98.576,-685.152,-734.44,-12040,280,2940
6.70675,5.08394,3.34335,3.29061,2.00814,-0.98093,1.58896,-1.94307,6.50781,4.44045,3.67171,5.95924,1.67189,1.68202,0.343832,-0.224781,99.064,-687.592,-736.392,-11200,0,3080
3.56507,3.34477,2.22926,0.119159,1.10611,-0.772941,1.06787,0.577782,6.40586,3.84544,3.67385,4.60233,0.599603,1.78562,-1.88147,0.842968,99.552,-683.2,-734.44,-10500,980,2940
1.61147,1.62836,0.536815,-0.771656,1.2317,0.843176,2.01574,1.79399,5.74016,3.01446,3.30944,2.70658,0.711496,3.19424,-3.63137,0.936408,103.456,-687.104,-732.976,-10220,1120,2940
1.83315,-0.503471,-1.39192,-2.97845,-0.00262197,0.846538,0.769596,2.95821,4.80229,2.17442,2.11902,-0.50474,0.958752,1.89914,-5.10392,-0.0999973,99.552,-683.2,-737.368,-10500,1260,2940
0.33491,-4.16212,-0.773661,-3.70853,-1.63098,1.44037,-0.677076,3.93547,2.18193,0.362219,1.28929,-2.21185,0.864156,1.88618,-5.26804,1.16487,101.992,-683.2,-733.464,-10780,1820,2940
1.34879,0.967935,-0.68788,0.259604,-0.233264,0.962021,0.194992,0.231238,1.9797,1.94942,-0.181194,0.191512,1.20352,-0.673382,-4.75438,-0.321813,106.384,-680.76,-736.392,-11480,2240,3080
0.808182,-0.901866,-0.837448,-0.760809,-1.51755,-0.208392,-1.5535,-0.79963,1.27912,0.544371,0.072135,-1.93306,-0.623759,-0.853979,-1.84472,-2.2221,102.968,-677.832,-734.44,-12320,2800,2940
-2.42696,-1.98117,-4.87688,-1.20482,-1.71675,-2.06873,-0.190644,-0.907341,-6.00622,-3.20086,-1.57838,-4.03659,-1.72927,-2.42336,-1.8745,-2.0159,101.016,-678.808,-732,-13160,3080,2940
-5.19922,-2.41769,-2.77781,2.33605,1.85066,-0.0279795,2.93599,2.92746,-7.24804,-4.75774,-1.84512,-3.45021,-1.52842,2.31021,5.20973,2.89411,98.576,-678.32,-731.024,-13160,3500,3220
-5.66401,-2.76048,-2.74777,2.91073,2.02698,1.16951,3.63472,4.20309,-8.39362,-4.02415,-4.24132,-4.0338,-1.90896,2.59182,4.73653,3.28035,98.576,-678.32,-734.928,-13440,3920,3220
-5.56339,-5.77087,-4.09374,-3.35163,-3.41718,1.11848,-4.95915,4.05086,-7.87154,-4.96103,-4.17942,-6.01376,-2.75759,-1.60075,-4.49982,1.23069,97.112,-677.344,-733.464,-13580,4060,3360
-3.7934,-5.54577,-1.35535,-5.63586,-6.98139,1.79527,-10.8867,4.77145,-2.71922,-3.07124,-2.02411,-3.84626,-2.25456,-2.78482,-7.29897,-1.52297,99.064,-675.392,-734.928,-13860,4760,3500
-0.44775,-2.03761,0.156586,-4.35942,-5.62392,0.666594,-6.02899,0.423834,-0.533302,0.89954,-0.604819,-1.16863,-1.05788,-3.55843,-6.32964,-7.25859,97.112,-673.928,-736.392,-14420,5600,3500
7.65234,4.74591,5.24383,-0.326453,0.311735,2.09416,-0.558967,-2.75706,8.84169,7.2358,5.26763,4.72739,2.64719,0.193143,0.82719,-3.20065,98.088,-673.44,-734.928,-14840,6020,3640
8.24749,4.99878,3.92088,3.00259,2.43737,0.535645,2.29324,-6.22052,7.3898,7.06733,6.79016,5.10985,3.12796,0.213821,2.70742,1.83851,97.6,-674.416,-735.416,-14980,6580,3780
-1.82779,1.25977,0.986028,0.99012,0.301538,-0.785929,1.33791,-6.77386,1.31861,-0.0635185,3.96829,1.38884,2.09012,-2.47198,2.72977,0.356847,96.624,-676.856,-736.392,-15260,6860,3780
-7.44165,-2.37194,-2.12047,-1.20492,-0.751636,-1.51174,-0.189586,-4.89742,-4.29413,-4.99833,-0.344559,-2.98465,-0.524411,-3.09528,0.660738,-1.27054,98.576,-674.416,-734.928,-15120,7000,4200
-1.2796,2.01273,-0.439286,3.17044,3.47516,0.251184,3.50468,-1.93737,-1.80777,-0.758108,-1.50222,-0.864916,-0.0149636,0.74474,4.41758,1.05964,98.576,-675.392,-734.44,-14700,7560,4200
-0.895913,1.21565,0.396046,4.04349,2.66157,0.754992,5.64221,-0.427888,-4.32792,0.751855,-4.31817,-1.33363,-0.230488,2.34605,4.42315,3.23405,99.064,-673.928,-735.416,-14420,8120,4200
0.369203,0.3415,0.971318,2.78014,1.23136,0.324432,4.49116,0.414629,-1.1198,1.08582,-3.46304,-0.690541,-0.245333,2.41792,4.07329,4.19358,101.016,-671,-738.344,-14000,8540,4480
7.58472,8.78443,3.15974,6.69927,5.16365,-0.127262,4.66348,-0.272855,6.05978,4.74,0.521455,6.46923,1.31336,2.43967,5.20295,5.00357,100.528,-670.024,-737.368,-13720,8400,4620
4.77186,4.37186,3.75711,3.28671,3.16901,0.243871,1.40305,1.90746,6.32983,2.44479,1.20865,4.48579,1.72573,3.19801,6.20269,3.96718,97.6,-668.56,-735.904,-13720,8540,5040
-2.9581,-1.27193,-1.74289,-3.35417,-3.27665,-2.43994,-4.12031,-2.17621,-0.497281,-1.81371,-1.03801,-0.540661,-0.174227,-3.14469,-4.5497,-4.27715,97.6,-669.048,-735.416,-13300,7980,5320
-3.05723,-3.45311,-2.92719,-3.32316,-3.54666,-0.577819,-3.41697,1.20284,2.55296,-2.12755,-0.119904,-1.66056,-0.689974,-1.83217,0.589329,-3.74031,97.112,-665.632,-734.928,-13300,7980,5180
3.18446,0.208678,-1.92156,-2.1716,-0.723093,-1.91587,-0.747011,0.520236,6.96851,2.4602,1.55568,2.17847,-0.455185,-1.36128,0.9444,-0.598702,94.184,-662.704,-737.856,-13580,7700,5320
3.42793,-0.249161,-0.486629,-1.86303,-0.927102,-0.862436,-0.840445,2.66288,7.69169,3.04795,1.95392,3.30249,-0.73057,0.546997,0.27157,-0.672737,93.696,-662.216,-736.88,-14280,7560,5180
0.938051,-0.207205,0.286202,-0.0619902,1.19798,1.1713,0.33812,5.48871,2.39878,0.118277,-0.158471,2.43577,-0.54642,1.9818,1.42251,-1.13183,96.624,-662.704,-736.392,-14980,7700,5180
0.929022,2.88492,1.64642,3.46592,4.4926,2.93701,2.51653,5.08167,-0.75361,-1.28492,-0.763608,3.63825,0.653948,3.39404,3.06124,0.459077,96.136,-661.728,-738.832,-15260,7420,4900
-1.54577,2.33103,2.23583,3.55347,4.34697,2.56369,3.34392,2.93952,-3.69898,-1.40622,-1.43713,2.31559,0.14165,2.27391,1.01902,-0.0973437,96.624,-661.24,-737.856,-15120,7280,4620
-2.25388,-2.1565,0.824709,0.723321,1.80925,0.675392,1.32004,1.27593,-3.72019,-1.47428,-1.03191,-0.461924,-0.901407,1.77156,-2.5629,1.90662,95.16,-661.728,-742.736,-15260,7420,4480
0.354005,0.133339,0.0676429,0.120784,0.386222,-0.291738,0.789675,-1.31669,-3.07572,-0.828471,-2.51194,-0.295376,-0.250754,-0.737803,-4.89011,2.00425,96.624,-661.24,-746.64,-15400,7280,4340
-5.7876,-5.72496,-2.01177,-4.54005,-3.19095,-1.07535,-3.85186,-2.19836,-9.68099,-5.28391,-4.01073,-4.75522,-1.27053,-2.24351,-6.24937,0.418703,94.672,-658.8,-743.712,-15400,7140,4060
-6.99717,-6.43008,-3.713,-5.76417,-4.21241,-2.11771,-3.58375,-3.37978,-13.6419,-6.30261,-4.35163,-7.31175,-1.5979,-4.0799,-6.89844,-3.84429,97.6,-658.312,-742.736,-15680,7140,4060
-1.45235,-7.63725,-0.891627,-8.84688,-6.2758,-2.47185,-6.15515,-3.81057,-6.90516,-1.70244,0.249552,-7.15076,-0.937697,-3.97202,-6.70721,-4.44263,95.16,-658.312,-741.272,-14980,6580,4060
-1.55552,-5.84169,-0.158707,-5.80513,-4.51336,-1.99245,-5.46561,-5.19474,-6.25137,0.484557,3.10327,-4.99844,0.395815,-3.51773,-4.86469,-4.30821,96.136,-654.408,-745.176,-14420,6580,3780
2.99183,1.68552,1.16764,0.376554,-1.66246,-1.42664,-2.63555,-4.96695,1.28835,2.97824,3.70701,-0.446303,0.467897,-1.3332,-1.57745,-2.61364,95.648,-656.36,-738.832,-14560,6580,3640
9.36906,6.12141,3.30421,2.84879,1.08637,-1.03035,0.763664,-2.65433,10.5051,6.18051,6.7044,2.90958,1.47386,2.37753,2.27046,1.81771,96.136,-656.36,-741.76,-15540,6580,3360
0.819589,2.66716,-1.90986,3.12361,1.83196,-2.60007,2.24881,-2.34453,3.0566,-1.46479,3.63872,-0.800742,-1.37776,-0.382944,0.144037,0.525883,99.064,-654.896,-742.248,-15400,6300,3220
-4.14021,2.10638,-2.35175,3.99415,0.868239,-0.39423,1.8713,3.99883,4.62193,-4.43637,2.93538,-0.782908,-1.67558,-0.769685,4.6285,0.694279,96.136,-654.408,-745.664,-15260,6440,3080
-1.95507,2.90111,-0.508218,3.91805,1.56313,-0.562646,2.26326,3.63357,4.62755,-1.50229,2.16374,0.84895,-0.840511,-0.753848,3.56189,0.20113,98.088,-655.384,-746.152,-15400,6160,2940
2.07497,2.30492,0.969853,2.28198,1.63165,2.17657,2.84124,2.35306,5.45316,2.43407,-0.1525,2.59208,0.929371,1.00906,3.54853,2.32264,96.624,-652.456,-745.176,-14700,6020,3080
3.70615,-0.144591,0.771343,-1.02406,-0.0993239,2.84213,-1.00508,0.238899,4.55671,4.19671,-2.6903,1.56138,1.2536,0.430524,-0.507947,0.124989,94.672,-651.48,-746.152,-14140,6020,2940
0.858583,1.19544,0.829009,3.04087,1.66661,3.17104,2.78838,3.33981,0.888292,2.08355,-4.80799,1.94031,1.758,2.68615,4.56347,4.55028,96.624,-650.504,-745.664,-14280,6300,2940
-0.273193,4.78574,3.21779,10.1106,6.314,2.87639,8.56003,6.94429,-1.15435,1.1,-3.8238,5.87382,2.19103,5.96983,12.6366,7.80601,95.648,-649.04,-745.664,-13860,6440,3220
0.689007,0.237041,3.02128,3.43296,2.7895,0.739981,3.4443,5.01282,0.673454,0.277433,-2.29283,3.68624,1.91129,5.16819,6.13324,2.95806,95.648,-649.04,-743.224,-13440,6440,3220
-0.153849,-2.50338,-1.03542,-4.29496,-3.97802,-0.299921,-2.35424,1.25801,-1.32242,0.176372,-2.2412,0.715619,1.4503,0.0344676,-5.81323,-2.73417,95.16,-648.064,-742.248,-13020,6300,3500
-1.72656,-4.38247,-1.78824,-4.73291,-4.61384,0.94788,-3.24691,0.337857,-1.59546,0.606985,-0.646502,-1.38514,0.773332,0.983555,-3.98539,-0.178564,93.208,-649.528,-740.784,-13300,6580,3220
0.158973,0.994771,-1.38992,-2.0109,-1.26472,0.484196,-0.942687,-4.26585,-1.57481,2.73671,1.17156,0.225334,1.08787,-0.0173182,-4.16538,-0.00736362,94.672,-648.552,-738.832,-13440,6580,3080
0.395974,2.39976,1.49585,0.0309864,1.48191,2.36638,-1.24035,-2.5767,1.40534,1.15551,3.39779,1.32053,0.755361,0.201625,-1.57286,-0.630795,94.184,-650.504,-740.784,-14000,6440,3080
1.44161,4.87127,2.75622,3.43666,4.6617,3.11212,3.5862,-0.737113,0.313297,0.526215,3.52981,2.50932,0.0117979,0.204131,0.735189,-0.677818,95.648,-649.04,-740.784,-14560,6580,3080
-1.65222,-0.619794,-0.588983,-0.900759,1.49329,2.53578,-0.608463,-1.21129,-3.19029,-1.4466,1.5348,-2.41984,-0.767277,-2.4786,0.0795757,-3.18311,96.136,-649.528,-743.224,-14560,6160,3360
-1.86511,-3.13455,-4.04187,-4.48694,-2.47662,-0.739776,-5.39517,-3.64341,-3.2923,-0.760323,-0.997447,-4.67349,-1.22348,-4.84447,-3.63203,-3.81653,94.672,-649.528,-745.664,-14420,6160,3640
0.37871,-3.20592,-3.47629,-8.8137,-4.51312,-2.65035,-7.18552,-3.21055,-0.866115,0.238345,-0.894993,-4.17263,-1.74509,-4.94898,-7.0018,-2.84655,95.16,-649.528,-746.152,-14000,5880,3920
-0.341167,-3.79408,-2.46833,-8.77969,-5.06329,-3.10692,-5.11073,-0.748021,-4.14011,-1.53496,-1.12342,-4.63316,0.223529,-2.69088,-6.60092,0.281136,95.648,-647.088,-745.664,-12880,5600,4480
0.440725,-5.54777,-1.23058,-8.02749,-6.91617,-5.50746,-6.15319,-1.52452,-2.43412,-1.76074,0.780664,-5.18815,-1.44465,-1.89688,-7.09471,-3.49913,91.744,-648.064,-743.224,-12180,5600,4760
0.799707,0.680926,-0.63215,-1.07207,-0.484764,-4.1573,1.31578,0.824573,-0.76014,-1.78101,0.364441,-0.228978,-2.77061,-0.681318,0.0473583,-1.21562,92.72,-646.112,-743.712,-11760,5320,5180
-8.14985,-6.29375,-2.56327,-1.1297,0.0554431,-3.20673,3.39953,3.17446,-9.33318,-7.10946,-2.60128,-4.13998,-4.9447,0.731147,4.71347,1.9365,92.232,-647.088,-740.784,-11620,5040,5180
-4.42892,-1.45038,0.381921,2.63623,0.918188,-1.4792,3.81318,1.52062,-4.2444,-3.51849,-2.19499,-1.05402,-3.32608,0.603083,4.01079,1.82422,95.648,-647.088,-745.176,-11760,4900,5460
5.10112,3.52252,4.07455,6.02919,3.42066,2.49368,4.25188,3.2047,7.32181,3.60308,2.17469,4.74896,1.01129,2.93076,5.57566,3.1516,94.672,-651.968,-742.736,-12040,5040,5600
4.52114,5.67296,5.10585,8.97191,6.31239,4.20647,8.41863,2.51019,7.81224,3.88262,1.54397,6.09066,2.5148,3.84668,7.20101,4.00358,96.136,-649.528,-745.664,-12040,5040,5600
5.77984,11.1948,6.50828,17.2788,11.7013,4.3379,13.0967,1.89002,10.8605,4.47014,0.828498,10.0929,3.87717,6.50038,14.3158,4.98649,99.552,-650.016,-742.736,-11760,4900,5880
6.35232,11.3838,5.48892,15.3004,9.0213,2.11209,4.61749,-2.55114,14.5505,3.39176,1.93153,9.66712,1.95028,4.7304,10.5112,-1.30842,99.552,-649.528,-747.616,-11760,4760,6020
-2.16746,4.12645,-1.73544,4.38938,1.24263,-1.63501,-3.26878,-9.35685,2.88729,-2.38578,0.148984,2.71398,-0.887435,-2.65028,-2.93301,-5.45939,100.528,-652.456,-742.736,-11620,5040,6160
-2.2987,-4.30639,-3.75039,-7.01955,-5.80226,-2.50383,-10.5279,-7.92337,-0.941249,-3.59879,-1.50254,-3.34087,-0.971705,-6.33797,-11.9349,-7.26066,99.552,-651.48,-743.712,-11200,5040,6300
4.30472,-2.21972,-2.10421,-9.00342,-7.64087,-3.40702,-10.9355,-5.60731,3.34369,1.12655,-0.876211,-1.8335,-0.489587,-5.45707,-15.3759,-7.43917,98.088,-654.408,-743.224,-11060,4900,6160
2.94164,1.57067,0.615058,0.717195,1.3697,0.145367,0.79028,0.0516343,1.45267,4.34828,0.8773,2.87292,1.35495,1.51571,1.11585,0.770538,96.136,-655.384,-740.296,-10780,4760,6160
-4.6235,-2.40102,0.98462,1.27908,3.22561,1.57383,4.20354,2.62204,-6.17164,0.0665562,-1.60116,0.351077,0.264744,3.18129,4.55076,5.60303,98.088,-655.384,-739.808,-11060,4900,6020
-8.63283,-10.7706,-3.66707,-8.07672,-6.31799,0.343684,-0.464551,4.50214,-12.235,-5.46699,-3.10425,-8.17291,-1.21566,-1.12371,-1.12726,5.58664,99.552,-657.336,-740.296,-11060,5040,5740
-4.18077,-4.95253,-2.5947,-3.32929,-3.31195,1.14042,1.16909,5.98763,-7.69947,-3.28224,-2.47351,-4.98315,0.383322,0.397468,1.36389,5.79181,96.624,-659.776,-742.248,-11900,5320,5180
-5.00979,-7.47471,-3.7362,-2.66155,-1.61047,2.96949,5.12239,8.08638,-6.74145,-2.54385,-3.09107,-5.31758,0.0219615,1.10362,6.00868,4.69441,97.6,-659.288,-739.808,-11900,5600,4760
5.2407,11.2978,1.99145,16.0437,11.8087,4.13166,16.452,9.28904,5.2368,3.28264,-0.494309,8.22723,3.01565,6.46199,19.6438,7.42709,100.04,-661.24,-743.224,-12180,5740,4480
-3.49578,2.34162,1.92051,7.55156,6.33436,1.57214,6.87305,5.62872,-3.85034,-1.66285,0.162937,2.07624,2.54298,5.37682,12.6477,3.41408,97.6,-661.728,-742.736,-11900,6160,4340
9.62745,-0.645537,1.93987,-14.1513,-9.12651,-3.4526,-12.2774,-3.3954,10.046,5.09088,3.71066,-1.04686,2.29238,-3.92984,-18.5063,-8.14825,99.552,-659.288,-745.664,-11900,6300,4060
5.78059,-13.4168,-3.08575,-28.8694,-21.8339,-6.36384,-24.6985,-6.19434,3.21513,4.6471,7.12732,-11.764,0.0229318,-9.45892,-33.3301,-13.9834,101.016,-663.192,-744.688,-11900,6720,3920
0.885079,3.27425,-2.04954,-3.39328,-6.92857,-4.93961,-13.3224,-6.76423,-0.0971266,2.63329,4.35739,-1.9972,-0.938003,-5.97203,-16.7616,-8.40302,102.968,-663.192,-748.592,-11060,6860,3780
2.31981,6.24765,0.588989,1.9413,0.947577,-1.83633,-6.12374,-5.07271,6.99458,2.08668,1.20877,4.39611,-0.915853,-2.69992,-5.02086,-2.82176,103.456,-661.728,-752.496,-10780,7280,3920
-13.9657,-18.6926,-7.94434,-17.8788,-12.2083,-2.30844,-11.3616,-4.88307,-16.6957,-9.04563,-4.46252,-12.4085,-6.00335,-8.56544,-11.1211,-5.73974,100.04,-664.168,-754.936,-9380,7700,4340
-4.3147,-4.75477,-2.75387,-7.38516,-4.90438,-1.0247,-5.24106,-3.43264,-4.94944,-3.00429,-1.42581,-3.57236,-3.61333,-5.2518,-2.55718,-2.49372,102.968,-664.656,-756.888,-8400,7840,4620
-15.9004,-11.9237,-4.58835,-3.16647,1.0174,1.44293,7.58362,2.89226,-22.9963,-8.96382,-5.0685,-9.61834,-3.32941,-1.2385,8.82773,8.2146,101.016,-661.728,-756.4,-6860,8260,4900
-5.4723,2.23873,0.830973,6.71092,6.10143,2.69577,4.77518,4.07504,-9.28407,-5.48755,-5.11597,-0.506959,-2.00521,3.47301,3.31147,5.98885,100.528,-659.288,-760.304,-5040,8820,5460
-1.13577,8.82004,3.06798,11.9343,9.32935,3.61431,5.92632,4.28239,-5.04835,-1.13989,-0.970794,3.0989,0.266622,5.26269,3.90997,2.86052,98.576,-655.872,-758.84,-3500,9240,5740
14.9411,24.3513,12.7677,33.4727,26.2248,7.85638,22.5438,8.60564,17.8698,9.35648,5.81471,18.1967,6.38736,14.8381,30.9178,13.6345,99.064,-650.016,-760.304,-1960,9660,6160
20.1504,23.593,12.3894,25.3593,20.8104,6.29621,18.0275,3.41886,22.1913,14.3447,6.88562,19.4332,7.95884,11.1556,24.7745,9.49776,98.088,-646.112,-763.232,-420,10220,6720
13.0709,12.1243,8.16281,9.73964,8.9562,3.23233,6.77392,1.33943,15.3064,10.612,7.02382,11.0351,5.19621,7.90435,10.6489,1.70709,97.112,-644.16,-763.232,1400,10360,7280
3.5324,-1.84702,-0.770853,-6.08181,-4.6173,-1.43451,-4.98721,-5.01755,4.64832,2.12721,1.04757,0.0906075,-0.357599,-1.75322,-7.97993,-8.64418,100.04,-642.696,-763.232,3080,10920,7840
-10.0883,-23.3138,-13.5791,-31.4678,-23.3639,-7.39078,-17.2159,-8.81877,-7.81016,-8.58276,-5.25891,-17.9914,-6.08207,-12.7278,-26.4367,-14.7515,98.576,-637.816,-764.696,4480,10920,8260
2.32781,-8.68343,-5.45981,-16.1562,-13.5402,-6.7086,-10.3623,-5.57941,10.6243,-1.66227,-2.82694,-5.41183,-3.509,-6.39907,-12.8497,-8.50334,99.552,-637.816,-760.304,5740,11060,9380
6.39816,5.89703,3.46466,5.95533,2.41784,-2.19325,4.55288,-1.81622,8.02074,3.27733,-0.538254,7.51855,-0.218952,2.00776,4.02144,0.319164,98.576,-633.912,-758.84,6860,10640,10080
-4.37684,2.63034,1.96825,10.9798,5.83168,1.32973,11.1106,3.69664,-3.59143,-2.6544,-1.37731,4.53997,0.739347,5.24214,16.024,7.08857,99.064,-636.352,-761.768,7980,10080,11060
-15.4897,-3.08036,-0.840458,17.4904,11.7846,4.48144,20.5312,4.79146,-18.2817,-9.66215,-5.57927,0.480099,-1.66193,6.99949,27.2446,12.3018,99.064,-634.4,-760.304,8540,9800,11900
-17.8847,-3.23784,1.00681,16.3098,14.6082,7.29486,20.7576,6.69702,-21.8901,-10.6221,-5.74746,-0.20653,0.0193525,8.24112,26.3079,13.0889,95.648,-632.448,-759.816,9100,9100,12320
-19.5187,-13.4011,-5.4774,-2.3364,-0.768621,2.35096,3.36012,2.64221,-21.3841,-12.0954,-5.38903,-10.5869,-2.17071,-0.781478,2.76613,3.97309,93.696,-630.984,-755.424,9100,8120,13020
4.66283,3.70581,-2.41289,-2.64331,-5.21789,-0.535583,-6.66116,-0.76943,13.018,3.01901,1.93347,-1.52156,-0.862379,-4.32462,-10.0026,-3.71575,91.744,-632.448,-753.472,9380,7700,13020
17.8493,14.1481,3.14648,2.56636,-1.00679,-1.32059,-6.83713,-1.07398,26.0402,12.0878,6.32134,7.18617,1.29926,-2.20456,-8.8198,-3.23386,88.816,-630.984,-756.4,9100,6860,13020
6.3907,-2.26975,-0.936332,-16.0904,-12.2578,-4.31114,-20.4731,-5.32429,8.54776,6.71427,6.1007,-2.73682,0.531193,-7.9542,-25.3831,-12.3665,87.84,-628.544,-753.96,8680,6160,12460
11.3176,7.2985,0.483987,-12.9133,-11.8474,-5.03597,-24.2816,-10.7574,13.9138,7.96745,5.26788,2.52542,1.40168,-10.5503,-28.6146,-16.5825,87.84,-627.568,-748.104,7980,5600,12180
22.2277,10.7737,8.82096,1.15231,3.48482,-0.277284,-1.00712,-2.31956,26.4869,11.9596,7.93517,10.3746,4.66357,1.36215,2.55564,0.548741,86.376,-626.104,-749.568,7280,5320,11480
4.19381,-1.30143,2.22648,-6.90878,-1.62479,-1.04456,-7.46927,-2.58546,-2.13356,2.997,2.80151,2.02966,4.03948,-0.837402,-11.8754,-2.32946,84.424,-623.176,-751.52,6860,5180,10780
2.32562,-9.84599,-3.75951,-23.4759,-18.3181,-4.62919,-29.0248,-6.62941,-1.03303,1.27394,3.21821,-6.02561,1.44584,-8.29373,-34.426,-14.1335,83.936,-623.664,-750.056,6440,5040,9940
-3.35572,-14.0452,-9.00791,-16.1099,-14.3019,-4.79332,-9.41352,0.557941,-9.96288,-6.11112,-3.48106,-11.9394,-2.3434,-6.7952,-14.902,-3.80098,82.96,-623.664,-753.472,5880,4760,9240
3.27957,-2.89797,-0.0617654,-0.554482,0.742489,1.03415,5.95182,9.62334,-2.56226,-0.500606,-1.92335,-1.39006,0.529219,4.49524,6.26717,9.17024,83.448,-624.64,-751.032,5600,4760,8680
-2.1417,-0.750888,1.71892,1.04178,3.14627,1.79219,6.28539,8.21367,-7.10358,-1.55265,-0.989173,0.252958,0.566004,3.92232,5.12053,4.88891,83.936,-624.64,-752.984,4900,4760,7700
-17.0225,-13.0785,-5.50857,-0.895202,0.668651,-0.37791,9.76857,3.82015,-23.4881,-12.5497,-7.54893,-10.5344,-5.66929,-1.12261,6.23824,2.71931,85.4,-620.736,-746.152,3920,4620,7000
-20.9183,-14.8361,-6.55597,2.07069,0.601587,-1.62509,11.1038,0.90636,-25.5531,-13.7979,-7.99882,-12.8826,-6.23893,-2.02169,9.96842,5.33742,85.888,-620.736,-747.128,2660,4060,5880
-27.4819,-8.06859,-3.64017,9.94039,5.66823,0.146752,10.962,3.53191,-30.943,-15.2535,-8.36274,-7.14625,-4.14131,4.03477,14.429,8.18799,87.84,-620.736,-752.984,1820,3920,4620
-6.65947,13.97,5.79816,29.936,21.3758,4.13098,24.879,6.66065,-7.06185,-2.0817,-6.15095,11.2399,0.747943,12.2422,33.1965,15.8238,89.304,-619.272,-751.52,560,4060,3920
0.730078,4.0102,2.17548,9.25692,5.26018,2.01324,6.04795,-1.31885,3.33213,1.87327,-2.99373,3.20051,-0.17444,2.75935,13.0788,2.6143,91.256,-617.808,-757.376,-420,3360,2800
10.3268,-1.3696,-1.19292,-10.7088,-9.06381,-0.563402,-11.903,-9.98458,11.9747,7.77205,1.80046,-1.38749,-0.82471,-6.50084,-12.5134,-12.4155,86.864,-619.76,-739.808,-840,2940,2240
6.54272,-3.04737,-2.58905,-6.24766,-5.51267,0.246124,-5.28484,-5.30954,9.77061,4.28302,1.68431,-1.87987,-2.46803,-3.77365,-3.08779,-8.42471,92.72,-619.76,-747.128,-2100,840,1400
27.7997,5.36306,4.31336,-15.5784,-8.12635,-1.64142,-12.345,-6.23985,37.8147,16.8649,9.72356,6.206,2.13153,-4.37518,-16.512,-10.5259,96.624,-623.664,-753.96,-2940,980,840
24.4351,23.5264,10.9526,11.1534,9.56066,2.24631,-4.87033,-3.1817,29.6969,15.5273,9.08709,17.4348,6.28804,5.20314,-9.03443,0.0107756,97.6,-630.984,-761.768,-2380,140,840
-6.73395,15.2983,5.83367,24.1816,16.7023,6.58224,9.05549,4.57002,-11.4218,-4.08152,0.18296,8.59111,4.11821,10.3385,13.9185,9.6038,96.624,-632.936,-759.816,-1680,-700,700
-8.32378,11.6411,2.79225,25.843,20.4842,6.71206,23.635,8.26514,-13.3311,-6.65823,-2.4343,6.18199,2.84011,10.1617,31.3962,16.0004,96.624,-635.376,-760.792,-1260,-1680,840
-15.3638,6.13502,0.738182,25.2965,20.0142,7.49584,25.0284,8.91825,-18.427,-9.25304,-3.04323,4.13714,1.24823,10.083,37.0968,16.8912,100.528,-637.816,-766.16,-140,-2660,1260
-13.677,-11.8833,-8.46601,-9.67296,-7.08081,-0.114841,-2.86941,0.818861,-12.1621,-8.99539,-3.33919,-10.0552,-3.58963,-4.88883,-0.50531,-1.4306,102.48,-639.28,-767.624,980,-3360,1400
4.08681,-5.14551,-3.36526,-15.2906,-10.8771,-2.15063,-7.71189,0.349483,12.7732,2.4672,1.73949,-5.11611,-1.7311,-6.68606,-5.30884,-5.49654,98.088,-646.112,-770.064,2660,-4900,1960
13.1734,7.28029,4.16884,-5.60587,-3.15222,-2.25299,-1.89752,-0.289619,21.1233,10.1485,6.19747,5.37936,2.31857,-1.87687,-1.70467,-1.25397,100.528,-645.136,-770.064,4340,-6580,2520
21.1963,15.7638,6.64178,-5.0295,-2.97366,-2.94257,-9.73139,-3.2546,30.5571,14.9958,7.32923,11.4029,3.56908,-2.17466,-14.1358,-4.26186,97.6,-646.112,-767.624,5600,-7420,3080
18.1637,14.5144,6.45191,6.73674,5.06396,-0.997426,2.32846,-0.781157,24.8225,13.7367,5.38303,13.4572,3.60029,2.17312,2.87278,2.21726,96.136,-644.648,-771.04,7420,-9100,3780
-5.54469,6.00017,0.92581,6.29638,2.8694,-1.53391,0.97005,-1.72237,-4.53763,-0.0734884,0.430161,3.71719,1.83135,0.898179,2.62768,-0.332083,96.624,-649.528,-766.648,8680,-10500,4480
-22.6477,-13.909,-9.64093,-20.9995,-17.662,-6.76737,-16.1176,-6.36825,-27.4244,-10.9445,-5.716,-14.6191,-3.50819,-11.9992,-23.7256,-13.1339,91.256,-645.624,-762.744,9660,-10780,4480
-17.3886,-41.7975,-13.9507,-48.4755,-34.4732,-7.96869,-28.8944,-6.7258,-22.9296,-9.0857,-1.69849,-29.8085,-5.45872,-17.6797,-39.4864,-19.1623,91.256,-646.112,-762.256,10220,-10360,4480
-3.08161,-13.0638,-0.246472,-8.54551,-3.79776,-0.105558,2.30979,1.61541,-11.9232,-1.41327,2.40766,-7.63383,0.361893,-0.953926,-5.43412,-0.934203,95.16,-643.672,-760.792,10360,-10360,4760
-8.24853,-16.1588,-1.39757,-10.8776,-2.57321,2.82799,1.20385,8.80393,-13.8483,-6.77632,-0.404382,-8.23345,-0.892002,4.71921,-9.52303,4.76159,93.208,-641.72,-758.352,10080,-9800,4900
-2.22276,-17.3783,-7.93587,-27.9573,-22.0785,-5.23659,-30.5375,-4.97632,-5.63622,-4.99872,0.219042,-13.5862,-3.27851,-9.39766,-43.5412,-16.9805,91.256,-638.792,-758.352,9660,-8960,5040
-8.57651,-18.4359,-6.82435,-9.35763,-8.91264,-3.70363,-13.2317,-2.80503,-14.4745,-7.56903,-2.69784,-11.9776,-3.4711,-3.46382,-16.3831,-7.53807,88.328,-638.304,-757.864,8820,-8120,5180
-0.974581,-2.3864,0.137792,4.23959,4.70331,0.520589,-1.33693,-2.09014,-3.70341,-2.23941,-1.88035,1.20415,-0.35566,4.90364,-6.7535,-1.12161,86.864,-640.256,-752.496,7700,-6720,5040
4.77003,4.4556,0.916497,12.637,8.89134,1.30685,7.66722,-0.509611,4.38945,-0.319412,-2.58486,5.65273,-1.09481,5.34207,7.91235,3.18744,87.352,-640.744,-752.984,7000,-5740,5040
10.0343,22.8179,8.04225,39.3259,24.2722,5.59433,26.5576,4.79515,13.0647,3.2884,-1.34262,17.4957,1.42182,12.2526,39.2375,13.8151,84.424,-643.672,-753.472,6160,-4620,4760
15.159,32.0549,11.2753,43.9722,26.2475,6.83075,27.6373,3.75565,23.9474,6.87111,-0.870713,23.3015,2.1637,12.5703,44.9865,16.2394,81.984,-642.696,-749.08,5320,-3360,4340
3.20643,-3.18437,-1.53522,0.190571,-0.709243,2.57341,6.65156,-0.555486,4.67566,1.51286,-2.99987,0.199249,-2.23473,-2.42344,12.0399,4.75058,84.424,-653.432,-751.032,3920,-2800,4060
8.08088,1.21825,2.36966,0.808207,-0.700137,0.383703,2.85943,-1.57089,11.1631,5.15576,2.66026,2.79632,-0.00902395,-0.401486,8.92249,2.52945,83.936,-655.384,-751.52,2380,-2660,3640
2.64916,11.3742,5.17144,11.4679,6.82742,1.44038,10.005,0.673828,1.85806,3.63424,-0.552911,8.13575,2.12646,2.39984,14.0398,5.0015,80.032,-659.776,-748.104,1540,-2240,3500
3.51237,6.47097,5.66716,2.2545,2.47438,2.23114,2.05838,2.0377,2.90484,3.41106,-0.821295,5.72441,2.58853,2.38738,4.03164,2.39285,81.496,-656.36,-746.64,280,-2520,2800
-14.2889,-15.8466,-4.15905,-5.09034,-1.94199,-0.923002,2.64344,1.32116,-24.5573,-9.25933,-5.15805,-9.7085,-1.87972,-1.27343,3.03199,2.01685,80.52,-655.872,-747.128,-840,-3080,2240
-6.92564,0.722548,-1.78406,2.74592,-0.713934,-2.1171,-1.805,-1.43816,-11.5363,-5.68314,-2.45185,-1.57129,-0.945483,-2.35612,-2.52162,-1.44751,81.984,-657.336,-749.08,-2660,-5180,1820
5.70753,6.23087,4.12676,6.59742,6.12097,0.623162,0.123937,0.657897,9.17753,1.17552,0.453446,7.03376,1.73443,3.33291,2.40742,0.972753,83.448,-653.92,-750.056,-4480,-6860,560
7.73831,3.64014,3.03546,4.84055,7.28504,-0.342735,-0.126768,-2.28261,9.23051,2.30756,1.24452,7.18931,2.55418,1.58438,2.28252,-3.37558,87.84,-651.48,-752.496,-5740,-7420,-420
2.51244,0.557446,-1.34839,-9.29402,-4.57154,-3.01278,-7.24654,-2.35081,6.9811,0.38586,3.39061,-0.872636,0.744679,-3.32614,-5.63151,-8.66698,92.232,-647.088,-750.544,-7140,-8400,-2240
-17.3252,-4.02908,-8.01258,-10.9113,-8.7907,-2.66811,-5.83254,-2.15198,-17.4453,-10.8856,-1.60109,-11.2263,-2.28392,-5.19336,-9.13723,-7.59082,94.672,-644.648,-748.592,-7700,-9240,-3360
-5.18714,0.744523,-2.44669,-7.50413,-4.41271,0.281242,-3.16062,1.3421,-0.272885,-3.16685,0.183185,-6.27852,1.02204,-2.22101,-5.77751,-1.73083,97.112,-645.136,-748.592,-8540,-10780,-4900
-2.72704,-1.0678,-3.65033,-5.86393,-4.0713,-1.81904,-0.342838,2.32547,0.796356,-0.100886,-0.762685,-7.79071,-0.380778,-3.38392,-3.00512,0.16818,100.528,-644.648,-748.104,-9800,-12320,-6300
-3.72847,8.34252,-2.58331,3.8028,1.20429,-0.925315,6.3445,4.82256,-1.09688,0.06221,-1.34278,-4.96304,-1.08883,-1.224,7.09877,4.63392,105.896,-650.992,-744.688,-10920,-13300,-7000
-5.7788,5.92268,-0.661227,0.513092,0.714416,-1.32367,-1.60073,2.11286,-9.05012,0.0703411,-0.152142,-3.66904,-1.17858,-1.30575,-3.15798,0.301945,107.848,-653.92,-741.272,-12040,-14700,-8400
18.1813,19.0597,7.66351,3.25286,1.19585,-2.75877,-8.27721,-1.32352,21.5687,15.672,7.22531,10.7943,1.83354,-0.311041,-6.12754,-2.94751,110.776,-653.432,-738.344,-13160,-15260,-9520
21.6761,10.2951,4.76798,-9.92426,-4.08754,-2.51048,-3.10743,1.88775,21.1978,17.809,7.86465,7.96361,2.59944,-1.31669,-8.21406,1.46155,113.216,-653.432,-735.904,-14840,-15960,-10920
2.22565,-19.5723,-6.91047,-41.2846,-26.4057,-5.07299,-29.9277,-3.73728,0.601922,2.65731,5.36781,-14.1281,-0.533193,-9.58803,-46.5888,-11.3513,113.704,-648.552,-732,-17220,-16240,-11620
-5.70654,-6.87993,-6.23558,-12.2023,-8.63894,-4.67946,-17.786,-8.63662,-11.4652,-3.18003,0.502841,-6.51128,1.23402,-4.83703,-24.7969,-8.72966,116.632,-651.968,-737.368,-19040,-17360,-12320
-4.54358,-8.35928,-0.271517,5.8427,8.17971,-0.0697617,10.9037,-0.704399,-12.0875,-2.211,-1.11905,0.108284,2.30324,6.02194,17.971,7.98127,118.096,-654.896,-736.392,-21000,-18200,-13020
8.40764,-5.78069,3.34253,4.5564,8.4876,4.13005,14.603,3.48143,1.84371,3.53462,-0.0482973,5.03094,0.287069,6.40199,15.5754,10.9172,120.048,-656.848,-734.928,-23240,-19040,-13580
5.5537,9.72243,6.48358,25.7131,17.1979,10.5695,17.1784,6.78301,0.892658,3.45394,0.837119,12.4592,1.30521,11.1984,23.3644,14.4135,121.024,-658.8,-734.44,-25060,-20160,-14000
0.0926247,12.3768,7.71313,36.5237,23.2266,12.5654,28.7113,10.6774,-0.438135,0.191947,-0.213852,13.3368,2.4147,13.8822,37.6522,21.4868,114.68,-656.848,-732,-27440,-20300,-14420
-11.64,-25.1986,-5.63685,-10.9707,-9.51419,4.4693,-4.10423,1.50664,-12.2798,-10.1504,-3.94011,-12.06,-4.04052,-3.55927,-7.23718,0.5382,125.416,-657.824,-735.416,-28840,-21280,-13860
-20.7286,-46.123,-16.4437,-46.2053,-35.303,-2.57636,-32.8316,-7.68931,-20.918,-17.1308,-5.59786,-28.5036,-9.7685,-17.8103,-49.3462,-19.3955,119.072,-655.384,-739.808,-32200,-20720,-14140
-8.20872,-11.6744,-3.13754,-3.50847,-1.11146,3.09286,-0.651873,-2.47042,-4.31512,-7.38773,-2.8652,-1.65298,-3.25502,-0.781762,-4.84241,-4.70004,122.488,-649.04,-745.176,-34020,-21560,-13440
14.4155,12.9977,8.85241,16.0318,12.8054,4.32473,10.2279,-3.68521,20.0902,8.23631,2.80766,17.8865,3.62685,5.26329,14.6529,1.73269,122.488,-643.672,-743.224,-36120,-21700,-13160
7.30026,13.2523,7.69029,21.3017,11.5756,3.62263,13.2589,1.43298,12.5699,2.91131,-0.153449,13.4294,1.55291,4.84773,23.9072,5.67553,122.488,-637.816,-749.08,-36680,-21140,-13020
1.09439,9.61931,3.5459,18.7373,7.73333,1.07156,8.2264,-0.828187,2.91434,2.18246,-3.15424,7.78917,1.70047,2.08378,17.8405,0.622304,121.512,-631.472,-753.472,-37520,-20580,-12740
-2.38427,4.86036,-0.0471382,7.64952,2.37669,-1.31769,0.577841,-2.9527,4.61448,-0.816295,-2.8007,2.84338,0.96466,-0.544463,6.07782,-4.24822,120.048,-626.104,-752.008,-37940,-20440,-11760
-4.51659,-0.862743,-2.9051,-11.0282,-10.7532,-3.81818,-12.4167,-3.94706,4.85908,-2.34585,-2.29615,-4.87437,-1.85898,-7.37633,-16.1687,-11.0914,120.048,-625.616,-749.568,-37940,-21140,-10500
-2.85501,8.37841,0.705149,2.84707,-0.542938,-2.30286,-0.977409,1.02376,3.8418,0.931118,-0.264593,0.98313,-0.435046,-0.510872,1.26991,-3.9441,121.512,-621.712,-747.128,-37100,-21560,-8960
-15.0419,-5.16555,-0.629931,4.09699,6.78482,-0.449098,10.934,7.07131,-14.9092,-6.23249,-2.67452,-3.34132,-0.399921,5.41179,16.5742,3.23991,120.048,-619.272,-748.104,-35140,-23100,-6860
-17.6649,-6.88166,-5.22363,-6.66938,-8.0213,-7.27816,-10.8386,-4.17399,-23.9154,-7.56753,-1.82399,-9.11949,-2.40781,-4.85081,-13.2741,-11.6232,120.536,-610.488,-750.544,-33320,-24360,-5180
-14.9715,1.67425,-0.4537,6.14377,3.69599,-2.74216,4.77803,2.1148,-16.3276,-6.04625,-2.51872,-2.30714,-0.682675,3.78759,9.628,0.983964,119.072,-613.416,-752.984,-31640,-25620,-2240
-0.14415,-9.05489,-4.07514,-21.0292,-12.9107,-5.92847,-9.96417,-1.91988,2.04001,-0.150437,0.197337,-8.55187,-2.07597,-5.44018,-17.8765,-5.73886,122,-610.488,-755.912,-30100,-26600,-280
12.216,5.67373,-1.30403,-12.1966,-11.2331,-6.68229,-18.118,-4.69331,20.8772,6.41642,5.07631,-1.22994,0.13521,-6.04106,-26.2266,-9.56923,122.976,-615.368,-763.72,-27300,-27440,2520
7.66936,14.8065,6.68516,15.0789,12.1785,0.105725,5.20479,1.26728,9.3238,3.2827,5.19171,8.56833,3.20207,7.2138,2.94222,6.65613,125.904,-618.296,-757.376,-24780,-28700,5040
23.6362,29.7653,13.1101,23.9261,18.2445,3.03507,13.951,1.80523,25.2795,11.2648,8.10229,18.445,7.3515,9.82185,18.0643,10.4928,125.416,-617.32,-768.112,-24360,-28560,5740
6.48475,3.02457,1.57829,-0.356482,3.78566,-1.8504,4.17803,-2.61173,-0.668586,1.0566,1.47386,0.699984,1.51109,0.461772,5.45704,3.14537,127.856,-619.272,-765.672,-25480,-27160,6580
-8.55627,-12.2759,-8.93423,-18.1321,-11.0454,-5.69153,-7.42441,-4.21043,-17.4912,-6.91818,-2.66641,-15.9579,-4.5615,-9.2247,-9.76482,-2.4447,123.952,-621.224,-766.16,-26040,-27300,7420
8.69494,4.65806,0.811027,-5.75647,2.91401,0.448036,10.4602,4.53432,2.96317,5.71698,0.898263,-0.730654,1.9811,-0.906462,4.98546,11.9427,124.928,-620.736,-767.624,-26460,-26880,7980
5.23085,-26.2581,-8.31448,-47.4869,-27.6431,-3.95993,-25.4416,0.373517,-2.81502,1.45368,2.82084,-20.1276,-0.703649,-13.3104,-41.3596,-6.4182,123.952,-628.544,-763.232,-27300,-26740,8260
15.373,5.98021,-1.29378,-13.1789,-14.0414,-2.40431,-28.2882,-4.40875,5.56164,9.64932,5.00948,-1.69711,3.16362,-9.60435,-36.0885,-12.9574,121.512,-628.056,-762.256,-28700,-25900,8260
17.5116,20.6952,11.1725,25.459,18.8837,7.89806,9.85851,4.49073,10.2971,11.6694,3.92728,17.5152,6.39338,11.6677,23.452,8.05274,120.536,-629.52,-757.376,-29540,-23940,7980
-0.42999,-1.39538,-0.453646,6.98214,8.53387,4.41839,20.6887,3.09189,-7.44035,-4.25461,-8.4537,1.12644,-2.41406,4.76704,25.7845,8.95292,118.096,-633.912,-756.4,-30380,-22680,7840
-8.93526,-14.8462,-6.72847,-6.07089,0.528643,-0.262943,7.21641,-2.51674,-14.5155,-10.7618,-8.47763,-8.3915,-5.43071,-0.195303,6.40221,-0.646509,114.68,-638.304,-748.592,-32060,-21000,7280
-3.48149,-10.8929,-7.12879,-6.40186,-4.29947,-2.99958,-6.94742,-6.03935,-6.10065,-6.67759,-4.1651,-6.85694,-3.63262,-2.55389,-7.81146,-8.50188,113.216,-640.744,-745.176,-34020,-20580,6860
-1.64675,4.14404,-2.72747,14.3767,6.58713,-0.0398832,5.20695,-0.320458,-3.1643,-4.60255,-3.2106,2.9759,-0.958411,2.32594,10.0811,-0.284072,110.776,-645.136,-745.176,-36120,-20440,6440
0.080081,0.916621,-0.460371,13.9083,8.93222,3.11492,10.818,3.34214,0.252385,0.773458,0.939422,4.70275,1.19417,4.42375,18.0137,4.95378,106.872,-653.432,-746.152,-39200,-20020,5880
2.23406,4.62356,3.32316,19.6019,12.3691,4.44943,14.3505,5.00573,5.91893,3.74773,1.0689,8.3879,0.0863292,6.62375,22.2166,9.04473,105.896,-657.824,-743.224,-41580,-19740,5180
0.524298,14.4296,3.6503,21.5095,8.80553,3.4223,9.11227,5.08114,12.0006,2.29271,-2.10177,11.7292,-2.42578,4.2014,14.0355,5.60443,101.504,-663.192,-741.272,-44520,-19880,4620
-1.06301,19.3542,4.86949,26.0192,9.37907,5.77839,14.0316,8.13152,15.5931,3.01657,1.48828,13.9156,-0.468896,7.31406,22.0563,9.73722,102.968,-666.12,-742.248,-46900,-20440,4340
1.77911,13.5692,4.90313,21.2458,8.77235,8.69096,16.061,8.82842,13.0649,5.1145,1.57061,13.0768,1.1596,6.55418,18.9903,11.6786,101.992,-666.608,-748.592,-49000,-20580,4200
-4.72565,0.261692,3.68192,9.74482,4.25772,6.94851,10.026,8.67844,5.26221,0.170922,1.5628,7.14095,0.169871,5.6695,11.1067,10.679,102.968,-667.584,-747.616,-51520,-20860,4060
-10.1605,-12.8966,0.332035,-10.5108,-6.6017,2.57985,-5.45309,2.99218,-3.49229,-1.67763,1.48912,-2.28042,-0.339022,-1.08106,-10.8894,0.0690528,106.872,-666.608,-751.52,-52920,-21280,4060
-3.42811,-11.7762,0.0610692,-21.089,-13.9726,0.67403,-14.3063,-0.629898,2.48399,1.16688,1.48232,-5.03612,0.742761,-5.82934,-23.2958,-5.67797,110.288,-665.632,-753.96,-53760,-21420,4480
-7.62901,-25.3437,-3.77816,-44.4697,-26.0514,-4.40566,-29.2274,-7.5686,-2.19251,-3.01501,2.41169,-16.7674,-0.557431,-10.8781,-49.4833,-13.2774,111.752,-667.096,-756.888,-55580,-21420,4760
-15.0242,-25.68,-4.91153,-42.8414,-26.9798,-9.96278,-39.1111,-19.5439,-18.8549,-5.31082,2.77198,-18.3444,-0.481309,-15.1361,-59.5593,-25.8632,113.704,-664.656,-758.84,-57260,-21560,5320
-7.74791,-12.8165,3.0864,-12.4214,-5.46978,-4.57459,-4.91793,-11.7567,-14.0659,-0.864351,7.47158,-8.21686,4.29909,-2.53503,1.94957,-9.83416,115.168,-664.168,-761.28,-59360,-21980,6160
-4.06374,-8.18149,5.51005,-5.27121,-0.228687,-5.18242,-0.911834,-11.276,-16.9151,1.57455,7.81995,-4.49663,5.76124,-0.690329,4.09285,-8.24922,118.096,-669.048,-759.816,-60340,-21700,7140
-1.54212,-4.87566,4.22942,-3.77994,0.117012,-4.55139,-5.13464,-6.1276,-14.1993,0.848891,6.98013,-3.43397,5.12918,0.633639,5.19017,-8.91646,120.536,-670.512,-758.84,-61180,-21560,8260
-7.91733,-13.1032,-4.862,-15.9002,-10.5649,-4.86419,-13.2135,-2.07474,-21.5531,-4.48861,1.2213,-11.3609,-0.619439,-3.25761,-7.65745,-10.9471,125.904,-674.416,-756.888,-62160,-21280,10080
-20.4737,7.4908,-6.38076,18.1386,8.6996,1.01555,9.99193,8.50867,-29.0789,-14.3224,-9.46649,-2.99363,-3.53023,4.53167,21.3044,4.05157,129.32,-676.856,-760.304,-62580,-20860,11200
-12.8119,5.64572,-7.24125,15.679,11.5562,1.11678,17.3404,4.98472,-13.9874,-11.5647,-12.0605,-1.44574,-4.53699,3.34372,24.1279,9.73998,130.784,-671,-764.208,-62300,-20020,13160
8.63672,12.4004,-5.06303,5.51293,1.13028,-3.3479,-6.25141,-6.02094,15.3787,-1.17891,-11.1344,3.15214,-6.68721,-3.55965,-7.07101,-4.34022,131.76,-670.512,-764.696,-62300,-18900,14560
23.7738,35.4271,-3.26459,25.2102,11.0547,-0.915984,3.73005,2.34798,35.4468,1.73155,-22.1127,15.76,-13.006,0.522212,3.13274,3.96883,132.736,-670.024,-770.552,-61460,-17500,16520
26.8709,29.6482,0.0568872,22.9746,9.71935,3.4293,10.7633,12.18,41.3813,5.64214,-13.539,13.7772,-9.33925,4.49967,12.2145,13.6583,130.784,-666.608,-772.016,-60340,-15820,18340
21.0604,23.9448,2.8466,16.7952,12.3495,4.40337,15.3186,14.8512,31.9776,6.94346,-3.56627,13.9735,-0.361949,5.32536,7.51758,14.4532,127.856,-667.096,-772.016,-58240,-14420,20020
1.70597,-8.15914,-2.9001,-7.04538,2.7581,-0.368758,5.816,10.5584,6.94947,-1.65934,-1.80572,-2.96097,-2.82654,1.18007,-6.02656,9.16618,128.344,-663.68,-772.992,-55720,-13300,21700
-3.65383,1.54329,-0.345704,3.59164,3.09893,-3.03603,7.58433,-0.328464,-3.62872,1.69479,6.43861,-2.33982,2.23439,-1.74966,4.79568,2.07073,124.44,-664.656,-775.92,-53480,-12460,23100
4.54982,-6.04147,6.22924,-4.8595,-1.32489,-3.90728,2.62909,-8.47438,2.50464,12.5853,22.0553,-0.106069,12.3315,-2.55817,7.51904,-3.47125,120.536,-664.656,-777.384,-51240,-11060,24780
5.86683,-13.9891,5.10071,-17.1257,-8.9104,-0.505672,-3.72825,-4.9353,0.719138,12.4278,22.4973,-4.97423,13.2266,-3.2542,-6.07344,-0.218233,115.656,-664.656,-777.872,-49700,-9520,25900
9.32034,0.263092,12.6902,-0.0539952,5.1702,7.84624,2.62634,1.64512,2.5239,13.7562,17.9777,6.24364,17.0255,5.65822,1.19655,8.20835,108.824,-661.728,-774.456,-47740,-8820,26460
1.59764,-19.5245,8.91254,-9.13612,1.993,9.32469,1.20744,2.76957,-9.78931,8.35811,15.8146,-3.62346,15.6265,6.41554,6.18115,6.06453,103.944,-660.752,-779.824,-46060,-7420,27160
-17.5176,-30.0248,-8.02502,-32.9221,-21.8347,-3.24421,-34.8417,-12.2183,-28.175,-8.9654,2.55906,-19.3932,0.779242,-10.3133,-39.4187,-22.5217,97.6,-656.36,-779.336,-45220,-6440,27300
-16.4546,-23.2497,-14.3602,-31.329,-23.5107,-10.0077,-25.6788,-16.3044,-20.9636,-12.8129,-8.03113,-18.7796,-8.9049,-14.8167,-29.1458,-23.5345,91.256,-649.04,-781.288,-44520,-5320,27020
-19.0478,-28.318,-15.7796,-30.9788,-20.4007,-7.04702,-8.17218,-6.70344,-25.8533,-16.0187,-14.4987,-18.7369,-14.7515,-11.5335,-23.7205,-8.67443,85.4,-647.576,-778.848,-44100,-4200,26740
-10.0697,-7.98225,-7.559,-15.0628,-8.61487,-3.09249,-8.02489,-0.703794,-13.9352,-9.62198,-7.35501,-5.11655,-9.48441,-7.68184,-38.6057,-2.29176,81.984,-645.136,-783.728,-44520,-3220,26320
18.3395,29.4504,10.2228,32.3837,24.4104,5.58076,24.8573,13.2837,20.9854,7.76383,-9.66852,23.7257,-2.75701,11.6047,18.4376,21.7373,81.008,-643.184,-786.168,-45360,-2240,25760
26.477,45.2192,13.2287,52.8018,34.0817,3.55476,31.3105,10.1173,32.4692,7.79165,-16.2188,33.3918,-4.0098,14.0877,44.5614,18.7459,73.2,-645.136,-793.976,-46060,-1400,25340
26.0047,46.6559,15.4179,57.6862,34.0733,2.13652,31.993,2.69532,34.8859,11.2412,3.93,32.3545,5.17953,15.0835,57.6749,12.8013,71.736,-648.064,-797.88,-46760,-280,25060
11.7402,14.9247,8.59437,27.4807,11.4543,2.42556,17.6544,-1.3435,17.84,7.4889,11.8644,10.7237,7.90778,7.31593,42.5512,2.02673,72.224,-648.064,-801.296,-46480,1540,24640
-18.181,-3.88448,-4.43731,4.04397,-10.498,2.75076,-1.96276,-6.03818,-16.2562,-9.54266,5.59674,-10.3702,5.76913,-3.75412,14.5926,-7.45415,64.416,-648.552,-810.568,-45220,2660,24500
-0.72535,3.09224,6.08576,13.1419,8.83619,13.8109,10.3382,11.5146,-0.517492,1.59524,-6.49123,5.68685,1.5906,14.4744,19.6957,10.0442,62.464,-648.064,-809.104,-42700,4200,24920
23.1974,14.6178,8.07074,11.8183,15.9726,17.0529,12.0205,28.287,25.5703,9.70662,-22.0442,17.4261,-10.3774,21.2208,6.69326,22.3271,57.096,-642.208,-818.376,-40740,5460,25340
6.8563,14.4276,2.73757,11.5412,10.5775,11.6376,0.798506,22.2412,12.9624,2.3836,-7.36152,8.74624,-5.45444,13.5584,5.78254,14.7371,54.168,-638.304,-819.352,-38080,6300,25900
-26.4426,-7.44183,-11.4173,-3.57898,-7.42991,-4.13293,-12.5949,0.448669,-24.8537,-16.8336,3.58558,-15.4979,-3.70849,-6.17876,-3.45858,-7.80898,53.192,-634.888,-818.376,-36260,7140,26460
-55.8664,-52.9871,-29.247,-49.2795,-42.1291,-19.6173,-39.7518,-27.4592,-63.9158,-32.7089,3.88501,-47.381,-7.49611,-32.1149,-38.9697,-34.8648,48.312,-626.592,-811.056,-34440,7700,26880
-43.3622,-52.6877,-23.9976,-54.6392,-44.6588,-18.9781,-46.0352,-37.2056,-52.1732,-22.2849,6.37008,-42.1269,-4.04732,-32.3941,-53.4001,-41.3868,49.288,-627.08,-807.152,-33320,7420,27440
-11.3533,-18.1176,-5.38613,-24.6994,-17.3026,-6.63257,-19.0231,-19.7861,-13.2926,-3.6397,6.9163,-13.2324,2.34163,-11.0098,-24.243,-19.8564,46.848,-622.2,-797.88,-33740,7000,27720
18.6356,0.740451,7.32502,-16.3137,-5.64957,-1.47156,-8.6683,-11.6862,18.8835,17.9399,14.2653,4.18214,9.57989,-2.05241,-22.4878,-7.44042,47.336,-623.664,-791.048,-35000,6580,27860
24.6984,11.6024,14.1049,-0.445302,5.00747,0.661248,-3.73155,-1.99918,29.0821,22.6929,15.8401,12.9942,9.2155,3.85283,-14.786,2.75681,44.896,-622.688,-784.704,-36960,6160,27580
10.8578,5.91572,4.17945,-1.81247,-2.81595,-2.71398,-4.82784,-2.65268,13.5691,11.6894,9.276,3.61884,4.1002,-6.19224,-11.9406,-5.17855,44.896,-622.688,-781.776,-39340,5740,27160
17.4473,13.8155,6.32367,13.0834,6.74605,-2.77364,12.601,8.81835,22.9656,11.7351,-3.75792,11.7024,-1.97027,1.06686,19.4893,5.65233,43.432,-618.784,-779.336,-41860,5600,26180
16.8011,14.7698,4.11179,21.4868,23.5071,3.92476,38.2298,27.6001,19.3869,2.41048,-28.5323,17.6484,-12.9076,12.0683,35.1419,27.5673,47.336,-613.416,-780.312,-43540,5600,25060
9.16951,6.94067,-2.8452,3.32884,7.86614,6.24191,7.83871,16.385,16.4442,-5.59025,-16.11,5.81717,-8.16119,5.29334,-0.721563,13.353,49.776,-611.464,-781.288,-45640,5460,24080
12.183,8.49879,4.57993,14.6995,13.9918,6.19349,18.5206,12.6354,16.3542,4.11927,8.295,6.29612,5.638,9.06345,21.6597,16.4224,57.584,-604.632,-780.8,-46200,5740,23380
-7.52604,-14.652,-0.850463,-13.5556,-8.69392,2.26319,2.14791,2.05203,-12.6393,-1.24301,11.1064,-10.9458,6.55023,-1.82508,-5.81681,3.67544,60.512,-596.824,-786.656,-47040,7140,22400
-0.0595618,5.39226,10.0871,3.68725,2.20171,5.97308,-3.40917,-5.95862,-3.85064,7.49859,9.29996,4.31582,9.93952,4.56108,-4.23184,-1.49536,65.88,-593.408,-789.584,-48300,8680,21700
13.7375,25.8029,15.6661,28.1324,23.4169,9.53289,22.1064,5.43237,13.703,12.0179,2.06699,20.5291,8.13894,16.5816,30.399,15.2732,68.808,-589.016,-790.072,-49420,10220,21280
-9.0515,-4.5534,-0.571897,-1.52088,5.01985,1.1601,8.6806,4.14246,-12.6829,-5.95952,-7.43053,-1.39494,-1.9723,4.7887,9.40584,7.5594,74.176,-586.576,-791.048,-50680,12180,20860
-19.3122,-6.04649,-2.93512,-5.61204,0.521043,-5.16421,-2.94154,-4.5165,-20.4677,-13.7855,-6.12233,-4.20783,-1.85658,0.128137,-1.71907,-1.98625,74.664,-585.112,-787.144,-51800,12600,20160
-23.7629,-13.2841,-7.89275,-18.6149,-11.3288,-10.2877,-18.9635,-13.934,-27.5534,-15.7501,1.41063,-10.6257,0.521687,-9.8385,-18.5271,-14.8515,79.056,-584.136,-789.096,-53060,13300,19880
-17.7934,-19.0653,-9.14288,-27.5322,-20.7532,-14.8022,-28.4326,-16.4417,-22.7959,-8.79017,6.00617,-14.5244,-0.991869,-14.1324,-25.8097,-21.5212,80.032,-585.6,-786.656,-54460,13440,19740
-15.0087,-17.7974,-10.8982,-25.7218,-18.2259,-11.4229,-16.8904,-9.90487,-22.15,-7.61304,-4.20667,-14.2487,-7.19535,-12.2256,-18.1314,-17.5846,79.056,-590.968,-793.488,-55440,13160,19460
-9.27765,-10.3124,-9.41266,-12.6783,-6.62878,1.50708,0.612307,3.78942,-13.5123,-7.66869,-13.3369,-8.16239,-9.95623,-2.83623,-6.23477,-0.733956,84.912,-589.992,-793.488,-56280,12600,19040
1.22471,-3.81493,-4.98713,-4.34447,-3.61934,3.69804,0.747156,5.42542,2.64844,-4.11434,-7.44307,-2.52366,-7.44039,1.46996,-5.04194,4.41341,86.376,-595.848,-794.464,-57260,12320,18760
7.75482,9.85613,-1.73864,15.2254,4.13942,-0.0373833,7.91255,3.60844,7.15218,-0.427278,-4.70913,3.91334,-6.3897,1.87663,4.67388,4.05003,87.352,-595.36,-797.392,-57540,11760,18200
16.6695,26.7118,6.1087,33.2931,12.9561,0.665875,9.88913,1.07846,21.8831,5.80959,3.27902,13.7526,-0.0566249,5.43884,18.7603,4.56203,90.768,-602.192,-795.928,-57680,11620,17780
13.6536,15.6229,3.97268,27.7216,12.7243,0.646444,10.7871,-3.09006,15.1756,5.55971,9.81352,8.48589,4.428,2.75802,18.2398,3.23584,87.84,-604.632,-799.344,-57120,11340,17640
4.33463,2.94229,2.31997,13.2522,4.29053,1.11304,0.442538,-4.42629,6.77786,4.55389,10.6507,2.03786,7.22031,1.77639,7.63346,-2.3578,93.696,-610,-799.344,-56560,10640,17920
8.23575,6.43008,5.67983,11.0428,1.92048,-2.7746,-7.52187,-10.6875,11.9735,10.7694,12.1741,6.91215,9.72399,0.65229,-1.87386,-10.52,95.648,-614.392,-796.904,-54740,10780,18340
11.5429,11.9909,8.69951,16.1428,8.18022,3.17346,7.29706,3.36585,17.002,12.6935,5.59744,12.5379,7.84527,6.63569,10.7709,4.68999,90.28,-621.224,-798.856,-52640,10500,19040
12.904,7.13281,3.69136,4.61374,1.30134,5.85041,0.322204,8.6692,19.1536,8.39789,-4.11447,8.17633,0.484924,4.92351,-1.96506,5.33773,90.28,-622.688,-795.928,-51380,9940,19740
11.7771,12.9867,2.60971,10.8393,3.57391,7.30731,2.64738,11.5193,19.2492,5.12481,-2.97687,7.46122,0.231707,4.43272,2.22498,7.10121,88.816,-619.76,-796.416,-51100,9520,20440
-3.42108,-9.4703,-2.35957,-1.21237,2.64194,9.27117,13.3484,15.9484,-5.7889,-2.30771,-5.91372,-4.69513,-0.55856,2.95988,7.9834,15.3061,89.792,-617.808,-790.072,-51100,8960,20860
-3.67427,-20.0292,-5.3974,-18.5819,-7.59169,4.54535,-5.37837,8.77782,-6.60395,-3.0314,-12.7791,-10.5539,-6.56299,-3.52286,-12.9115,7.78101,85.4,-616.344,-786.168,-51520,8120,21280
-9.71891,-6.95133,-5.66993,-9.36372,-5.36959,-3.00191,-11.4066,-3.36922,-11.1661,-6.67962,-12.892,-7.46399,-6.01425,-8.65358,-12.2408,-2.35072,86.864,-616.344,-781.776,-52500,7980,21700
-10.7173,1.9853,-2.86286,3.22334,3.85148,-2.10227,5.05822,-1.55771,-5.17388,-8.92525,-5.91393,-4.43638,-2.20534,-1.62737,16.2498,4.34326,85.888,-613.416,-780.8,-54320,7700,21980
-15.3856,-18.1356,-10.6705,-25.753,-14.5784,-4.74239,-2.7978,-1.42302,-10.6962,-11.4514,-3.65535,-18.4218,-4.44208,-9.77202,-6.55267,-1.85563,84.912,-611.952,-775.432,-55720,7840,21700
7.61646,-12.705,1.03818,-32.8524,-18.4677,-3.52825,-23.048,-5.83611,9.13083,8.27986,10.4848,-6.42196,2.40971,-7.89676,-35.8186,-12.8284,83.936,-607.56,-781.288,-58660,8120,20720
15.298,6.84543,11.1183,-6.08644,-1.38846,-1.28633,-12.3246,-8.51885,11.3913,14.7169,15.3627,8.05878,8.58933,0.23317,-14.7663,-10.5632,83.936,-606.584,-782.752,-61040,8260,20580
13.4259,10.6272,11.1929,10.4232,9.15362,-3.77952,1.59395,-13.4105,2.56647,13.9645,13.1795,11.1221,7.52186,1.79908,10.355,-10.2932,78.08,-603.656,-781.776,-63700,9660,19600
9.00432,10.2234,5.93045,15.7232,13.0145,-3.83945,12.0236,-7.74537,-0.798562,6.12382,0.730698,9.67375,-0.296088,3.64785,24.5477,-2.29975,79.544,-598.776,-787.632,-66220,11620,18620
-13.9631,-2.70861,-4.33194,5.78417,4.51589,-3.81322,7.48787,-4.8705,-17.7358,-14.093,-1.99783,-3.55948,-2.3597,-1.21291,15.6545,-2.20301,75.152,-592.92,-790.072,-67900,13300,17640
-21.7982,-5.5507,-6.33352,2.57353,3.46262,2.27894,9.35719,1.34275,-21.8295,-17.7131,0.0992447,-6.82739,2.49326,1.63821,12.4023,1.42697,75.152,-590.48,-794.464,-70000,14700,16520
-31.219,-26.6824,-13.8491,-21.6664,-13.7658,2.15111,-8.45714,-1.3,-34.7356,-22.6101,-6.08187,-21.4536,-1.78358,-3.69515,-16.7717,-8.19434,70.272,-592.92,-807.64,-70700,16240,16100
-10.8279,-16.8251,-4.64082,-21.4324,-16.4663,1.04947,-18.7603,-8.11791,-18.2932,-5.13242,0.324719,-12.0177,0.712153,-5.10749,-29.4353,-15.6661,70.272,-591.456,-812.52,-70980,17920,15120
4.36333,3.86296,3.90943,2.79756,1.16663,6.21784,5.16726,3.10013,1.59006,4.05747,-1.69259,4.06349,0.0200117,6.4163,3.06841,3.11971,72.712,-593.896,-819.352,-70420,20020,14140
13.5261,16.1826,10.2431,15.9937,14.7621,8.24556,18.3312,11.3113,12.8244,6.93498,-5.33226,15.6823,-2.0987,13.9214,16.738,15.7561,66.856,-591.944,-830.088,-70140,21560,13300
17.6436,13.8202,13.5315,17.2392,20.5779,5.47185,21.2476,17.0544,13.4303,12.5674,0.369331,17.8628,-0.169322,15.8093,17.2486,22.4197,63.928,-587.552,-832.04,-69020,22120,12880
18.4012,18.0185,9.89185,17.8089,17.6205,1.7571,15.9874,15.0852,19.9127,11.8441,8.82568,17.2708,-0.757284,9.48115,13.555,20.1989,58.56,-583.648,-838.384,-67620,22820,12880
2.58703,5.76451,-6.94413,3.60581,-0.181655,-2.84709,2.44197,3.48231,6.77997,-2.03476,1.57081,-0.123931,-6.27846,-7.54821,-2.24188,5.26193,56.608,-578.768,-842.288,-65380,22680,13020
0.750688,3.89556,-7.04535,2.1839,-5.3404,0.690736,-1.7783,3.96283,11.1948,-1.81671,-0.548911,-2.94714,-3.99038,-6.9596,-2.49754,3.05283,53.68,-577.304,-840.336,-62720,22820,13300
6.40371,6.14371,1.17822,2.63425,-3.50031,1.4998,-3.01448,1.34473,12.9495,6.43928,4.70634,2.69609,2.33174,-1.96599,-5.11813,0.664628,51.24,-573.888,-839.36,-61460,22540,13300
0.0529076,1.86338,0.58087,2.16986,-3.31942,-1.24505,-7.30049,-0.203133,5.29851,2.79767,1.57058,0.272215,2.51012,-1.76709,-2.75036,-3.54429,51.24,-573.4,-838.384,-59640,21840,13160
-15.3616,-12.3916,-6.43953,-8.04398,-10.5405,-4.86383,-16.0721,-5.17365,-14.1327,-7.90184,-5.22849,-9.78037,-0.95776,-5.21155,-12.0441,-10.5811,47.336,-573.888,-836.92,-57680,21140,13300
-10.4601,-13.2373,-6.83235,-16.6146,-16.8426,-5.44365,-22.8772,-9.46221,-8.38621,-3.32324,-3.46726,-11.6447,-0.345936,-8.8031,-22.0139,-19.243,46.848,-581.696,-837.896,-55160,19880,13160
-4.26334,-5.966,-4.82011,-10.123,-8.65609,-4.42704,-9.03953,-7.79132,-1.60418,-2.47092,-4.55566,-6.09069,-1.95076,-5.39678,-6.96028,-11.0183,46.36,-582.184,-837.408,-52640,18340,12740
-6.60796,-8.87841,-5.2785,-12.351,-8.48077,-4.89855,-7.56075,-8.28066,-5.28821,-8.44593,-7.79422,-8.54526,-5.07915,-4.00282,-3.59162,-5.82312,49.776,-578.768,-838.872,-50680,16660,12880
14.0454,20.4673,8.38797,15.0054,12.014,2.22862,11.2782,2.67166,19.2847,4.56763,-6.44941,13.9782,0.212119,9.41535,16.4162,9.17641,49.776,-574.864,-835.944,-48020,14560,12460
17.0169,17.0077,13.4514,16.7715,16.9006,4.12677,14.9551,4.14224,19.3549,11.7632,5.98997,16.6682,6.99817,13.856,22.2875,11.8103,52.216,-577.792,-832.04,-45640,13020,12180
1.8049,1.43924,0.573432,2.61903,3.58182,-3.74144,5.66214,-3.40794,-2.38858,2.61257,5.72044,0.333603,3.35674,-0.82825,6.4522,1.46824,60.512,-570.96,-831.064,-43400,11480,11200
-5.37245,-6.15713,-5.47435,-2.98313,-4.39069,-5.85826,-1.00794,-6.83889,-7.64924,-1.38794,4.33865,-6.14127,-0.0575478,-5.7913,2.7964,-4.04555,62.952,-570.472,-823.256,-41160,9380,10920
-5.1,-6.52808,-6.08789,-3.74389,-5.35627,-5.19149,-0.898776,-7.8426,-11.2247,-1.88895,1.59226,-5.33754,-1.21095,-7.84033,-0.151566,-6.20086,60.512,-567.544,-823.744,-38360,8680,10080
-12.3612,-11.7076,-6.32137,-4.39834,-3.47207,0.233673,1.37092,1.45303,-17.9662,-7.54562,-3.31574,-7.94929,-1.0033,-3.52688,0.539927,-0.361944,61.488,-570.96,-820.816,-36120,7700,9940
-15.1207,-12.0191,-5.06175,-4.1137,-2.89406,1.69345,1.86013,6.21516,-21.4761,-8.24656,-4.90209,-9.58239,-2.12221,-1.42762,-0.30081,2.37432,67.832,-570.472,-816.424,-34580,6580,9940
-8.38971,-3.70007,-3.16117,0.740425,2.11325,3.64471,5.41087,8.58809,-11.3688,-6.38658,-6.60956,-3.01162,-2.62585,0.871256,1.89935,2.93907,69.296,-567.544,-820.328,-33740,5320,9660
6.38337,0.899166,1.34086,-3.79863,0.191592,3.3938,-1.62691,4.35564,5.67307,4.20501,2.04287,2.93014,-0.035081,0.439653,-7.42792,-2.97539,69.296,-567.544,-818.864,-33740,3780,10080
4.89554,-3.44493,1.3147,-7.96834,-2.53019,-0.245895,-6.73509,-2.54297,4.4092,2.57798,4.35561,0.303976,1.52645,-1.66474,-13.8918,-5.2426,70.76,-565.104,-819.84,-33320,2660,10500
-3.39984,-7.95246,-3.23888,-10.7244,-7.95109,-2.94016,-12.3623,-8.43591,0.7843,-2.73099,2.55537,-4.78672,0.76778,-6.61674,-15.9251,-8.35378,73.688,-565.104,-822.28,-32760,1820,11060
-3.17931,-0.133122,-0.509371,2.1779,-2.4766,-1.79019,-4.84419,-4.44604,4.4542,-2.16732,2.02217,-1.1197,0.147172,-3.91981,-5.19724,-3.03261,74.664,-564.128,-817.888,-32200,1260,11760
7.20645,14.5301,7.12204,15.8426,9.61559,4.36648,8.63549,0.927,14.5068,6.23042,-0.404178,10.0912,2.77219,4.47965,6.93794,6.21369,81.496,-568.52,-818.376,-30940,840,12880
7.14029,9.03242,12.0628,12.5361,12.7003,8.18107,8.88158,3.94183,7.82967,8.09163,-2.37745,10.85,2.3014,11.5194,5.83377,11.2245,80.52,-565.592,-813.008,-30520,1820,12880
3.3946,-1.12866,8.8244,-2.96689,1.62159,3.75442,-5.59065,-2.36712,-3.34144,4.77338,1.43966,3.76871,3.70854,5.55919,-14.2312,0.331149,83.448,-567.056,-812.52,-30380,2100,13020
3.68446,-5.38706,0.684402,-13.4712,-8.85238,-0.287013,-15.0774,-1.71941,-1.72775,0.863698,0.738392,-2.76954,0.0219605,-2.1639,-24.3528,-6.09875,81.008,-564.128,-808.616,-30240,2800,13160
-2.44207,-5.0468,-2.19124,-6.76063,-5.38704,0.532212,-12.9351,4.75907,-2.4696,-5.5768,-2.86925,-3.87197,-1.52515,-0.584763,-12.7159,-2.49384,76.128,-564.128,-807.64,-29960,3360,13720
-5.5542,-5.94367,-5.06607,-4.09017,-3.71767,-1.72055,-6.71938,-0.1426,-7.83947,-6.3528,-2.15618,-4.31218,-2.22658,-2.76657,-6.40131,-5.53733,74.176,-565.104,-803.736,-30380,4200,14420
2.65029,2.64163,3.13352,7.1023,5.52761,1.06919,8.04857,0.250554,5.67333,1.14737,2.86644,3.66685,0.124398,3.27168,14.9492,1.62717,67.832,-564.616,-803.248,-30940,5880,14420
6.94189,4.00824,2.32402,5.12107,3.78073,-3.29206,10.5461,-2.66821,9.64263,4.80413,3.80279,3.58267,1.34524,1.51114,14.1056,3.47584,62.952,-567.544,-800.808,-31920,6720,14280
5.95716,1.00668,-1.26252,-1.55777,-0.367477,-3.30673,3.95454,-0.103553,12.8441,0.0638673,3.01654,0.0512238,0.481612,0.363144,6.74847,1.15245,60.512,-566.08,-800.808,-32900,7840,14140
-1.05174,3.00698,-3.52568,1.68394,0.485568,-2.49761,6.33686,2.58614,5.95289,-5.94806,2.27956,-0.834136,0.760842,1.17652,8.63517,1.90886,53.192,-569.496,-799.832,-34160,9100,13860
0.909086,8.59196,-0.636981,10.4419,7.45948,-0.244207,13.5578,4.6971,5.21492,-1.0647,2.14657,2.58629,1.91775,4.01032,19.9564,7.38327,45.384,-571.448,-798.856,-35980,11200,13160
5.2063,13.7005,3.02496,19.5323,12.3098,1.73587,18.2225,6.02612,5.91855,4.44039,0.83245,7.6168,1.45413,6.2931,27.8254,11.2579,42.456,-573.888,-800.32,-37380,13300,12320
9.45687,21.8969,6.40466,28.5779,19.3838,4.28298,26.6534,12.4734,9.141,8.3256,1.40836,12.7506,2.54205,10.7018,38.405,17.6959,39.04,-579.256,-797.392,-40180,15120,11480
10.8597,22.6895,6.09523,23.3381,17.9159,2.88343,21.4416,10.3173,10.9181,8.99015,-0.128111,11.8446,2.09107,6.61871,29.8285,14.3254,37.088,-580.72,-796.904,-42700,17780,9940
5.23621,5.02148,2.82966,2.92166,3.39731,0.536001,1.51006,4.21029,3.19723,7.15015,2.63254,2.66735,1.18394,1.76001,6.87747,3.7434,36.6,-583.648,-798.368,-44940,19880,8960
-5.42103,-9.88935,-1.72227,-14.4031,-8.23253,-0.907224,-11.552,-3.68674,-16.41,1.26015,1.7312,-6.99686,-0.633123,-4.94427,-13.7784,-6.55411,29.28,-587.552,-802.272,-47740,22540,7700
-14.1819,-21.9396,-3.77271,-24.4903,-16.778,-1.05295,-18.4896,-7.78374,-24.7963,-4.83536,0.0514619,-13.579,-1.57055,-7.04678,-19.2448,-12.095,31.232,-588.528,-808.616,-49420,24500,6300
-2.13184,-10.4898,-1.44,-16.1214,-11.5556,-1.94082,-11.0696,-10.4326,-11.7224,1.84547,0.0275031,-6.06156,-0.571628,-6.0116,-13.0611,-9.4508,31.72,-586.088,-813.984,-51520,26040,5180
2.70408,-3.2496,-3.85304,-7.98649,-4.98134,-1.23487,-2.58649,-5.00795,-1.67658,0.133948,-2.26173,-3.18309,-3.43146,-4.13059,-2.98075,-2.06776,31.72,-590.968,-819.352,-53200,27300,4340
-0.503873,-0.201541,-8.27021,-7.00335,-2.88511,-0.198766,-0.880868,0.135487,0.59163,-6.6089,-7.625,-3.2147,-6.19422,-5.10778,-4.76189,0.920614,33.672,-593.408,-817.888,-54600,28700,3500
-7.09404,-9.51186,-11.6093,-20.3277,-14.0415,-4.16518,-16.5466,-4.37473,-6.10369,-9.90276,-8.0404,-9.11277,-7.33333,-11.1528,-26.6759,-9.48306,34.648,-592.432,-822.768,-57400,31080,1680
-5.0285,-7.5455,-6.14366,-16.1572,-15.0904,-4.12579,-20.3217,-5.91071,-2.61385,-6.07976,-3.87916,-6.80788,-5.08738,-10.3059,-29.9048,-12.5743,30.744,-589.504,-820.328,-61880,31920,-980
-7.99155,-8.04621,-5.94538,-5.3258,-10.0821,-4.45697,-13.7171,-7.45655,-7.40018,-8.39707,-5.10644,-6.35165,-6.34672,-8.57713,-19.3285,-11.2512,35.624,-597.8,-815.936,-63560,29400,-1120
-6.09246,-7.31604,-3.29631,-0.023439,-4.09678,-0.597535,-5.84287,-4.6024,-5.23857,-6.63077,-4.51249,-4.2078,-4.13284,-4.02964,-5.87738,-6.72425,39.528,-602.68,-817.4,-61880,28280,-2240
-7.55284,-15.3034,-2.45981,-9.9078,-8.41641,1.141,-13.0479,-6.26124,-6.96384,-6.31477,-4.3246,-8.32078,-2.95486,-3.01364,-15.8535,-8.8187,39.528,-604.144,-825.696,-60480,28980,-4060
-2.84835,-6.05134,0.632325,-2.2799,-1.98288,2.97128,-7.30043,-5.50617,-1.85889,-1.12704,-1.89224,-3.39462,0.041884,-0.0546303,-10.3153,-6.39631,41.968,-600.728,-827.648,-59920,28280,-6160
-0.63284,4.06197,1.70491,10.9056,5.51567,2.98889,7.02493,4.33784,4.22741,-0.724953,-1.95305,3.47081,0.498853,4.5014,9.79606,3.28813,44.408,-600.24,-836.92,-59360,27440,-7000
-4.67604,-2.21983,-1.43077,9.35225,2.90515,0.911849,8.59961,8.36173,-1.86361,-3.71868,-1.66924,-0.189147,0.613104,3.29465,12.4426,4.79051,45.872,-601.216,-843.264,-57260,27020,-8680
-3.31167,-3.79655,-0.0370265,6.61564,1.51231,0.145437,3.23862,4.94041,-2.29047,-2.04365,1.36107,-1.43683,3.077,2.73591,4.74765,2.95077,42.456,-594.872,-848.144,-55300,26040,-10080
-3.15204,-3.95673,1.60022,2.65907,-0.0405647,1.23586,-5.33443,1.88513,-2.16717,0.578553,3.24216,-0.792992,3.95785,3.98846,-2.33296,0.351,46.848,-589.504,-849.12,-52920,25200,-10920
2.45576,6.62922,6.20981,6.21096,6.09734,4.94128,1.32617,5.13778,1.38867,7.05706,6.13733,6.70012,6.33355,7.28863,-0.734838,6.11474,49.776,-586.576,-854,-48580,24640,-12460
0.875367,1.25379,7.88083,-0.2019,4.85512,5.25366,2.97971,5.60077,-2.17953,6.57269,9.86275,5.7515,8.57623,7.78076,0.118684,2.56406,46.848,-580.72,-858.392,-45640,24080,-13440
0.456799,-0.415401,5.21067,-5.49848,1.67516,0.296554,-0.111331,-4.49649,-6.66163,6.98568,11.0423,3.95519,8.09024,1.25002,-5.549,-3.90928,56.12,-577.304,-863.76,-40740,24360,-14840
5.85113,5.32016,6.67457,-3.55867,3.47985,1.28103,0.886963,-1.51401,7.66332,10.5724,11.1603,7.83396,6.98545,1.87572,-3.70592,1.16871,49.776,-568.032,-863.272,-36820,22680,-17220
13.5544,12.7234,8.45824,5.82832,8.98986,2.50598,8.4965,4.01161,20.73,13.6158,7.28554,12.4649,6.10044,5.73134,3.48681,9.4112,62.952,-568.52,-864.736,-33040,19740,-17640
20.9353,22.812,11.3187,17.7224,15.0952,4.53981,15.9841,7.59935,30.4277,15.7594,5.73793,17.2687,7.04549,10.6034,16.0896,15.2694,60.512,-553.88,-871.568,-29400,20580,-19880
16.802,27.1788,10.9799,26.2066,20.7815,4.43805,23.2218,8.25808,28.2256,11.103,1.70198,17.9057,4.88649,11.0218,30.1771,19.3937,56.608,-545.584,-877.912,-28280,18480,-20720
6.62086,18.7693,6.40888,24.1431,17.5733,0.596222,23.3585,4.74609,17.6476,2.53687,-1.93737,11.7646,0.167531,6.20836,32.536,15.6734,55.632,-537.288,-879.376,-25900,16380,-21000
1.49664,7.40417,0.384259,14.3319,7.7995,-3.06396,14.8947,1.06716,4.62841,-2.13809,-2.34774,2.45664,-1.96107,0.229236,22.318,4.57535,55.144,-534.36,-885.232,-23800,15820,-21420
0.293294,5.25482,0.0987527,13.354,4.71101,-4.03942,8.40308,0.988946,2.87446,-2.94449,-2.66497,0.265622,-2.33793,1.23047,15.7431,3.15561,50.752,-523.136,-886.696,-22960,15400,-22400
2.82121,14.9488,2.46466,19.1291,10.2694,-1.25657,13.1639,2.22298,4.19222,-0.324066,-4.53004,5.97142,-3.18919,3.73864,12.382,4.54677,52.216,-530.944,-883.28,-18340,13300,-22400
-5.97402,1.76636,-3.29851,-1.04207,-0.162764,-2.21522,0.0695515,0.0597125,-4.04912,-6.59318,-6.02584,-2.47924,-7.55413,-0.603709,2.37633,-3.01674,57.096,-531.432,-889.136,-11480,12320,-22960
-20.3353,-20.7808,-14.2518,-29.9481,-18.1066,-8.26006,-17.2533,-10.4427,-23.9863,-15.9597,-9.77053,-18.9538,-11.3758,-13.8276,-20.3403,-16.0828,52.216,-527.528,-886.208,-5040,12740,-24920
-29.2787,-37.142,-19.8799,-46.2775,-28.5776,-9.71781,-26.1321,-13.4854,-33.2994,-23.8906,-10.1627,-30.8684,-12.937,-19.9599,-31.0925,-19.0689,46.848,-517.768,-887.672,-420,11200,-25900
-27.6014,-39.3579,-18.6979,-45.7278,-29.5018,-9.04009,-25.25,-12.4606,-34.5131,-23.281,-8.35387,-30.0462,-11.5508,-19.0165,-30.683,-16.7488,54.168,-504.104,-881.328,2380,9380,-26180
-20.9144,-37.0275,-15.4943,-41.0817,-26.6724,-6.37042,-22.1377,-8.42694,-33.2021,-15.6049,-7.76616,-26.3365,-7.62553,-14.8179,-27.6597,-14.9975,33.184,-526.552,-894.992,4060,12880,-24920
-17.8035,-36.382,-14.0336,-39.0124,-25.8604,-5.49347,-23.3307,-5.76738,-30.2994,-10.6121,-6.17224,-24.2311,-4.92759,-12.6482,-28.2415,-16.2726,35.624,-520.208,-868.152,7700,13160,-25620
-6.72557,-19.2557,-6.56041,-21.7073,-13.755,-2.1042,-14.1726,-4.32508,-17.3921,0.196177,-0.626081,-10.7569,0.166393,-5.31044,-18.1319,-9.57358,39.528,-517.28,-865.712,12040,2800,-26880
18.0543,13.587,8.14128,12.0901,9.66306,5.23644,6.95092,4.46809,13.1992,14.7336,7.66935,13.496,8.14972,7.76978,9.8544,3.38971,39.04,-516.304,-864.736,15820,1960,-28280
29.047,29.0861,13.314,29.5728,19.4069,7.62308,15.349,7.78948,29.4717,19.5998,11.0628,24.2588,9.72527,13.2524,18.8643,11.0477,34.648,-528.016,-859.368,17780,1120,-29260
31.7733,36.345,14.3013,36.1554,20.9532,8.92034,14.3763,7.68742,36.0429,20.8539,10.0946,27.6934,10.3425,13.5548,16.6862,11.9275,37.576,-536.8,-857.904,19740,560,-30520
26.4194,29.3785,9.58944,33.1045,14.886,5.31291,8.01337,5.95702,31.1913,12.7422,4.72503,19.6513,6.37201,8.47825,13.5814,7.82246,39.04,-546.072,-858.392,19460,420,-31640
29.4204,38.7716,12.1903,43.0623,20.9966,3.3123,10.5734,2.65607,32.3783,12.0987,3.76148,23.9842,6.1817,9.34205,22.3082,7.73546,41.968,-559.248,-857.416,18340,0,-33040
24.1309,38.6242,14.5907,43.4415,25.4862,5.30173,14.9642,4.28272,21.0171,9.07986,3.8572,26.0861,6.63295,13.6429,23.6876,11.136,46.36,-567.544,-851.56,19740,-1120,-33880
3.52193,4.0366,3.22004,8.12832,4.98907,3.6113,4.88614,4.28344,-7.42478,-3.29528,-0.284038,2.93104,1.18898,6.07153,5.95622,6.53294,51.24,-581.208,-852.536,22680,-980,-34300
-9.41325,-24.7791,-8.49994,-21.0561,-13.5907,-1.73359,-4.92711,0.431624,-28.5252,-10.2917,-2.83177,-17.577,-3.95792,-5.83474,-11.6636,-1.3217,58.56,-587.064,-855.464,26740,-280,-34440
-5.95946,-27.9726,-9.23004,-26.2239,-15.4397,-1.38795,-6.91202,2.43568,-18.6705,-9.26198,-2.07863,-19.8406,-5.14778,-6.51369,-11.8299,-0.771551,66.368,-592.432,-862.296,29120,420,-34580
6.68509,-7.36726,-2.87278,-7.84271,-4.4802,-0.630172,0.760447,3.00246,0.37608,-2.41756,-3.58612,-6.07226,-2.4824,-3.25949,-3.63518,2.20333,67.832,-598.776,-851.072,28000,280,-34580
5.33793,-2.11265,-0.783813,-0.831852,-0.157618,1.32172,1.77076,3.82635,3.83218,-1.35959,-4.16441,-2.99082,-2.00248,-1.33337,3.31815,4.53871,69.296,-602.192,-849.12,30520,-2240,-34160
0.29241,-0.766389,-0.807525,0.708231,1.00483,1.66625,-0.646239,-0.772317,-3.09452,-0.683567,-1.43548,-3.10474,-1.91722,-1.61113,1.02274,2.11924,68.32,-604.144,-843.264,33880,-3920,-34020
-12.2739,-18.7373,-7.62394,-18.1401,-12.2963,-0.335969,-16.3116,-6.51515,-16.0224,-5.61373,-1.66885,-14.5535,-2.74463,-7.63142,-21.4799,-9.71832,70.76,-606.096,-838.872,36120,-3780,-33880
-12.2904,-17.4892,-6.48178,-14.1981,-11.9824,0.272736,-14.5336,-5.56064,-10.1101,-4.52019,-2.16961,-12.9822,-1.59561,-6.90697,-21.9143,-11.6634,70.272,-607.072,-833.016,38220,-3500,-33740
-2.84055,4.76149,3.69488,13.3744,6.17367,2.54941,5.95654,0.666204,9.69648,3.77437,2.68414,3.52212,2.63417,3.18232,6.57826,0.56557,76.128,-610.488,-826.672,39340,-2240,-34580
-3.12321,14.7395,6.08343,21.1577,13.7321,2.21724,14.8317,2.57029,14.8908,4.35694,3.29439,11.0773,3.57801,5.87711,20.6337,5.08352,77.592,-610.488,-834.968,37100,-980,-35700
-12.7796,6.59215,2.58742,6.66926,3.81538,-0.205514,0.0143176,-0.404456,8.79913,0.650766,1.19573,5.89483,0.000757022,1.24604,5.84564,-3.06196,71.248,-594.384,-834.968,29820,2380,-36960
-20.4415,0.191772,-0.992828,-10.0648,-6.22927,-4.13798,-10.2515,-6.00735,-0.047866,-0.18952,-0.518606,0.912753,-3.79687,-5.20331,-13.1562,-9.45378,80.52,-610.488,-826.672,14840,3640,-37100
-25.2144,-0.671133,3.4007,-7.57138,-2.34264,-1.97569,-3.09834,-2.40011,-2.29183,0.96603,2.98104,3.21359,-2.66622,0.18359,-4.16746,-2.73728,96.136,-515.816,-772.016,13580,3500,-38360
-31.7935,-5.15894,1.48059,-7.7771,-1.29332,-1.61913,0.775763,-3.82767,-14.0238,-1.51249,3.12853,1.76021,-2.16169,-0.165385,-1.2769,-2.70045,88.328,-627.08,-838.384,11480,7280,-36960
-36.8409,-9.49759,-0.65185,-11.6816,-5.03963,-2.02738,-3.83085,-4.1218,-16.2349,-3.91833,3.57557,-0.890189,-2.55898,0.126741,-3.823,-2.62054,91.744,-606.096,-827.648,20160,7280,-39200
-33.363,-5.09301,-1.39373,-9.24158,-4.86525,-2.35237,-2.09391,-0.0747689,-6.69575,-2.44129,-0.902365,-0.113041,-3.46024,-0.36085,-5.69893,-1.34213,113.704,-598.288,-828.136,21420,1540,-38500
-27.6235,-3.76364,-2.88987,-7.94983,-4.44415,-2.74565,0.447647,1.36675,0.76145,-2.98414,-6.66126,-1.20719,-1.93947,-2.35376,-2.64722,0.696855,106.872,-590.968,-833.504,26460,4480,-38220
-13.0575,-0.54777,0.182528,-3.50408,-1.29687,-1.24081,1.73568,0.328713,8.87289,0.993344,-3.80756,0.674107,3.31805,-0.411988,1.33901,1.948,113.704,-570.472,-833.504,28140,5740,-37380
7.47441,3.6951,0.308767,0.0616163,-0.982028,-2.07004,-1.38097,-2.23324,10.3891,3.26557,-3.61374,2.79477,3.85605,-0.638306,-3.42719,-2.10164,128.344,-557.296,-831.064,29680,6720,-35420
22.7396,0.428892,-0.195045,-2.23595,-1.21575,-1.15809,-3.22056,0.167039,7.40866,1.87088,-3.06592,0.148182,3.47534,-0.570023,-4.25726,-1.81749,129.808,-546.56,-826.184,31780,7840,-35000
29.7028,-10.093,-2.14584,-9.36842,-4.23592,-0.989388,-3.42363,4.61279,-1.31632,-4.39943,-1.19746,-6.52714,3.54098,0.12324,-8.04105,0.374256,132.736,-541.192,-827.648,31920,9520,-34580
31.1133,-22.2447,-7.58341,-25.2294,-13.4998,-4.60559,-8.86106,0.98576,-12.8397,-10.1721,-2.17824,-17.9303,1.50156,-5.73178,-17.9508,-4.7094,132.736,-556.32,-828.136,30940,10780,-33320
29.9366,-18.0795,-6.56445,-18.7086,-7.66726,-2.76026,0.519899,2.80236,-12.4036,-8.42652,-2.69584,-16.5467,-0.621647,-4.14137,-3.14599,0.72728,131.76,-530.944,-824.232,29680,11060,-33320
25.206,4.2231,0.213214,8.89023,10.9007,3.09218,19.6471,6.3654,-0.281567,-0.103535,-1.0073,-0.300788,0.91002,4.50766,21.9465,10.7403,129.32,-505.568,-812.52,28700,11620,-32340
18.6247,7.80128,1.9171,12.7903,11.6618,1.50112,15.3373,1.67903,-4.85404,0.484581,0.093319,2.5881,-0.371424,4.8822,18.5512,7.25082,128.832,-499.224,-810.568,27860,10220,-30940
19.3548,1.30887,1.35129,3.1654,3.13332,-0.152555,0.107181,-3.66041,-10.0635,0.149195,4.15852,-0.315512,-0.597186,2.3702,2.14934,-2.45018,131.272,-506.544,-802.76,27580,9240,-30520
31.2292,24.6787,9.40457,29.6574,20.0637,2.46033,14.4839,-4.91294,5.0639,10.0464,10.7842,15.9199,3.70485,8.85728,22.3037,2.80673,149.328,-508.008,-789.584,31080,4060,-33460
40.6111,40.6049,16.3577,49.2411,31.9253,7.92061,26.3203,3.70328,27.6033,16.2741,12.877,27.4534,6.69179,17.7,44.3224,16.749,152.744,-481.656,-794.464,34160,4340,-36120
35.4082,39.4337,12.3345,48.067,27.666,7.06232,21.3862,2.69253,30.1928,14.4234,6.45878,24.8418,2.31432,12.2256,36.7133,16.2258,148.84,-456.28,-818.376,35560,5880,-37520
22.1162,34.2633,9.19024,42.5308,20.531,6.56542,9.13749,2.10362,27.9684,11.6229,3.60967,20.731,0.530475,7.48441,25.4562,11.577,143.472,-486.536,-809.592,28280,11200,-33740
7.11232,19.4306,2.72377,17.7203,5.73322,2.86628,-6.22191,-0.301584,16.7854,7.02504,0.0890548,10.8181,-0.564815,-0.786028,-5.19807,1.97555,145.424,-499.224,-808.616,25480,10080,-31500
-10.2375,-7.81532,-6.90542,-17.7071,-16.2486,-2.05121,-21.9746,-1.98273,-2.11626,-3.76002,-6.31237,-8.86389,-5.66653,-11.2639,-34.2237,-9.50905,147.376,-496.784,-812.52,23380,9660,-29680
-23.7525,-32.2679,-16.3111,-42.627,-30.5913,-5.79048,-27.9197,-3.71013,-18.6938,-10.9725,-8.80708,-25.0242,-8.76875,-17.919,-45.3207,-14.9245,151.768,-495.808,-814.472,23240,8400,-28140
-36.9383,-36.6244,-18.7478,-41.0507,-28.1461,-5.83101,-19.8585,-3.70184,-26.3476,-12.0208,-8.06996,-26.6025,-7.48693,-16.7023,-30.3958,-12.4658,154.208,-501.664,-817.888,23380,7140,-26180
-34.6393,-15.3047,-8.85697,-17.701,-11.7643,-1.98108,-5.55966,0.27246,-17.0673,-5.46763,-4.29761,-10.4098,-1.56573,-7.01867,-8.38362,-3.88977,154.696,-507.032,-822.768,24220,7140,-24500
-34.2436,-9.07737,-1.19613,-11.7736,-8.00723,-0.613326,-6.11303,2.57484,-9.42268,-3.007,-0.109554,-3.05482,1.67317,-0.497754,-4.20283,-0.4639,155.672,-517.768,-826.672,24500,6580,-23240
-35.467,-14.2138,-4.40832,-21.3774,-16.2022,-2.3659,-14.5461,-3.05399,-12.7839,-2.99681,0.103005,-6.69867,1.67754,-5.84893,-19.7887,-8.82553,161.528,-526.552,-839.848,24220,7140,-21420
-22.0164,-15.8714,-2.44058,-17.7566,-13.7556,-0.143312,-12.2551,-0.91666,-9.10797,-1.37572,2.16192,-6.72138,1.55663,-1.73126,-13.3632,-6.1799,150.304,-534.36,-830.576,23660,7560,-20580
-15.1974,-18.1362,-2.9406,-15.7418,-11.1737,-0.552519,-8.09571,-1.64552,-10.6553,-3.90231,-0.313341,-8.96638,-0.259339,-1.58575,-12.0019,-6.24497,154.208,-550.952,-829.6,28140,4340,-16800
-13.4821,-17.4407,-1.51805,-10.4274,-6.379,-0.152111,-1.73479,-0.168347,-7.16195,-4.14186,0.0186191,-8.57632,-0.369168,-0.83309,-0.38876,-2.63747,150.304,-546.56,-827.648,30660,1540,-13720
-6.80709,-13.2542,-1.34965,-13.1067,-8.43249,-1.8933,-4.05397,-2.37485,-2.14919,-1.47168,0.892843,-6.18793,-1.29929,-4.39795,-4.84635,-5.56872,148.84,-551.44,-825.208,32060,-560,-10920
7.39334,8.23669,6.04509,3.38909,3.53602,-0.251369,0.837537,-0.826163,15.8709,7.44743,4.08693,9.30703,1.425,0.991676,-1.5314,-2.19,157.136,-562.176,-823.744,33600,-1820,-7560
12.5585,23.8618,13.8266,25.6825,21.2103,4.75265,18.652,7.96427,23.1251,12.0691,4.5056,21.328,4.52619,12.0382,22.9632,11.7518,161.528,-565.104,-822.28,33600,-420,-6580
-0.481411,10.361,5.54438,17.0693,13.5284,0.804407,16.8031,5.91082,0.880994,-0.928319,-3.46364,8.41352,-2.2217,5.76247,18.5966,9.21676,160.064,-553.88,-814.472,33040,2100,-5740
-5.88485,6.55061,3.11221,17.396,12.0778,1.20434,13.9656,4.73315,-9.35109,-5.18997,-3.54125,3.044,-2.29951,5.08443,19.3087,7.95864,162.504,-558.76,-813.008,32620,2940,-4340
2.9632,21.3134,8.08884,33.8052,22.8029,4.49588,20.4812,4.42047,0.494956,-0.588596,0.0552926,12.7692,2.50085,11.2609,34.0667,11.564,155.672,-545.584,-809.104,31780,2800,-2800
24.5346,44.3028,17.0036,52.9845,35.2797,7.42654,29.1451,4.74923,26.9999,8.52653,2.06992,28.6686,7.0081,17.5762,46.9505,15.6072,159.088,-546.56,-805.688,30800,560,-560
26.0938,27.4118,9.12133,28.4683,19.4978,3.68395,12.2457,1.04279,22.3347,4.73494,-0.193396,16.9855,3.11317,10.7265,19.2652,7.81484,152.744,-547.048,-793,29260,700,140
12.7163,-7.82889,-6.33635,-11.948,-6.48424,-2.78125,-9.55337,-3.22281,-3.86141,-4.68828,-3.93895,-8.95623,-1.61509,-2.94865,-15.4326,-5.7898,151.28,-548.024,-783.728,26320,2800,420
6.77366,-22.4086,-11.8726,-31.8365,-18.6172,-5.82325,-16.8292,-6.19226,-8.33313,-5.01681,-1.2417,-18.8098,-1.81943,-10.1696,-30.3235,-11.7185,147.864,-545.584,-781.288,23520,4900,420
-1.19416,-24.4146,-12.1244,-34.1862,-21.87,-6.3602,-17.9282,-5.45332,-8.00874,-7.29668,-0.390532,-21.0091,-2.60851,-12.7049,-29.3577,-11.8369,147.376,-542.656,-775.92,17640,6440,280
-4.40305,-11.9917,-6.75526,-18.8704,-11.0493,-4.23259,-7.77531,-3.51926,-4.62625,-4.78377,-2.01971,-11.3866,0.0528144,-7.71059,-17.3643,-7.26122,141.032,-539.24,-776.408,11900,8260,420
-2.86091,-0.983638,-0.175947,-7.02524,-2.16281,-0.790632,-2.26016,0.793003,7.69256,-1.73958,1.2274,-0.777025,2.47889,1.18644,-4.359,-2.00822,141.52,-537.288,-775.92,7000,9800,280
-11.9244,-6.40234,-4.41659,-11.1109,-5.87435,-3.31621,-9.19243,-3.49067,-7.44807,-6.01608,-3.24836,-4.59628,-0.0163143,-2.42989,-16.7473,-7.30631,139.08,-543.632,-776.896,1260,11340,840
-14.7612,-15.7636,-7.27991,-17.9884,-11.7494,-4.32175,-14.4809,-4.3321,-15.7039,-9.15137,-5.97627,-11.0847,-3.34924,-6.74604,-20.1705,-8.76011,141.52,-542.168,-783.728,-2800,13160,700
2.06777,-0.450935,-0.536229,-2.49101,-3.65933,-2.54747,-7.50651,-4.44431,-3.67678,0.28389,-1.17629,1.83773,-1.59586,-3.21447,-10.535,-7.02416,133.224,-541.192,-787.144,-8120,14280,560
8.81928,7.71151,7.89868,2.87305,0.016457,0.516296,-5.52038,-4.31923,5.33109,9.30572,6.17359,9.60426,3.70333,1.05532,-5.09043,-4.51226,135.664,-539.24,-794.464,-11900,14700,1120
0.0601427,2.67232,7.40506,0.306987,-1.51143,1.22586,-2.58266,-2.95261,-1.71587,8.40263,9.55048,4.14049,3.67937,1.80734,-0.271779,1.18553,132.736,-537.288,-799.344,-12880,15120,1820
-0.954024,5.78788,3.75152,10.5595,5.6364,3.0707,8.90225,0.863302,-0.327658,5.17891,4.27555,4.92801,0.330393,3.43839,14.4657,9.152,128.832,-528.992,-808.128,-13440,15260,2520
6.8283,10.8962,1.98844,16.7586,10.7652,3.93425,14.8742,4.05616,6.54078,4.1051,-1.32624,7.74485,-0.874403,3.28205,18.4607,12.3127,129.32,-518.744,-809.592,-14980,14980,3640
4.13413,-1.28044,-2.24572,4.48027,2.10655,2.95861,6.56701,3.4899,2.08235,1.78643,-0.882028,-1.16478,-2.14645,0.712151,9.91118,8.30234,133.224,-499.712,-811.544,-16660,15400,4900
3.64414,-6.22163,-2.66665,0.617599,0.493009,1.40169,10.3818,2.80562,-5.24518,1.45495,-0.780213,-5.02029,-2.72578,-1.11635,13.7097,6.33861,123.464,-514.84,-821.304,-18340,17500,6580
-1.19214,-21.4193,-6.51897,-13.8572,-7.9029,0.635753,5.74298,6.48839,-14.9279,-3.17972,0.3174,-13.9359,-3.69487,-2.03431,9.62548,4.1579,123.952,-503.616,-815.448,-18480,17080,7140
3.24266,-13.1104,-6.1711,-13.7224,-9.05286,1.33434,0.261903,6.4806,-10.7817,-0.216066,2.17305,-9.75699,-2.22358,-5.42522,-0.31989,-1.46564,120.536,-506.544,-822.768,-19740,17220,8260
17.7492,8.37636,1.50599,-0.204995,-1.91328,1.80807,-6.5703,2.29207,16.3144,5.31716,3.97698,6.08868,-1.59623,-2.83718,-3.69852,-3.61419,116.632,-508.984,-831.064,-20160,17920,8960
16.8867,14.0985,1.69495,7.21868,2.65061,0.398542,-3.61097,-0.458458,20.2514,2.78124,1.45318,9.35512,-1.98096,-0.70083,1.91594,-1.31348,116.144,-495.808,-825.696,-19740,17920,9520
-0.404544,11.7086,0.229359,17.5341,8.61661,-0.31073,2.63162,-1.6517,-1.18527,-3.27249,-1.85712,6.9608,-1.3926,0.250551,7.68574,0.54794,117.12,-493.368,-831.064,-19040,16380,9800
-4.82439,2.37498,1.71906,5.41217,2.6489,-1.22581,-4.82871,-4.1678,-1.58163,-1.32956,-0.203767,1.28326,-0.18625,-1.24967,-6.11676,-3.60015,115.168,-488.488,-835.456,-18060,15960,10220
-3.31949,-1.78434,1.94047,-7.32689,-3.71504,-2.33688,-9.63222,-6.24448,-1.89984,1.99909,1.22385,-1.40519,1.29216,-3.37807,-19.5093,-7.75837,111.752,-487.024,-840.824,-16240,15260,10500
-1.94768,7.60228,6.11124,6.54527,4.94162,1.01331,-1.53107,-4.1908,0.841336,4.60739,1.46783,5.6055,3.85349,2.76015,-3.33368,-2.88576,112.24,-485.072,-845.704,-14420,14280,10220
-5.52506,10.6172,5.94451,17.8556,12.7324,2.51818,9.40973,1.71137,-0.439731,3.74942,0.216359,8.15893,3.61127,9.22908,14.5313,5.16336,107.36,-486.536,-857.904,-11480,13020,9940
-18.6963,-8.40267,-4.07463,-5.22768,-2.28842,-0.715185,-0.285451,3.91414,-12.0912,-6.12251,-5.45973,-6.21156,-1.56344,2.89702,-1.34737,0.711753,103.944,-484.096,-863.272,-7700,11340,8960
-9.50272,-5.83638,-1.92698,-5.20575,-0.990756,-1.32033,-0.233734,3.64087,-0.235955,-1.22981,-2.48394,-2.74862,-0.0257285,5.54226,-1.31761,1.9838,100.528,-485.56,-867.664,-3920,9800,8120
-7.45262,-3.24258,0.269634,-0.600233,1.24471,-0.344005,1.15629,1.66564,-2.64235,1.57574,-0.0505114,-0.678394,2.07164,4.07845,-0.552162,0.631354,100.528,-488.488,-873.032,980,7840,7000
-1.53768,0.660822,-0.132956,-1.44798,-1.31373,0.82611,-0.227053,0.638337,4.90774,0.796794,-0.438099,0.627262,1.07026,2.00303,-3.1553,-0.325307,98.088,-487.024,-880.352,4760,6300,6160
6.0956,4.73365,1.71751,0.0855696,-0.0281313,1.67806,2.25768,2.81192,13.6516,0.581366,-0.645545,3.25591,1.47729,2.17127,2.11978,5.78891,95.648,-496.784,-884.256,10360,4200,5180
-7.66171,-0.180165,-1.60478,6.0423,5.02531,2.91763,13.1353,5.24483,-6.6754,-8.43395,-6.66787,-0.587306,-0.694766,0.866327,11.536,12.1465,92.232,-497.76,-879.864,15540,2800,4340
-14.0957,-4.10939,-4.17262,9.22745,5.68445,3.97035,14.3525,7.91795,-12.5771,-14.3771,-8.78487,-4.06026,-2.84747,1.84085,20.3282,13.4988,93.696,-497.76,-877.912,18900,1400,3920
-2.38335,-0.937676,-3.39266,-3.46167,-5.06603,-2.63734,-5.38615,-2.9708,-2.69313,-7.71571,-4.08773,-4.78672,-3.48517,-7.15642,-4.98345,-3.36618,91.256,-506.056,-876.448,23240,-420,3780
6.12692,0.500468,0.758251,-7.80134,-7.35106,-2.78085,-10.4863,-6.83776,10.5397,0.848788,2.22403,-1.20467,-0.0414951,-4.15442,-7.88005,-5.73653,92.232,-514.352,-874.496,25900,-1120,3780
1.42058,-6.97225,-1.29071,-12.245,-9.46187,-5.38082,-11.3481,-10.6494,-0.0452506,0.122108,0.873819,-5.6935,0.527901,-5.70336,-12.3024,-8.95076,89.792,-520.696,-866.2,28980,-1120,3500
9.88376,6.12522,4.57835,3.58217,2.2691,-0.286234,-0.0259178,-4.96638,10.3387,6.77276,4.64605,5.83945,4.05158,1.92656,1.47052,-3.8046,90.768,-518.744,-864.736,30940,-560,3500
17.6824,17.738,10.9092,18.7558,13.4767,4.74756,11.178,2.57803,18.6532,12.1435,8.35034,16.6158,6.66434,9.03095,13.6005,3.30413,81.496,-536.312,-855.464,31640,0,3360
9.02418,10.1956,5.48566,12.5711,7.72459,1.38515,2.54093,2.1492,7.15737,5.87211,5.83274,9.85425,3.25284,3.65778,4.03504,-2.53593,81.496,-537.776,-851.56,32340,-420,2940
-1.60891,-3.16734,-4.15857,-1.46969,-3.34058,-4.07434,-6.69225,-2.56431,-6.67658,-2.01891,-0.152131,-3.25991,-2.47776,-5.4857,-8.64506,-9.13467,81.008,-537.776,-846.192,32620,-140,2520
-6.19762,-14.6794,-8.05767,-19.293,-12.3481,-6.16391,-15.9358,-4.38857,-11.1847,-5.13183,-1.90254,-12.4151,-4.50039,-9.70288,-23.1846,-10.9539,80.032,-542.656,-837.896,32340,560,2520
-0.995047,-12.3483,-7.28777,-23.6004,-12.9602,-3.61929,-9.55633,-1.97702,-5.40701,-0.994599,-1.91601,-11.4629,-2.38485,-8.40354,-20.0549,-6.4814,78.08,-542.168,-832.528,31080,1820,2660
6.09643,-3.04771,-2.10675,-11.539,-6.19852,-1.72357,-6.15691,-0.367532,4.64221,3.08431,1.84687,-4.42415,0.488033,-2.85904,-7.07609,-3.18949,75.64,-544.608,-820.816,29680,2660,2660
2.93263,-2.2067,0.347511,-8.84039,-4.37724,-2.00377,-7.00574,-0.857313,-3.84775,2.59853,2.12902,-3.38255,1.96192,-4.03204,-10.7246,-4.56127,92.232,-514.352,-813.008,27440,3640,2520
-7.21224,-14.5746,-1.2761,-17.2583,-8.63499,-0.543838,-5.30057,2.90151,-16.0752,-3.24956,1.31376,-10.7141,0.13998,-4.1349,-11.9464,-1.07269,74.176,-553.392,-813.496,25060,5740,2940
-7.32344,-8.8206,-2.54658,-6.45319,-1.96243,0.281527,5.82203,6.10823,-14.4199,-6.09211,-2.91122,-6.02689,-1.13695,-0.768924,3.34613,4.52734,77.592,-549.976,-798.856,22820,6580,2380
1.88245,1.88771,1.12031,4.75249,4.62948,1.58815,9.75543,3.29841,-3.61766,0.768091,-1.6024,2.4954,0.908626,2.87523,13.0585,4.53681,79.056,-554.856,-795.44,19600,6860,1960
4.98804,7.43524,5.10052,9.10032,8.4164,4.39392,8.16719,1.96876,2.78636,4.24931,3.03749,8.67436,4.00104,6.91399,15.6567,5.04762,78.08,-561.2,-790.072,16660,7000,1680
6.21681,8.93451,3.2115,11.4992,9.70364,3.76162,8.80409,0.0436717,1.25274,5.34553,1.91374,9.77698,3.55114,6.69918,12.3828,5.22714,81.496,-565.104,-788.12,13440,7280,1400
2.95112,8.84098,1.46762,15.8199,10.2284,5.89867,9.20051,0.00129388,2.46691,3.60877,-0.939077,8.44645,2.42568,7.22058,15.9144,7.16891,85.4,-560.224,-784.216,10920,7140,1260
-2.36277,10.2435,-0.645447,20.6233,11.6221,6.4185,9.96645,2.56754,6.00355,-1.38297,-3.98304,9.69082,-0.921585,7.68314,17.1913,7.78878,90.28,-569.008,-788.12,9100,4760,840
-1.38752,13.1585,0.392274,20.6223,10.6307,5.77814,8.13072,2.40494,13.1687,1.78535,-1.25734,10.366,-1.11843,5.87832,14.9562,6.62012,90.28,-571.448,-791.048,6440,7000,1260
