2.28236,5.03774,1.71557,4.53165,4.34985,-2.76322,-1.02422,-1.73862,4.00375,-1.17214,0.800167,1.32568,1.51658,2.86215,-0.745825,2.47099,-172.752,-842.776,-511.424,-1400,-3220,-2520
4.87057,9.45239,5.91559,6.73955,4.6878,-0.904364,-1.84521,-1.36275,7.1723,2.34311,3.43803,5.41343,3.62431,4.07485,-1.27353,3.66195,-167.872,-844.24,-509.96,-700,-3220,-2520
6.56993,6.54986,7.23267,4.39288,1.38682,0.413501,-3.21042,-0.783329,7.76916,4.86749,5.26782,4.36739,5.1137,3.52372,-2.73769,0.813107,-172.752,-843.752,-505.568,420,-3220,-2800
3.48673,1.55773,3.06381,2.52096,-0.949497,-0.852407,-1.71409,-0.711467,4.7247,-0.301685,1.84732,-1.1963,3.0761,0.612732,-2.01717,-1.63855,-170.8,-842.288,-510.448,980,-3220,-2940
-2.42509,-2.04736,1.9488,5.09429,1.91192,0.337995,2.91228,2.8583,-3.7705,-3.63327,-2.32764,-4.07532,0.589484,0.517072,1.96966,0.217772,-170.312,-843.752,-508.496,1680,-3080,-2800
-4.74289,-1.60973,3.29807,12.4033,7.80716,3.28649,10.0736,4.74501,-7.0029,-4.93305,-3.46947,0.52515,0.214981,3.82643,11.4334,4.84822,-169.336,-842.776,-512.4,2520,-3360,-2800
5.36461,9.25879,7.30819,17.9809,12.3562,5.7424,13.7013,3.84654,7.16305,1.97512,0.295989,9.0792,3.20413,6.39001,16.3584,7.25271,-163.48,-840.336,-510.448,3360,-3360,-2660
6.25527,7.02113,4.9497,11.2173,6.15709,4.01659,8.48246,0.618618,7.66401,4.45715,0.563556,6.95057,2.46663,3.40976,12.2372,5.09508,-161.528,-840.824,-517.28,3780,-3220,-2380
-6.324,-8.64602,-7.44723,-3.84628,-5.38656,0.597019,-0.612401,-1.42962,-8.93541,-3.29955,-2.77162,-2.08246,-1.96761,-2.36957,2.75864,0.276625,-161.04,-839.848,-518.744,4480,-3080,-2240
-1.69818,-7.41252,-8.27018,-7.85089,-4.43174,-0.383283,-3.5382,1.91917,-5.17792,-0.0970149,-1.10408,-1.69501,-1.20652,-3.68977,-1.53707,-0.0249158,-161.528,-838.384,-514.84,5040,-3080,-2100
5.017,-3.55317,-5.69375,-10.6529,-7.19554,-1.37228,-5.74376,-1.91319,4.55875,1.94248,0.355397,-2.29102,-0.530601,-3.88081,-5.87488,-5.32639,-167.384,-841.8,-512.888,5180,-3080,-1680
-3.90847,-10.2946,-6.30934,-17.0927,-8.94565,-1.06998,-6.97028,0.262151,-7.42311,-3.04233,-2.53475,-9.5905,-2.62618,-4.99801,-8.26731,-5.50974,-162.504,-839.36,-506.056,5040,-3080,-1820
-6.89941,-10.8093,-3.83389,-15.2412,-7.58181,-0.925774,-7.05871,0.95758,-11.4219,-4.8043,-2.34921,-9.55996,-2.88942,-3.40494,-6.4385,-1.7739,-168.848,-842.776,-510.448,4060,-3220,-1820
0.0770416,1.64979,4.71588,-2.24693,0.523037,1.19416,0.305956,-2.43572,-0.406001,-0.214958,0.63012,-0.96679,-0.35198,0.948311,3.17802,2.39115,-168.848,-847.168,-513.376,3500,-3080,-2240
-1.13302,-0.0234618,4.93881,-4.53258,-3.67218,-0.675008,-0.92179,-5.1506,-2.74812,-0.0464657,0.450492,-2.35825,-1.19529,-0.857371,0.848581,0.209691,-170.312,-844.728,-513.376,2660,-3220,-2240
-5.13629,-7.34144,-0.797001,-12.1941,-8.18641,-3.71628,-4.49905,-4.61189,-8.24261,-2.68338,-0.704417,-4.94772,-2.05433,-2.43161,-5.2595,-3.45589,-174.704,-844.728,-504.592,2380,-3360,-2380
-1.75632,-0.028669,0.0390133,-2.32968,2.24101,-0.534806,2.90607,0.0794554,-2.9285,-0.348933,0.327775,1.4232,-0.170507,1.15806,1.52783,1.35084,-177.144,-845.704,-511.912,1120,-2520,-2520
0.954827,5.74249,3.37349,2.3874,7.72946,1.19377,1.46673,-3.50787,3.51362,3.76939,1.46259,6.56645,1.5189,3.01046,-1.20794,-1.03435,-178.12,-841.312,-508.008,560,-2660,-2520
0.380488,4.94064,2.08973,1.01338,6.33716,1.9964,-0.98211,-4.98618,5.42296,3.76931,3.05649,6.87982,1.70386,1.37331,-5.48166,-4.23131,-181.048,-841.312,-508.984,140,-2800,-2520
3.31634,7.42962,2.10398,5.81952,6.45461,2.19832,0.611645,-2.62683,9.70582,6.37096,3.32203,6.09291,0.466957,1.4822,-3.29238,-1.88257,-183,-844.728,-511.912,-140,-2100,-2240
3.3219,4.16049,1.27928,9.18471,3.35346,2.06898,3.32502,0.888682,8.35954,6.25972,1.67452,3.75389,-0.971089,2.3384,2.94243,0.0434003,-188.368,-840.824,-507.032,280,-1960,-1820
2.67335,3.12278,2.07654,10.4621,2.87005,2.38945,5.29051,6.08166,7.07427,7.64916,1.63688,3.97539,-0.234241,1.55022,8.87685,3.57999,-192.76,-840.336,-507.52,700,-1820,-1120
0.888825,0.0796715,-0.479048,7.96308,-0.352511,1.37846,2.89121,5.90458,3.9322,6.17765,1.15464,2.94871,-0.163726,0.156599,5.44007,2.82692,-194.712,-837.896,-508.984,1120,-1680,-560
-0.931675,-5.2849,-1.27259,3.94352,-4.08315,0.0904984,-0.350174,4.04056,-0.758109,0.410928,0.326371,1.2118,-0.398278,-1.45215,0.970331,0.280568,-196.176,-834.968,-507.032,1120,-1540,-140
5.50482,4.57266,3.78083,7.34009,3.48696,0.442335,1.66446,5.62166,5.07851,1.24727,-0.078448,5.26845,2.25437,0.377927,2.95171,3.82775,-196.664,-835.456,-506.056,560,-980,140
1.13081,0.0946555,-0.854359,5.36267,0.392893,0.0361089,0.825898,6.2104,0.287565,-4.62835,-2.7982,-1.32634,1.16368,0.594208,2.35204,4.51035,-201.056,-833.992,-501.176,0,-420,140
-0.556621,0.166848,-0.0823379,4.56142,1.73197,-0.727152,-1.94708,6.31359,-1.84514,-4.70938,-3.25343,-3.39878,1.39244,-0.373694,-1.46923,2.9532,-203.496,-833.992,-505.568,-980,140,140
-1.6414,-0.923734,-2.32009,-2.73262,-2.35562,-3.70961,-6.97049,0.0956931,-3.80273,-6.01287,-2.07891,-6.06178,0.54133,-2.30861,-10.2595,-4.18911,-202.52,-837.896,-508.984,-1260,700,0
-6.24564,-0.918447,-4.95557,-5.31446,-1.53089,-3.29825,-2.03448,-1.1291,-8.21297,-10.664,1.30171,-7.29599,0.0421132,-1.77935,-5.81617,-2.92774,-204.96,-832.04,-502.64,-1260,1120,280
-8.24255,-2.75686,-5.17152,-9.3619,-3.13136,-4.09544,-0.053286,-1.75334,-10.7524,-9.32271,1.10158,-8.85711,-1.21444,-2.63074,-3.96746,-2.49017,-206.912,-834.968,-509.96,-1960,1540,0
-0.749565,-0.425921,-1.21907,-7.48243,-3.73058,-3.46746,0.838786,-1.90456,-1.82872,-5.44452,-1.68244,-3.52916,-1.1936,-0.9035,-2.73965,-2.12953,-206.912,-835.944,-511.424,-2240,1960,-140
9.39875,11.2887,3.23394,7.04401,3.87266,0.291724,6.99995,-2.23956,8.78795,1.96627,-0.840728,7.45767,2.09448,4.25642,8.52905,3.03793,-207.888,-835.456,-514.352,-2660,2380,-140
6.74335,8.55863,1.17711,9.72042,5.32517,0.885315,7.20056,-3.18623,5.19053,5.51182,-1.49804,5.92365,0.695849,3.81201,11.9106,4.22726,-208.864,-833.504,-508.496,-2660,2800,-280
7.14615,5.57668,2.07582,7.68367,3.44245,1.55514,5.75843,-3.64964,7.11036,8.6301,4.62929,5.94509,2.20944,1.95939,8.61968,0.425753,-208.376,-833.504,-508.496,-3080,3080,-560
7.68762,2.86516,5.67695,5.94225,3.88052,1.8928,5.76105,-0.900798,7.45145,10.1188,6.90235,6.42828,4.40217,2.37116,4.66971,-0.317916,-206.912,-836.432,-508.496,-3080,2800,-700
4.44812,-3.37345,2.70365,2.30487,-0.319794,1.28347,3.46202,-1.69556,5.41027,5.20875,3.36926,2.62122,2.93483,2.47249,0.793138,-2.29007,-205.936,-832.04,-508.496,-3080,2660,-980
4.08763,-0.409754,5.36022,-0.501252,3.63969,1.66343,1.02285,-0.817709,5.54137,6.44358,2.34554,1.92141,3.18771,1.07851,-1.10456,-0.0497409,-203.984,-834.48,-507.032,-2380,1960,-980
-7.69624,-12.3117,-2.57063,-14.7937,-5.44899,-1.14903,-7.89886,-3.31324,-8.7208,-4.19501,-4.75909,-8.41319,-2.93667,-3.44991,-11.8364,-3.04952,-204.472,-834.48,-510.936,-2520,1680,-1540
-8.89315,-13.2355,-6.72878,-16.0346,-8.39315,-0.882602,-10.2451,-2.92997,-11.8916,-7.39116,-5.85255,-7.94487,-4.74874,-3.28912,-12.3623,-3.78806,-198.616,-835.456,-511.912,-1960,1260,-1960
-6.43654,-6.82097,-5.19376,-7.84659,-2.73045,1.35222,-4.1519,-0.726202,-10.1186,-6.71166,-6.04971,-2.57539,-4.52323,-1.10873,-3.17551,0.249633,-198.616,-837.896,-508.984,-1400,420,-2240
-7.0408,-4.06837,-4.30468,-3.07873,-3.69446,2.77873,0.493961,-0.842076,-7.17982,-6.03645,-5.30598,-1.55061,-5.22649,-0.771885,4.23983,2.74596,-195.2,-839.848,-506.544,-980,420,-2660
-1.84693,3.24525,-0.819698,-1.71441,-3.48633,2.14655,-3.00417,-2.40848,0.660515,-1.13872,-1.57754,0.998136,-3.90363,-2.46594,0.856626,2.27079,-193.248,-839.36,-513.864,-840,-280,-3500
-3.17685,0.374507,-2.05665,-5.65201,-8.4481,-0.996213,-7.57091,-5.38857,-2.64727,-2.64555,-3.26475,-2.10127,-5.1491,-4.39699,-5.16428,-1.07185,-192.272,-838.384,-517.768,-420,-980,-3640
-10.1445,-9.53327,-4.56918,-12.1939,-12.6523,-0.808264,-9.89883,-4.08762,-11.9011,-8.34674,-1.42712,-8.65404,-5.7771,-6.25448,-8.6003,-4.45373,-191.296,-839.36,-513.376,700,-1400,-3780
-8.47344,-8.31395,-2.05299,-8.06257,-8.52961,-1.96917,-10.3229,-0.620775,-9.40405,-4.05452,1.30024,-7.65995,-4.15996,-4.38648,-8.21611,-5.50263,-189.832,-834.968,-507.032,700,-1680,-4060
0.999963,2.1538,1.06601,5.14443,1.46316,-0.417448,-1.43847,3.00083,3.55269,2.81425,4.27431,1.5312,0.241734,0.203521,2.21889,-2.1703,-187.88,-836.92,-510.936,700,-1960,-4060
2.425,4.38295,-0.210142,8.11351,6.25995,-0.507844,3.55157,5.21137,2.68461,1.62035,2.53831,3.80903,2.98361,0.537341,6.80369,-2.16262,-185.928,-832.04,-508.984,980,-2380,-4060
1.79265,2.41121,1.82711,4.91249,5.87732,-1.30621,2.27404,6.67542,0.959937,1.92034,0.967716,1.89136,4.34525,0.448608,6.46041,-1.16907,-183.976,-832.528,-508.008,980,-2660,-3780
5.84581,4.86193,3.22087,3.65734,6.54586,0.0885372,2.58288,5.29351,7.59103,4.46297,3.98959,4.01212,6.18665,1.63225,4.26238,1.45074,-182.024,-837.896,-504.104,980,-2520,-3640
5.4894,6.77951,7.12591,7.91728,11.9768,1.35525,7.51814,6.53025,7.11431,6.76878,4.5464,6.9057,6.47819,5.49601,7.28883,6.8142,-184.464,-836.92,-508.008,700,-2800,-3080
5.24919,8.01388,8.16223,6.26575,9.70845,1.53778,5.71074,2.08531,11.0827,5.13585,4.59808,6.4883,4.46733,5.74778,5.02405,4.89878,-182.512,-835.944,-508.008,1120,-2940,-2660
12.9731,17.4621,9.86689,7.52374,12.9661,2.4662,4.32853,1.6686,19.6311,8.98034,4.89972,11.4466,6.94424,6.15959,2.10452,4.95109,-181.536,-835.456,-510.936,1120,-2800,-2240
10.3939,8.96928,4.49189,0.658247,4.49198,1.1413,-0.207926,-1.34439,11.1983,6.54196,2.63852,5.98528,5.56571,4.28078,-4.9414,1.20274,-181.536,-837.408,-505.568,1260,-2800,-1540
-2.00402,-4.96113,-3.40294,-2.69596,-2.90145,-1.6168,0.663314,-0.937486,-6.28493,-1.82325,-3.53839,-4.51027,-0.209458,0.9892,-3.1541,-0.204672,-180.072,-837.896,-508.008,840,-2380,-1540
-7.87831,-9.09112,-4.18382,-0.475979,-2.63604,-2.2591,2.98495,1.92761,-12.6225,-4.46781,-6.94694,-7.64316,-3.05734,-0.939535,0.228338,1.80291,-182.512,-839.848,-508.496,140,-2100,-980
-1.97578,-3.70338,-3.59332,1.47494,-2.74469,-1.43629,1.5297,-0.857319,-2.35967,-2.05808,-3.80098,-5.03611,-3.40923,-1.61973,-0.454562,0.732757,-178.12,-840.336,-509.472,140,-2520,-700
0.856519,3.14075,0.466859,10.0286,3.09951,1.4083,8.51783,0.215803,3.39754,1.04722,-0.500223,-0.722238,-0.952723,1.70314,9.65208,3.41912,-178.608,-841.8,-508.008,700,-2380,-140
2.47852,8.09165,5.49782,14.7687,6.65628,2.8208,12.7542,2.3136,4.99043,2.37081,0.266,3.44786,0.623735,3.92044,14.0557,4.77357,-176.656,-839.848,-510.936,420,-2100,280
1.67134,1.04388,-0.214711,7.32909,-0.91876,1.08197,4.01768,-1.7902,2.92271,-0.802955,-0.396068,1.71315,-0.735126,0.67233,3.21743,-1.72798,-179.584,-839.848,-508.984,140,-1960,700
3.82507,-0.829079,-1.86034,4.32474,-0.90594,0.429024,-0.0160062,-1.16108,3.81413,4.35473,-0.132354,2.92127,-1.0281,-0.695556,-3.14572,-1.7911,-176.168,-838.872,-507.52,420,-1820,980
-8.98563,-13.4436,-10.6659,-3.59896,-7.59858,-1.71763,-3.50855,-1.405,-12.7703,-5.57355,-2.723,-8.13031,-5.18916,-3.15644,-7.75429,-0.681944,-179.584,-842.776,-510.448,0,-1960,1260
-10.9894,-13.5718,-12.8111,-8.35628,-9.09807,-3.09607,-3.56335,-0.759082,-15.6561,-8.33609,-4.75989,-9.85667,-5.6742,-5.25394,-7.92227,-0.146489,-175.192,-843.264,-508.984,280,-1960,1400
1.12546,-2.01899,-5.61803,-4.09271,-6.657,-1.55915,-3.05755,-1.54184,-1.42306,-2.58627,0.31076,-0.219979,-1.2528,-2.74013,-4.17204,-1.64552,-174.704,-842.776,-506.056,0,-2240,1680
0.289318,-3.5783,-4.0086,-8.88148,-8.61377,-2.19558,-7.56718,-2.85546,-2.29145,-1.77134,1.1794,-0.214643,-0.745763,-3.31295,-7.86748,-4.98543,-178.608,-843.264,-507.032,-420,-2100,1540
3.51986,1.16165,0.417201,-11.148,-6.71796,-2.53704,-10.7739,-3.01985,1.84136,1.86641,2.31866,2.18591,-0.129837,-3.61174,-12.5486,-7.81011,-180.072,-842.288,-508.984,-840,-2240,1820
10.0196,7.03146,4.40892,-6.38958,-2.06425,-0.157884,-9.61895,-6.27694,9.2172,3.77314,4.60041,6.27604,2.68653,-0.974284,-10.8985,-8.95099,-179.096,-841.312,-507.52,-1260,-2520,1680
7.56274,9.65976,5.42875,-1.36816,6.378,2.15438,-1.84451,-3.9522,9.44526,2.93077,4.47954,7.49969,3.84897,1.3352,-0.231691,-3.3307,-176.656,-842.288,-508.496,-1960,-2660,1680
-8.41035,-0.755457,1.04548,-5.69496,2.7341,0.89301,-0.481458,-0.756456,-5.71393,-5.90271,2.84034,-2.92035,-0.208052,-0.569254,4.16821,1.06347,-179.584,-843.264,-513.864,-2240,-2800,1400
-20.062,-13.0035,-4.39765,-10.0583,-2.9587,-1.12268,-2.37046,-0.397758,-21.4597,-12.1226,-4.37806,-11.355,-4.69708,-3.74197,4.72857,1.61586,-176.656,-843.752,-509.96,-2520,-3220,1120
-11.7661,-10.6121,-0.196539,-10.3662,-3.77051,-0.936181,-5.59974,0.752388,-15.9823,-6.70119,-4.4656,-5.4125,-2.4799,-2.68686,-0.283436,0.52534,-178.608,-844.728,-510.448,-2660,-2940,840
-5.33891,-11.9691,0.370665,-15.9053,-9.8316,-2.18544,-11.247,-0.88744,-11.0598,-2.79529,-3.91865,-5.5155,-1.76548,-3.20574,-13.0837,-5.89031,-181.536,-843.264,-511.912,-2660,-3360,700
1.1216,0.560821,4.37776,2.21669,-0.376322,0.338601,1.28463,0.969514,-0.743738,2.14402,-2.04899,1.08147,0.0845568,2.54963,1.8488,1.0375,-177.144,-845.216,-509.472,-2520,-3640,700
2.92096,3.83671,3.53837,10.9176,6.07377,1.88584,11.7043,3.99556,2.54563,3.2121,0.306591,1.90847,0.209111,4.75344,13.0818,7.98084,-179.584,-843.752,-519.232,-2240,-3640,280
-3.9922,-4.988,-1.67549,-1.4549,-0.62255,-0.805021,2.60389,0.612713,-4.73802,-2.29196,-1.19534,-6.4725,-2.10526,-2.43011,-1.40032,1.62571,-179.096,-842.288,-510.936,-1820,-4060,0
6.78326,8.38097,5.70424,4.37829,4.73026,1.84851,3.73504,-0.409934,10.6978,5.01549,3.01837,3.20655,1.94666,0.0147262,0.55411,3.64962,-178.12,-843.752,-510.936,-1540,-3920,-140
15.9075,16.4444,7.26702,14.9391,10.3229,5.15103,11.5708,0.191818,23.3923,9.74475,5.50687,11.5429,5.4175,5.60632,14.0392,6.61496,-179.584,-843.264,-520.208,-1400,-3640,-560
14.1591,19.3537,7.51974,17.232,15.0409,5.23092,13.5066,3.55522,23.0662,9.55854,2.79724,14.5404,5.82536,6.25139,19.3259,9.06442,-177.632,-843.752,-518.256,-840,-4200,-700
2.57107,9.15257,4.43703,9.7276,9.97086,2.74891,9.90724,4.74112,7.97253,2.73937,-2.2523,7.24518,0.930996,3.93885,14.4515,6.31674,-176.656,-842.288,-516.304,-280,-4200,-840
2.65126,9.18245,6.00483,11.0842,9.66722,3.08186,9.22416,7.15318,7.86495,2.52858,0.292108,7.25784,1.3555,4.79381,12.8232,7.17564,-181.536,-838.384,-513.864,280,-4480,-980
7.86273,10.06,5.69578,11.882,9.12703,2.74631,5.92951,5.63048,14.2891,5.00996,3.84221,6.2734,4.25288,5.30756,9.15085,4.9159,-179.584,-840.336,-521.184,280,-4480,-1400
6.20803,8.39627,2.44547,10.8869,5.81649,2.45757,2.6995,3.13321,11.3926,2.40961,2.03629,2.81372,4.11511,4.1092,4.61448,0.172828,-178.608,-837.408,-516.304,840,-4620,-1540
0.996856,3.52016,-0.92023,6.27022,-0.403661,0.353984,-2.6214,-0.374153,3.23265,0.275865,-0.14697,0.577309,2.25193,2.30401,-2.23461,-3.50253,-181.536,-839.36,-518.256,1260,-4480,-1400
-3.98358,-5.09272,-5.01217,-4.92013,-8.15868,-3.90251,-12.4047,-3.53801,-6.15606,-1.4552,-1.4636,-5.23727,-1.57056,-2.64923,-14.7463,-8.75696,-184.952,-838.872,-512.888,1540,-4340,-1400
-12.5845,-19.345,-11.7486,-18.0329,-17.9468,-7.37762,-16.3144,-3.4801,-19.7993,-8.623,-4.53122,-16.2254,-5.1116,-9.47602,-23.292,-12.2899,-182.024,-841.312,-516.792,1820,-4200,-1260
-12.261,-24.011,-11.9861,-21.0179,-18.4333,-7.9304,-16.3155,-3.11516,-23.037,-7.23732,-4.12413,-17.5868,-5.5386,-9.7979,-24.5949,-11.2222,-182.512,-841.8,-515.816,2660,-4060,-980
-8.30864,-21.7034,-12.5807,-21.3158,-20.6447,-6.55096,-18.7181,-7.91957,-16.913,-4.7173,-1.29653,-13.1128,-5.32099,-8.71234,-25.5331,-12.2946,-184.464,-841.312,-513.864,2800,-3640,-980
-1.51824,-6.93996,-7.30634,-5.79242,-7.9056,-2.7379,-5.85996,-4.37939,-6.07346,-0.311221,-0.0198092,-1.97483,-2.66892,-4.02188,-7.20007,-4.14924,-185.928,-841.312,-513.864,3220,-3220,-700
-0.740022,-1.8497,-3.60256,-0.511465,-0.0215087,-0.0318248,0.273368,-1.69368,-3.49631,-0.909278,-0.776372,2.57815,-2.5152,-0.0839115,3.0068,-0.922174,-183.488,-836.92,-512.888,3220,-2940,-560
-0.441747,-1.34979,-0.7306,0.00317459,2.8111,2.82059,2.64468,0.971163,-1.87511,-0.148149,0.350714,4.47543,-0.395645,2.38733,5.02009,1.55395,-188.856,-840.336,-511.912,3640,-2520,-280
-4.59759,-7.24826,-2.13312,-3.0242,1.11856,1.42759,3.37229,2.97015,-8.88954,-1.26873,-1.33288,-1.69549,-1.12917,0.0220004,2.75795,4.16794,-189.344,-840.824,-507.032,3920,-2100,-280
-11.6619,-15.0781,-8.81619,-8.41644,-6.74201,-2.41168,2.17413,-0.919375,-17.1797,-7.76126,-4.6657,-9.76678,-4.06628,-4.05985,0.151095,0.192463,-188.856,-838.872,-507.032,3500,-1960,0
-1.41296,1.65389,-0.788494,3.43275,2.4668,0.198331,7.16668,-2.24916,-2.06815,0.112445,-0.261127,1.29617,-0.178758,1.21715,5.61162,2.74024,-190.808,-838.384,-508.496,3640,-1820,140
1.65877,3.13317,3.92957,-1.33422,-0.571572,-1.93449,-0.518117,-4.71065,4.08185,2.99601,1.73637,-0.218021,0.116297,-0.596605,-4.12481,-2.24007,-191.296,-838.384,-505.08,3640,-1820,140
13.1677,15.687,9.44611,6.54598,7.34868,0.229901,5.11342,0.82012,18.9711,7.52984,5.57601,6.19587,4.31568,3.33044,3.18895,1.00336,-191.784,-842.776,-509.96,3360,-1260,0
17.5665,25.5487,14.3797,18.405,18.6788,4.58452,15.7786,8.01953,22.8178,9.50735,5.48435,13.2423,8.00246,8.4726,16.3407,10.596,-190.808,-841.8,-504.592,3360,-1120,0
9.4874,22.3178,11.8011,21.8948,18.4484,7.65753,16.5861,6.54833,15.8663,1.6911,2.25738,12.065,6.09285,9.76216,21.0576,14.1623,-190.32,-841.8,-504.104,3360,-840,-140
0.212969,13.5419,6.59468,13.4089,12.8031,5.57334,7.25332,3.9562,6.94727,-1.42921,-0.332792,5.37741,2.50514,6.58499,10.9232,11.4459,-191.296,-839.848,-501.176,3220,-700,-420
-5.66336,-2.53712,-0.737382,-5.03262,-0.128743,-0.0705259,-5.4286,-0.0433674,-3.2905,-3.73349,-3.33558,-5.08161,-2.46734,-2.50494,-4.96911,1.49435,-190.808,-841.8,-506.056,3080,-840,-560
-6.01705,-9.24501,-3.2784,-11.5814,-7.69198,-1.42053,-7.70392,-2.59358,-6.13151,-4.93786,-2.09342,-5.72033,-3.15865,-5.51135,-6.91129,-2.6019,-190.808,-840.824,-505.08,3500,-840,-840
-3.0518,-8.06636,-1.73468,-9.88531,-6.73707,-3.34446,-5.62092,-1.72692,-3.26334,-0.834709,1.53547,-2.4742,-1.24213,-4.81155,-5.55402,-2.97206,-191.296,-839.36,-502.64,4060,-1120,-980
1.14091,-2.17574,-0.91635,-0.371621,-2.40008,-1.97903,-0.383247,-1.26339,-0.142173,-0.870241,1.8118,1.70733,-0.37513,-0.0450898,0.895914,-3.16375,-188.856,-837.408,-505.08,3920,-1120,-1260
3.08904,5.60839,2.98134,6.20177,3.49742,0.749954,3.09562,2.39447,1.5204,2.46037,0.895096,7.33999,1.20763,1.42996,3.09362,-2.55104,-187.392,-838.384,-506.544,4340,-1400,-1400
7.25419,5.56523,5.04079,6.0061,3.39053,1.74741,1.92599,-0.578945,7.4619,7.32671,2.34204,8.73707,3.2419,3.48522,3.35387,-4.0286,-187.88,-839.848,-508.496,4480,-1400,-1820
8.17528,6.85326,5.96645,7.42774,6.29556,2.69891,3.05992,0.55299,9.17006,9.31111,3.98563,8.99527,4.48032,5.03405,6.87509,-2.45393,-188.368,-837.408,-512.4,4620,-1400,-2240
1.13682,0.60944,1.16162,-1.90342,1.04895,1.41424,-1.06702,0.221093,-1.58548,4.6331,1.04978,0.756551,0.265428,-0.149301,0.0980099,-4.9685,-186.416,-839.36,-508.496,5180,-1680,-2660
-6.15913,-7.48345,-4.66812,-9.23002,-5.47606,-0.207442,-6.85524,-2.66962,-9.32435,-3.38959,0.802907,-4.89085,-2.08263,-3.31735,-5.13729,-4.7492,-184.952,-838.872,-508.984,5040,-1540,-2940
-4.91437,-8.3068,-5.20839,-9.11701,-5.76586,-0.960284,-10.2778,-4.02843,-2.80774,-3.64612,3.7168,-3.33131,-1.31743,-2.56359,-9.20025,-2.56016,-183.488,-837.408,-509.472,4900,-1540,-3640
-0.825537,-7.00283,-4.84103,-5.30986,-5.93689,-1.61381,-6.28958,-1.07569,1.607,-4.58212,-2.46592,-2.81561,-3.07481,-2.53991,-5.66985,-0.0687772,-183,-838.384,-513.864,5040,-1680,-3920
-8.93145,-13.8154,-6.28,-5.9486,-7.59194,-2.32367,-3.46913,0.991569,-11.2407,-10.804,-8.19073,-6.99098,-4.10247,-3.40864,-2.23345,1.2363,-181.048,-840.824,-512.888,5740,-1540,-4200
-8.47699,-12.4893,-4.7853,-6.35072,-7.24188,-2.47341,-2.69994,0.923362,-14.8492,-6.16005,-7.74678,-8.02709,-1.3199,-3.0713,-3.17062,1.89273,-181.536,-839.36,-510.448,6020,-1680,-4760
-1.06303,-2.90304,-3.60325,-1.50696,-6.45504,-1.01397,-0.783748,-0.672738,-3.70194,-2.63397,-2.37116,-3.68328,-0.741276,-2.13405,-1.09515,1.45356,-179.584,-842.776,-506.544,6720,-1540,-4900
-2.8241,-2.71274,-4.16467,-2.63135,-5.36224,-0.885094,0.20356,-2.08988,-6.48249,-1.89192,-1.19189,-5.02955,-2.00372,-2.04413,-2.36138,1.80245,-176.168,-841.8,-508.496,6440,-1260,-5460
-6.32062,-7.31804,-5.51795,-3.125,-6.22233,-1.56404,2.81736,-2.44327,-14.5986,-4.78444,-3.49694,-8.09064,-3.95037,-1.19553,-0.79827,3.06244,-175.68,-844.728,-510.936,6300,-840,-5740
-2.52816,-2.8541,-3.36414,-0.970625,-2.69892,-1.58005,2.59892,-3.90569,-7.2332,-4.33218,-2.19607,-5.04501,-2.86447,-1.25669,-0.174477,3.20649,-173.728,-845.216,-506.544,7000,-840,-6020
5.98153,7.93919,3.00235,2.7131,2.22134,-0.0661887,0.99976,-1.86767,7.7052,3.5129,0.740806,1.84262,0.313608,-1.04369,-2.59891,2.02917,-175.192,-845.216,-503.128,6860,-560,-6160
5.47901,7.76521,5.72962,3.2869,2.42252,1.41179,-0.794453,2.34486,11.2347,4.54089,2.28493,2.24415,0.735164,0.130856,-2.51204,0.481515,-173.24,-844.24,-508.008,7140,-280,-6020
3.79553,5.98221,5.47704,-1.03189,2.02622,0.852317,-2.62778,3.75,9.87791,4.96781,1.55826,0.659288,1.01342,-1.01356,-1.55122,-4.51341,-169.824,-843.752,-504.592,7420,0,-6300
2.61214,8.83972,5.92955,2.10149,5.19095,1.98167,2.48757,3.18674,9.65597,4.03426,-0.737934,1.68667,0.75583,2.06212,4.59503,-4.10391,-168.848,-845.216,-504.592,7420,0,-6160
2.71126,8.69385,2.67124,4.63816,6.86567,0.797144,6.37062,2.28431,11.5762,3.29904,0.0955998,1.88229,1.12303,3.40943,8.24169,-0.43375,-170.312,-848.632,-504.592,7420,140,-6160
2.9843,6.16563,3.5709,3.70013,6.44841,-0.9422,3.13449,2.66963,10.117,4.68673,1.77304,2.74263,2.58313,2.98736,3.71443,-0.742634,-170.8,-846.192,-502.64,7560,420,-6020
1.64609,2.67342,1.08867,5.94996,4.831,-0.100239,2.29379,1.67921,7.05806,3.57165,2.51577,2.81061,3.57312,3.001,4.0758,-0.965891,-168.848,-847.656,-500.2,7840,420,-5880
6.0355,5.39057,1.54065,9.87617,7.20903,0.306364,2.42237,1.54794,8.06517,7.35059,5.54238,7.32772,4.68037,2.68564,2.11265,0.929872,-169.336,-847.168,-498.248,7560,840,-5740
4.87052,5.53041,1.70205,9.27103,6.40353,0.438985,0.524115,-0.23617,3.22782,5.77081,4.537,6.1822,4.50144,3.02362,-1.73619,-0.348418,-167.384,-847.656,-502.152,7420,980,-5460
-4.43312,-2.22988,-4.0107,2.93661,0.630136,-0.52864,-0.74234,-1.77636,-9.33639,-2.77641,-0.084198,-2.04263,1.11199,1.01166,-3.03788,-1.02982,-165.432,-848.632,-509.96,7840,1120,-5040
-6.51302,-1.84883,-4.60937,1.88923,2.31425,-0.172935,0.951898,1.30871,-12.6003,-5.77337,-2.93072,-2.97257,-0.619435,-0.562465,-2.43663,2.33602,-164.456,-847.656,-503.616,7840,1120,-4760
0.285769,2.76247,-4.03908,2.80612,0.835281,0.898804,1.6506,1.36541,-3.87388,-3.81602,-0.290318,1.1879,-0.631573,1.05019,0.634745,2.0119,-168.848,-846.192,-498.248,7980,1400,-4340
-3.76838,-4.18311,-3.22233,-4.0892,-2.97253,0.306099,-0.599589,0.763473,-8.48087,-4.13671,-0.492858,-1.35545,-2.17577,-1.20015,-2.62063,-1.47415,-164.456,-847.656,-501.664,7980,1260,-4060
-5.30458,-8.5101,-1.59521,-6.3371,-6.48457,1.00348,-1.11301,-2.9008,-8.5206,-3.77918,-0.402414,-1.80946,-3.40234,-2.26962,-4.1388,-5.10743,-166.408,-842.776,-497.272,8540,1540,-3640
2.22295,-0.95004,1.48238,-4.00564,-3.95404,1.78767,-0.127181,-3.86307,1.95241,-0.0634705,1.09934,4.8373,-0.562272,-0.0713043,-2.61041,-3.09769,-165.432,-843.264,-502.64,7840,1680,-3220
0.532575,-0.264366,4.00814,0.241715,1.88832,2.68705,5.12856,-1.05097,0.0499405,-0.401652,0.00392982,4.04169,1.43212,1.89108,7.20414,3.4662,-167.384,-847.168,-502.152,7980,1820,-3080
-2.14894,-2.82447,5.59512,4.104,2.81246,3.24087,7.3521,1.88656,-0.767973,-2.54336,-0.877766,1.75197,1.8219,2.72332,12.7839,8.87847,-163.968,-844.24,-499.712,7980,1820,-2940
2.72206,-3.237,5.39015,-5.47725,-2.96597,0.74704,-4.3124,-3.18139,7.56088,0.370021,1.57081,1.51346,1.5369,-0.569154,-3.45083,1.24419,-166.896,-844.728,-503.128,8120,1820,-2520
2.42385,-7.45287,3.6765,-12.5786,-4.79756,-0.851899,-9.13094,-4.31573,2.49564,1.21504,1.72735,-2.67676,-1.03515,-2.29021,-11.1574,-2.20898,-164.944,-840.824,-499.224,8260,1680,-2100
-5.94911,-11.696,-3.17754,-10.3743,-5.41543,-1.67954,-6.00454,-1.64134,-8.06585,-3.84917,-1.10596,-8.09498,-4.23683,-2.8637,-2.76971,-2.21706,-167.384,-843.752,-496.296,8120,1820,-1820
-3.84892,-6.02416,-3.63174,-3.09318,-0.794281,-3.51319,-2.51908,2.56027,-5.40472,-0.905909,-0.675887,-3.84642,-4.68618,-2.85627,5.21446,0.443881,-168.848,-843.264,-505.08,8120,2240,-1400
-8.8063,-14.3828,-8.75865,-8.78135,-8.54468,-6.32438,-6.63174,0.908817,-13.0729,-5.88788,-3.73339,-8.30834,-5.80876,-5.31297,1.3752,-1.43126,-167.872,-842.288,-500.688,7700,2100,-1120
-0.58245,-5.4161,-3.68071,-4.53739,-4.22065,-4.42946,-8.07279,1.72058,-4.75427,0.765961,-1.55089,-2.54254,-2.71592,-4.67153,-1.84972,-0.236378,-170.8,-842.776,-503.128,7700,2240,-700
8.81953,5.24634,1.75926,5.02542,2.10488,-0.689512,-3.57221,2.90469,6.58474,7.48435,1.78333,5.34306,1.52563,0.408131,1.02375,2.22969,-169.824,-841.312,-501.664,7280,2800,-560
9.43601,10.4067,1.26123,9.33038,1.62585,1.62031,2.46199,1.06444,10.156,6.6193,1.67434,7.27403,1.77504,3.47601,6.05412,2.14352,-171.776,-842.288,-499.712,7140,2660,0
12.4552,17.5049,3.87795,9.75927,6.19155,2.74122,5.12932,1.80709,11.8806,8.4401,2.02858,9.42923,2.03476,3.95354,3.51485,2.78709,-175.68,-840.336,-498.736,7000,2940,140
8.23754,16.0335,2.40795,6.63078,4.02546,2.79267,3.03584,1.48468,8.57153,5.43863,1.59331,5.84955,3.32965,3.91114,-3.69241,1.6837,-176.168,-839.36,-499.712,6580,3080,560
-0.143686,10.0158,0.0870335,3.91105,1.75458,2.1087,3.86539,3.1745,1.29038,-0.414329,-1.15608,0.268261,2.83631,2.15608,-5.54698,2.12972,-179.096,-842.288,-499.712,6020,3080,840
-1.62204,5.40557,-0.281056,-0.653075,-1.48463,0.340942,3.45134,-0.958152,0.696711,-2.83226,-1.14419,-1.48676,1.32934,-0.0409844,-7.42448,-2.42424,-179.584,-839.36,-497.76,5740,3360,980
1.82544,11.6176,1.71857,5.53488,4.24353,2.58956,10.1709,-0.974867,7.51597,-1.13625,0.299657,3.54779,3.16876,2.17395,2.35991,0.326917,-181.536,-839.848,-494.344,6020,3500,1680
-3.93005,6.05034,0.758121,6.84769,8.20016,2.21957,12.1923,1.24341,0.0399584,-4.43054,-2.7727,-0.546108,2.35568,2.86551,10.452,3.95507,-185.44,-842.288,-495.32,5460,4200,1680
-4.55121,-3.23912,-1.86213,-0.877453,0.934231,-1.47743,2.45553,-3.63281,-0.339562,-7.09285,-2.94721,-4.82184,-0.576469,-0.913364,2.76728,-0.959271,-183,-843.752,-496.784,5320,4340,1820
0.806136,-0.14825,0.217785,-4.86942,-0.235767,-2.50459,-2.67481,-4.58312,6.46037,-1.9858,-0.683288,-1.58974,-1.1165,-2.13803,-1.8497,-3.51406,-183.976,-843.752,-496.784,5180,4200,1960
-7.2991,-8.33711,-4.36392,-11.3474,-4.87452,-5.97173,-5.85999,-4.73872,-4.56122,-4.42598,-3.5201,-7.23749,-2.76681,-5.90365,-4.9865,-6.20556,-182.512,-841.8,-496.296,4900,4340,2100
-17.7141,-20.255,-9.08956,-13.8961,-8.50152,-5.62483,-5.90016,-3.18456,-20.4651,-8.66823,-4.83215,-13.2889,-2.59674,-6.82547,-4.12013,-5.05324,-183.488,-842.288,-499.224,5040,4480,2240
-4.00993,-9.2625,-0.540104,-3.99813,-1.10241,-0.0567894,-2.30493,1.06102,-5.7897,2.55016,2.18777,-2.72396,2.2752,-1.45091,-0.0592238,-0.166993,-183.976,-839.36,-497.76,4900,4480,2240
1.32023,-4.71756,1.90209,2.80119,1.07134,3.59313,-0.0357749,0.5548,1.76097,5.30083,4.59193,1.14577,3.01787,2.76906,3.99235,0.364413,-183.488,-841.8,-499.712,4760,4340,2240
0.16936,-3.7273,2.57181,5.38981,3.37955,4.14827,1.16522,1.03541,-3.71105,3.80292,3.1679,-0.57803,1.59609,3.28649,4.10325,0.927251,-181.536,-840.336,-497.272,4620,4340,2380
2.31854,-4.1142,2.31798,2.22539,-2.07034,2.15424,-4.07997,-0.325204,-2.33192,2.83372,1.47461,-1.35828,-0.528836,1.30623,-2.95804,-3.54703,-184.952,-838.872,-496.296,4340,4340,2240
3.63943,-2.35771,1.79258,1.83517,-3.77968,1.65442,-5.04673,0.929986,1.95635,2.29522,1.04885,0.511396,-1.76654,0.0288912,-2.72252,-2.57355,-183,-837.408,-498.248,4200,4620,2380
2.25685,-2.51687,0.725393,-2.81613,-4.06637,0.231485,-7.23793,2.16431,1.90149,1.4953,1.75388,0.136989,-2.3692,-2.18617,-6.93304,-2.30094,-185.44,-838.872,-495.808,3920,4760,2240
-1.63586,-4.88582,0.0389714,-1.33893,-2.51191,0.649927,-7.27501,4.4178,-3.30388,-2.94243,-0.610811,-0.478464,-3.9683,-0.731236,-7.95928,-1.41888,-183,-837.896,-497.272,3640,4760,2240
-0.248377,5.58936,3.74063,16.9508,10.8501,4.2609,9.0418,10.8783,-2.1361,-3.48808,-0.135271,6.61733,-2.41647,5.77839,15.6749,8.73974,-183.976,-835.456,-495.808,3500,4620,2380
-3.6011,3.98725,0.800103,10.946,8.46841,1.1257,8.3888,5.1581,-2.90499,-3.64315,0.968047,3.22221,-2.42019,2.80473,16.104,3.42226,-184.952,-840.336,-496.296,3080,4760,2380
-1.69027,-1.24363,-3.58237,-3.24291,-1.61242,-2.59802,-0.030264,-5.09863,-1.39159,-3.56069,-1.32198,-0.768273,-2.69048,-2.19106,-0.7733,-3.10557,-185.44,-839.848,-497.76,2660,4900,2380
5.55095,7.79655,0.707041,-0.938933,1.88251,-1.72735,3.07315,-3.00847,5.92424,1.69485,-1.97078,4.99116,0.987003,-0.134839,-0.546641,3.77183,-185.928,-838.872,-496.784,2520,4760,2520
11.5452,11.1661,3.96914,4.61989,1.41554,0.294329,5.51091,-3.89588,9.56961,5.62722,1.30379,7.93297,4.15284,2.99376,0.89755,3.75715,-187.88,-844.24,-498.736,2660,4900,2660
14.2198,14.8677,7.96028,9.00475,4.99948,1.3786,6.6186,-0.938254,12.6065,10.4052,3.95584,10.8794,5.80743,5.21111,-2.19505,4.33984,-187.88,-838.872,-498.736,2520,5040,2660
5.34015,1.02988,1.27968,-4.2688,-3.71118,-2.39905,-4.95352,-4.18906,5.42949,5.313,2.1567,1.3296,3.48327,-1.38417,-16.8465,-2.85419,-185.44,-839.36,-498.736,2100,4900,2660
-0.952968,-6.59884,-4.34677,-11.1272,-7.98411,-3.51485,-9.98861,-5.74071,-0.737529,1.4298,1.01262,-4.5375,2.10522,-5.1126,-18.4193,-3.9731,-186.904,-839.36,-505.08,2240,5040,2940
-0.979526,-3.46205,-1.81007,-8.2953,-4.46346,-1.72261,-6.86427,-3.38133,0.321419,2.11244,0.10098,-3.29797,1.04272,-2.73947,-8.64936,-1.16891,-189.344,-837.896,-501.176,2520,4900,3080
-4.31518,-4.52451,-1.76622,-4.75889,-3.64349,-1.01277,-2.98683,-2.34028,-1.88323,-4.40093,-4.0091,-4.59939,-2.76025,-0.841316,1.55473,-0.331973,-188.368,-836.92,-499.712,2940,5180,3220
-9.5391,-2.70555,-1.69162,-1.94518,-0.0827139,-0.767856,2.74532,3.11378,-6.35628,-8.53726,-6.62507,-5.06705,-4.72569,-0.887087,8.26279,4.46257,-185.928,-836.92,-503.616,2800,5180,3360
-14.2159,-6.82272,-3.69844,-4.29415,-2.78504,0.0287034,4.72521,4.97489,-14.8432,-8.4977,-6.13033,-9.01427,-4.27709,-2.66213,8.44467,3.48207,-188.368,-835.944,-501.664,3080,5040,3640
-13.5872,-8.31892,-5.57705,-8.74355,-4.97768,-1.33277,-1.09304,3.13664,-12.9366,-8.33847,-5.33763,-9.27318,-4.11635,-4.69051,0.996869,-1.68875,-186.416,-836.92,-506.056,3500,5180,3640
-8.20506,-4.86656,-5.38594,-13.2111,-4.88642,-2.88237,-5.94478,0.545219,-6.48161,-6.04432,-4.03054,-6.37639,-3.8206,-5.0077,-4.63071,-5.43818,-186.416,-835.944,-504.104,4060,5320,3780
-5.17875,-2.29798,-7.49584,-10.5685,-4.65325,-2.36054,-3.45395,0.0394084,-4.46271,-5.5463,-3.51477,-3.57926,-3.73146,-3.02224,-1.05535,-5.73674,-184.952,-841.8,-507.032,4340,5460,4060
7.02647,10.1099,2.82295,6.40171,8.36161,2.25343,8.50915,5.72659,6.1772,4.89044,3.05952,8.24456,2.78123,5.02665,12.4379,2.34946,-187.392,-838.384,-502.64,4480,5880,3920
4.98679,1.09067,1.89472,-1.20704,2.8642,1.6518,-0.462008,1.80974,2.34199,6.89201,5.01719,3.27269,3.53556,2.33241,0.100111,-3.24845,-186.904,-840.824,-506.544,4480,5740,3920
-6.16549,-13.8918,-7.35885,-9.9882,-7.91746,-1.47658,-7.54619,-2.50162,-10.7117,-0.317269,0.720655,-6.84926,-1.02617,-4.67379,-7.46784,-6.83663,-188.856,-840.336,-507.032,4620,5600,3920
2.48788,-0.132772,-1.73235,8.96256,2.64164,0.825146,3.38571,1.32647,-1.17682,5.42723,3.03935,3.80737,2.03411,1.03155,7.43171,2.6947,-186.904,-839.36,-508.984,4200,6160,4200
12.1093,11.3095,5.57895,19.1364,6.76351,2.75907,3.06941,-2.21355,13.2237,9.02768,7.20433,11.9565,4.91998,7.14473,9.92118,2.58396,-186.416,-839.36,-509.472,3920,6860,3920
22.8599,19.7082,14.1343,22.7174,13.1107,4.60437,4.90432,-2.76693,27.2976,15.5595,11.5566,18.3487,8.53103,8.69862,11.9886,5.27233,-187.88,-837.896,-505.08,3920,7140,3640
14.7347,12.9618,9.99201,16.1098,10.189,3.59433,5.24032,-5.96498,18.7547,8.02383,9.35745,10.9978,6.16609,5.7087,8.40636,2.35725,-183.488,-840.336,-506.056,3220,7420,3360
2.5867,9.46339,6.44681,12.5191,7.61438,2.79802,6.74196,-3.74385,7.37228,-0.887142,7.03954,4.1429,3.50201,2.51359,5.23465,2.46145,-185.44,-837.896,-507.032,3080,7700,3080
1.94135,6.32657,3.97559,3.95716,3.92074,1.14084,3.0517,-2.98466,4.68629,-1.6708,1.32272,2.32528,0.553182,1.2126,-3.4323,1.89992,-187.88,-842.288,-513.376,2800,7560,3220
3.93388,0.507492,0.763879,-1.78963,1.61062,0.768485,3.9304,-1.0639,5.27861,-3.7668,-1.39688,-0.0850906,-0.895307,1.64196,-4.53088,2.50336,-184.952,-836.432,-506.056,3080,7280,3220
9.94373,2.40276,2.20753,-0.4109,2.87621,1.18837,5.78848,2.90676,11.384,1.83557,-0.304951,3.34371,2.64799,4.95597,-2.26921,3.66936,-186.904,-837.896,-506.544,2940,7000,3360
5.59255,2.4471,2.4502,1.24744,3.72039,2.46198,4.89535,7.00917,4.93817,5.33748,-1.17921,2.84458,3.82413,5.76684,0.679539,5.19242,-187.392,-841.8,-511.912,3080,6720,3500
2.62984,-0.955221,1.97091,-1.01612,-0.745275,2.19665,-0.982173,5.52053,1.81037,3.91747,0.296088,-0.550439,1.39648,1.13833,-2.71131,2.22466,-190.32,-837.896,-508.984,3500,6580,3500
-3.00353,-1.30547,3.34081,-1.91388,-2.6313,-0.111417,-3.57103,4.57359,-5.67215,-0.0894589,-2.34764,-3.51616,-1.93233,-1.89652,-3.2356,2.53552,-188.856,-838.384,-514.352,3920,6020,3780
-10.9355,-5.99514,-0.188989,-2.10962,-7.11304,-0.862225,-2.50687,2.53349,-13.9898,-5.39631,-4.64145,-7.61633,-4.84529,-4.02487,1.21303,0.425777,-188.856,-834.968,-511.912,4340,6020,3920
-5.29932,-0.997436,1.3599,-0.293242,-3.00553,-1.14564,-0.873255,4.00033,-8.48923,-0.991808,-3.58567,-1.86319,-1.98157,-2.63001,3.0956,1.23289,-187.88,-835.944,-512.888,4760,5880,3780
-13.6699,-16.0289,-6.70514,-16.6431,-13.8397,-5.6428,-12.0307,-3.27888,-17.7489,-8.39604,-6.08673,-11.131,-5.59409,-9.63339,-13.1922,-8.28842,-188.856,-835.944,-510.448,5040,5880,3780
-26.743,-32.3512,-17.0356,-30.5033,-25.4961,-7.98967,-20.3623,-8.25254,-34.1551,-20.3597,-12.2814,-23.4105,-11.1426,-14.857,-25.4329,-16.2955,-190.32,-834.48,-508.496,5600,5740,3780
-18.338,-16.1598,-10.7925,-12.3178,-8.40718,-2.23262,-3.94586,-0.00976338,-24.7647,-14.6349,-11.0238,-12.9844,-6.94661,-6.85801,-5.46333,-3.06614,-190.32,-835.456,-511.424,6440,5740,3920
-12.3057,-6.64292,-7.45618,-0.596189,0.222566,0.211772,3.71877,0.820943,-15.9611,-11.5397,-8.34834,-6.2235,-4.57376,-1.74362,4.56396,0.340485,-192.76,-834.968,-510.936,7000,5740,3780
-15.9549,-10.7638,-10.0909,-3.29102,0.383604,-1.17858,1.80199,1.03102,-18.8464,-11.9923,-8.81011,-8.90911,-4.86318,-2.36651,1.06907,-0.69518,-192.76,-836.92,-508.008,7840,5740,3780
-10.0403,-7.81682,-8.54369,-0.760293,2.21012,-0.63149,2.46558,1.10596,-8.53415,-7.96581,-7.4813,-6.75612,-4.26717,-0.655924,3.14439,0.571083,-190.808,-835.456,-505.08,8260,5880,3500
0.419979,1.1713,-4.43878,2.39887,4.18692,-0.496901,-0.923941,0.822093,5.96048,-3.65211,-3.33722,-0.512604,-1.7811,0.0993575,-0.6884,-0.0608389,-189.832,-837.408,-507.52,8960,5880,3500
5.72309,3.00584,-2.08043,-2.57886,0.858845,-1.87686,-7.7755,-3.31971,11.2291,2.83811,1.08089,1.51089,-1.19711,-1.82737,-7.38165,-5.66143,-193.248,-837.896,-504.592,9240,6020,3500
6.80472,4.01927,-0.459503,-1.9165,-1.46999,-2.69555,-9.33603,-5.73422,13.072,7.11889,4.99754,2.59709,0.357365,-1.42688,-6.33341,-9.76715,-192.76,-836.92,-504.104,9940,5740,3360
11.4634,9.4332,4.62529,0.113807,2.44727,-1.87844,-5.00171,-6.07374,15.8895,12.5237,8.5338,6.07086,3.16383,-0.114065,-4.60537,-6.00977,-190.32,-838.872,-499.712,10640,5600,3080
6.87467,5.38479,2.18854,-3.50068,-2.03619,-3.35992,-2.31548,-5.49345,8.80823,8.18541,7.53939,2.27056,2.69282,-1.54299,-2.91863,-1.192,-191.296,-840.336,-501.176,11060,5180,2800
4.95281,3.52789,2.03185,-0.2223,-2.22975,-2.08876,5.27196,-0.516131,6.31675,6.85068,6.74438,2.25445,3.24305,0.578725,5.04583,4.17372,-194.712,-839.848,-497.272,11480,4620,2520
12.2677,12.001,9.32788,8.27134,5.7492,0.342569,11.5951,4.70637,13.7847,11.0858,7.78595,8.43177,6.13453,5.62681,12.2968,9.27852,-194.224,-841.8,-497.272,11480,4620,2240
14.346,13.6547,10.6584,12.5652,8.48687,1.15041,10.0616,2.35909,17.8538,10.9165,8.41946,11.8385,6.51184,7.0242,13.076,7.03327,-193.736,-840.824,-495.32,11760,4060,1680
19.7641,21.3471,13.6632,17.5607,14.4929,4.82019,9.08238,4.09772,26.2757,16.3766,10.4085,19.2319,7.87733,9.33578,10.8437,7.97016,-193.736,-841.8,-493.368,11480,3360,1120
16.2921,13.6338,9.30711,10.3536,8.22694,4.5691,2.53255,0.146534,22.5996,14.8185,10.2889,15.466,6.89756,5.77212,2.19018,3.32123,-190.808,-839.36,-495.32,11760,2800,840
9.58986,7.11562,6.31907,9.30346,7.51273,7.43512,7.39588,2.24393,11.8912,9.89258,7.28139,12.5402,7.32195,5.94729,7.4807,6.50628,-191.784,-840.824,-497.76,11620,2240,280
3.74053,2.1505,3.7066,4.79168,3.78537,6.99981,6.32741,4.58343,3.07456,5.36447,5.21752,6.88013,5.34845,4.84098,6.25924,4.1861,-192.76,-839.36,-496.296,11620,1820,-140
0.41251,-2.01399,1.64554,-4.29648,-4.67155,2.99749,-3.06565,-1.13616,-1.68131,1.62846,3.85697,0.74931,1.96519,0.0210295,-2.89105,-4.56707,-187.392,-837.408,-492.88,11760,1400,-980
-3.27083,-0.676639,2.5661,-3.27592,-4.70137,2.20485,-4.47007,-2.68685,-6.41277,-5.30655,-0.724691,-1.50978,-0.716684,-0.179608,-3.37617,-5.79794,-187.88,-840.336,-492.392,11480,700,-1680
-7.77447,-2.27186,1.91929,-1.36663,-2.9171,1.38311,-0.934722,-2.63255,-12.3606,-10.9428,-6.16334,-3.72432,-4.43652,-0.534142,1.24236,-2.75525,-185.44,-842.288,-495.32,11060,560,-2240
-4.00287,-1.43622,1.77976,0.481363,-0.182797,1.73421,1.67481,-0.100208,-9.07636,-8.1664,-5.45065,-2.92883,-3.40958,0.381465,2.41378,1.20799,-185.44,-844.728,-494.344,11060,0,-2940
-3.40338,-0.573266,0.489263,4.23814,2.49792,1.54598,2.87966,3.48495,-7.71759,-5.05757,-4.91402,-3.83307,-2.74738,1.21305,1.22475,3.23072,-184.464,-843.264,-494.344,10920,-280,-3640
-9.78885,-5.47925,-6.42061,6.50701,-0.898935,-1.057,4.11236,3.26315,-13.6311,-10.8889,-7.9722,-7.19976,-4.31662,0.621803,3.85335,4.44379,-180.072,-845.216,-495.32,10780,-700,-4340
-9.07425,-4.21999,-7.66238,2.23139,-2.13837,-3.12989,1.09701,1.74338,-14.3644,-8.72867,-8.3304,-7.3285,-3.97591,-2.62683,-1.52606,3.09216,-178.608,-842.288,-493.368,10640,-980,-4900
-6.72273,-5.14527,-7.01539,-4.97619,-3.49129,-3.10195,-5.18263,-0.679147,-13.3101,-5.41571,-6.55711,-6.46754,-1.368,-2.70583,-9.98983,-0.987701,-180.072,-844.728,-492.88,10780,-980,-5460
-4.45121,-6.73759,-7.48079,-5.2466,-2.16514,-3.9433,-5.79844,2.93252,-10.5955,-4.19119,-4.83315,-6.65448,-2.09531,-1.91364,-6.1499,-2.19547,-176.168,-846.192,-492.392,10220,-1260,-6020
-5.84998,-8.16159,-9.87005,-4.86852,-1.39343,-4.55525,-4.28912,5.01855,-11.6075,-4.73226,-5.30794,-7.61727,-4.2435,-2.77917,-1.04116,-3.47783,-177.144,-847.168,-493.368,10080,-1400,-6440
-2.86442,-6.10091,-6.5884,-5.72182,-1.77932,-2.63164,-4.65447,-0.102212,-8.15185,-3.51324,-2.05231,-4.80956,-1.66832,-2.84192,-0.744797,-4.42411,-172.752,-848.144,-491.904,9660,-1540,-7000
-0.068006,-0.0545804,0.31855,-3.30211,0.513446,-1.32586,-1.84649,0.653906,-4.25473,-1.12471,-0.465757,0.439411,1.1631,-2.38342,0.495267,0.632379,-175.68,-851.072,-495.808,9100,-1820,-7420
-5.63286,-8.7306,-2.90051,-9.14319,-4.36631,-2.83581,-2.40219,-0.545084,-12.6013,-5.70499,-1.69978,-2.72265,-0.75053,-3.0418,-1.7412,0.0789143,-171.776,-849.608,-493.368,8820,-1820,-7420
-4.31906,-8.22483,-4.03706,-9.26632,-5.54173,-3.18136,-1.9881,-1.70124,0.895237,-5.46525,-0.369159,-5.11066,-1.57775,-3.62473,-0.63872,-0.703238,-170.312,-849.608,-492.392,8540,-1960,-7560
1.72392,0.375912,1.42934,-1.15399,0.509203,-1.98713,2.93899,-3.01577,19.1209,1.5833,0.780143,-0.036244,-0.672072,-1.85853,3.60342,2.28435,-170.312,-847.656,-493.368,8260,-2100,-7420
4.11199,0.71252,2.93705,-1.23504,-0.873024,0.0800135,1.75452,-7.66167,17.3563,3.77565,2.37728,2.01281,-1.17896,-2.61166,-0.0189946,0.818251,-167.872,-847.656,-491.904,7700,-2100,-7280
0.00219773,0.685454,4.49509,0.817663,0.192253,2.19297,1.42064,-5.87197,8.43279,3.90261,1.81602,2.03047,-0.881357,-1.62837,-0.946674,0.279112,-166.408,-848.144,-496.784,6720,-2240,-7000
-1.49821,-0.414886,5.84721,0.669229,0.0858736,2.93797,0.910446,-5.25069,3.16915,3.45138,1.87829,-0.0404987,0.707447,-0.354311,0.220855,-1.17117,-167.384,-848.632,-493.368,6160,-2380,-6720
5.23172,2.96151,5.15403,2.1524,0.690473,2.24673,-1.45792,-4.28662,11.3808,6.69939,4.31687,0.205112,2.29393,1.09778,-0.0231712,-2.35378,-168.848,-848.632,-497.272,5040,-2380,-6160
9.00745,5.0773,0.961639,-0.58019,-1.45981,0.251182,-9.00006,-4.91211,14.5384,9.22337,5.16404,0.545168,2.16581,0.450451,-8.58622,-5.42224,-167.872,-848.632,-498.248,4060,-2380,-5880
4.95591,1.50281,-3.36095,-6.62647,-6.87329,-1.26129,-13.635,-5.94821,7.64381,4.82717,3.56329,-1.60045,0.996472,-1.22354,-16.4818,-9.27863,-169.336,-848.144,-502.152,2940,-2240,-5180
5.07089,9.11145,3.51035,2.802,1.71381,-0.128416,-1.40111,0.749145,5.96315,6.28537,3.45094,5.92585,1.58412,1.47395,-6.33517,-3.36985,-167.872,-852.048,-502.152,2240,-1680,-4620
0.812769,6.02162,3.64712,3.68364,2.3416,1.79924,4.79587,3.40073,-1.65554,1.91947,1.36704,5.02014,1.06,3.95022,-1.41704,-0.963409,-170.8,-854,-503.128,1400,-1400,-4340
-6.22497,-4.47503,-2.01399,-4.51124,-1.7274,-0.263202,2.82238,4.56194,-9.15869,-6.33385,-1.98078,-2.68481,-3.04547,-0.852959,-2.45535,0.455792,-169.824,-853.024,-503.616,1120,-980,-3780
-6.04173,-5.83266,-4.19974,-5.16235,-0.926004,-0.593292,4.7721,6.84427,-8.10865,-5.99881,-4.06657,-1.88122,-3.15594,-0.679333,2.72377,3.32128,-168.848,-855.464,-506.544,280,-420,-3500
-7.61205,-4.12604,-3.61147,1.09793,2.82339,2.64829,8.20103,10.3841,-10.2189,-3.66149,-5.00358,2.05017,-1.20067,2.50009,6.37183,7.79106,-169.824,-856.44,-506.056,-140,-280,-3080
-3.35187,-3.7655,-1.18476,0.621126,1.56336,2.77882,1.82677,7.98815,-9.68164,-1.2175,-1.24347,2.1992,-0.247255,1.12992,-1.92833,4.50042,-170.312,-856.44,-507.52,-140,140,-2520
-0.586489,-1.32698,-1.09884,3.71279,3.50116,1.74242,0.978885,8.02465,-7.15856,-0.210518,-0.757518,1.43478,1.20786,2.47198,1.46556,1.8828,-175.192,-854.976,-503.128,-420,280,-2380
1.72235,2.58377,-2.54317,9.76587,6.00145,0.109791,6.10039,6.14811,0.438843,-0.271414,-1.19541,2.86732,1.65518,2.29427,12.0225,1.17222,-173.728,-855.952,-507.52,-700,700,-2100
10.636,14.2486,3.93552,17.9121,12.8473,1.07333,12.6364,3.12959,11.2501,6.55427,2.57468,9.43024,3.67933,4.84543,20.2966,5.41708,-171.288,-854.488,-510.448,-1120,560,-1820
3.66446,7.14977,5.15062,11.1279,7.50989,0.23863,7.84892,-3.19561,1.8867,1.65606,3.03989,4.79072,2.15047,2.44063,14.2997,3.36244,-170.8,-850.584,-510.936,-1120,560,-1680
3.89221,3.91512,5.47678,2.35802,3.38519,-1.64894,0.514495,-3.5089,1.4752,2.74597,3.67301,1.70417,1.05601,-0.59976,4.85738,1.1134,-174.704,-849.12,-512.4,-1120,-140,-1540
3.81329,3.3302,3.35986,-1.35568,-1.37826,-2.60664,-5.46819,-3.6864,2.28452,0.899567,0.936638,-2.38106,0.0191797,-1.22239,-0.797772,-0.763157,-174.216,-848.632,-509.96,-420,-420,-1540
-1.09761,0.00756877,1.00321,0.13122,-2.6482,0.158665,-1.58885,0.603304,-2.77004,-3.50001,-2.27413,-5.02752,0.8966,-0.244344,4.22648,1.2756,-173.728,-845.704,-509.472,-700,-700,-1540
-1.68739,-1.77301,-0.439584,-2.97974,-5.532,-1.54328,-2.77158,0.310717,-2.257,-2.58694,-1.62774,-5.58116,0.0381197,-2.18745,0.937704,-0.377783,-173.24,-845.704,-507.032,-560,-980,-1960
-1.83813,-7.2169,-1.41662,-9.34743,-9.78993,-3.39613,-9.33082,-6.74876,-4.1525,-1.96522,0.438327,-5.45229,-0.786714,-4.26167,-11.0939,-6.2494,-172.752,-843.264,-508.984,-840,-1680,-2240
2.10959,-2.22066,1.70255,-5.94925,-4.73312,-0.922646,-8.54259,-6.52165,-0.696702,2.38463,3.48501,-0.251251,1.01126,-3.302,-12.9642,-4.8742,-174.216,-844.24,-507.032,-1120,-1680,-2940
0.87427,-3.41742,-0.910822,-7.38336,-6.10176,-0.0935084,-10.2574,-9.05503,-1.77971,2.17008,3.16834,-1.65878,1.67832,-2.05069,-13.6352,-5.74932,-174.704,-845.216,-507.52,-1540,-2100,-3220
-5.65477,-10.4452,-7.79307,-9.31019,-7.36029,0.985553,-5.67975,-5.6003,-8.49835,-3.01974,-1.17515,-4.91436,-0.0191535,-1.52846,-8.22123,-2.59313,-171.288,-844.24,-509.472,-2100,-2520,-3780
-1.7506,-2.35151,-3.15575,-0.765828,-0.825862,2.24746,0.836362,-0.00114634,-0.619522,0.131174,-2.17205,0.214529,0.0995499,2.48592,-1.039,0.469314,-172.752,-846.192,-509.96,-2380,-2660,-4200
-3.98552,-0.108643,-1.13865,5.58027,1.20155,3.71414,6.9669,3.21511,-0.276634,-2.62719,-3.55312,1.59577,-0.547167,5.70856,3.56359,4.02309,-174.216,-846.68,-506.056,-2100,-2940,-4760
-0.494098,4.73649,-0.172186,6.1761,3.23153,2.7631,7.62064,2.25542,4.27199,-2.38683,-2.71897,3.25795,-1.47766,4.23988,4.82952,6.00811,-173.728,-848.632,-504.104,-1960,-3220,-5180
8.21299,11.5328,1.17159,5.26842,4.00046,1.00115,3.55637,-0.442995,15.1194,2.29726,0.409353,7.02644,-0.313647,2.52219,2.00299,2.00644,-174.216,-850.096,-503.128,-1680,-3500,-5180
2.837,5.2714,-1.10235,1.92653,1.83046,-0.174951,1.34878,-0.165142,9.56085,-0.244809,-0.125007,3.12599,-2.24871,0.71865,1.07411,-2.71786,-170.312,-850.584,-501.664,-1260,-4060,-5180
2.62536,5.05134,2.68014,7.38716,6.03167,0.903566,5.89267,1.36519,7.13348,2.61251,2.09003,3.69457,-0.559856,1.66122,8.35244,0.0744454,-168.36,-848.632,-501.664,-980,-4200,-5320
-5.3911,-5.59551,-0.839211,-1.14799,-1.54998,-1.5205,0.0733189,-3.19404,-4.1274,-3.32864,0.0952318,-3.66976,-1.31417,-2.77301,1.01464,-5.51564,-171.776,-849.12,-500.688,-280,-4480,-5320
-1.85443,-2.42107,2.99521,-3.37776,-0.680855,-1.86158,-2.9609,-1.91225,-0.974493,1.43392,1.2684,-1.87601,0.413096,-3.10254,-2.27767,-3.72808,-166.896,-850.096,-501.176,-420,-4760,-5180
3.80915,-3.88092,3.49283,-8.34205,-4.72841,-4.2919,-9.50897,-3.10347,3.99889,3.01045,2.6233,-2.35547,0.317917,-4.25505,-10.7377,-5.36955,-166.408,-846.68,-498.736,-140,-4900,-5180
1.79679,-4.96869,2.03824,-5.80622,-3.01538,-3.87123,-4.95359,-0.0300775,0.626189,0.00409571,0.335631,-3.61317,-0.825158,-4.04596,-5.5918,-2.42161,-165.92,-849.608,-499.224,0,-5040,-4760
1.9879,0.380489,3.01863,1.42427,1.90416,-2.1019,1.71631,3.94657,0.273143,1.81863,-0.390528,-0.000793483,0.116259,-1.47256,3.05722,1.59204,-163.48,-847.656,-499.712,140,-5320,-4480
-4.73998,-0.109145,-1.5691,3.77726,2.37201,-0.511631,6.52646,5.49848,-6.49526,-1.3519,-2.12833,-1.52204,-0.561874,-0.16731,8.63039,3.96773,-164.944,-848.632,-501.176,-140,-5740,-3780
-7.19508,-0.922041,-3.81655,0.959586,1.77855,0.471086,6.75915,4.87244,-7.6661,-1.93327,-3.25441,-2.63752,-0.412612,0.599393,7.85542,4.02212,-164.456,-850.096,-497.272,-140,-6020,-3220
-5.1704,0.95403,-3.06575,-8.12167,0.688055,0.416086,-3.25764,1.91684,-5.63654,-0.341137,-2.08857,-1.54842,-0.230087,-1.15538,-5.98509,-0.777157,-160.552,-845.704,-500.2,-280,-5880,-2800
-12.994,-9.2945,-8.31761,-16.9988,-6.1924,0.359515,-8.44537,0.271271,-12.9902,-7.30517,-2.79754,-7.10282,-2.62895,-3.55311,-12.7396,-1.50796,-161.04,-851.56,-501.664,-840,-5740,-1960
-4.54688,-5.5871,-4.72089,-10.7596,-2.6251,1.0067,-6.2145,0.808489,-3.99259,-4.11282,-2.10264,-2.4817,-2.54727,-3.11603,-7.775,0.626389,-161.528,-846.68,-497.76,-840,-5600,-1400
4.63832,5.23728,-0.694174,6.35689,4.76731,3.81255,3.87316,1.59869,2.9006,-0.460757,-0.628312,6.92969,0.229932,2.07536,5.58883,5.70087,-165.92,-850.096,-498.248,-1120,-5600,-560
2.97183,7.89526,2.35557,11.8916,10.7378,4.66095,7.62439,4.54749,-2.40237,0.475591,-0.478959,8.10969,2.72461,5.41536,10.552,9.89132,-162.504,-848.144,-502.152,-1120,-5320,140
0.61636,-1.72477,-0.607322,1.18614,-0.0473182,-0.0492524,-1.96275,-0.257401,-5.297,-1.82393,1.348,-0.307631,0.646817,0.769097,-0.0543178,2.87595,-165.432,-847.656,-502.64,-1120,-4900,980
5.44977,-2.57916,2.58523,1.90075,-2.42056,-2.56247,-3.16064,-2.56795,1.96895,1.12962,3.99251,-0.276891,0.348181,0.693972,-2.33295,-0.782308,-165.432,-845.216,-498.736,-1400,-4060,1820
11.1767,6.32127,9.10753,8.555,6.04334,0.723107,-0.517445,0.0243762,10.3696,8.40141,4.95211,8.18405,3.05538,3.83569,-1.42287,1.12811,-167.872,-844.728,-502.64,-1260,-4060,2660
-0.770277,-3.4189,2.29899,1.82499,-0.74392,0.115484,-3.14532,-2.24931,-3.17222,0.97418,0.791847,1.05137,0.754992,0.884816,-5.06063,-2.70314,-168.36,-844.24,-505.568,-1260,-3360,3780
-2.16521,-1.78016,1.8201,5.38571,1.22678,0.760915,4.82362,-0.538014,-3.56586,-0.150145,-0.394468,-0.834069,-0.430471,1.41414,5.08446,3.0754,-172.752,-841.8,-502.64,-1120,-2800,4480
3.43858,-1.5205,0.793635,0.297008,-2.00609,-1.86873,0.933041,-0.149801,5.0469,2.0461,0.654568,-2.36607,-0.687378,1.63627,0.144496,0.474809,-173.24,-837.896,-504.592,-1120,-2100,5740
7.01158,0.0678458,-0.984207,-3.34913,-3.87281,-1.9472,-0.646334,2.53654,11.7346,3.41378,3.60954,-2.67799,-0.260391,0.205016,-1.61744,-3.05838,-176.656,-836.432,-507.52,-1120,-980,7000
12.4286,8.00204,2.60855,0.753738,0.0616317,0.557629,1.3151,3.65287,18.2347,9.30284,5.25584,1.7646,1.69656,1.23822,3.36158,-2.13607,-177.632,-835.944,-503.616,-1120,-280,8120
4.3564,7.15872,3.64927,12.3055,4.21788,3.74279,10.6473,4.04727,8.30868,4.2384,1.12434,1.77479,2.83242,3.90648,19.0257,2.93382,-182.512,-834.968,-504.592,-840,560,9240
0.328986,8.29984,3.23933,16.5224,6.76262,3.74359,14.9604,4.3185,4.55125,1.01006,-1.83535,4.7355,3.16871,4.32954,22.2823,6.01831,-183.976,-834.968,-508.984,-700,1260,10080
2.59809,5.56661,0.080685,7.14577,1.26236,-0.0142083,3.80881,-2.66972,5.78806,0.854696,-0.670931,3.33782,1.16008,0.00410941,5.57925,-0.554328,-187.88,-835.456,-508.496,-420,2240,11200
3.4686,1.23431,-4.66942,-3.87566,-5.47963,-2.72664,-4.2917,-9.1252,4.66737,-0.358731,0.121181,-2.20903,-0.839012,-4.93728,-6.16115,-5.11949,-192.272,-836.92,-504.592,140,3220,12320
1.55548,-0.373357,-5.14866,-9.64486,-6.47356,-3.69616,-9.1875,-9.20722,-0.73708,0.0580853,-2.35173,-3.424,-1.29803,-5.1433,-14.9407,-7.56126,-199.104,-836.92,-505.08,420,3640,12880
-11.3921,-11.8555,-8.24743,-11.4417,-10.5266,-2.9705,-9.51902,-8.42647,-15.4921,-8.01163,-5.95406,-9.11414,-3.64749,-5.88643,-16.06,-10.4411,-201.056,-838.384,-501.664,840,4340,13720
-11.7245,-8.75597,-4.03794,-9.83208,-5.12734,-2.154,-7.35045,-1.37039,-14.8771,-6.4954,-4.65553,-6.33071,-2.27251,-5.21188,-13.9933,-8.66267,-202.52,-842.776,-501.664,1400,4620,14000
-17.2956,-11.0397,-4.61857,-8.334,-4.95422,-0.668024,-2.06403,1.0345,-22.4859,-10.1881,-5.45463,-6.33429,-2.91197,-2.10137,-5.97576,-6.46386,-203.496,-845.216,-502.152,2100,4900,14280
-18.6605,-9.70604,-5.07465,-0.737282,-0.15444,1.81298,6.2906,4.16502,-25.3499,-12.6214,-6.51605,-5.38507,-3.56316,0.85204,6.90242,0.690913,-206.912,-845.704,-500.2,3220,4480,14280
-6.14697,-3.43319,-0.715805,-1.3172,-0.0869325,-0.49258,1.61415,1.77021,-8.55526,-3.43359,-1.45385,-1.72705,-3.19994,-0.816741,2.00052,-0.324245,-207.4,-846.192,-502.152,4200,4340,14140
4.61803,5.47983,5.13222,-0.65479,1.21021,-0.131311,-2.32849,-0.567076,5.7367,5.18815,3.7502,5.56962,1.24827,0.227219,-1.16412,-0.828865,-201.056,-843.264,-495.808,5460,3500,13860
5.30428,8.75041,7.91646,5.2702,3.93068,1.82727,2.64467,0.839916,9.13721,4.02947,3.81863,10.4377,3.8213,2.36272,3.47237,2.97018,-207.888,-841.312,-496.784,6300,3220,13580
4.49184,5.04421,7.26629,3.23994,2.89494,1.08172,3.55215,1.51,12.5787,3.78176,2.63453,7.59559,3.26772,2.20535,2.93768,6.81203,-203.008,-843.752,-492.392,7140,2940,13020
6.03152,-0.826082,3.47097,-3.8256,-1.52331,0.859885,-3.69253,-1.81461,13.168,3.91447,4.69825,3.50433,2.4583,0.849541,-6.21188,4.91954,-203.496,-844.24,-495.808,7560,2940,12040
1.69824,1.43392,4.95109,2.66704,4.97831,2.18387,-1.89738,0.221544,4.46074,1.22324,1.9574,4.23782,2.49761,3.28731,-3.07972,7.55114,-202.032,-850.096,-497.76,8120,2520,10920
-2.76121,-3.47835,0.601505,-0.935913,2.88306,2.59699,-5.52176,-1.42785,-3.66481,-3.21556,0.199044,-0.769321,2.29678,2.19028,-4.29646,5.48602,-199.104,-853.512,-490.928,8120,2380,9800
4.04144,-1.21095,-0.80474,-8.37741,1.02946,0.0268686,-7.66346,-0.646453,4.51711,2.69579,2.29108,-1.43795,1.59747,-0.243062,-6.32876,2.43206,-196.176,-852.048,-493.856,8260,2100,8680
10.9275,7.56617,0.974294,-4.99725,3.28657,1.1999,-2.65643,2.49159,12.0537,8.51639,4.39296,2.19663,2.46414,2.55532,-0.811667,2.91161,-189.344,-851.56,-495.32,8680,1680,7280
5.13579,5.53978,-3.10667,-2.90762,0.741952,2.56441,2.73509,5.20083,3.63498,2.79209,0.845546,-2.16171,-0.799779,1.49144,4.83606,3.35219,-186.416,-850.096,-494.344,9240,980,5880
-5.12674,3.03319,-4.28676,4.15068,4.36602,2.03635,7.91183,7.70278,-7.69828,-2.54586,-3.91933,-4.68519,-3.81686,1.18983,11.8949,6.6072,-181.536,-850.584,-493.856,8680,700,4620
-6.48961,-1.96758,-5.56549,0.937739,-2.32971,-1.55907,-1.72345,1.55766,-7.82059,-4.07217,-2.96359,-6.0891,-5.13508,-1.53444,2.41537,-1.93684,-182.512,-850.584,-494.832,7700,420,3360
4.79125,4.67454,-0.0597698,6.01234,0.200992,-3.39366,-0.837227,1.31359,5.30982,1.36173,0.23309,0.221201,-3.25899,-1.50968,5.99705,-4.46819,-176.168,-846.68,-491.416,7000,-420,2940
5.89375,0.875811,0.63933,6.32584,-0.202164,-3.52868,3.90056,-2.05963,5.5956,2.09013,0.669828,0.243148,-3.29414,-1.64283,8.18825,-3.50152,-174.216,-844.728,-496.784,7420,-1680,2520
2.81539,-2.63682,0.341101,2.76489,-0.867735,-3.54109,3.24303,-5.16678,1.60645,0.916857,0.468068,-0.996408,-3.00311,-2.76514,1.65164,-2.88997,-172.752,-841.8,-491.904,7560,-2240,2520
0.964252,-5.87091,-1.22906,-1.59509,-3.29181,-3.85274,1.06467,-3.83519,-1.73781,0.176839,0.274768,-1.82184,-1.85605,-2.49507,-4.61213,-3.23016,-171.776,-840.824,-488.976,6860,-2380,2520
-3.60695,-8.2531,-4.5442,-1.15015,-2.30458,-2.14931,2.51026,0.171719,-6.30266,-3.84439,-2.02736,-1.879,-1.27889,-1.47513,-2.53936,-1.68299,-167.384,-841.8,-489.464,6160,-2660,2520
-4.22102,-8.39696,-2.80737,-2.244,-0.57451,-2.6966,-1.82791,-3.15313,-7.88793,-3.06273,-0.337529,-1.07966,1.98121,-1.95041,-7.62687,-5.16902,-167.384,-845.216,-490.44,5600,-2940,2660
-0.00404237,-7.68695,-0.167476,-3.6803,-1.4278,-3.23454,-4.80861,-6.47621,-4.67832,0.838557,1.64517,-0.871578,3.4929,-0.923193,-9.10538,-7.4688,-164.456,-846.68,-494.832,4480,-2800,2940
5.1189,-1.85396,0.00188641,-2.42163,-0.0757642,-1.34403,-3.93803,-4.71013,1.37713,3.72474,3.08345,1.9552,3.37941,1.10147,-5.74692,-5.75063,-163.48,-847.168,-498.248,3220,-2380,3500
-0.64339,2.0394,3.05634,0.970749,4.57679,2.46178,0.779223,1.20499,-5.50296,1.11092,-0.164186,2.58034,3.63445,2.9738,-1.51532,0.356085,-161.04,-846.192,-501.176,2240,-2100,3780
-6.3449,0.32309,0.921627,-0.103078,0.18327,3.51879,1.78107,0.335986,-7.84121,-3.75421,-2.92401,-1.5767,1.21281,0.509055,1.1949,-0.573651,-160.552,-848.632,-507.032,840,-1400,4620
2.55587,10.8936,2.71591,6.04556,1.24925,4.39305,5.51856,3.71886,7.35566,2.13399,-0.886101,3.03202,2.37888,0.72908,7.77537,2.56944,-159.088,-853.512,-511.424,-700,-140,5180
0.870266,4.85343,1.86317,2.01188,-2.65807,4.42009,1.02356,4.22784,5.68561,-1.24111,-2.6211,-0.530936,0.91119,0.328457,4.39072,1.91824,-159.576,-854.976,-506.544,-3080,1680,5880
2.87208,7.93826,2.79479,3.5772,0.226201,4.12361,2.35993,6.77798,8.74351,-1.61062,-1.5554,1.05191,1.20855,1.02396,6.09796,4.21911,-159.576,-864.736,-513.864,-3920,2380,6720
9.68458,20.3166,6.48204,16.305,9.18664,5.9828,7.61269,6.75904,17.5309,4.53898,1.82612,10.1599,4.26656,6.66085,14.6479,7.10588,-160.552,-860.832,-514.352,-6020,4200,7140
5.74399,12.5743,2.99059,8.08116,3.906,3.36719,-0.661651,3.44183,12.981,3.39721,2.19642,7.60495,2.14585,4.00838,4.72264,1.3139,-161.04,-858.392,-509.472,-7280,4900,8120
5.74026,4.88319,4.22563,1.84134,1.82243,1.15978,-5.61492,4.21654,9.52252,5.79822,3.74147,6.61414,2.09613,2.32809,-5.05602,-0.629562,-162.504,-854,-507.032,-6300,5040,9520
0.85282,-9.55097,-1.71435,-4.57153,-4.62311,-2.54501,-7.01278,1.56278,1.04865,2.85731,1.5045,-2.55955,-2.11955,-3.39127,-6.78787,-2.50014,-162.016,-844.728,-498.736,-6300,6440,10500
-11.1903,-15.8771,-7.32941,-1.0156,-3.93818,-3.64894,3.02114,3.65581,-12.3891,-6.76843,-3.26462,-8.47772,-6.19261,-4.59798,5.46522,3.27012,-164.944,-839.848,-485.072,-3640,5180,12040
-12.2428,-7.18348,-2.62891,4.03037,2.68919,-2.20803,7.49451,3.13966,-13.4294,-5.17607,-3.69397,-3.71997,-3.63391,-0.509894,9.17478,7.8151,-166.896,-840.336,-485.56,-140,2660,13300
-14.6057,-6.7545,-3.82159,2.8144,0.353712,-1.65209,4.41721,-2.1201,-16.9957,-7.06253,-4.77152,-5.0023,-3.85317,-1.0132,7.3421,5.37837,-168.36,-847.168,-487.512,-1120,3780,14280
-14.3324,-7.69182,-2.95083,-5.15384,-3.06704,-0.799638,-4.21392,-6.49344,-19.9761,-4.98988,-2.86378,-4.20419,-2.51695,-2.16268,-6.99644,-0.311513,-170.8,-857.904,-493.368,-4060,4620,14700
-16.2572,-17.0716,-5.73407,-17.5566,-11.0303,-1.33233,-7.60491,-7.47824,-24.1932,-7.7213,-2.75101,-8.77063,-4.2551,-4.57463,-16.1356,-3.05685,-171.776,-859.856,-495.32,-8680,4340,15680
-5.4739,-9.98504,-4.01404,-13.1185,-6.16108,-1.51496,-0.816661,-3.44541,-10.0233,-5.20298,-0.00227956,-4.85359,-2.9247,-2.21528,-9.08333,-0.600537,-174.704,-861.808,-502.64,-11620,3360,16380
8.82943,4.56819,1.41956,-6.28955,-1.18195,-1.57634,0.656904,-2.62778,8.90902,5.02438,3.70058,2.45714,2.10198,-0.185356,-7.53245,-0.322298,-173.24,-853.024,-497.76,-14000,3780,17080
0.722288,-2.98162,-2.37769,-8.78858,-5.54551,-2.37439,0.513329,-5.32687,1.25346,-1.69892,-0.85269,-2.9689,-1.33209,-1.06003,-5.6744,-1.86849,-170.8,-854.488,-493.856,-11480,2660,17500
16.5562,13.4467,7.17524,-0.535375,1.60491,-0.741007,0.556825,-4.73573,22.4618,7.15226,3.97978,8.04561,1.65928,1.95922,-1.98233,-1.39199,-175.192,-847.168,-492.88,-8400,3360,16800
20.3676,14.714,8.35785,-1.93577,0.0210053,-0.77041,-4.98781,-5.13404,23.3126,9.78392,5.34069,8.68416,3.27385,1.85309,-5.40571,-4.74837,-177.144,-845.704,-493.856,-7140,5040,16100
4.31944,1.60285,3.10544,-2.92726,0.399233,-0.691291,0.89015,1.60178,2.36631,0.892784,0.456915,0.73362,1.6049,2.10269,1.96578,-0.179294,-177.632,-853.024,-497.272,-7420,5040,15680
2.30227,2.06236,3.38646,2.70138,4.60646,-1.0844,4.05292,2.38721,0.948787,2.59086,0.941097,-0.0659852,2.17713,3.08141,4.14046,1.92049,-178.12,-857.416,-511.912,-9380,5460,15260
10.1934,8.73155,4.63776,3.42403,3.99326,-0.0321912,-1.60866,-3.25291,12.3544,7.69761,4.30995,4.66138,4.84787,3.06716,-3.48581,-2.72154,-183.976,-857.904,-512.888,-14420,5460,15260
9.98787,11.8841,6.26563,4.77424,5.60026,3.43952,-2.43365,-5.13872,12.7159,9.54531,3.97522,7.64725,4.71893,2.40081,-2.82791,-2.41991,-181.536,-854.488,-508.984,-16100,4200,15260
-7.41591,-6.71778,-3.15823,-3.3294,-1.81815,2.30251,-3.50469,-5.74957,-10.0618,-2.00048,-1.22687,-4.63336,-1.35905,-3.04064,-0.583976,-1.97869,-179.584,-848.144,-506.544,-12600,2660,15120
-8.9928,-12.5286,-7.21699,-3.54778,-4.91454,-0.302643,-4.37902,-3.80619,-11.3288,-7.10219,-2.73857,-8.54085,-3.38408,-4.57819,2.02648,-4.48507,-182.024,-842.288,-507.032,-8680,2800,14700
-4.23138,-6.91064,-5.84286,1.51955,0.531668,-1.07836,-3.20022,2.55224,-6.01694,-4.71141,-2.90282,-5.10796,-3.73648,-2.60751,3.07389,-4.04752,-182.512,-841.8,-504.592,-7980,3360,13720
0.816097,-6.21874,-4.98317,0.793796,-2.20155,-0.763032,-5.39779,3.49169,1.78039,-2.29407,0.103755,-1.37935,-1.51187,-1.98048,0.956735,-6.02022,-183.488,-841.312,-504.104,-7980,3780,12460
2.5916,0.747231,-2.44756,7.49378,3.74093,0.856285,-0.947448,6.50895,6.16346,0.406512,0.363444,3.39239,1.04377,-0.620112,6.24366,-0.741947,-184.464,-835.456,-506.544,-8540,3500,11480
2.9764,6.02619,-1.11306,10.0807,7.18223,2.1126,3.37331,6.94391,7.03941,0.345173,0.466963,4.72884,2.44442,1.68487,11.3438,2.64435,-185.928,-836.92,-510.448,-8960,1680,11200
1.43632,8.50229,-1.23792,10.044,8.48132,2.4248,7.14721,7.31667,2.88046,-1.58417,0.0363293,3.42205,2.33123,1.90885,11.4174,4.66302,-186.904,-836.92,-508.984,-9380,0,10920
-1.67195,4.31919,-0.722148,6.88247,6.00953,1.2849,5.97293,4.59396,-2.93263,-2.82485,-0.956817,0.0480981,-0.314145,0.995597,5.61608,4.82242,-185.44,-843.752,-507.52,-9800,-140,10640
-10.1363,-1.64638,-1.85839,6.06649,3.31134,0.892512,5.13919,2.23904,-13.2415,-7.36679,-4.55575,-1.39147,-2.83315,0.927973,3.33956,4.15728,-183.976,-845.216,-509.472,-9940,-700,10220
-22.9928,-9.90754,-3.32654,7.68108,4.65999,1.0162,12.5084,7.35232,-28.1346,-12.8026,-8.56195,-6.20659,-4.24592,0.665347,10.213,8.24056,-185.44,-846.192,-508.984,-10080,0,9520
-9.99939,-6.43295,-1.67527,-0.328354,-2.88665,-1.07967,4.57489,3.59098,-10.1269,-3.90157,-3.63182,-4.99111,-1.49819,-1.24597,-0.941993,1.31306,-184.464,-844.24,-514.352,-10500,140,8680
8.90672,2.01658,2.05436,-7.85314,-9.68252,-2.95603,-7.0118,-0.677079,13.681,7.91753,3.71288,-0.122602,2.14451,-2.04009,-15.1288,-4.72466,-181.536,-841.312,-512.888,-10500,560,7840
15.9546,8.00987,7.3674,-7.57356,-5.7841,-1.5357,-9.06191,-0.675175,18.2837,12.457,7.01004,2.86791,4.23016,0.588197,-14.0389,-3.47906,-176.168,-839.848,-516.792,-10360,840,7700
7.47504,-1.27172,1.02272,-8.69243,-8.79993,-1.39213,-8.87761,-4.39126,5.96525,5.46397,3.49257,-1.88196,0.465319,-1.20579,-12.5899,-3.88554,-180.072,-835.944,-514.84,-10080,980,7140
9.54376,5.68091,5.36106,-1.36607,-2.98387,-0.517742,-1.98217,-2.78207,10.9316,9.1702,2.11201,1.47569,0.0931819,-0.154179,-3.42144,1.32126,-177.144,-832.528,-515.328,-9940,1260,7000
-0.910768,3.29911,3.30059,4.13574,0.471003,-1.25175,5.16969,-0.59673,-1.75096,1.78421,-1.21126,0.706541,-0.290355,2.04699,9.10915,4.33729,-177.144,-833.504,-515.328,-9380,1120,7140
-3.38901,-0.599619,2.3049,4.54639,2.85624,-0.191062,8.54966,2.26995,-4.77361,-0.827522,-0.123866,1.96205,1.14389,2.98307,12.3907,4.80023,-177.144,-833.504,-516.792,-9240,1120,7280
3.84473,5.88564,4.97916,1.40135,4.28722,3.96452,5.23091,5.18046,4.449,2.70811,0.808666,7.09744,3.29638,5.30582,4.47139,5.34005,-177.632,-834.48,-518.256,-9100,1120,7420
-10.5169,-7.78192,-0.980935,-5.88961,0.557562,4.64191,1.39127,6.16556,-16.896,-7.21995,-4.13278,-1.66062,1.84213,5.78076,0.656141,6.45792,-176.168,-832.04,-521.184,-8540,1260,7840
-11.4028,-4.41839,0.381701,5.04159,10.857,5.51597,10.6053,7.17947,-17.7231,-6.93446,-4.00553,3.06109,2.80707,8.04129,16.6635,10.6802,-178.608,-835.944,-518.744,-7980,980,8260
-1.80907,-5.5019,-2.07007,-0.824719,5.31881,1.26696,3.1799,-3.66397,-2.98116,-1.89632,-0.411496,2.78039,-0.825681,2.01686,7.69865,-0.610496,-181.536,-834.48,-519.72,-7560,560,8960
4.56079,-1.57564,-1.6791,-7.44711,-1.73384,-2.41321,-6.18614,-9.55624,8.70681,0.707703,2.52874,-0.787959,-3.30326,-5.02752,-6.13853,-6.81293,-180.56,-834.48,-519.232,-7280,280,9940
16.2185,8.14322,1.90324,-7.08042,-5.90024,-5.73666,-16.8843,-13.0472,23.3322,8.97573,7.1591,3.55484,-1.47449,-7.23671,-17.5092,-13.5992,-178.12,-827.648,-519.232,-6440,0,10640
10.1376,5.70841,-0.738822,-6.63309,-9.39234,-5.90608,-17.0009,-11.6819,14.3044,5.58861,5.74598,1.59593,-2.22726,-8.46288,-20.3737,-13.8214,-178.608,-833.016,-521.672,-6300,0,11200
-9.00483,-7.67045,-5.46181,-7.7051,-10.3768,-6.11252,-10.3744,-8.73722,-9.02218,-7.72041,-2.62173,-7.51021,-5.82911,-9.31847,-17.4694,-8.3862,-178.608,-834.48,-518.744,-5880,280,11480
-13.5933,-18.74,-9.83462,-18.5403,-17.1802,-7.25216,-16.6538,-13.2756,-16.2398,-12.313,-6.54757,-15.6713,-8.08656,-11.7754,-28.2222,-11.2938,-180.072,-833.992,-518.256,-5740,280,12040
-17.9878,-11.0409,-9.22333,-1.05186,-6.23744,-2.24688,0.310058,-5.2338,-21.8337,-15.5568,-8.95411,-10.0731,-7.08441,-5.60593,-5.35735,1.88112,-182.512,-833.504,-517.28,-5460,560,12320
-3.55628,6.22173,-0.117469,9.15651,5.53295,3.69466,8.61257,0.951326,-5.11755,-3.34237,-0.969129,1.99195,0.252269,2.24276,3.93941,7.86328,-182.024,-835.456,-518.256,-5180,140,12600
3.54966,6.55359,-0.184353,-1.9603,-0.596873,2.84276,0.824998,-0.575297,5.95289,2.01057,2.00668,-0.11472,0.613319,-0.073008,-5.77637,-1.1128,-182.512,-830.088,-521.184,-4760,-140,13160
9.45108,8.40849,2.33354,3.71913,3.00002,3.50693,8.37617,8.71684,12.4215,8.23219,3.16145,1.01397,3.01742,2.08379,6.45133,2.05767,-184.464,-830.088,-516.304,-4340,0,13440
15.9597,14.8448,6.68543,19.7145,11.0068,6.40633,20.6809,11.8489,21.901,11.3103,4.62566,10.5996,7.3263,9.63681,24.4008,9.06282,-184.952,-833.504,-518.256,-4060,-280,13580
8.43885,8.23729,3.23274,16.664,9.96311,4.3137,16.4893,7.95127,12.4805,6.39527,1.19794,8.69357,3.78009,7.82427,20.9354,6.36825,-180.56,-832.04,-517.768,-3360,-280,13440
3.99368,-3.93845,1.05649,-0.778924,1.63056,3.36471,3.82442,4.88355,3.43406,6.65538,1.64984,0.616026,2.26663,4.17205,6.55512,0.672542,-183,-831.064,-516.304,-2940,-280,13440
9.0884,1.76644,4.38644,-0.806069,2.323,2.90116,2.2038,5.09409,9.86186,8.60697,2.53181,2.45531,3.00571,5.53156,7.301,2.28395,-187.88,-829.112,-521.184,-2800,-280,13300
12.4497,8.10206,8.90031,2.36566,6.15339,2.74329,3.35293,4.76163,13.385,8.51008,4.64537,7.51882,5.05378,6.28725,8.84881,4.94283,-185.44,-826.672,-521.672,-2940,-560,13160
-9.50177,-6.13188,1.7734,3.56198,4.64047,0.534546,5.30789,4.8023,-14.9599,-6.6169,-3.0569,-0.545498,1.93908,2.65525,15.3248,5.24907,-191.296,-828.624,-517.28,-2660,-980,13160
-36.0301,-21.9777,-9.01798,3.69062,2.19161,-0.0719032,6.67604,6.89605,-49.5005,-22.3019,-10.952,-14.5051,-1.32754,-0.56075,17.7383,7.38677,-189.832,-827.16,-520.696,-2380,-1400,13300
-22.2177,-7.73161,-1.41383,6.8106,7.54814,-0.0498504,1.55508,2.69724,-29.692,-12.0666,-6.29993,-5.57945,0.425498,1.28341,9.40449,6.51262,-189.832,-826.184,-519.232,-2100,-1540,13300
-0.395053,-1.70801,0.237468,-5.31757,-2.69316,-3.85351,-11.611,-6.54338,-0.283285,0.365113,2.65103,-0.0762852,-0.895609,-3.19062,-6.07494,-5.28201,-192.76,-826.184,-522.16,-1540,-1540,13440
14.0937,12.1609,5.72379,2.91467,3.92989,-2.39258,-4.94214,-1.92032,18.9082,10.433,6.75634,9.95287,1.95398,-1.04141,3.17565,-3.1267,-190.808,-828.136,-522.16,-1120,-1400,13440
14.9186,13.0814,5.10798,1.99532,2.48543,-1.98838,-5.01738,-2.20143,21.8175,9.71349,4.33291,11.454,1.88222,0.920367,-1.69336,-5.09816,-190.32,-827.16,-517.768,-560,-1400,13720
15.4139,6.51215,1.02248,-9.44489,-5.53842,-4.37828,-13.8463,-4.70458,22.1469,6.54867,4.40727,5.3251,0.535092,-4.00955,-17.5989,-12.4213,-196.664,-832.04,-519.232,0,-1400,13720
14.4141,11.2874,1.41017,-0.0925091,2.52896,-2.53931,-7.85392,-1.58863,16.3575,4.54079,2.60295,5.31031,-0.418401,-2.88966,-9.29971,-6.27316,-193.736,-832.528,-516.304,280,-1120,13720
-10.9922,-15.5114,-10.362,-14.4941,-10.5326,-3.46381,-10.5071,-2.16529,-15.7825,-9.91667,-4.62341,-12.1981,-7.52223,-8.72329,-15.6225,-6.78815,-193.736,-837.896,-515.816,840,-700,13720
-12.2589,-19.5376,-10.467,-23.2798,-18.5658,-4.4658,-18.1261,-1.06225,-14.283,-7.12869,-3.23443,-16.2709,-8.10371,-11.6441,-29.4372,-9.50482,-195.2,-834.968,-512.888,1540,-560,13580
-2.20185,-11.3317,-6.47642,-19.4687,-18.3213,-4.67636,-20.1388,-4.51817,1.5626,-1.65972,-0.334147,-9.57764,-4.92127,-7.65629,-32.5266,-9.46666,-196.664,-836.432,-511.424,2380,140,13720
2.0706,1.35054,-2.07343,-3.92058,-8.04901,-2.69506,-9.06428,-5.0774,6.43266,0.348824,-0.194982,-0.40198,-1.3972,-2.63627,-15.9101,-5.55063,-195.688,-838.384,-513.864,2800,420,13720
-5.35467,5.46271,1.24298,12.6272,4.90433,2.20299,9.01612,-3.78837,-7.4511,-2.25306,-2.51189,3.57412,1.63238,4.16864,8.65424,4.4049,-197.152,-839.848,-513.376,3780,700,13720
-7.86568,4.72995,2.46179,18.0014,10.8286,6.7271,20.8961,-2.03815,-9.35372,-6.93048,-3.96327,4.37859,2.96884,8.17975,21.762,13.9953,-196.664,-835.456,-508.984,4620,1120,13300
-5.87169,10.3953,5.71136,23.0501,19.725,10.0968,30.0972,5.68959,-7.932,-4.28857,-3.87146,8.27501,4.61715,12.8649,32.1645,23.2912,-197.64,-837.408,-512.888,5180,1680,13160
-18.8848,-7.19586,-0.327953,8.67298,11.3497,6.00775,19.5304,7.33931,-26.667,-9.14484,-6.64345,-2.70367,0.535988,8.57128,14.2953,16.3139,-199.592,-837.408,-513.376,5880,1680,13440
-5.46442,-9.31271,-0.519169,0.253882,0.975733,-0.195225,7.10673,2.65395,-7.66638,-0.399958,0.0773122,-6.66941,-0.981183,1.90758,3.39488,3.22097,-199.104,-835.456,-514.84,6160,1960,13440
24.926,15.7305,8.72115,6.85587,4.94606,-0.485728,1.33117,-0.231091,32.7106,17.4062,8.81331,8.05077,3.34432,1.53293,-2.01464,-1.94098,-198.128,-832.528,-517.28,7000,2100,13440
26.9513,13.7671,4.35409,0.820633,-3.52915,-0.903607,-4.10928,-4.10218,33.1306,16.5329,9.81736,7.3162,1.94572,-2.14879,-8.13006,-7.04272,-202.032,-830.576,-516.304,7140,2240,13440
14.5487,7.13609,-0.516525,2.18928,-1.70591,-0.807799,1.38524,-0.952624,14.77,8.81478,4.48373,2.96481,-0.130482,-3.82398,-0.345058,-4.09398,-201.056,-830.088,-515.328,7280,2240,13300
-0.274833,-9.67312,-6.12057,-15.6467,-12.1235,-3.62678,-11.163,-4.44413,-3.55477,-0.154301,0.589694,-8.01571,-3.40525,-7.52809,-18.947,-12.7549,-203.008,-829.6,-513.376,7840,2100,13020
2.72631,-5.60989,-0.496073,-10.4464,-6.67915,-2.44094,-7.37415,1.31071,2.75657,2.40711,2.36013,-2.63489,-0.239338,-3.90707,-4.17919,-8.59535,-203.008,-830.088,-519.72,8260,2100,12740
6.41068,-0.621284,2.95022,-10.4614,-5.10447,-0.637401,-14.3551,3.32544,5.93134,5.49249,2.21764,2.9978,1.64092,-1.94979,-11.7691,-6.72273,-204.472,-829.6,-519.232,8680,1960,12600
-15.869,-7.30159,-2.43633,0.822278,1.44064,1.55647,2.71923,8.20167,-21.6347,-9.23643,-7.07663,-3.26469,-0.358019,1.86366,11.74,7.34683,-204.472,-830.576,-522.16,9520,1820,12320
-23.7191,-7.44208,-2.03526,3.67516,4.54688,2.59761,11.4156,6.83108,-30.4915,-16.0509,-9.73397,-5.43753,-1.79608,3.52383,20.0327,11.5662,-203.008,-828.624,-523.624,10220,1680,12040
-14.204,-9.81102,-2.37293,-11.9358,-6.82571,-2.72845,-4.25419,-3.87657,-17.8319,-10.4996,-5.02651,-8.3409,-4.5106,-1.56938,-3.01123,-0.0361431,-205.448,-827.648,-528.992,11340,1820,12180
-15.7289,-8.43186,-4.51536,1.01278,0.53076,-1.60529,7.5012,-1.05577,-17.6311,-12.7439,-7.28902,-7.20211,-3.99391,0.2718,16.5869,5.70034,-203.496,-826.672,-531.92,12040,2240,12180
7.08784,3.5898,1.58406,-0.173448,1.73225,-0.105948,3.94577,-1.87801,11.2978,4.4421,1.51824,3.77404,1.91883,0.990141,11.0588,2.45935,-202.032,-822.28,-535.336,13300,2660,12180
12.9523,13.5178,5.10906,5.60158,6.52701,4.0398,7.08165,-0.0926705,18.6054,5.47275,1.83904,12.3302,5.36646,5.99615,9.90007,4.30212,-202.032,-820.816,-535.336,14840,3220,12320
-5.91864,-4.58719,-0.310953,-6.06089,0.133688,1.89136,-5.09459,-0.0675228,-7.66222,-4.0006,-1.4685,-0.707376,2.33635,0.412125,-8.81912,-1.20566,-202.52,-819.84,-533.384,15820,3500,12320
-0.992369,-4.83211,-0.927491,-9.66867,-7.63379,-3.94845,-17.5054,-6.48148,2.13047,1.48264,3.55217,-4.75378,0.765309,-5.76144,-23.1666,-12.3104,-203.008,-821.304,-534.848,17220,3360,12040
9.29652,10.4111,5.35708,8.90395,2.77007,0.358654,0.92301,-0.682204,16.0545,7.24565,6.93558,3.43382,2.66849,-0.20055,-0.130158,-3.71158,-204.472,-820.328,-532.896,18200,3220,12040
15.1867,13.8239,5.28516,9.19347,2.28816,1.7796,3.14166,1.15062,21.8446,10.3765,8.92464,4.63504,1.3576,-0.669034,1.08187,-1.2483,-206.912,-817.888,-531.432,19320,2940,11620
16.8612,16.3906,2.43336,7.63962,1.00999,0.958243,-0.456041,-0.512123,25.2025,10.78,6.87859,5.54837,0.54757,-0.907714,-2.16942,-3.39307,-205.448,-818.376,-528.504,20020,2940,11480
14.8786,17.603,3.80266,13.6347,7.23469,1.92573,1.83355,1.08563,19.6202,11.3791,5.59202,10.3129,2.338,2.32916,3.81512,-1.60415,-203.496,-822.768,-525.088,19740,2940,11340
-11.1886,0.35802,-2.70806,16.955,8.84144,2.82267,7.13241,-1.16868,-16.7311,-6.67124,-3.87815,3.38038,-0.944116,5.2961,11.3887,2.09624,-205.448,-827.16,-523.136,19600,2520,10780
-37.3228,-24.1813,-12.1595,-3.05524,0.413435,0.203041,0.140408,-0.663896,-48.3398,-22.9575,-12.3048,-10.8022,-4.96775,0.349387,-3.4083,3.65166,-206.424,-824.232,-515.328,19180,2380,10500
-26.1871,-25.1667,-11.8509,-18.7243,-9.55633,-2.58277,-12.8126,-2.99099,-32.3835,-15.366,-9.43344,-10.6633,-6.15336,-3.49543,-20.7927,-3.65847,-204.472,-825.696,-513.376,18340,2240,9940
3.82155,-0.232133,-0.564035,7.12956,3.82436,0.913012,4.85966,1.35051,4.98262,2.26113,1.04209,4.52561,0.583368,3.53187,9.08126,4.9775,-202.032,-827.16,-514.84,17080,1680,9520
20.754,4.38016,6.37912,1.65247,1.17214,-1.62511,2.26566,1.38757,23.8172,13.2291,6.3493,5.08633,1.9552,0.59774,6.03298,4.24591,-198.128,-826.672,-508.008,16520,1540,9520
29.1883,9.23087,7.3112,-2.55096,-1.2234,-5.58122,-4.64667,-1.91642,37.9488,18.2839,8.16984,6.18708,1.7868,-2.11949,-1.61306,-1.05235,-198.128,-825.696,-512.4,15680,1260,9100
28.4731,14.4747,7.65075,-1.78098,0.995407,-3.13903,-7.69044,-3.01441,37.4291,14.5655,6.6636,10.1964,4.60793,-0.177001,-10.3586,-4.47908,-196.176,-829.112,-510.448,15260,980,9240
9.41972,5.61009,3.18969,-1.37672,4.45073,-0.314234,0.512536,1.6061,6.39169,1.91755,-0.0744999,4.27303,3.10654,1.54043,-3.75826,0.804492,-194.224,-829.112,-511.912,14420,560,9240
-3.3902,-6.4592,-4.28703,-7.10124,-2.60218,-2.50769,-2.79176,0.0929371,-11.5774,-5.92355,-2.98669,-3.91496,0.207568,-2.17899,-6.23916,-2.57088,-191.784,-827.16,-513.376,13860,560,9380
-27.2724,-17.5825,-8.85254,-3.76021,-2.51856,-2.43906,2.66109,5.3047,-42.6543,-16.9518,-11.4804,-11.9868,-3.29922,-2.73729,4.08974,2.43778,-192.272,-831.064,-516.792,13580,420,9660
-48.1282,-30.2383,-12.4554,6.64116,-0.624315,0.919716,18.4355,10.2407,-67.4668,-30.8658,-17.6382,-21.7511,-6.58672,0.782402,25.9766,15.6608,-190.808,-830.088,-512.888,13580,140,10220
-7.24692,-3.35087,-2.24654,-3.14381,-6.64377,0.184746,2.78979,2.2293,-8.15654,-7.35303,-4.33208,-6.38027,-3.02348,-2.49591,2.40999,4.59912,-188.856,-829.6,-513.864,12880,0,10500
13.6071,19.0069,6.95913,2.25499,-0.119535,1.68191,-5.20707,-4.57558,16.4196,10.6019,4.41871,10.1189,1.86897,-1.53134,-7.0341,-6.95652,-187.88,-833.504,-513.376,12880,0,10500
10.252,7.75362,3.69266,-12.334,-10.1834,-0.925097,-19.1783,-10.9075,13.691,10.6583,6.99534,1.4838,1.19608,-6.98476,-22.664,-16.4376,-190.808,-833.992,-509.96,12180,-420,11060
11.7904,13.324,5.17299,0.887293,-2.63712,1.04118,-6.27544,-5.56879,18.5396,11.4107,8.98843,5.04475,2.7707,-1.52975,-3.6096,-5.94309,-188.368,-835.944,-512.888,11620,-840,10920
13.8052,9.99526,7.72858,3.70726,2.98554,3.19236,5.33455,-2.15521,21.5071,12.1405,8.18104,6.45213,1.46641,2.6211,5.5746,2.75385,-187.88,-838.872,-511.424,11620,-840,10920
7.8754,15.9034,7.4152,10.4524,10.3007,5.12162,12.2867,0.673388,16.872,5.52206,2.85448,9.30399,0.108581,6.36217,7.54104,9.70808,-189.344,-841.312,-507.52,10920,-840,11060
-17.1266,-5.06278,0.326749,3.80787,9.65488,7.10566,17.703,7.68942,-20.0182,-8.97871,-5.26311,-2.97822,-2.00156,7.41522,13.3003,12.3941,-189.832,-843.264,-507.032,10920,-980,11060
-16.5099,-31.921,-14.4015,-31.8462,-18.5768,-3.29434,-10.429,-3.9141,-18.6013,-10.6831,-0.937318,-22.023,-7.49009,-9.55376,-17.6632,-9.6353,-188.368,-844.728,-508.984,10640,-1120,11200
9.87842,-1.07241,-0.723482,-7.93221,-2.39193,-0.880202,-5.80507,-2.79127,16.1129,6.54122,5.24501,-0.977803,0.558984,-2.84669,-8.10429,-6.21933,-188.856,-843.264,-507.032,10640,-1260,11620
1.31171,-6.9724,0.472112,-5.83119,-1.20316,-0.671772,-4.63866,0.731419,5.13456,2.21499,1.38063,-3.36394,1.65027,-0.120073,-8.6056,-3.42706,-191.784,-844.24,-510.448,11060,-980,11900
-32.1669,-17.1979,-6.20502,8.90775,5.46191,0.977761,12.5504,12.1049,-37.1793,-21.22,-13.123,-10.9107,-3.72307,4.29075,14.4421,7.27018,-193.736,-842.288,-508.984,11760,-1120,12600
-26.2045,-16.375,-5.84938,2.81752,4.0456,1.94558,14.6241,16.418,-28.0078,-18.9004,-14.0532,-9.4148,-3.90808,4.67246,11.9966,9.063,-191.784,-843.752,-512.888,12320,-1120,13300
8.69133,1.45619,0.748942,-3.78875,-4.03463,-1.14969,-7.53602,0.610317,14.8003,3.33248,1.20442,2.915,0.231655,0.18856,-11.5571,-6.84179,-196.176,-839.848,-512.4,13020,-840,13860
20.6379,19.4183,9.39236,11.2506,5.65759,0.73892,-4.25144,-0.925966,26.589,12.6241,5.97198,13.884,4.144,2.21835,2.79625,-4.56035,-197.152,-834.968,-512.4,14280,-280,14420
9.32145,-1.60656,-1.36785,-3.40007,-7.46863,-5.2208,-11.9131,-6.56948,7.55029,3.723,2.67457,-0.281478,0.294016,-4.3532,-5.43344,-10.388,-199.104,-833.992,-508.496,14840,140,14560
19.3693,19.7798,4.30663,15.4667,4.5755,-3.26911,-3.95757,-6.58886,19.5886,9.86301,5.3652,13.6926,4.92415,1.74761,5.7007,-5.098,-198.128,-834.968,-506.056,15680,1400,14560
-9.36454,5.6766,0.217658,15.2281,8.18752,1.47879,6.87802,2.14688,-19.8432,-5.24021,-4.76619,5.89912,1.99034,4.94417,13.6989,6.03613,-200.568,-833.016,-508.984,15960,2240,14560
-25.2881,-21.5817,-11.3639,-7.85338,-6.97765,-1.05604,0.189672,2.22615,-39.6677,-14.9494,-8.22481,-13.6884,-3.06971,-3.07273,2.27769,2.32438,-200.08,-833.992,-508.984,16380,2800,14280
28.7552,11.9174,0.890152,-8.2586,-10.0769,-4.20727,-19.7617,-11.986,34.1356,19.1874,13.0066,6.37395,7.40887,-6.25421,-20.2844,-12.3172,-201.544,-833.016,-512.888,16520,3780,14000
53.3771,37.6386,12.9226,5.10342,0.0529569,-2.54125,-17.3457,-13.9558,66.6959,35.6803,20.2623,25.4719,12.3046,-1.09639,-13.1145,-9.42625,-203.984,-833.992,-509.96,17080,4620,13860
18.8398,22.6292,6.9792,15.2489,9.85786,0.711359,2.10394,-2.28854,20.8527,10.9635,6.48851,16.3273,6.06685,1.94254,10.6984,6.19158,-206.424,-829.112,-513.376,17920,4900,13860
-8.37544,2.77556,1.43365,11.765,11.389,2.94345,10.7581,6.20286,-15.6088,-7.95122,-4.54661,4.89607,1.31776,3.51714,15.0698,13.1183,-209.352,-827.16,-514.84,18480,5180,13720
-26.2016,-16.2419,-6.509,1.34878,2.66572,2.39082,9.16005,4.82829,-37.4941,-19.5869,-9.78423,-8.66729,-6.08567,1.47433,12.7017,10.2779,-211.792,-827.648,-516.304,18620,6300,14000
-22.2515,-1.97812,-1.12524,20.2092,16.2879,5.52236,24.0241,12.0782,-27.8984,-14.5205,-10.1518,-1.28931,-5.56916,7.55492,34.3523,21.9466,-222.04,-811.056,-511.424,19320,7420,13860
4.65378,2.60545,1.66498,2.61458,4.5861,1.16914,7.36026,3.55553,8.20845,1.96552,0.470019,-0.220084,-2.54047,3.10143,14.2337,7.90881,-218.624,-813.496,-514.352,20720,7000,14280
2.68458,-5.61785,-1.65567,-13.0066,-6.75007,-2.74159,-9.14457,-4.1229,5.1945,2.44324,2.19471,-7.08243,-4.26976,-3.28025,-8.14341,-3.55177,-217.16,-808.616,-513.376,22820,3360,15540
-8.70306,-7.57936,-1.9465,-8.20546,-1.75087,1.41548,-2.0237,-0.14487,-7.65619,-3.8851,-4.11742,-5.75973,-4.72962,1.04262,-4.02123,5.04214,-217.648,-806.176,-513.376,22820,3220,15680
-6.5057,-14.7817,-2.76062,-19.5811,-8.46302,1.84289,-10.5872,-6.68187,-9.74529,-2.30098,1.22684,-7.6955,-2.34497,-1.20691,-19.7666,-3.1112,-218.624,-809.104,-512.4,21140,3080,15120
14.9229,3.82587,4.75617,-18.5953,-6.48593,0.860849,-13.9119,-7.14088,25.8545,14.2994,9.2722,1.82785,3.18423,-3.20075,-26.8869,-7.56704,-217.648,-815.448,-512.888,20860,2240,14560
-0.38399,-7.689,0.0304036,-18.3746,-9.20097,1.69203,-5.58745,-4.35662,6.23427,2.32846,-0.130974,-6.31051,0.261183,-1.64859,-17.8808,-6.19505,-216.184,-814.96,-510.448,20160,1820,14140
-43.5151,-40.9597,-12.1606,-17.7658,-9.14266,2.22832,13.4752,6.89453,-53.7037,-26.4057,-17.3811,-23.2936,-7.35605,0.0707128,-3.38627,4.79156,-215.696,-822.28,-506.544,19460,1260,13300
-35.1309,-28.9377,-4.97555,-9.24351,-0.269166,2.44936,20.1675,12.4963,-44.0699,-22.8953,-14.1812,-16.9278,-6.16835,1.17343,2.22264,5.52769,-213.744,-826.672,-507.52,18760,700,12880
8.40919,3.43388,2.71275,-9.56877,-6.25329,-2.75822,-3.80121,-1.17817,16.5068,3.09952,2.39323,0.724223,-1.60098,-5.17914,-24.8657,-15.8611,-212.768,-828.136,-505.08,18060,560,12040
12.6076,9.24157,2.63335,1.26925,-3.44511,-6.11681,-4.93973,-5.4795,20.7131,7.54741,2.70127,3.18822,-0.718187,-7.17983,-20.862,-17.4671,-210.816,-834.48,-499.224,16940,840,11340
-1.5047,3.18349,-1.13936,15.2437,3.77585,-5.21521,11.8827,-2.32485,0.910332,-3.86355,0.080774,-1.96572,-2.28792,-3.01875,14.7012,-6.36857,-206.912,-834.48,-495.32,16240,1260,10920
11.9463,16.8754,2.05553,15.2217,2.56688,-4.5274,1.32105,-3.5255,22.4257,6.39194,6.87124,7.0113,2.03537,-3.3136,9.70996,-11.9817,-205.936,-837.408,-491.904,15260,1820,10220
28.8659,29.7978,6.74131,14.3725,-0.937652,-3.98798,-8.63759,-9.34875,40.7641,18.3696,11.2579,15.1935,6.35451,-4.28947,3.63978,-19.5119,-204.472,-838.384,-492.392,14560,2660,9800
32.4928,33.6253,7.92997,22.3368,6.38263,-1.75504,5.24316,-9.4988,42.0829,19.9817,9.15026,20.452,7.77693,0.615765,17.3312,-7.64017,-200.08,-840.336,-491.416,14000,3780,9660
18.7321,25.3948,8.1858,24.4415,15.3915,1.78766,21.6088,-0.77226,19.5575,14.1698,5.26547,15.8295,7.31915,5.05787,25.5985,11.5377,-197.152,-838.384,-491.416,14000,4200,9520
21.8795,12.1539,3.47965,-5.21943,-3.58174,-1.82073,-0.33103,-1.37314,23.6219,14.2864,7.9029,4.88137,3.23455,-1.20802,-12.836,6.90364,-196.664,-838.872,-488.976,13580,4200,9520
7.49595,3.45516,2.17048,-4.80709,-3.06197,1.62736,-1.58334,7.51574,2.3414,5.54824,4.57555,0.163,2.28874,1.97853,-14.3382,13.4555,-197.152,-835.944,-493.856,13720,4480,9380
-38.8957,-27.2453,-9.49398,4.20952,2.92695,6.50701,19.598,24.8509,-59.7812,-23.755,-13.2888,-15.3797,-3.75838,7.85045,16.4493,31.5862,-193.736,-832.528,-500.688,14140,4060,9660
-56.0223,-42.3232,-17.0203,3.23108,0.346958,5.18714,14.8162,22.4694,-80.2949,-36.4918,-20.4378,-21.8294,-5.48657,6.48103,21.2574,26.8906,-192.272,-827.648,-502.152,15400,3360,10080
-21.6412,-17.8776,-9.3647,-1.77789,-4.21939,-1.18073,-11.9576,4.3046,-32.2197,-14.7259,-7.79491,-8.38574,-2.43406,-1.06463,1.2869,4.15058,-187.88,-822.28,-505.08,16100,3080,10780
-22.6813,-11.0436,-5.8809,6.13103,5.29671,0.981141,-7.13309,0.435438,-38.8942,-17.3091,-10.0071,-1.92005,-2.25839,4.21912,10.3608,3.54882,-187.88,-822.28,-508.984,17360,2520,11480
-28.1377,-30.6494,-11.8732,-15.3766,-6.919,-1.68297,-19.9066,-5.03197,-47.8627,-18.3567,-7.45968,-14.5877,-3.90092,-2.30601,-4.67906,-7.06232,-180.56,-819.352,-508.496,18620,2520,12180
23.2541,9.5816,2.50784,-7.61314,-2.37049,-2.36155,-25.0307,-6.31804,29.5411,13.5905,8.78649,6.57546,2.84481,-3.48204,-8.50236,-12.0084,-179.096,-813.984,-512.888,19460,2380,13020
29.9763,21.8562,8.72121,-1.08347,0.931833,0.866083,-22.5329,-7.60821,43.6208,17.3047,12.4993,12.8624,5.63587,-0.711251,-9.0766,-11.9187,-177.632,-814.472,-509.472,20020,1960,13860
14.9917,9.90227,4.97493,-7.81366,-1.18112,2.23218,-19.5175,-3.36073,23.2296,10.905,7.24789,4.2275,2.36185,-2.02232,-11.7145,-8.88972,-173.728,-812.52,-509.96,20860,2100,14560
9.26439,9.7788,6.19655,5.00976,4.90592,4.85495,-3.81431,-0.289638,18.7629,6.37242,2.63307,4.34907,-0.0633866,4.18156,11.6094,-2.20729,-175.68,-813.008,-510.936,21420,2240,14980
19.0074,10.0768,8.51324,-6.09079,-2.37759,0.507176,-14.5584,-4.30326,34.2368,14.7239,6.06588,5.11107,-1.31022,-0.908875,-4.18573,-10.4871,-174.704,-815.936,-507.032,21420,2660,15400
8.38991,0.233527,2.6761,-6.78393,-3.66914,-2.17356,-6.20012,-0.334673,18.6607,6.91513,1.06903,-0.677829,-3.63759,-3.04899,-1.73548,-4.69665,-173.728,-815.936,-511.912,21560,3080,15680
0.198542,-6.69765,-2.74908,-7.65987,-5.9687,-3.41824,-0.500686,0.182849,9.17532,-0.983679,-2.78279,-4.93017,-5.56554,-3.45863,-3.91248,-2.69947,-173.728,-818.376,-514.84,21700,3780,16100
10.787,10.2559,4.52048,5.93748,5.70575,0.715596,7.04934,1.15676,17.9949,7.35054,2.8621,7.92913,0.613049,2.85471,-1.71467,1.37607,-174.216,-816.912,-513.376,22400,4340,16380
11.113,9.02522,5.05005,2.99163,3.97897,2.38238,4.45999,-3.96424,14.1476,8.58606,6.10714,7.7999,3.77468,3.5987,-6.60024,-2.18729,-174.216,-818.376,-511.912,23660,4760,16940
16.5582,17.0187,6.30651,7.51901,6.00429,4.42756,6.92184,-4.62335,22.5251,10.3633,7.51031,13.0469,6.08582,4.9083,-0.72414,-1.86096,-176.168,-817.4,-514.84,25060,4900,17080
4.06952,7.56926,5.17898,8.48568,7.92654,4.64148,14.8043,-2.28033,3.35818,4.30954,3.09683,7.34624,4.16799,4.92264,10.347,5.85091,-177.144,-816.912,-514.352,26040,4480,17360
-9.24479,-8.58164,0.398063,-6.50908,-2.08716,1.16878,7.58261,-7.41229,-15.1281,-5.38355,-1.77849,-2.27115,0.362177,-0.425831,-2.58193,2.02339,-180.56,-822.768,-513.864,27300,4060,17360
-3.10875,-4.39493,0.669393,-12.1476,-3.19132,-2.6942,2.05865,-8.48456,-8.20499,-1.95263,0.734442,-2.7434,-0.326259,-4.71112,-12.761,-1.86907,-187.88,-816.424,-509.96,27580,3920,17360
-16.7729,-3.64832,-1.96911,-0.312938,5.20119,-0.626814,17.0257,-1.0774,-23.1587,-13.0815,-9.18698,-4.21336,-3.07545,1.23034,2.94186,8.65346,-189.344,-821.792,-511.912,28280,3500,17360
-46.3273,-25.0499,-9.45232,5.64244,9.02789,1.4063,30.9682,10.5214,-62.0292,-32.771,-21.9674,-14.7446,-7.01068,5.0964,18.1955,19.7973,-192.272,-827.648,-503.616,28280,2940,17360
-26.737,-16.8144,-4.04814,5.30064,8.19359,0.711071,24.2109,9.16385,-35.6682,-16.9335,-13.4142,-7.75695,-2.5323,3.2249,16.7884,15.4834,-200.08,-835.456,-497.76,27860,2940,17360
-2.36463,-9.54271,-2.0817,-14.8408,-10.0376,-4.2087,-8.2219,0.0399029,-3.67427,-0.910618,-1.3046,-4.29368,-0.626894,-5.43024,-21.4631,-4.23012,-203.008,-841.8,-492.392,25900,2940,16800
-5.7709,-18.9341,-8.62709,-28.3143,-21.8162,-8.81316,-25.8553,1.06404,-9.46791,-1.94129,-0.520569,-14.5908,-4.46506,-13.811,-38.8357,-11.8555,-205.936,-846.68,-484.584,25060,2940,16660
3.39291,-6.8167,-5.02465,-6.91939,-10.7862,-4.91368,-11.4058,2.21933,4.28538,2.15584,2.07011,-6.10772,-1.91073,-6.5475,-9.3618,-7.86444,-205.448,-851.56,-478.24,22820,2520,16380
15.3859,13.3985,-1.62206,12.8221,2.04429,-2.66015,3.02196,-1.2746,20.5121,9.14416,4.97198,5.67177,0.523016,-1.60244,12.838,-5.98241,-206.912,-854.976,-473.848,20020,2800,16100
20.3572,22.893,0.997655,18.6386,6.85269,-2.56939,8.89751,-7.767,24.5965,13.2202,5.69206,9.97405,3.17735,0.63038,18.7689,-5.2839,-206.424,-858.392,-471.896,17220,3920,15820
12.2034,12.5192,-0.386548,9.71773,0.741313,-2.32299,5.19123,-6.18993,12.5962,5.40025,3.39339,4.29587,2.01693,0.560975,13.6588,-7.16479,-210.328,-864.248,-469.456,13440,4900,15260
8.32927,8.2594,2.93191,1.61377,-1.71168,-2.06767,-3.70824,-2.51646,9.71453,6.79977,4.117,2.17988,1.88375,0.723007,1.16053,-8.08337,-212.768,-866.2,-465.064,10780,5880,14700
8.32795,8.16389,5.01723,1.56869,-0.598618,-0.584119,-6.67173,-2.36286,11.1312,9.91048,6.94292,3.79312,4.08768,2.76017,-3.1066,-6.62919,-216.184,-864.248,-463.112,7280,6300,14560
-21.6381,-6.77572,-3.89337,7.10068,2.06328,2.71576,3.47499,5.46843,-26.7534,-12.9764,-4.98508,-6.21147,-0.338774,3.97595,10.121,4.47252,-212.768,-865.712,-465.064,4060,6720,14840
-13.0824,-3.85515,0.267102,3.7878,0.0544047,2.29398,-1.75364,3.26327,-15.8848,-6.25326,6.78494e-05,-3.77745,1.95025,1.79233,5.01486,4.15609,-215.696,-866.688,-465.064,1540,6580,15120
8.25953,6.89407,2.6325,-2.27228,-6.621,0.662994,-11.4983,-2.83432,13.2728,5.89624,5.51485,1.70964,2.63815,-3.4139,-7.46315,-0.216367,-218.624,-863.76,-461.16,-1680,7140,15540
1.52058,-2.0903,-0.64825,-4.55069,-4.98416,1.06998,-6.35287,3.83303,2.13482,0.268849,-0.611112,-2.65902,-1.63418,-5.43063,-4.70529,4.01895,-220.576,-864.736,-460.184,-4200,7000,15820
-0.868898,-13.2688,-4.09289,-13.0171,-6.97354,1.19562,-6.28614,3.04357,-1.20991,-3.39301,-0.794625,-5.60258,-2.91868,-4.4036,-6.02543,4.35644,-220.576,-862.784,-460.672,-7700,7000,16380
9.68054,-3.37568,0.0902783,-13.2177,-3.13686,2.10466,-12.8926,1.05401,12.7537,3.24523,3.60662,3.50953,0.834134,-1.10905,-21.8595,2.39059,-220.576,-862.784,-456.768,-10920,7000,16800
18.2113,13.8354,5.49374,15.099,13.911,5.88891,8.582,6.86514,24.2162,10.0039,6.28934,15.8266,4.51258,8.45385,10.8834,11.6896,-219.112,-860.832,-458.232,-13440,7000,17220
7.86245,7.49837,3.69079,16.3487,11.1568,4.44309,11.8019,9.21611,12.9404,3.86599,3.69016,8.99954,1.50538,7.18268,18.1829,12.5133,-221.064,-855.952,-465.552,-16940,6580,17360
-0.687084,3.07012,3.69486,11.9649,4.91935,2.92056,4.93893,4.03743,4.87739,-1.08178,-0.496582,3.05259,-0.331697,3.27718,8.2755,4.89724,-217.16,-853.512,-466.528,-19600,6020,17640
-13.1003,-7.02604,0.405553,7.96247,3.05258,2.275,7.8067,1.7296,-13.4883,-10.6891,-7.50462,-4.53073,-3.34849,1.49757,8.67054,4.68446,-216.672,-856.44,-469.456,-21840,5600,17920
-18.9791,-10.861,-2.7116,3.41858,1.37328,2.12712,9.63447,1.74836,-24.7729,-13.9783,-9.90335,-5.70447,-4.0713,2.545,9.4549,5.19524,-220.576,-853.512,-474.824,-23940,4760,18200
-16.0847,-6.82133,-1.71208,-1.41837,1.51913,3.20099,5.17497,2.36619,-23.0791,-9.30315,-9.19259,-3.25597,-0.959894,4.60778,0.819961,4.67801,-217.16,-848.632,-475.312,-25480,4340,17920
-3.94047,-1.97827,-3.15831,-7.30243,-2.15224,1.11614,-4.7304,1.6964,-7.57738,-2.63603,-3.1218,-2.64161,-0.147115,1.86909,-10.6295,-1.99591,-216.672,-849.608,-479.216,-26880,3360,17780
14.9656,13.9001,1.64829,5.64231,6.17491,-0.563605,1.82744,1.92208,16.013,9.42774,3.46649,4.87703,-1.51771,1.26055,5.83483,-4.25326,-219.6,-851.072,-484.096,-27860,2940,17500
15.8703,14.4452,5.22045,3.80619,6.35867,-0.942681,4.10995,-3.83504,16.387,11.3455,6.67679,5.91599,-0.76763,0.917599,8.62853,-8.11015,-223.016,-850.096,-486.048,-28700,2800,16660
5.87806,7.02923,1.14844,-2.96911,1.27922,-2.01356,1.88462,-7.4893,6.74806,4.79674,3.31874,-0.567213,-0.962963,-1.28319,2.31007,-10.9781,-227.408,-847.656,-486.048,-29400,1400,15960
-0.403528,2.28898,-1.34087,-2.93799,-0.385235,-4.03541,-1.93573,-4.80587,0.247176,0.938087,-1.32516,-3.6772,-2.60622,-3.69099,-4.59282,-10.1182,-226.432,-845.216,-488.488,-29680,280,15820
-1.35434,-0.642668,-1.36858,-5.94266,-3.96821,-3.72941,-9.17424,-6.62869,-0.421998,-0.186258,-1.50649,-1.80445,-0.687687,-3.57112,-13.841,-12.3738,-226.92,-847.656,-490.44,-31220,-560,15120
3.63506,-2.65951,0.55341,-13.3575,-8.10938,-4.86358,-17.8396,-8.88195,3.70048,4.08683,2.87461,-0.820198,1.56205,-6.7267,-27.1303,-16.2253,-224.48,-846.68,-492.392,-31640,-840,14560
-1.69594,-10.3511,-3.84619,-18.6949,-13.5847,-6.74971,-20.0759,-10.691,-2.77796,1.11434,3.37698,-5.26536,0.686704,-9.18768,-26.649,-15.1847,-225.944,-846.192,-495.32,-32480,-1120,14000
4.11133,-2.96117,-1.06698,-9.16882,-6.74346,-4.4669,-11.4035,-6.0391,4.11553,4.20596,4.94931,-0.508057,3.14589,-5.73135,-12.8103,-6.84068,-225.456,-845.704,-499.224,-32900,-980,13440
0.354174,5.51525,6.08464,13.6421,11.2861,4.97875,16.1745,6.9075,-1.2658,1.15125,0.945537,7.97631,6.72038,7.5563,20.7009,13.5629,-224.968,-845.704,-500.2,-33320,-560,13160
-10.4836,-8.00747,-0.0383089,-0.16171,2.38384,4.43077,10.9882,6.32602,-13.0132,-7.67317,-5.52551,-2.71681,2.0198,3.98484,6.6683,12.2815,-222.04,-844.728,-503.616,-33740,140,12880
-9.06802,-12.0022,-2.1357,-1.40843,-0.962278,2.74322,8.77684,8.27205,-12.2965,-6.46481,-6.15907,-5.87623,-1.09955,0.282811,2.32619,13.5719,-224.48,-845.704,-505.568,-33880,700,12740
-14.472,-19.2804,-5.89836,-2.56586,-4.47536,0.0305468,6.79943,11.353,-19.5402,-10.6642,-6.93082,-10.327,-3.13279,-1.62389,4.30884,12.7022,-226.92,-844.728,-506.056,-33880,1120,13020
-6.05154,-13.0564,-4.39559,-1.25575,-6.14335,-1.59078,3.85561,9.05382,-8.55321,-4.44608,-0.117225,-5.99314,-1.08399,-0.856953,8.18127,7.11261,-230.824,-841.8,-506.056,-33600,1260,13720
-1.97252,-5.75094,-1.01678,-3.89817,-3.73931,-1.11817,0.0207332,3.67271,-1.42111,1.76192,1.76685,-1.6667,0.824235,-1.09161,4.01163,3.81578,-230.336,-842.776,-507.52,-33740,1260,14280
13.6176,5.87536,1.64184,-8.12935,-6.75136,-3.26474,-16.629,-12.3097,20.1271,9.52425,5.74526,4.16954,2.48929,-4.74001,-11.6051,-12.902,-232.776,-839.36,-504.592,-33460,1680,15120
15.7956,17.8771,7.76822,12.1072,7.37854,0.272225,-5.29509,-9.14112,23.9849,11.0344,4.63919,11.4681,3.5613,1.86088,9.47789,-4.01751,-230.824,-837.408,-503.616,-33600,2240,15820
-5.4648,2.33999,-1.48085,8.43532,1.61728,-0.729305,-2.32527,-3.74077,-0.405851,-2.5971,-3.35719,-2.19507,-2.28776,-0.0290857,11.0541,2.1495,-233.264,-829.6,-505.08,-34020,2800,15820
-11.3838,2.16361,-5.10052,5.03681,0.716501,0.343299,-3.04128,1.91893,-8.53694,-8.17015,-4.79065,-3.37402,-3.84461,-0.305642,1.72713,3.40385,-232.288,-833.504,-497.272,-34300,3920,15960
-7.25064,-0.0482548,-5.03108,-8.48152,-7.76363,-2.24798,-16.4877,-4.73469,-5.2945,-6.94815,-3.58848,-3.82669,-5.62376,-3.85294,-23.0649,-7.52998,-235.704,-832.528,-498.248,-34020,4620,15820
3.66596,6.85588,0.521155,-3.50702,-3.47555,0.100257,-8.3316,-7.42102,8.30934,-0.128237,-0.327881,4.31507,-2.17176,1.20217,-12.3951,-4.11008,-238.632,-841.312,-501.176,-32900,5040,15400
21.1699,23.0987,11.4907,8.09749,7.88487,3.52184,5.87215,-4.31489,30.1021,12.6607,7.20232,16.196,4.44887,7.97068,4.88464,5.31167,-240.584,-847.168,-504.592,-32480,4760,14980
16.0766,18.1238,11.1219,8.60148,7.6347,2.93141,11.9109,-4.12923,17.9638,11.1479,7.44253,13.3832,3.44435,7.39118,12.5551,4.9568,-241.072,-846.192,-498.736,-34720,5740,14560
-0.574074,4.41844,7.26124,4.68829,8.01935,3.23833,14.582,1.19865,-8.55271,0.217677,2.55229,6.21018,0.0837622,6.61268,15.5753,7.82575,-241.072,-842.776,-502.64,-35420,4760,14560
-4.44786,-1.9385,3.87529,1.89504,8.16462,3.68094,16.2285,6.78827,-15.3597,-3.29687,-0.175596,1.59203,-0.00924176,5.68188,18.5053,10.2626,-245.952,-847.656,-504.592,-34440,4200,15120
-5.69988,-16.2009,-4.51534,-15.534,-4.36872,0.965988,3.02925,2.60324,-15.1559,-6.10488,1.0278,-7.50445,-1.70934,-2.70762,-2.26271,-0.957665,-246.928,-849.12,-504.592,-33740,4340,14840
-1.86684,-22.1869,-7.42666,-25.3651,-10.6144,-2.36005,-8.67642,-0.17583,-11.4793,-3.02607,3.45411,-10.2379,-2.37055,-6.2978,-19.0628,-8.51409,-253.76,-850.584,-507.52,-34720,3640,14980
-13.96,-23.5152,-13.5823,-11.7906,-5.45378,-1.52202,-1.37318,3.73846,-24.6273,-9.05197,-3.24133,-13.4572,-3.39939,-2.6735,-4.81031,-3.53247,-246.44,-857.416,-513.864,-36260,4200,14840
-14.9858,-16.8528,-11.4513,-1.49229,-1.02729,-0.108391,1.0277,2.76291,-23.1652,-11.0847,-5.90384,-13.1212,-3.47532,-2.01695,2.38395,-1.07803,-251.808,-861.808,-504.592,-39200,4340,14840
1.08298,0.795106,-3.64915,7.83805,4.67275,0.504702,3.43447,1.13493,-1.64926,-2.17469,-2.37669,-3.72519,-0.797633,-1.10356,5.98723,-1.18506,-248.88,-861.32,-505.568,-42980,6580,14280
11.4424,28.0172,3.70558,35.8545,19.4994,4.70837,18.6676,6.88868,16.4591,3.94762,-1.81336,10.6459,2.484,5.98337,29.7013,7.40311,-253.76,-858.392,-497.76,-44520,6580,13720
18.6678,41.1513,10.1057,43.6542,24.8127,4.20284,17.6132,9.71385,30.7102,12.0464,0.541413,19.4569,5.64313,8.20393,29.4092,8.67967,-257.176,-857.904,-493.368,-45220,6580,12880
13.2464,24.3907,4.33115,21.4659,8.39904,-1.72558,-4.05914,2.20162,24.2775,11.4926,0.437906,11.7008,3.80108,1.29222,-2.00107,-3.39188,-256.688,-859.856,-491.416,-46760,6300,12320
0.443244,5.76653,-1.38628,3.12346,-3.73597,-4.65399,-16.7428,-1.34172,5.19149,2.78099,-1.67807,1.55203,1.34628,-4.49815,-21.7266,-8.77303,-258.64,-853.512,-489.464,-48860,5180,11900
-2.58003,-7.94764,-3.00253,-14.4515,-14.7708,-7.71263,-25.7074,-5.39632,0.0875798,1.49738,-0.621973,-7.54822,-0.0682784,-10.4464,-34.1712,-14.6994,-257.176,-853.024,-488.488,-50960,5180,11060
-12.0802,-20.3033,-5.8672,-17.9262,-12.4999,-4.92636,-14.2952,-0.413677,-14.0098,-6.32649,-3.55433,-11.4554,-1.29805,-8.13309,-17.0912,-6.20141,-255.224,-854,-490.928,-52920,5180,10080
-9.53894,-20.4606,-1.61532,-15.1853,-6.06234,-0.833266,-3.6572,4.18265,-11.7969,-4.1847,-1.57827,-6.33449,1.12038,-3.2326,-2.04259,-0.471783,-258.64,-851.072,-494.344,-54460,5040,9100
3.32101,-5.02002,5.42706,1.79401,1.94981,3.0509,6.56509,2.55793,5.07163,3.82954,2.43206,3.23673,3.71748,1.51092,12.4862,3.73995,-258.152,-849.12,-498.248,-56280,4900,8540
9.07535,6.04904,8.02268,5.98205,0.426986,0.837329,1.71381,-4.09452,14.1542,7.30628,4.9723,7.69934,2.86985,1.3591,1.61533,0.302602,-261.568,-846.68,-497.272,-58240,5460,7420
-6.13112,-3.16745,2.55858,-4.62546,-5.3668,-0.322383,-3.92405,-1.67251,-8.25257,-2.11067,-0.617009,-0.19108,-1.44817,-0.176228,-14.7688,-0.0552602,-261.08,-846.68,-498.736,-59780,5600,6580
-12.5077,-17.0552,-4.30089,-26.322,-17.5695,-1.017,-13.8798,-1.62967,-15.1963,-7.47481,-1.80687,-10.1556,-4.12934,-3.38711,-33.1832,-5.72659,-256.688,-847.168,-500.688,-61600,5600,5180
-11.1818,-25.4902,-3.51356,-43.3069,-24.3385,-3.82386,-21.899,-4.3144,-15.2218,-5.11462,0.138825,-15.2551,-5.15942,-7.1649,-41.7427,-13.4427,-260.104,-844.24,-505.08,-62860,5880,3500
-18.6649,-24.7617,-2.85012,-27.9696,-15.1295,-1.86261,-6.61586,-5.49554,-25.5193,-11.3823,-2.52811,-13.2541,-4.87922,-1.95539,-16.9917,-7.69073,-262.544,-841.312,-505.08,-64680,6580,1680
-0.0367281,4.39221,6.80948,7.03082,6.49426,3.75306,19.9737,-3.94464,1.32066,2.16741,2.82733,5.21542,2.20043,7.3692,21.6408,8.59166,-259.616,-838.384,-505.568,-65940,6860,-140
14.7284,18.6953,8.439,19.7767,13.7942,5.51972,27.418,-2.07568,21.7011,10.4415,4.32735,10.115,2.67713,8.18411,33.8777,15.1675,-256.2,-839.36,-510.936,-67060,7420,-1400
15.8376,19.6203,3.89275,12.9741,7.06274,4.20116,18.2885,2.38102,25.7955,8.25034,2.86797,8.14397,-0.0554918,4.44574,20.1862,10.7173,-258.64,-838.872,-512.888,-68740,8960,-3920
-0.588457,4.4234,-1.03202,6.85653,4.88064,3.32284,18.659,8.02802,2.93383,-3.02674,-1.44644,1.07223,-1.84449,2.1281,18.7753,12.3767,-256.2,-836.432,-519.72,-69720,9660,-6160
-6.60448,-7.23385,-5.35684,-0.966013,0.465732,-0.137009,16.1693,5.60691,-7.92692,-6.87352,-3.33427,-7.088,-3.34689,-1.06861,19.4016,11.8213,-253.76,-834.968,-523.136,-70560,10080,-7700
-6.9437,-9.90181,-7.70494,-0.99113,-2.07984,-1.77297,9.6396,-1.12657,-14.1521,-7.36186,-2.20475,-8.4009,-1.84987,-2.3903,18.6042,5.70004,-253.76,-835.456,-525.088,-71260,10780,-9380
-0.516009,1.09014,-2.34223,13.5483,5.349,-0.417652,9.78713,-3.57792,-6.2168,-5.29037,-2.61123,-0.322844,0.475373,0.894977,22.2057,4.29191,-251.808,-834.48,-527.528,-70980,10780,-10640
18.5886,23.5831,2.35875,27.5931,14.51,2.55538,9.4955,-4.19241,23.1839,5.16723,1.30483,14.6069,3.84811,6.83323,24.7725,2.48963,-252.784,-831.552,-533.872,-70000,10780,-12320
22.4716,32.6957,2.76525,28.5621,17.1552,1.82743,1.57033,-2.50198,31.3324,11.0714,2.15428,18.2827,3.75419,4.74479,15.1078,-3.74984,-251.32,-832.04,-538.264,-68600,11200,-14000
18.282,27.1534,2.15975,19.628,10.0291,0.335516,-7.34241,-0.639613,26.1042,11.2845,5.01777,15.2325,3.34587,1.32282,-0.640547,-9.22941,-247.904,-831.552,-539.728,-67060,11200,-14840
7.93798,18.9926,3.10436,17.0873,11.4818,1.15885,-8.9413,-0.627569,9.99959,6.29259,4.61911,12.6837,5.09953,3.82373,-4.8774,-8.99696,-242.536,-829.6,-544.608,-65240,11900,-15960
-4.4664,-3.66901,-0.36289,-15.0849,-3.90769,-4.34793,-29.1922,-8.28969,-9.83449,2.23353,1.94649,-1.58655,1.41236,-4.76866,-35.3519,-18.3775,-242.048,-824.232,-546.56,-63840,12740,-17220
-5.16737,-19.7108,-3.78794,-44.1865,-18.4675,-7.1705,-44.4938,-11.7394,-9.31545,2.65067,2.31313,-9.69464,-0.424492,-9.96512,-59.3882,-24.9534,-238.632,-822.768,-548.512,-61460,13440,-18760
-6.11666,-14.5275,-2.66748,-26.696,-4.81452,-2.93195,-19.8235,3.16609,-5.1593,-1.88848,-5.03811,-6.47409,-1.99485,-3.62398,-25.1261,-6.65672,-235.704,-819.352,-549.488,-59360,13440,-19320
-14.1293,-18.0695,-5.61151,-12.6764,-0.212215,-0.792611,-1.42159,9.44135,-14.7029,-9.80885,-8.35832,-8.48297,-6.03705,-0.672811,2.51033,5.24159,-235.216,-813.496,-551.44,-56420,13860,-20300
-18.7932,-28.9148,-10.7847,-16.9666,-7.46028,-4.01878,-1.4953,9.48603,-24.1127,-12.7329,-6.9191,-16.4763,-8.12453,-5.3366,1.41992,6.79487,-234.728,-811.544,-552.904,-53900,13440,-20860
-3.21769,-15.1667,-2.71915,-6.81383,-5.42388,-1.70641,1.00917,9.54704,-6.6926,-2.10431,0.567846,-9.83896,-3.74578,-2.74189,5.61584,9.70602,-227.896,-813.984,-554.368,-51800,12880,-21000
3.24863,0.550153,4.88753,9.76133,-0.672912,3.32272,5.47471,6.22768,3.03353,0.747289,3.78769,0.514717,0.774903,2.78091,10.0169,12.0505,-227.408,-810.568,-552.904,-49700,12740,-21560
-10.4189,-0.423894,4.31478,16.0528,1.74415,3.7995,8.57901,3.82085,-17.6902,-6.68435,-0.995145,-0.421873,0.968556,3.65308,9.9982,12.5738,-229.848,-808.616,-548.024,-48020,12600,-22120
-16.7027,0.570084,1.49877,18.0254,2.953,3.21847,10.1419,0.667317,-26.2297,-9.80061,-2.75085,-1.16585,1.11064,3.35114,12.9769,10.3819,-223.992,-812.032,-551.928,-46340,11760,-22400
-15.6168,-1.5316,-0.00884799,10.3908,-0.999336,3.31264,1.07251,-2.26472,-26.1021,-9.34234,-2.58048,-2.80126,1.29753,2.39424,-0.603672,1.58069,-223.016,-813.008,-552.904,-44520,10780,-22400
-11.9047,2.20011,1.98843,9.89738,1.40775,4.84837,4.00859,1.38186,-20.3787,-7.04358,-4.87876,-1.86719,1.75152,2.93044,3.07594,2.57288,-221.552,-812.52,-552.416,-43400,10220,-22540
10.7008,14.5419,2.27158,14.6306,1.06251,2.03809,8.29979,-1.52745,16.1337,3.83873,1.42594,4.66083,3.81327,1.5706,10.364,2.0153,-220.576,-811.544,-552.416,-41580,9100,-22260
46.0155,49.856,18.7082,28.1587,14.7,4.42913,7.20701,-3.36589,64.3353,29.8005,14.5935,29.4481,13.0315,8.1614,2.22309,-0.478537,-222.528,-813.984,-549,-40460,8820,-22120
31.4126,22.3121,11.0676,-6.94194,-3.49969,-0.0385291,-14.5534,-10.0259,42.9973,23.1961,12.5066,15.0715,9.33707,0.163761,-33.9709,-13.0782,-217.16,-814.472,-549.976,-38500,7560,-21980
-7.97789,-24.8849,-7.51815,-39.4147,-23.5962,-6.75739,-24.935,-8.28999,-14.5029,0.0955425,0.94446,-15.9132,-2.47346,-12.1403,-47.1205,-17.2549,-221.552,-813.984,-549,-37240,7420,-22400
-19.1231,-37.9413,-13.2176,-40.2794,-25.3456,-7.91281,-19.2326,-8.80971,-29.9793,-8.60408,-3.67699,-22.6038,-7.4594,-14.2446,-30.4512,-15.5996,-218.136,-807.64,-549.976,-36680,7000,-22680
-5.35455,-16.6484,-7.00332,-14.7785,-8.77576,-3.81799,0.234383,-8.29044,-8.04775,-6.60279,-4.20741,-8.1051,-5.07426,-6.46389,1.91915,-5.11935,-216.184,-805.2,-548.512,-36400,6020,-22820
-1.80978,3.40969,-1.80438,11.2102,10.7477,1.55353,24.1244,2.48259,1.36399,-6.29564,-8.07311,3.8277,-4.44854,3.38525,32.6289,9.81365,-221.064,-803.736,-545.584,-35980,5880,-23100
-4.93068,-4.32231,-4.6604,1.38065,5.42707,-0.779965,18.1176,4.15164,-2.23185,-5.34956,-5.8122,0.05369,-6.23879,1.85279,20.1776,7.77261,-216.672,-807.64,-546.56,-35980,6720,-23940
-11.24,-16.7884,-7.2873,-12.7336,-4.09003,-2.44758,3.63585,1.72846,-11.741,-7.2437,-2.84543,-8.4532,-5.93028,-2.12724,-2.49255,-1.06163,-218.624,-811.544,-548.512,-35140,7980,-24920
-9.9776,-17.4757,-5.77401,-12.9969,-2.93906,-2.22427,4.00691,4.08566,-9.26999,-5.75732,-2.71654,-10.8514,-6.24313,-2.23513,1.12656,-3.24445,-222.528,-797.392,-557.296,-33880,9800,-26320
8.48975,5.03332,1.12003,7.35164,7.05529,1.09387,13.3016,4.56324,16.8097,5.69649,3.26531,3.96246,-1.4388,3.70533,20.4595,0.327798,-223.504,-785.68,-572.424,-32340,10080,-27720
29.4204,40.2625,15.5789,39.0927,30.5556,7.28195,27.681,9.89609,45.0417,19.0256,7.57571,29.518,6.55556,14.0776,44.3502,11.9517,-224.968,-775.432,-570.472,-30800,8120,-28140
40.6311,60.4303,22.6252,56.8898,41.615,8.81052,35.7026,11.1198,60.3669,21.996,9.09029,42.295,11.2616,18.4583,58.332,17.4139,-223.016,-772.992,-572.424,-29260,6720,-28420
22.0758,42.2904,13.5923,46.1753,28.9419,6.28247,27.3457,8.40913,34.8814,12.1033,4.34275,26.8631,7.48093,13.2841,49.2743,10.874,-216.184,-771.04,-575.84,-27440,7420,-28700
-9.75514,-5.37073,-1.38273,-3.22884,-1.43155,-1.71988,-3.80708,4.89149,-14.2792,-2.28068,-1.79785,-5.27794,-0.651929,-2.22656,-1.54481,-0.668502,-208.864,-765.184,-577.792,-26460,8400,-28840
-28.9397,-49.8732,-17.1889,-48.5339,-32.8938,-9.9967,-35.5504,-2.81913,-42.6053,-14.8272,-3.46292,-34.1807,-7.00589,-16.9864,-49.0084,-14.3241,-204.472,-761.768,-573.888,-24640,7700,-29120
-2.45198,-13.8062,-3.6234,-16.4619,-9.94676,-3.02752,-16.0716,0.414047,-4.17276,0.414944,3.48654,-9.22307,-0.290049,-4.2144,-19.8991,-3.12907,-203.984,-764.208,-576.328,-22960,6720,-28980
7.57914,7.15308,4.71615,-2.20857,1.25826,0.804681,-6.0997,-2.12972,10.3082,6.74595,7.92654,5.28711,5.13638,2.3799,-8.21138,-0.838203,-199.104,-760.304,-578.28,-21420,5880,-28140
-22.6614,-17.877,-5.93315,-20.954,-13.375,-3.8184,-17.661,-4.95758,-33.0851,-13.7613,-5.0393,-13.4214,-1.26125,-6.50219,-25.6325,-8.06837,-198.616,-757.376,-578.28,-20160,5740,-27440
-40.4859,-35.0447,-10.0635,-30.0032,-21.8154,-6.16724,-25.6797,-10.0983,-61.668,-25.2472,-12.7636,-23.6779,-4.62317,-9.19632,-37.2596,-14.2462,-194.712,-756.4,-581.696,-19040,5180,-26740
-32.4927,-37.6942,-12.6139,-38.4762,-29.2468,-6.88139,-34.0677,-17.4613,-50.9027,-20.6377,-10.0652,-26.2477,-4.93242,-13.6668,-48.3822,-20.4899,-194.712,-753.96,-587.064,-17220,3920,-25620
-25.7761,-41.3879,-13.4056,-54.2894,-35.9069,-6.41982,-41.6243,-17.1115,-44.2141,-13.7599,-6.30642,-29.0625,-4.80399,-16.9179,-67.6769,-20.4132,-194.224,-753.96,-587.064,-15540,2940,-24500
-17.5651,-22.8385,-8.01247,-19.4836,-13.5436,1.75211,-6.18663,-1.12543,-28.0356,-10.8506,-6.1838,-16.7557,-3.52501,-2.53324,-18.2263,4.11157,-193.248,-748.592,-592.92,-13580,1680,-22960
26.6876,46.4167,13.0511,66.9693,38.1171,16.1497,53.6837,14.3362,41.7739,10.634,1.97377,29.4795,7.55214,22.9691,79.4678,36.3053,-192.76,-752.496,-591.944,-10640,560,-21560
51.6079,72.8703,22.5783,78.3455,44.2992,14.7501,46.2186,8.34297,77.3294,28.3368,12.443,46.3434,13.8149,23.13,76.0627,27.1379,-188.856,-751.52,-593.896,-8680,-280,-20440
43.0956,43.3194,14.3374,27.5152,12.2455,5.07342,-1.8892,-5.87369,57.6008,26.0417,14.1841,29.5173,10.6886,7.63986,4.44523,-1.33439,-191.784,-756.4,-590.48,-5880,-1260,-19040
8.60997,11.3052,5.07943,7.60057,5.24178,2.72244,-5.39729,3.00023,7.67924,6.53201,1.47992,9.1387,2.01703,1.90471,-7.62895,3.31793,-193.248,-755.912,-589.016,-3500,-1960,-18060
-12.0865,-17.3424,-10.8655,-12.5428,-10.0732,-3.22172,-13.1976,1.27533,-14.9386,-12.2549,-6.72983,-12.2767,-9.00761,-6.97753,-16.0577,-1.73772,-190.808,-762.744,-582.184,-700,-2800,-16520
-21.917,-40.5101,-20.1718,-37.5196,-25.8357,-11.0662,-29.1615,-4.67575,-30.8434,-17.1829,-7.88894,-29.5906,-13.2141,-16.7615,-39.1744,-14.2377,-188.856,-771.04,-579.256,2240,-3360,-15260
-14.1957,-26.549,-11.2465,-23.4064,-13.2561,-8.162,-12.0223,0.425337,-16.8002,-9.92368,-5.68459,-20.0546,-9.60868,-8.9637,-18.4131,-6.21444,-191.296,-774.944,-579.744,4480,-3920,-14560
11.9036,7.8266,4.43944,4.20634,8.24178,0.121973,7.97305,4.91393,22.8425,7.06466,2.54178,6.87667,0.457974,2.72943,8.75256,3.80763,-191.296,-785.68,-576.816,7280,-4760,-13580
22.0324,28.9756,12.4591,31.647,24.5676,4.70654,27.4814,9.66913,35.2877,13.7986,4.79592,20.3248,6.40182,10.7978,42.0637,14.5311,-191.784,-788.12,-571.936,9100,-4900,-12740
27.0226,38.5622,15.7434,40.0077,27.8194,6.32069,27.7365,6.69768,39.0609,17.9319,8.48769,24.4418,8.68927,13.1017,45.9143,12.9275,-193.248,-791.536,-564.616,11340,-5460,-11760
12.5942,26.2408,10.3681,25.1109,18.1599,4.42854,18.1517,4.52147,15.4543,9.80646,5.08784,15.1629,5.56006,7.56843,27.8425,7.10078,-189.344,-790.56,-563.64,13440,-5740,-10920
-0.124668,6.84543,1.78563,6.20094,4.04205,0.645656,5.63935,-1.22887,-2.46757,1.83704,0.688946,1.85923,0.415635,1.30589,10.7365,-1.01566,-193.248,-796.416,-559.248,14280,-6300,-10500
-5.78036,-2.07064,-1.58438,-1.8105,-4.60784,-1.389,-3.47551,-5.60414,-9.1595,-2.61122,-0.428426,-2.75435,-1.728,-2.95863,-3.7192,-6.54633,-192.76,-799.832,-555.344,14980,-6580,-9800
-22.614,-18.4136,-4.89741,-17.2267,-10.1889,-2.37384,-9.82041,-4.95832,-31.4361,-10.8447,-3.68403,-10.5481,-3.34279,-5.61561,-23.386,-8.33008,-191.784,-801.296,-550.952,14840,-6720,-9660
-33.5062,-40.9457,-16.3162,-49.3658,-29.7766,-7.62654,-27.9502,-11.9951,-43.2713,-16.8053,-4.85918,-25.5569,-6.81484,-15.0356,-52.3165,-21.3921,-187.88,-804.224,-547.536,14280,-7000,-9800
-14.3338,-29.8664,-11.9588,-41.6766,-27.0209,-8.32005,-21.8139,-9.04972,-20.8299,-5.28722,1.4674,-16.7236,-3.93244,-12.6726,-39.2243,-18.4665,-188.856,-806.176,-547.048,13860,-7420,-9660
-10.3539,-31.2709,-11.1492,-34.5668,-23.5879,-8.84576,-18.3154,-4.54963,-18.818,-2.79983,0.683747,-17.0135,-6.22443,-12.0294,-29.9261,-15.3345,-189.344,-801.784,-544.608,13020,-7420,-9660
-20.2993,-44.4372,-14.8195,-42.252,-29.9999,-9.28043,-25.0381,-5.76812,-33.6002,-12.1263,-5.42616,-24.993,-10.1678,-14.4714,-36.7861,-17.7335,-187.88,-807.64,-546.072,11760,-7980,-9380
-21.3837,-37.1349,-10.9821,-24.114,-17.2624,-6.3394,-6.04883,4.66632,-33.007,-13.8885,-7.89967,-19.9671,-9.1545,-8.59299,-9.13472,-2.51024,-186.416,-809.104,-542.168,11060,-7980,-9100
11.9443,10.5368,7.17145,23.3948,12.3781,2.98935,20.7357,8.72406,16.1906,3.82527,0.838304,11.7652,2.01284,8.3217,35.2651,13.6018,-183.488,-812.032,-543.632,9660,-7980,-8680
29.4513,53.5303,27.5498,65.9944,45.6794,15.8574,47.365,17.6592,39.4547,16.7084,5.89763,41.2082,15.2102,25.8836,70.9988,33.4653,-182.024,-810.08,-543.632,8260,-8120,-8120
15.4861,51.0138,24.6973,69.9512,48.6571,17.8987,52.9855,21.6112,23.402,8.91007,0.724128,36.9271,15.179,26.1233,75.5525,38.4328,-185.928,-812.52,-539.24,7560,-8120,-7840
21.0064,48.3327,19.7368,52.6427,36.6974,13.2603,32.9625,15.9783,32.44,11.8538,3.88167,30.6073,13.6673,20.6752,50.7577,26.3023,-182.024,-811.544,-538.752,6440,-8260,-7420
27.8913,40.7084,15.189,31.249,23.7554,7.04049,11.9297,12.21,36.4058,16.1041,6.37843,22.1756,10.9094,13.7981,22.0919,13.65,-181.048,-814.96,-536.312,5600,-7980,-6860
19.6605,13.7751,2.90775,-8.43623,-1.68911,-0.485239,-17.1712,-1.99869,21.5318,10.8487,6.75605,2.85489,4.5558,-0.32218,-25.3896,-10.3667,-182.512,-811.056,-537.288,4620,-7840,-6580
13.5276,-6.74422,-4.029,-40.0421,-21.6266,-5.13769,-33.0133,-13.7076,13.6495,8.91946,8.14076,-8.39513,0.63683,-9.28798,-54.185,-24.5523,-181.048,-809.592,-539.728,3640,-7280,-6300
16.5398,1.43985,2.7604,-18.8302,-6.30145,-0.145403,-12.8502,-11.1938,19.3651,12.2709,7.69538,1.91758,3.03601,-1.58083,-23.3902,-10.2891,-183,-807.152,-538.264,2800,-6860,-6300
-6.53519,-14.4443,-6.06045,-12.393,-7.61682,-0.200502,-3.62528,-7.16831,-5.42265,-4.55165,-1.01012,-10.2321,-3.43042,-2.78113,-7.62924,-2.40603,-183.488,-807.152,-538.264,1960,-6720,-6020
-21.1162,-23.3982,-12.9735,-11.4741,-10.5155,-3.11617,-2.59866,-3.46457,-22.1806,-13.609,-7.51114,-18.8761,-9.60592,-6.96191,-5.11717,0.832064,-183.976,-811.544,-537.288,1260,-6160,-5880
-12.254,-13.2669,-10.1163,-2.97808,-7.46798,-3.4209,-4.11328,-9.80844,-10.3812,-8.55139,-4.95909,-12.142,-8.61698,-5.93871,-1.48523,-4.45328,-186.904,-810.568,-535.824,280,-5740,-5740
-10.0834,0.087849,-4.39483,12.3097,2.77613,0.462675,4.68463,-4.24577,-7.79685,-8.31718,-6.89464,-3.04588,-6.18051,-1.11316,11.8066,1.31631,-187.88,-813.008,-532.896,-700,-5740,-5740
-17.6364,-8.08929,-7.00855,1.01696,-3.62293,-1.48826,-5.06502,-4.69365,-16.5861,-13.7195,-9.50615,-7.08204,-6.26962,-4.96911,-4.19123,-1.68941,-188.856,-813.496,-530.456,-1400,-5740,-5460
-11.3394,-14.3732,-10.0126,-20.627,-17.3077,-6.65418,-23.2948,-12.0897,-8.59275,-8.05846,-4.61698,-11.5759,-3.54225,-11.8279,-28.0344,-12.3821,-188.856,-813.496,-530.456,-2240,-6020,-5320
-14.7534,-14.3985,-10.3138,-20.8431,-15.5313,-5.82587,-17.4798,-6.85903,-17.0739,-6.66165,-6.13964,-12.965,-2.74469,-11.5191,-21.939,-10.4768,-188.368,-816.424,-528.504,-3220,-6300,-5180
-28.3796,-25.5839,-16.4847,-21.952,-18.3515,-6.12772,-12.9756,-5.25417,-36.201,-16.6618,-11.896,-20.5302,-7.50277,-11.2942,-18.1165,-12.2984,-187.392,-815.936,-529.48,-4200,-6720,-4900
-15.4791,-13.7596,-11.3391,-12.97,-12.8513,-5.34122,-11.0794,-6.69688,-19.908,-11.4984,-7.39607,-11.8543,-5.98772,-8.67112,-14.1408,-11.0782,-189.832,-820.816,-525.088,-4900,-7280,-4620
6.52402,1.83747,0.830767,-10.1909,-7.08523,-4.96096,-16.4161,-9.42366,5.63259,2.74964,1.50787,1.34845,-0.219388,-5.29114,-20.1642,-13.8945,-189.344,-819.84,-529.48,-6440,-7840,-4340
-15.8048,-17.3345,-5.85326,-17.6441,-11.2082,-5.65525,-13.8993,-5.57949,-24.951,-12.5024,-5.23283,-9.60442,-3.39123,-5.24052,-18.691,-13.5709,-189.344,-821.792,-524.6,-7560,-7980,-4060
-26.5883,-27.2091,-8.83854,-16.5456,-10.3656,-5.44677,-5.97407,1.49921,-38.4687,-19.1453,-8.22237,-16.3696,-6.24766,-5.37732,-9.14742,-7.72508,-190.808,-823.256,-523.624,-8820,-7840,-3920
2.00269,-3.15971,1.01083,3.35441,-0.388624,-1.42895,5.83616,4.35354,1.51192,-0.112462,3.7099,0.820172,-0.801881,0.41897,9.42805,0.762967,-188.368,-821.792,-523.624,-9800,-7980,-3780
5.74521,1.04908,4.24661,9.50512,4.10724,-0.507769,9.71398,5.76339,5.65259,6.11013,7.98779,4.48634,1.88914,2.18231,15.0238,5.33009,-188.368,-821.304,-528.992,-10640,-7840,-3500
15.3563,4.83207,10.0113,5.11319,6.16164,1.37033,4.5485,7.31663,15.8514,15.193,13.1184,10.1159,5.64391,4.6384,5.19123,4.36727,-187.392,-818.376,-525.088,-11900,-7840,-3360
33.4919,26.276,19.4017,23.5964,19.7334,8.96446,19.8162,14.5531,39.2159,24.1843,15.6857,26.2626,11.9063,15.7739,23.0084,16.6142,-187.88,-816.912,-525.576,-13020,-7560,-3220
29.9195,35.805,20.015,40.9114,32.3157,13.241,36.8221,23.3695,35.6744,22.1454,9.2385,29.0482,11.4268,20.3758,47.3257,32.1075,-184.464,-815.936,-529.48,-14140,-7000,-3220
12.2501,20.8813,12.3937,33.6961,24.4182,10.972,36.4794,22.0586,15.4928,7.52192,1.98024,15.0934,4.88607,16.5537,47.5015,31.8846,-187.392,-812.52,-527.528,-15400,-6300,-2940
20.4952,18.7372,12.8633,16.9656,15.7532,6.69685,18.0262,12.4219,23.5029,13.7477,7.9882,12.7913,5.27821,9.5858,19.9377,20.1481,-187.88,-809.104,-531.432,-16660,-6300,-2800
27.884,18.7688,13.7668,6.75229,9.11057,5.12262,3.46492,3.02277,26.1765,19.6511,12.3255,14.6658,6.46744,6.21438,-0.585443,7.27765,-190.32,-808.616,-531.92,-17780,-5880,-2940
10.0229,14.178,9.64388,16.6863,13.6494,6.00936,12.2902,1.57829,4.19102,6.79356,4.43824,11.0296,5.09411,9.02694,14.1609,8.59012,-190.32,-808.616,-531.92,-19040,-5460,-2800
4.9071,7.55567,4.73232,5.3288,6.0996,2.9701,2.35829,-1.78585,2.84074,3.94995,1.90374,4.48566,1.60356,1.97377,3.07188,0.296298,-188.856,-804.224,-531.432,-19880,-5460,-2940
-5.58037,5.77047,0.165657,8.60373,4.80871,2.82336,8.25033,0.384857,-2.81737,-4.24838,-5.07834,1.05567,-1.10187,2.28149,10.3763,1.78628,-187.392,-804.712,-535.336,-21280,-5180,-2940
-23.536,-8.38097,-8.34001,0.721836,-2.25048,-0.239416,2.67225,-2.49008,-22.773,-16.2378,-10.4113,-8.69727,-4.47876,-0.500554,2.07822,-2.15996,-188.856,-803.736,-533.872,-21980,-5040,-3080
-23.6608,-20.9943,-11.3064,-22.6115,-14.8193,-6.3452,-18.4254,-9.45572,-24.372,-15.3439,-8.11985,-18.64,-5.89186,-7.74293,-26.6761,-14.5488,-187.392,-802.76,-538.264,-22960,-4900,-3080
-9.98857,-12.5196,-9.758,-19.1785,-12.2799,-5.14119,-16.4441,-12.408,-6.67496,-5.96615,-4.24274,-13.4117,-3.60693,-8.21644,-23.8617,-13.4774,-183.976,-801.296,-538.752,-23660,-4760,-3080
0.765925,-6.64495,-9.71419,-20.2773,-14.0439,-5.70482,-21.775,-14.7898,5.3464,1.09532,-1.11354,-9.83574,-3.16502,-12.4107,-28.8371,-16.9658,-181.536,-799.832,-540.704,-24360,-4620,-2940
5.52013,2.12181,-8.85198,-11.6099,-10.1083,-4.88527,-17.7654,-13.2942,11.6564,1.87332,-0.847783,-4.09517,-2.0024,-8.79182,-20.6069,-14.9747,-180.56,-799.832,-544.608,-24920,-4900,-2660
4.2965,2.30423,-7.99334,-11.4694,-6.00526,-3.04559,-15.4811,-7.17146,8.74722,0.587587,-2.40614,-0.955987,-0.169701,-6.26545,-17.8459,-9.95476,-179.584,-795.928,-548.024,-25060,-4620,-2240
8.23394,5.38184,-2.57005,-5.65467,-1.20542,-0.636016,-8.99062,-5.07984,12.3257,5.10889,-0.230451,3.90766,3.2649,-2.28865,-7.73716,-6.97766,-175.192,-796.904,-556.808,-24640,-4760,-2100
6.32887,9.05488,0.0250306,4.61043,2.9106,1.25244,1.57037,0.728601,9.97514,2.37022,-1.32159,6.30168,0.853149,1.12691,8.17714,-1.49506,-176.656,-793.488,-553.392,-23800,-4760,-1680
1.41506,5.12292,-0.859858,1.1594,-0.435852,-1.2268,-1.72338,2.86667,3.06731,-0.901561,-2.25115,2.85497,-2.03058,-1.73566,6.21711,-2.71899,-174.704,-795.928,-563.152,-22820,-4620,-1120
-14.4784,-11.5001,-4.45093,-5.84891,-5.23036,-1.48477,1.04805,4.4339,-18.9082,-10.1265,-6.1171,-7.95222,-4.21301,-3.47344,5.9571,-1.65239,-174.216,-793.488,-561.2,-21280,-4340,-420
-26.1523,-21.2453,-6.35004,-5.79835,-6.38112,-0.929014,6.13827,7.25075,-33.0569,-20.1444,-9.92507,-13.4939,-5.07639,-2.53524,8.44825,3.33506,-173.24,-797.392,-571.448,-20300,-3920,420
-6.79388,-6.48868,2.6802,7.41721,0.781923,-0.989258,11.1352,5.82424,-8.90536,-7.82366,-1.48529,-0.881184,0.202239,2.08542,15.1459,6.75241,-173.24,-794.464,-568.52,-18900,-3780,980
0.960079,3.84609,7.16092,16.412,6.2249,1.19534,15.9005,4.33901,2.4122,-1.4312,1.36357,6.78942,3.45866,6.23326,20.8933,11.4622,-172.264,-794.952,-571.448,-17500,-3640,2240
9.02149,7.88625,12.6608,8.21146,3.53045,0.863808,1.99943,-0.0107429,8.96437,7.95772,6.54989,9.23186,5.93022,5.03467,0.837392,5.46494,-173.728,-793.488,-575.352,-16240,-2940,3080
1.7542,-6.22739,4.04097,-9.44995,-9.75013,-3.72874,-15.4044,-7.42022,0.771087,4.49229,6.34115,-1.29066,0.610404,-2.37921,-22.0352,-7.25134,-172.264,-793,-574.376,-14840,-2520,4620
-5.28891,-13.6861,-3.5411,-14.0892,-13.1338,-5.08507,-16.9478,-9.93764,-6.0715,-1.89134,2.17011,-7.50021,-3.77586,-4.79379,-24.029,-10.1478,-174.704,-793,-567.544,-13720,-2520,5880
-15.3772,-21.2774,-7.47447,-14.6452,-10.5536,-4.33299,-8.12546,-3.38931,-20.4446,-8.78178,-3.39428,-12.293,-6.95621,-4.72998,-15.5894,-0.953889,-175.68,-793,-557.784,-13160,-1820,6720
-26.6394,-24.6989,-11.9516,-11.3992,-8.76012,-3.6943,-2.67516,-1.59195,-34.1952,-17.1355,-7.84042,-17.3195,-9.38304,-5.73809,-8.92017,2.82354,-178.12,-792.512,-556.32,-13720,-1540,7700
-12.7743,-11.6959,-7.02249,-3.83228,-3.33788,-2.02757,-2.69344,-1.38466,-19.8174,-6.70555,-2.26287,-10.9397,-4.48008,-3.91696,-5.52897,0.304418,-179.584,-794.952,-557.296,-14140,-1680,8120
-11.4338,-10.1172,-5.54301,-2.61062,-4.07741,0.104617,0.934462,-0.075233,-19.5958,-4.68364,-2.22967,-9.75971,-2.91926,0.17075,0.157043,-0.958182,-180.56,-794.464,-554.368,-15120,-2520,8820
-4.83011,-7.10027,-3.99096,-5.61267,-3.98524,0.10351,-0.192431,3.04786,-8.84204,-1.06448,-0.233601,-7.88835,-1.42107,-0.21379,-2.26363,-1.07189,-181.536,-791.048,-562.176,-15540,-3640,9240
28.4267,15.6884,6.31484,-1.10805,1.73485,2.01791,-4.63799,-1.29515,36.6738,18.9318,11.021,10.5157,5.84861,1.54486,-5.58918,-3.43847,-181.048,-787.144,-565.104,-15400,-5460,10360
29.3891,20.9931,8.93683,4.64215,6.25237,2.95708,-1.10151,-2.14784,36.8837,18.1665,10.1168,14.1546,5.90744,1.64028,-0.289005,-1.95895,-180.072,-791.536,-565.104,-15540,-6020,10920
14.6551,10.3626,5.70727,0.726905,6.57501,3.55832,1.28318,1.77812,14.0214,10.2939,4.26166,7.07637,2.9936,0.143686,0.896101,0.36878,-186.416,-779.824,-558.76,-14420,-7140,11620
0.0516823,9.0893,4.16603,12.0335,15.3167,8.43167,10.9888,6.33431,-4.89444,0.70062,-2.29043,6.97364,3.04284,5.65712,13.6126,6.55442,-189.344,-767.624,-549.488,-8680,-10080,12740
-2.73501,11.0229,1.32127,23.4871,19.3464,8.72313,17.0796,7.4867,-2.85934,-3.01766,-4.23764,7.83761,2.89223,7.51331,27.0441,10.9599,-187.88,-800.32,-561.688,-3780,-13440,14420
24.8904,30.4714,10.9315,28.0692,22.9435,6.81025,17.2802,8.38157,36.519,14.698,3.94877,21.2501,6.84439,8.76177,27.2304,10.0864,-191.296,-791.048,-568.032,-6160,-11340,14280
28.0373,36.0438,14.5549,30.7277,22.5929,5.34453,18.5578,8.10934,41.0339,17.7633,6.01557,27.2788,8.85685,11.2726,26.5491,9.10133,-187.392,-808.616,-572.912,-8680,-10640,14420
15.6102,28.0261,14.3988,26.3672,23.6575,7.24298,19.6019,10.139,19.4954,11.5145,3.84184,22.4071,8.71771,13.8064,22.7788,10.8444,-193.736,-794.464,-572.424,-8960,-10080,14000
-0.113481,5.29231,3.39557,8.88543,9.06416,3.60887,15.666,6.78687,-0.514768,0.782199,-1.25267,5.11955,1.98074,7.34185,14.2604,6.35526,-196.176,-787.632,-571.448,-6580,-11060,14560
8.80984,0.357275,-2.11528,-12.2263,-8.17003,-3.70461,-3.52529,-1.47368,12.6568,5.47127,1.26909,-1.6886,-1.44454,-2.49635,-9.0411,-5.5952,-191.784,-795.928,-576.328,-3220,-11620,15120
-4.70672,-11.8529,-8.73669,-23.1889,-17.475,-7.44191,-13.7399,-3.09851,-8.26961,-5.55615,-3.26143,-10.6387,-5.22814,-8.15076,-19.8873,-9.24601,-192.76,-832.04,-600.24,-2520,-10360,14700
-28.687,-33.7906,-17.7475,-30.1507,-25.0633,-10.0918,-16.1116,-4.35363,-38.9789,-21.9372,-9.21029,-23.346,-8.91279,-13.456,-20.6455,-9.1214,-200.08,-819.352,-606.096,-9380,-4900,12460
-16.1244,-22.7079,-11.7573,-23.2473,-17.5489,-8.03038,-16.3446,-4.48791,-21.1483,-12.758,-4.34995,-15.9681,-3.92058,-10.7052,-19.5441,-8.0857,-202.52,-812.52,-605.608,-11060,-3780,12040
-4.23126,-4.87211,-0.999424,-5.32761,-3.46352,-1.62745,-9.09564,-4.78637,-4.66845,-3.89646,1.55481,-0.0430131,2.31288,-0.348479,-7.96555,-4.09478,-197.64,-809.592,-610.488,-6020,-4200,12740
-10.979,-8.24139,0.00941134,-1.91543,1.32496,1.45394,-6.6772,-3.22397,-12.3462,-6.04964,0.197854,-2.05083,1.0975,0.373042,-5.93288,-1.08646,-207.4,-809.592,-600.728,-2800,-2520,12320
-17.4871,-14.9216,-3.31107,-4.78144,-2.14884,0.240345,-5.26096,-2.82581,-24.3175,-6.97063,-2.3196,-9.86942,-2.61245,-3.33748,-4.73757,0.312064,-209.84,-799.344,-589.016,1680,-3220,12180
-19.5282,-16.1401,-8.54754,-5.6446,-9.30258,-2.55408,-2.69479,-3.84925,-23.4945,-9.21926,-3.48643,-14.7219,-6.69129,-6.04516,0.717276,0.415653,-214.72,-793,-584.624,5740,-4200,12600
-10.6065,-5.63496,-3.78739,0.546055,-6.41751,-1.91497,2.11892,0.115509,-9.96005,-3.27606,-2.24913,-7.80252,-4.57073,-3.02904,5.59246,3.44281,-214.72,-802.76,-575.352,8540,-4760,12740
-6.00334,-3.38631,0.470205,1.73717,-6.03778,-0.648213,4.8078,2.34043,-4.37364,-2.62456,-2.70955,-5.02559,-2.53939,0.0212392,4.43383,3.97258,-217.16,-801.296,-573.4,11200,-4760,11620
4.08696,-5.10018,1.48429,-13.422,-14.9205,-5.24559,-10.844,-4.47494,8.54407,0.994663,0.961425,-9.4292,-3.20107,-5.97181,-18.2014,-7.89083,-221.552,-803.248,-568.032,13160,-5460,11340
20.7075,2.09973,4.57697,-15.6239,-14.1813,-5.73428,-20.3184,-11.8197,28.8464,10.1141,7.66678,-3.22767,-0.0928644,-7.0049,-28.5637,-16.1097,-219.112,-811.056,-574.376,14980,-6720,11200
11.9189,6.4607,2.33739,5.20666,-1.97267,-2.0363,-1.72642,-6.55922,18.9303,3.04731,1.52632,2.28035,-2.19723,-0.825603,-1.29133,-5.37445,-224.968,-821.304,-574.376,13720,-4900,9660
-6.92152,1.5679,0.211102,10.3686,5.63154,0.37015,7.28134,-0.842373,-10.6677,-8.17928,-4.22192,0.306585,-3.4657,2.4198,8.40619,3.02294,-223.992,-825.696,-579.744,12600,-5180,8820
4.17287,1.21042,1.93543,0.337157,1.27723,-0.452694,-2.13198,-5.91814,3.09606,-0.150489,1.80681,2.03128,0.257285,-0.109026,-4.25678,-3.93068,-227.896,-821.792,-581.696,12460,-4060,7840
