-33071.819910,-22371.570453,-32225.024071,35084.393333,-31662.877698,-1171.969017,-17076.621005,-25561.276145,-14095.166516,-27744.102805,-15879.260406,-26605.683757,52359.833105,-7931.203596,-13933.429293,-9181.515477,9.272000,-986.247986,-328.424011,62020.000000,10360.000000,28000.000000
-32595.906567,-22227.848736,-32259.713979,34461.785491,-31281.847511,-1196.846509,-16700.083518,-25424.148193,-13641.560214,-28362.955554,-15441.345029,-26627.811984,52218.860652,-7987.507640,-13846.369248,-9999.902248,-38.063999,-917.440002,-373.808014,3220.000000,-4620.000000,11480.000000
-32559.205003,-22198.590302,-32234.814135,34479.309258,-31246.375292,-1158.468563,-16672.836742,-25382.663355,-13607.831431,-28336.468737,-15411.214878,-26600.744021,52250.264853,-7987.485288,-13836.981516,-9975.538847,-42.944000,-913.536011,-374.295990,3360.000000,-3920.000000,10920.000000
-32566.044636,-22213.744785,-32246.258229,34468.289848,-31258.467586,-1170.538505,-16685.532532,-25384.742067,-13618.895545,-28346.370559,-15418.143918,-26614.669158,52238.999574,-7999.912858,-13844.312888,-9987.631141,-47.824001,-915.976013,-371.368011,3780.000000,-3080.000000,10780.000000
-32598.097038,-22243.360846,-32275.226089,34447.972113,-31289.402400,-1208.290602,-16710.946466,-25406.087983,-13653.607804,-28373.237356,-15444.809549,-26642.631190,52204.332018,-8015.156748,-13849.967879,-10008.775891,-51.728001,-915.000000,-367.951996,4620.000000,-2940.000000,9940.000000
-32588.038753,-22233.861355,-32268.833490,34450.877839,-31279.746447,-1200.780416,-16701.089347,-25386.150227,-13644.912975,-28364.721342,-15437.299363,-26631.008283,52210.970487,-8020.007076,-13843.418818,-9997.465908,-49.288002,-916.463989,-363.071991,4900.000000,-2940.000000,9380.000000
-32543.491726,-22197.942102,-32240.133851,34471.061465,-31245.302408,-1162.022491,-16669.752201,-25338.831584,-13602.936399,-28332.020740,-15407.660950,-26599.469972,52243.156999,-8019.828262,-13831.840614,-9972.186085,-52.216000,-923.296021,-360.632019,4340.000000,-2100.000000,8260.000000
-32542.128270,-22201.384270,-32241.966694,34468.043979,-31245.615333,-1164.436479,-16671.741506,-25330.919067,-13606.378568,-28335.172336,-15412.444223,-26604.052079,52238.887815,-8024.365666,-13827.526728,-9974.823591,-47.336002,-921.832031,-356.239990,2800.000000,-2240.000000,7140.000000
-32575.521776,-22236.320047,-32272.700342,34445.245200,-31276.997182,-1202.188576,-16701.648140,-25357.718808,-13643.370705,-28368.096455,-15442.574375,-26636.417405,52203.661466,-8039.050763,-13828.934888,-9996.191859,-44.896000,-922.807983,-357.704010,1120.000000,-1540.000000,5740.000000
-32569.978544,-22233.414320,-32273.728523,34444.284075,-31274.046752,-1203.797901,-16701.804602,-25352.957887,-13640.219109,-28366.800054,-15438.171081,-26633.936362,52202.812100,-8048.751420,-13819.033065,-9991.989731,-41.480000,-926.223999,-362.584015,-280.000000,-840.000000,4620.000000
-32530.550066,-22198.053860,-32243.978351,34466.300543,-31236.853449,-1164.481183,-16669.327518,-25310.199000,-13606.490327,-28337.407510,-15405.761052,-26602.554512,52236.585586,-8049.980766,-13803.297437,-9964.765306,-37.088001,-926.712036,-362.096008,-1260.000000,-700.000000,3500.000000
-32522.034052,-22190.051936,-32238.412766,34471.933183,-31226.169315,-1157.954473,-16660.811503,-25297.950244,-13604.031635,-28334.099452,-15403.861154,-26598.151219,52241.167693,-8056.261606,-13797.508335,-9961.501951,-34.647999,-924.272034,-361.608002,-2240.000000,-700.000000,2380.000000
-32549.817270,-22218.930390,-32262.887926,34450.721377,-31255.986542,-1194.723093,-16688.505314,-25322.492459,-13631.814853,-28357.032342,-15428.626886,-26624.369815,52214.077379,-8071.594902,-13805.532611,-9986.178277,-35.136002,-926.712036,-359.167999,-3360.000000,-700.000000,1120.000000
-32554.846413,-22224.071291,-32268.229993,34445.803993,-31263.072045,-1203.194404,-16695.568466,-25322.268942,-13634.497063,-28360.653324,-15432.896070,-26628.259018,52210.992838,-8078.836868,-13804.146803,-9990.268647,-32.208000,-931.104004,-356.727997,-5040.000000,-420.000000,0.000000
-32522.771659,-22190.878950,-32241.519659,34467.552241,-31226.258722,-1165.576418,-16663.158436,-25282.549892,-13602.846992,-28333.607713,-15405.962218,-26598.777068,52242.620557,-8077.384004,-13788.075899,-9963.714774,-29.768000,-933.544006,-355.264008,-6160.000000,280.000000,-1260.000000
-32503.258586,-22178.809008,-32228.242723,34472.983715,-31211.305405,-1147.113877,-16649.948555,-25258.074732,-13584.943245,-28319.637873,-15393.534648,-26588.294099,52257.417411,-8079.261551,-13785.170172,-9954.997594,-27.328001,-928.664001,-356.727997,-6860.000000,1120.000000,-2240.000000
-32528.761927,-22204.982901,-32254.461319,34455.169374,-31240.228562,-1182.675503,-16672.993204,-25285.165046,-13609.574867,-28343.978923,-15421.675494,-26614.043309,52225.096789,-8093.052577,-13787.830029,-9977.818725,-30.743999,-925.736023,-361.608002,-7840.000000,2100.000000,-2380.000000
-32545.145755,-22219.779756,-32271.940383,34442.808860,-31254.645438,-1205.004895,-16688.482963,-25299.693680,-13625.265792,-28359.043999,-15434.907727,-26627.655521,52203.080321,-8110.196365,-13784.901951,-9990.648626,-30.256001,-921.832031,-359.656006,-8680.000000,2660.000000,-2380.000000
-32510.992290,-22184.598110,-32247.018188,34463.283058,-31216.870989,-1171.723148,-16657.905776,-25263.617964,-13591.939341,-28332.445423,-15406.141032,-26596.430134,52230.014173,-8108.229412,-13764.785381,-9962.597187,-34.647999,-917.440002,-360.632019,-9800.000000,3360.000000,-1820.000000
-32486.539481,-22161.017020,-32226.655749,34478.191671,-31188.819550,-1142.911749,-16633.296506,-25232.951371,-13572.202751,-28314.787545,-15384.862171,-26577.051172,52253.796429,-8104.161394,-13752.111942,-9944.335812,-38.063999,-918.903992,-359.656006,-11620.000000,4340.000000,-1400.000000
-32508.265377,-22185.983918,-32246.369987,34459.170337,-31215.038146,-1170.449098,-16657.034058,-25254.207880,-13598.488402,-28335.149984,-15404.196430,-26601.615739,52231.645850,-8115.270211,-13759.555073,-9968.922731,-41.480000,-914.023987,-357.704010,-13860.000000,5320.000000,-1260.000000
-32529.432479,-22209.922637,-32268.028828,34439.903133,-31241.100280,-1200.892174,-16680.413983,-25277.140770,-13619.655504,-28355.333609,-15424.380055,-26621.531143,52207.282449,-8129.128293,-13765.210064,-9989.575742,-43.920002,-915.976013,-360.632019,-16520.000000,6440.000000,-980.000000
-32505.449057,-22186.095677,-32249.253362,34455.057616,-31214.278187,-1178.361616,-16659.001012,-25250.698656,-13596.163821,-28336.446385,-15404.039968,-26598.352384,52228.136626,-8129.664735,-13753.341288,-9970.509704,-46.360001,-914.512024,-363.071991,-18340.000000,7000.000000,-980.000000
-32475.385961,-22159.832377,-32225.336996,34474.928316,-31181.778751,-1146.085697,-16632.894174,-25216.746356,-13569.408783,-28314.832248,-15381.934092,-26574.659535,52253.505856,-8121.528700,-13740.220814,-9948.381477,-46.848000,-911.583984,-363.071991,-20300.000000,7560.000000,-1260.000000
-32491.926252,-22180.686555,-32241.139679,34461.785491,-31201.001251,-1166.850468,-16652.295488,-25231.029121,-13588.653635,-28334.099452,-15401.670683,-26595.558416,52234.663336,-8123.316839,-13746.546357,-9968.028661,-46.360001,-914.023987,-362.096008,-22260.000000,8120.000000,-1960.000000
-32514.613273,-22208.246256,-32265.167804,34441.780679,-31231.287865,-1201.160395,-16681.598625,-25261.539252,-13611.787690,-28356.227679,-15426.123491,-26621.128812,52206.924821,-8132.034019,-13755.420000,-9993.219077,-45.872002,-920.856018,-364.536011,-24780.000000,8120.000000,-2940.000000
-32498.117685,-22192.912959,-32255.645961,34452.733034,-31213.741745,-1186.072968,-16666.935881,-25243.590801,-13594.822716,-28344.157737,-15411.818375,-26608.388318,52219.218280,-8133.017496,-13747.686296,-9980.657396,-45.872002,-919.880005,-364.048004,-26460.000000,7980.000000,-4060.000000
-32463.807757,-22161.441703,-32229.583827,34474.794206,-31177.017829,-1149.527866,-16636.984543,-25208.118583,-13564.401992,-28316.687443,-15384.884523,-26581.610928,52248.409658,-8125.909641,-13735.124616,-9956.673975,-42.456001,-922.807983,-368.928009,-27720.000000,7560.000000,-4900.000000
-32474.402484,-22174.942157,-32240.290313,34467.328723,-31186.740838,-1162.290712,-16647.713381,-25215.673472,-13577.254245,-28326.388100,-15399.748433,-26597.726536,52236.674993,-8130.827025,-13735.035209,-9964.787658,-36.112000,-916.952026,-368.928009,-28700.000000,6580.000000,-5740.000000
-32507.952453,-22207.910980,-32270.420464,34445.021682,-31221.140173,-1201.227451,-16676.591835,-25249.782234,-13609.485460,-28357.769949,-15434.058360,-26629.130736,52201.962734,-8143.455761,-13739.326744,-9988.614617,-29.768000,-919.880005,-364.048004,-29820.000000,5740.000000,-6720.000000
-32497.581243,-22198.232674,-32267.604145,34449.648493,-31215.418126,-1194.745445,-16669.215759,-25244.239002,-13596.588504,-28354.864222,-15427.933982,-26619.295969,52206.723655,-8147.702592,-13733.045904,-9984.948931,-27.816000,-914.023987,-360.632019,-30800.000000,5460.000000,-7700.000000
-32458.666856,-22162.671049,-32236.959903,34472.626087,-31174.246213,-1153.819401,-16634.525852,-25204.810525,-13559.596367,-28325.784603,-15398.720252,-26586.260091,52241.257100,-8137.420790,-13717.042055,-9960.741992,-27.328001,-918.416016,-359.656006,-33040.000000,5320.000000,-8540.000000
-32459.650333,-22168.594261,-32236.289351,34469.139215,-31172.391018,-1155.451078,-16634.771721,-25202.441240,-13566.190131,-28331.618408,-15403.548229,-26592.943262,52241.190045,-8137.867825,-13718.137290,-9963.580664,-24.888000,-918.416016,-364.048004,-36120.000000,5740.000000,-8960.000000
-32491.434514,-22204.200590,-32267.067703,34445.736938,-31206.298614,-1197.315895,-16665.728887,-25235.946505,-13599.047196,-28364.743693,-15434.594802,-26624.414518,52207.729484,-8152.374107,-13726.854471,-9989.508687,-23.912001,-921.832031,-365.024017,-37940.000000,5180.000000,-8540.000000
-32487.098275,-22202.188933,-32268.520566,34445.066386,-31203.504646,-1200.109863,-16665.617128,-25236.102967,-13593.213390,-28363.156720,-15431.331448,-26620.234742,52209.003533,-8155.615110,-13722.093549,-9988.592266,-21.960001,-926.223999,-371.368011,-38920.000000,4480.000000,-7700.000000
-32451.916629,-22168.706020,-32239.865630,34468.200441,-31164.299686,-1159.586151,-16631.709532,-25195.981586,-13560.401030,-28335.842888,-15402.721215,-26588.204692,52241.950004,-8146.137970,-13708.011950,-9958.909149,-21.472000,-925.736023,-375.760010,-39060.000000,3780.000000,-6860.000000
-32445.479327,-22163.989802,-32232.266037,34473.408398,-31155.001361,-1150.913674,-16624.646381,-25188.314937,-13558.992870,-28333.898286,-15401.670683,-26585.589538,52247.448533,-8141.533511,-13702.982808,-9955.422277,-24.888000,-925.736023,-381.615997,-38080.000000,3220.000000,-5460.000000
-32476.347086,-22193.069421,-32257.612915,34453.358883,-31186.986707,-1187.123500,-16650.306183,-25225.418833,-13587.647806,-28361.189766,-15432.985477,-26613.082184,52216.290202,-8150.161284,-13704.636837,-9978.913960,-22.448000,-928.176025,-383.567993,-35560.000000,2380.000000,-4200.000000
-32485.220729,-22200.847828,-32267.917069,34446.362787,-31198.386097,-1201.875651,-16657.324631,-25239.835708,-13591.157030,-28369.594022,-15443.244927,-26618.848934,52203.013265,-8159.414906,-13699.741805,-9983.205495,-25.375999,-924.760010,-386.007996,-34300.000000,1960.000000,-2520.000000
-32450.597876,-22169.063648,-32240.916162,34466.814633,-31163.495024,-1165.643473,-16628.267363,-25206.039871,-13554.656631,-28340.492051,-15418.121567,-26588.897596,52233.210472,-8156.911511,-13688.700043,-9954.952890,-24.400000,-930.127991,-389.912018,-34160.000000,1960.000000,-1120.000000
-32432.492963,-22148.477691,-32225.694624,34480.873880,-31142.998474,-1148.298520,-16611.861183,-25190.997146,-13535.881166,-28327.416280,-15408.331502,-26573.005506,52248.700231,-8153.268177,-13681.972168,-9947.621518,-30.743999,-930.616028,-389.424011,-32620.000000,1960.000000,280.000000
-32459.069188,-22171.343526,-32248.940438,34466.367598,-31169.865271,-1183.167241,-16636.202232,-25221.395519,-13562.613852,-28353.612525,-15435.801796,-26597.838294,52220.380571,-8161.828895,-13687.381290,-9973.035452,-36.600002,-927.200012,-392.839996,-30660.000000,1680.000000,1400.000000
-32475.989458,-22191.080116,-32264.318438,34452.062482,-31188.976012,-1204.446102,-16652.049619,-25238.941638,-13579.690585,-28368.342324,-15448.989326,-26614.803268,52202.901507,-8170.099040,-13691.538714,-9985.105394,-37.576000,-929.152039,-398.696014,-27860.000000,2240.000000,1820.000000
-32447.423929,-22167.253157,-32239.731519,34469.586250,-31158.868213,-1173.399529,-16624.691084,-25209.347929,-13552.332050,-28344.202440,-15425.542346,-26590.551626,52230.192987,-8166.098078,-13676.831267,-9961.546655,-40.992001,-931.104004,-405.528015,-23520.000000,3220.000000,1820.000000
-32421.697071,-22140.542822,-32220.017281,34489.278136,-31130.146221,-1148.656148,-16600.975883,-25183.039925,-13527.722779,-28329.383234,-15414.254715,-26568.982192,52252.455324,-8157.693822,-13662.414391,-9946.280413,-44.408001,-932.567993,-409.920013,-18480.000000,3920.000000,1680.000000
-32444.987589,-22161.531110,-32239.396243,34476.761160,-31151.425082,-1177.802822,-16620.243087,-25205.637539,-13553.784913,-28353.679580,-15441.523843,-26591.579806,52228.337792,-8161.426563,-13667.622348,-9966.128762,-50.264000,-932.080017,-411.384003,-12880.000000,3640.000000,1120.000000
-32467.965182,-22187.280320,-32260.831566,34458.879764,-31178.828320,-1208.894099,-16645.120578,-25234.806566,-13578.438887,-28374.891385,-15463.920291,-26614.467992,52203.303838,-8170.233151,-13676.540694,-9985.105394,-49.288002,-927.687988,-406.992004,-7560.000000,2800.000000,700.000000
-32444.004112,-22166.001459,-32246.459394,34471.888479,-31157.527108,-1185.804747,-16626.322761,-25216.612246,-13555.014259,-28356.406493,-15448.721105,-26595.156085,52221.788731,-8167.640348,-13668.739935,-9967.805143,-52.216000,-928.176025,-403.576019,-2940.000000,1260.000000,-140.000000
-32411.147047,-22129.098729,-32222.811249,34496.676564,-31122.568980,-1155.473430,-16597.936046,-25188.292585,-13521.821919,-28331.216077,-15428.470424,-26567.797550,52250.488371,-8156.866808,-13658.569891,-9949.029678,-53.192001,-930.127991,-398.208008,-560.000000,-140.000000,-1400.000000
-32428.290835,-22145.527261,-32237.853973,34485.970078,-31140.785651,-1179.210982,-16613.895191,-25205.168152,-13538.183396,-28348.203403,-15446.597689,-26589.545797,52232.875196,-8161.940654,-13666.705926,-9965.502914,-50.751999,-931.591980,-390.399994,980.000000,-1260.000000,-2520.000000
-32459.717388,-22180.328927,-32264.273735,34462.612505,-31176.414332,-1213.990297,-16641.589003,-25233.934848,-13569.945225,-28374.444351,-15468.480047,-26621.732309,52202.230954,-8176.469287,-13674.976072,-9984.323082,-47.336002,-932.080017,-383.567993,1260.000000,-2100.000000,-3920.000000
-32445.054644,-22165.666183,-32253.835470,34472.648439,-31159.359951,-1198.567593,-16628.759101,-25221.730795,-13553.069657,-28365.526004,-15458.488817,-26608.120097,52213.764455,-8177.139840,-13665.633043,-9973.840114,-45.872002,-934.520020,-381.615997,840.000000,-2240.000000,-5180.000000
-32409.291853,-22130.708054,-32224.308816,34496.587157,-31122.993663,-1158.781488,-16601.244104,-25186.102114,-13519.296172,-28340.804975,-15434.438340,-26577.297041,52246.219188,-8168.087383,-13654.725391,-9953.052992,-43.431999,-933.544006,-381.615997,-140.000000,-1960.000000,-6440.000000
-32416.533818,-22139.268773,-32231.193153,34490.753352,-31131.643788,-1167.409261,-16611.414148,-25192.271196,-13530.159119,-28350.706798,-15443.535500,-26588.159989,52237.971394,-8169.629654,-13658.346374,-9963.982995,-37.576000,-933.056030,-382.104004,-840.000000,-1120.000000,-7420.000000
-32449.189716,-22171.947023,-32259.199889,34469.362732,-31162.958582,-1206.256593,-16639.018552,-25225.843516,-13565.765448,-28379.115865,-15471.363422,-26619.430079,52204.577888,-8179.375014,-13666.057726,-9989.016949,-35.624001,-931.591980,-383.567993,-1540.000000,-280.000000,-7560.000000
-32437.969141,-22164.861520,-32255.109519,34475.665924,-31152.296800,-1200.892174,-16628.826157,-25220.769670,-13555.863626,-28372.432694,-15462.847407,-26612.791611,52208.332981,-8180.671415,-13656.491179,-9981.774984,-30.256001,-928.176025,-385.032013,-2100.000000,560.000000,-6860.000000
-32399.345326,-22125.947133,-32227.683929,34501.996279,-31114.321186,-1161.843677,-16596.326720,-25183.397553,-13516.412797,-28344.425958,-15432.449035,-26582.773218,52235.870330,-8174.211761,-13638.073342,-9957.746858,-25.864000,-922.807983,-385.520020,-2940.000000,1260.000000,-5460.000000
-32402.407515,-22132.742063,-32229.852048,34499.761105,-31115.975215,-1160.368462,-16597.533714,-25178.882501,-13528.102759,-28351.422054,-15438.595764,-26589.948128,52232.472865,-8173.407098,-13640.979068,-9961.814876,-24.888000,-919.392029,-387.959991,-4200.000000,1260.000000,-3780.000000
-32433.074109,-22162.335773,-32258.395226,34479.935107,-31148.072320,-1198.299372,-16625.540450,-25209.884371,-13561.608024,-28379.428790,-15470.201131,-26620.011225,52201.091015,-8183.308921,-13646.969336,-9987.720548,-21.472000,-916.463989,-391.864014,-4480.000000,1680.000000,-1960.000000
-32422.233513,-22151.249308,-32259.289296,34483.533738,-31146.574753,-1205.161358,-16627.127424,-25213.572408,-13545.782989,-28373.147949,-15470.469352,-26615.295007,52197.090053,-8187.734567,-13640.844958,-9987.497030,-22.448000,-914.023987,-394.791992,-3920.000000,1540.000000,-420.000000
-32380.681620,-22113.720729,-32231.193153,34509.350003,-31108.085049,-1168.593904,-16595.633816,-25176.155588,-13507.561506,-28343.040150,-15440.518014,-26582.192073,52228.717772,-8181.565485,-13626.808062,-9958.707983,-22.448000,-912.559998,-394.791992,-3640.000000,1540.000000,1260.000000
-32371.472701,-22116.760566,-32227.393356,34511.495770,-31103.279424,-1157.865066,-16587.497781,-25160.174091,-13506.309808,-28340.156775,-15433.812491,-26581.476817,52237.479655,-8180.671415,-13628.663257,-9953.254158,-22.936001,-912.072021,-396.256012,-2940.000000,1400.000000,2380.000000
-32406.877864,-22155.809063,-32260.250421,34490.663945,-31139.936285,-1196.712398,-16613.626970,-25187.867902,-13544.084256,-28375.114903,-15465.931948,-26617.708995,52204.533184,-8195.043587,-13633.848862,-9976.522324,-25.375999,-910.119995,-396.256012,-2520.000000,1260.000000,3500.000000
-32417.606702,-22159.094770,-32272.745046,34489.926337,-31147.401768,-1214.012648,-16621.003046,-25199.177885,-13552.332050,-28387.631880,-15481.175838,-26623.699263,52190.697454,-8206.130052,-13627.053932,-9981.551466,-27.816000,-914.023987,-397.720001,-1960.000000,980.000000,3640.000000
-32382.402704,-22132.138566,-32244.626551,34508.590044,-31113.807096,-1175.858221,-16596.147906,-25164.912661,-13522.715988,-28356.518251,-15450.889224,-26594.977271,52221.878138,-8201.704407,-13619.230821,-9956.808085,-29.768000,-919.392029,-400.648010,-1120.000000,560.000000,3920.000000
-32358.352227,-22116.022958,-32231.751946,34524.370375,-31095.970404,-1158.759136,-16576.701889,-25147.478300,-13500.990093,-28341.252010,-15435.153596,-26584.360192,52235.043315,-8200.095081,-13603.562248,-9947.330945,-33.672001,-920.367981,-399.183990,420.000000,-420.000000,3780.000000
-32383.833216,-22145.147281,-32255.780072,34508.880616,-31126.525238,-1195.170128,-16602.987540,-25174.032172,-13532.170776,-28367.872938,-15461.327489,-26612.903370,52204.935516,-8210.421587,-13609.887792,-9970.710870,-35.136002,-919.392029,-398.696014,2380.000000,-560.000000,3080.000000
-32400.060582,-22168.169578,-32272.923860,34493.346154,-31150.888640,-1218.862977,-16625.719264,-25190.393649,-13551.661498,-28380.658135,-15474.537370,-26628.929571,52187.277637,-8223.631468,-13620.773091,-9984.457193,-36.600002,-914.512024,-400.648010,3920.000000,-1120.000000,2520.000000
-32371.115073,-22140.699284,-32253.366083,34511.741640,-31122.010186,-1186.989389,-16603.367520,-25159.503539,-13524.392369,-28358.105225,-15453.549082,-26602.308643,52212.155129,-8222.223308,-13612.570001,-9964.362975,-35.624001,-915.000000,-399.183990,6160.000000,-1400.000000,1680.000000
-32350.506765,-22126.684740,-32237.898676,34525.800887,-31098.250282,-1161.553104,-16580.993424,-25130.781547,-13511.495413,-28344.850641,-15438.752227,-26588.785838,52234.328059,-8217.663552,-13603.584600,-9947.934443,-37.088001,-916.463989,-402.112000,8120.000000,-1960.000000,1260.000000
-32369.371637,-22151.294011,-32260.071607,34515.541436,-31122.524276,-1192.823195,-16597.444307,-25154.250879,-13532.617811,-28366.956516,-15461.171026,-26615.205600,52209.294106,-8228.168872,-13599.941266,-9967.492219,-37.088001,-915.976013,-398.696014,9800.000000,-1820.000000,980.000000
-32389.935242,-22175.188026,-32282.423351,34497.369468,-31150.307494,-1223.400381,-16621.248915,-25183.375202,-13553.919024,-28386.603700,-15482.986329,-26635.545687,52182.717882,-8240.954070,-13608.993722,-9984.859524,-36.600002,-917.928040,-393.816010,10500.000000,-2380.000000,840.000000
-32365.974172,-22153.618592,-32266.575964,34510.266424,-31127.843991,-1200.400436,-16600.327683,-25162.498672,-13532.818977,-28366.867109,-15464.657899,-26615.406765,52199.660504,-8242.384582,-13596.029710,-9963.133629,-37.576000,-920.856018,-384.056000,9940.000000,-2660.000000,560.000000
-32333.340625,-22126.282409,-32242.190211,34528.930131,-31094.383430,-1165.084680,-16574.533769,-25128.859297,-13508.723796,-28340.514402,-15440.942698,-26592.675041,52226.706115,-8234.963803,-13585.792611,-9941.318326,-37.088001,-925.736023,-379.175995,8400.000000,-2800.000000,280.000000
-32344.404738,-22143.292087,-32253.947229,34519.073012,-31109.917892,-1183.122538,-16591.319930,-25143.164413,-13525.577012,-28350.729150,-15454.152579,-26610.489382,52211.864556,-8242.384582,-13590.330015,-9960.317309,-34.647999,-926.712036,-378.200012,6440.000000,-2660.000000,-280.000000
-32369.528099,-22170.561215,-32276.567194,34503.002108,-31136.963503,-1217.633631,-16617.270305,-25169.248899,-13553.248471,-28373.997316,-15477.756021,-26633.712844,52182.248495,-8257.092030,-13597.594332,-9986.133574,-34.160000,-926.712036,-377.712006,4060.000000,-2380.000000,-1120.000000
-32350.819689,-22155.809063,-32266.285392,34513.753297,-31123.619512,-1203.082645,-16603.792203,-25149.758178,-13535.590593,-28357.568783,-15460.008736,-26619.944170,52194.988989,-8261.629434,-13589.994739,-9975.963530,-34.647999,-922.807983,-378.688019,2520.000000,-1820.000000,-1820.000000
-32315.325119,-22123.980179,-32240.759699,34538.630788,-31088.639031,-1166.135212,-16570.063421,-25111.536695,-13502.174735,-28326.231638,-15426.883450,-26593.256187,52227.778998,-8254.901559,-13572.582730,-9952.985937,-32.695999,-918.903992,-383.080017,560.000000,-700.000000,-2380.000000
-32323.595264,-22137.078302,-32251.086205,34534.942750,-31098.876130,-1175.992331,-16578.110049,-25114.621236,-13515.921058,-28331.797222,-15434.952430,-26606.466068,52220.447626,-8257.874341,-13573.633262,-9963.267739,-33.184002,-915.976013,-381.127991,-700.000000,-140.000000,-3080.000000
-32349.702102,-22168.348392,-32280.925784,34517.530741,-31133.454279,-1214.526738,-16607.547296,-25145.846623,-13544.531291,-28352.941972,-15461.282785,-26635.433928,52186.584733,-8270.056041,-13578.260073,-9989.642798,-31.720001,-911.096008,-388.447998,-1540.000000,700.000000,-3500.000000
-32340.090852,-22165.263851,-32276.589546,34520.525875,-31126.994625,-1207.396532,-16604.641569,-25138.269381,-13538.697486,-28341.006141,-15455.963070,-26627.677873,52189.713978,-8272.291216,-13576.024899,-9984.144269,-30.256001,-905.728027,-390.888000,-2660.000000,1120.000000,-3500.000000
-32303.098715,-22134.463147,-32249.901563,34542.452936,-31088.616680,-1167.789241,-16574.600825,-25097.857427,-13506.645084,-28306.830324,-15428.559831,-26599.782896,52221.185234,-8267.731460,-13564.647861,-9959.020908,-28.304001,-900.848022,-394.791992,-3780.000000,1400.000000,-3220.000000
-32301.623500,-22136.743025,-32252.203793,34544.419890,-31087.186168,-1168.191572,-16572.432705,-25093.543541,-13508.366169,-28305.600978,-15430.638543,-26606.823696,52219.218280,-8273.788783,-13560.378678,-9960.473771,-29.280001,-894.992004,-394.304016,-4760.000000,1820.000000,-2940.000000
-32330.814878,-22169.935366,-32278.042409,34524.236265,-31119.640901,-1207.664753,-16602.227581,-25126.735881,-13540.396218,-28329.450289,-15456.946547,-26635.210411,52187.210582,-8286.976312,-13573.119172,-9984.568952,-29.768000,-895.968018,-394.791992,-6300.000000,2240.000000,-2520.000000
-32330.569009,-22171.790561,-32278.131816,34522.246959,-31120.445564,-1212.448026,-16605.557991,-25128.635779,-13542.229061,-28326.969245,-15458.175893,-26632.617609,52183.768414,-8291.178440,-13576.583693,-9985.418318,-29.280001,-896.944031,-402.112000,-7280.000000,2520.000000,-2100.000000
-32294.537997,-22137.301819,-32251.197964,34548.644370,-31084.839235,-1174.070081,-16570.555159,-25082.322965,-13507.047416,-28294.983899,-15431.912593,-26605.147315,52214.680876,-8288.898562,-13559.529312,-9960.898454,-28.304001,-899.384033,-401.136017,-7420.000000,2660.000000,-1400.000000
-32282.736276,-22128.964618,-32246.258229,34560.133166,-31075.607964,-1164.145906,-16559.625156,-25062.564023,-13498.553753,-28285.171483,-15427.956334,-26601.973367,52221.699324,-8292.296027,-13550.834483,-9959.244425,-29.768000,-901.335999,-398.696014,-7000.000000,2940.000000,-1120.000000
-32308.530189,-22156.054933,-32272.253307,34546.006864,-31105.268729,-1202.881480,-16587.207209,-25094.325852,-13528.661553,-28309.847809,-15458.041782,-26630.181268,52190.295123,-8303.382492,-13554.164893,-9986.848830,-30.256001,-901.824036,-399.671997,-7000.000000,2800.000000,-1260.000000
-32315.414526,-22170.874139,-32280.881081,34537.893181,-31118.299796,-1218.974736,-16600.730014,-25108.161582,-13539.770370,-28315.413393,-15468.256529,-26639.099615,52181.019149,-8308.813966,-13560.065753,-9993.934333,-33.672001,-908.168030,-396.744019,-6160.000000,2800.000000,-1820.000000
-32279.607031,-22143.560307,-32252.002627,34555.484003,-31085.599194,-1181.177936,-16576.746592,-25073.538729,-13507.963837,-28283.942137,-15439.065151,-26610.712899,52215.843167,-8297.749853,-13555.282480,-9966.106411,-35.136002,-910.608032,-398.696014,-4900.000000,2800.000000,-2800.000000
-32261.412711,-22128.606990,-32239.418595,34567.442187,-31066.689618,-1162.558933,-16563.246138,-25057.959563,-13493.658721,-28270.084056,-15424.625924,-26599.045288,52232.070533,-8289.524411,-13549.091047,-9955.891664,-31.232000,-912.072021,-399.183990,-3500.000000,2800.000000,-3500.000000
-32287.005459,-22159.385343,-32265.972467,34550.231344,-31097.333860,-1197.248840,-16589.107107,-25087.150942,-13520.905497,-28294.648623,-15447.759980,-26628.393129,52203.080321,-8296.833431,-13554.075486,-9979.763327,-33.184002,-914.512024,-397.720001,-1820.000000,2240.000000,-4480.000000
-32302.785790,-22181.468866,-32283.540938,34535.143916,-31118.366852,-1219.891157,-16607.234372,-25104.786468,-13539.211576,-28309.177257,-15459.002907,-26646.319228,52186.048291,-8302.846051,-13561.496265,-9992.704987,-31.720001,-913.536011,-397.720001,-700.000000,1960.000000,-5180.000000
-32276.231918,-22153.909165,-32258.976371,34554.612285,-31087.677906,-1188.554011,-16580.747554,-25076.176235,-13514.915230,-28286.110256,-15435.310058,-26619.899466,52213.362123,-8297.235763,-13554.969556,-9969.258007,-33.672001,-911.583984,-397.720001,280.000000,1540.000000,-5880.000000
-32253.544897,-22130.931572,-32240.424423,34572.918364,-31063.314505,-1165.174087,-16557.345278,-25052.483386,-13493.390500,-28267.714771,-15418.345084,-26602.420402,52234.261004,-8293.704187,-13543.771332,-9953.902358,-29.768000,-912.072021,-394.304016,420.000000,1680.000000,-6580.000000
-32270.398113,-22150.511700,-32257.031769,34559.127338,-31086.962651,-1193.359636,-16576.746592,-25077.249119,-13510.266067,-28281.461094,-15436.584107,-26622.402861,52214.591469,-8298.018074,-13549.962765,-9975.829420,-31.720001,-910.608032,-394.791992,840.000000,2100.000000,-7140.000000
-32292.056953,-22172.796389,-32269.861671,34541.223591,-31108.554436,-1220.271137,-16600.931180,-25106.686366,-13534.517710,-28295.006251,-15454.554910,-26634.919838,52195.927762,-8297.392225,-13565.921911,-9992.883801,-30.256001,-909.143982,-394.304016,840.000000,2520.000000,-7420.000000
-32256.785900,-22138.732331,-32249.521583,34563.128300,-31083.632241,-1202.881480,-16575.986633,-25088.670860,-13493.412852,-28267.692419,-15429.051570,-26606.488419,52211.953963,-8295.067644,-13542.519634,-9975.538847,-29.768000,-909.632019,-394.791992,560.000000,2800.000000,-7280.000000
-32209.891940,-22087.591539,-32219.704356,34600.634527,-31039.509897,-1174.494764,-16532.423083,-25057.847805,-13440.752142,-28237.584619,-15404.308188,-26570.993849,52236.764400,-8282.707129,-13502.577067,-9950.259024,-29.280001,-911.096008,-394.304016,280.000000,2800.000000,-7000.000000
-32220.643129,-22097.314548,-32228.533295,34598.287594,-31047.422415,-1190.275096,-16538.435702,-25071.996459,-13454.185540,-28251.286239,-15418.903878,-26581.901500,52223.129836,-8283.869420,-13498.486697,-9961.256082,-28.304001,-916.463989,-393.328003,-420.000000,2520.000000,-6440.000000
-32250.817984,-22122.884944,-32257.121176,34583.826015,-31076.680848,-1227.267233,-16562.039144,-25103.959454,-13480.806468,-28280.142341,-15447.156483,-26608.120097,52191.502117,-8292.318379,-13500.140727,-9983.384309,-27.328001,-921.832031,-392.351990,-1400.000000,2100.000000,-6160.000000
-32242.324322,-22113.430156,-32252.583772,34591.403257,-31066.041418,-1214.057352,-16556.048877,-25093.476485,-13469.071802,-28273.570928,-15437.075846,-26599.045288,52203.192079,-8290.016149,-13498.933732,-9972.275492,-26.352001,-925.736023,-387.472015,-1960.000000,1820.000000,-5460.000000
-32218.452658,-22089.759659,-32228.019205,34611.519827,-31031.955008,-1171.834907,-16532.624249,-25057.333715,-13448.731714,-28254.214317,-15414.187660,-26574.592480,52236.630289,-8276.761565,-13498.464346,-9944.313460,-27.816000,-925.247986,-393.816010,-1680.000000,1680.000000,-5040.000000
-32241.921990,-22114.927723,-32241.832583,34600.142789,-31049.456423,-1180.999122,-16549.209243,-25062.921651,-13478.817162,-28274.397942,-15429.252735,-26598.330033,52225.677934,-8278.393242,-13512.590648,-9955.265815,-28.304001,-923.783997,-394.791992,-1260.000000,1400.000000,-4620.000000
-32285.306726,-22157.954831,-32279.003534,34573.924193,-31092.528235,-1222.707477,-16584.346185,-25101.031375,-13521.173718,-28312.127687,-15462.556835,-26641.759472,52187.434100,-8293.570077,-13521.665456,-9985.686539,-30.256001,-920.856018,-391.376007,-1120.000000,1260.000000,-4480.000000
-32283.652697,-22153.171558,-32277.528319,34573.320696,-31089.264880,-1221.947518,-16588.727127,-25103.668881,-13515.541079,-28311.412431,-15458.399410,-26635.679798,52189.266943,-8298.018074,-13527.745131,-9988.748728,-31.720001,-915.000000,-389.912018,-1680.000000,1120.000000,-4760.000000
-32245.744138,-22118.526354,-32244.715958,34594.018411,-31053.099758,-1181.557915,-16562.933214,-25069.493064,-13478.414831,-28279.874120,-15423.865965,-26602.219236,52224.917975,-8290.083205,-13526.202861,-9968.654510,-31.720001,-915.976013,-393.328003,-2940.000000,1260.000000,-5180.000000
-32241.519659,-22117.565229,-32236.266999,34594.443094,-31046.170717,-1173.399529,-16562.419124,-25065.000363,-13480.091212,-28277.527187,-15420.736721,-26598.441791,52232.070533,-8282.528315,-13535.858814,-9972.208437,-33.672001,-912.072021,-393.816010,-4200.000000,1680.000000,-5880.000000
-32276.924822,-22152.858633,-32272.812101,34573.566565,-31085.487436,-1218.326535,-16592.973959,-25103.087736,-13512.992980,-28312.887646,-15453.236157,-26636.395053,52193.513774,-8297.168708,-13539.211576,-10004.171432,-28.792000,-915.488037,-394.791992,-6020.000000,700.000000,-6720.000000
-32276.187214,-22146.018999,-32280.814025,34577.545175,-31089.175473,-1233.413963,-16593.957435,-25114.732994,-13504.432262,-28316.508629,-15458.846445,-26636.551516,52179.946265,-8302.756644,-13526.538137,-10010.653437,-27.816000,-913.048035,-398.208008,-6580.000000,2380.000000,-7700.000000
-32242.749005,-22112.223162,-32250.862688,34599.114609,-31053.926772,-1193.896078,-16561.614461,-25079.193721,-13471.463438,-28287.876044,-15427.643410,-26605.482591,52213.071550,-8294.933533,-13511.562468,-9983.272550,-26.352001,-909.143982,-397.231995,-6440.000000,2660.000000,-8820.000000
-32237.786917,-22107.126964,-32240.625589,34607.787086,-31042.728548,-1178.763947,-16548.114007,-25066.252061,-13469.183561,-28286.356126,-15421.899011,-26601.816905,52222.034600,-8289.837335,-13501.817107,-9972.968396,-25.864000,-910.119995,-397.231995,-6020.000000,2940.000000,-8960.000000
-32272.990915,-22142.062741,-32266.017171,34588.743399,-31074.199805,-1214.392628,-16577.037165,-25101.701927,-13506.578029,-28318.475582,-15453.370268,-26631.969408,52191.479765,-8291.469013,-13513.842346,-9994.090795,-26.840000,-909.143982,-399.183990,-6160.000000,2800.000000,-9100.000000
-32283.719752,-22151.942212,-32272.834453,34580.585013,-31084.168683,-1227.691916,-16591.409336,-25118.912771,-13517.753901,-28327.259818,-15462.959166,-26634.539859,52184.461318,-8287.088071,-13527.588669,-9998.091757,-21.472000,-908.168030,-400.648010,-6020.000000,2800.000000,-9100.000000
-32253.969580,-22119.487479,-32254.483671,34603.383792,-31053.591496,-1195.706570,-16559.938080,-25090.973090,-13482.482848,-28305.533922,-15436.651163,-26607.941283,52211.730446,-8279.533181,-13508.477927,-9976.611731,-17.568001,-909.632019,-402.112000,-5460.000000,2520.000000,-8540.000000
-32238.479822,-22102.544856,-32241.899638,34616.236045,-31033.854906,-1176.126441,-16542.704885,-25075.282165,-13466.166075,-28297.442591,-15426.592878,-26595.312547,52227.399019,-8275.599274,-13501.638293,-9966.017004,-16.592001,-910.608032,-399.183990,-4760.000000,2100.000000,-7840.000000
-32265.480729,-22135.312514,-32258.462281,34593.280803,-31060.833461,-1204.088474,-16572.946796,-25106.284035,-13497.972607,-28321.604827,-15446.798855,-26618.357196,52206.209565,-8281.187210,-13524.794701,-9987.407623,-13.664001,-911.583984,-401.623993,-4060.000000,1540.000000,-6440.000000
-32286.960755,-22157.351334,-32277.058932,34578.930983,-31083.364020,-1229.681221,-16591.945778,-25134.246067,-13517.843308,-28341.184955,-15459.941680,-26637.110309,52183.611951,-8290.239667,-13527.588669,-10003.791452,-16.104000,-912.559998,-404.063995,-3360.000000,840.000000,-5040.000000
-32263.871403,-22130.976275,-32257.076473,34600.142789,-31054.642028,-1201.495671,-16563.402601,-25113.123669,-13490.283607,-28322.744766,-15439.355724,-26611.651672,52205.203736,-8282.774184,-13508.187355,-9979.338643,-16.592001,-914.023987,-403.576019,-2240.000000,-560.000000,-3080.000000
-32235.819964,-22107.238723,-32239.910333,34617.420687,-31032.223228,-1177.087567,-16539.441531,-25089.207302,-13458.477075,-28303.611672,-15419.037988,-26593.680870,52226.884929,-8277.722690,-13494.888067,-9963.982995,-14.152000,-918.416016,-398.208008,-840.000000,-1260.000000,-1680.000000
-32257.344694,-22131.020979,-32261.658581,34601.349783,-31056.743092,-1205.943669,-16561.994441,-25114.688291,-13481.700537,-28325.851658,-15440.406256,-26617.686643,52204.421425,-8283.735309,-13505.795718,-9986.960588,-15.128000,-916.952026,-392.351990,560.000000,140.000000,-1400.000000
-32285.485540,-22156.300802,-32284.680877,34583.647201,-31083.900462,-1240.007727,-16588.838886,-25148.640591,-13510.444881,-28352.606696,-15468.055364,-26640.194850,52176.369986,-8290.843164,-13520.659628,-10008.619429,-17.568001,-918.903992,-394.791992,280.000000,280.000000,-840.000000
-32263.022037,-22134.619610,-32267.201813,34596.678269,-31063.962706,-1218.773570,-16573.863217,-25134.357826,-13486.304997,-28335.775833,-15451.403314,-26621.061757,52194.787824,-8286.395167,-13518.089177,-9989.843963,-20.007999,-918.903992,-389.424011,-280.000000,-140.000000,-420.000000
-32229.896752,-22102.567208,-32241.497307,34616.884246,-31030.345682,-1185.245953,-16546.527034,-25104.540599,-13454.342002,-28312.708832,-15429.945639,-26594.954919,52223.241594,-8277.834449,-13511.204840,-9965.726431,-17.568001,-921.343994,-392.351990,-840.000000,0.000000,-420.000000
-32250.013322,-22120.917990,-32254.483671,34606.200112,-31044.740205,-1203.328514,-16561.055668,-25120.097413,-13476.961968,-28333.272437,-15447.134131,-26613.350405,52207.528318,-8282.327149,-13518.022122,-9980.009196,-21.472000,-920.367981,-393.816010,-1540.000000,-420.000000,-420.000000
-32285.709058,-22153.506834,-32284.367953,34585.860024,-31079.363058,-1240.164189,-16588.615368,-25155.413169,-13508.969666,-28363.983734,-15472.346899,-26642.653542,52173.397204,-8292.318379,-13524.258259,-10004.327894,-25.375999,-918.416016,-393.328003,-1960.000000,-840.000000,-560.000000
-32273.862633,-22142.688589,-32271.470996,34592.632603,-31066.108473,-1223.936823,-16579.317043,-25147.701817,-13495.804488,-28352.785510,-15458.824093,-26625.487402,52185.176573,-8287.490402,-13522.492471,-9995.610713,-24.888000,-919.880005,-398.208008,-2100.000000,-700.000000,-840.000000
-32237.429290,-22112.983121,-32240.916162,34612.883283,-31031.195048,-1183.368407,-16552.562005,-25118.264570,-13463.059183,-28323.392966,-15427.486947,-26594.843160,52221.408751,-8276.940379,-13513.462366,-9976.857600,-23.912001,-918.416016,-401.136017,-2100.000000,-420.000000,-1400.000000
-32239.306836,-22110.435022,-32247.152298,34613.755001,-31032.334987,-1189.716302,-16552.092618,-25126.869992,-13461.829837,-28331.037263,-15434.058360,-26599.291158,52215.731408,-8274.749908,-13506.287456,-9985.463021,-28.304001,-915.976013,-404.063995,-1960.000000,-280.000000,-2100.000000
-32273.259136,-22137.838261,-32277.908299,34595.672440,-31063.940354,-1230.195311,-16578.646490,-25163.951536,-13491.937636,-28361.592097,-15461.886282,-26628.907219,52183.254323,-8288.943266,-13510.802509,-10011.815728,-25.375999,-913.048035,-398.696014,-840.000000,-140.000000,-2660.000000
-32273.393246,-22135.111348,-32277.796540,34598.622870,-31059.157081,-1228.809503,-16573.013851,-25164.622088,-13490.820049,-28360.385103,-15458.175893,-26624.436870,52185.243629,-8291.513716,-13506.578029,-10007.412435,-26.352001,-909.632019,-398.696014,-700.000000,420.000000,-3080.000000
-32239.955037,-22100.779069,-32244.872420,34624.819115,-31017.448725,-1185.894154,-16538.659220,-25131.139175,-13459.482903,-28334.278266,-15431.666724,-26588.741134,52219.330039,-8276.001606,-13494.105756,-9981.819687,-24.888000,-908.656006,-400.160004,-1540.000000,1120.000000,-3360.000000
-32233.495382,-22099.035632,-32241.273790,34627.970711,-31016.420545,-1183.010779,-16535.686438,-25131.608561,-13453.000898,-28334.255914,-15427.643410,-26589.881073,52223.889795,-8272.671196,-13490.440069,-9985.887705,-25.375999,-907.679993,-397.231995,-2100.000000,1820.000000,-3080.000000
-32259.021075,-22129.031674,-32266.888889,34608.323527,-31049.791700,-1222.975698,-16563.246138,-25169.472417,-13473.497447,-28359.602792,-15450.598651,-26619.407728,52194.541954,-8280.337844,-13494.552790,-10009.759368,-26.352001,-904.752014,-397.231995,-3640.000000,2240.000000,-2660.000000
-32260.809214,-22127.802328,-32269.459339,34608.144713,-31051.915115,-1232.072858,-16564.520188,-25179.709516,-13470.748183,-28362.173243,-15454.912538,-26620.681777,52188.328169,-8284.763489,-13490.998863,-10007.390083,-28.304001,-908.168030,-401.136017,-4620.000000,2940.000000,-1820.000000
-32228.041557,-22094.632339,-32241.251438,34630.429403,-31014.386536,-1192.152642,-16532.557193,-25147.254783,-13440.193348,-28335.619370,-15429.677418,-26589.210521,52221.185234,-8277.834449,-13479.755936,-9979.539809,-30.256001,-910.608032,-405.528015,-5880.000000,3360.000000,-1680.000000
-32219.570246,-22090.005528,-32233.718900,34636.844353,-31005.088211,-1180.149755,-16523.057702,-25138.179974,-13435.208909,-28331.976036,-15427.129320,-26584.382544,52231.802312,-8271.531257,-13479.040680,-9977.282283,-30.743999,-915.488037,-404.552002,-5880.000000,3360.000000,-1400.000000
-32253.500194,-22126.461223,-32263.089092,34613.665594,-31041.588609,-1219.533529,-16551.310307,-25175.909719,-13468.267139,-28363.447292,-15458.935852,-26619.005396,52200.085187,-8281.030748,-13489.523648,-10006.451309,-33.184002,-913.536011,-407.480011,-4760.000000,3500.000000,-1820.000000
-32267.335924,-22137.346522,-32275.561366,34605.104876,-31055.491394,-1239.672451,-16564.564891,-25196.003937,-13478.079555,-28377.417133,-15472.704527,-26629.801289,52183.902524,-8288.675045,-13492.675244,-10013.916792,-34.160000,-916.952026,-406.015991,-3780.000000,3220.000000,-2660.000000
-32236.959903,-22106.411708,-32250.326246,34625.556722,-31024.914208,-1206.681276,-16539.508586,-25166.007896,-13448.508197,-28353.970153,-15446.150654,-26600.721669,52210.143472,-8282.796536,-13484.338043,-9989.575742,-28.792000,-914.512024,-404.552002,-2940.000000,2240.000000,-4340.000000
-32218.139734,-22089.290272,-32232.467202,34639.705377,-31002.763629,-1183.279000,-16520.867231,-25143.343227,-13433.867804,-28339.977961,-15429.096273,-26583.488474,52232.159940,-8270.391318,-13475.129125,-9975.047109,-24.400000,-914.023987,-404.063995,-2380.000000,1680.000000,-5740.000000
-32246.057063,-22116.134717,-32257.121176,34623.455658,-31029.049281,-1214.236166,-16542.481368,-25171.618184,-13461.651023,-28367.805882,-15454.420800,-26610.109402,52205.673123,-8275.465164,-13479.934750,-9997.979998,-21.472000,-915.976013,-407.480011,-2100.000000,1540.000000,-7560.000000
-32260.920973,-22134.463147,-32279.003534,34609.172894,-31055.089063,-1244.567483,-16563.916691,-25198.999071,-13472.066936,-28384.927319,-15471.698698,-26628.169611,52179.610989,-8284.092937,-13485.857962,-10019.191804,-20.007999,-916.463989,-407.968018,-2240.000000,1120.000000,-8820.000000
-32231.126098,-22103.684795,-32256.852955,34628.864781,-31026.903513,-1215.689029,-16539.642696,-25175.932071,-13441.020362,-28359.714551,-15447.871738,-26600.900483,52204.264963,-8276.850972,-13473.855075,-10000.952780,-13.664001,-916.952026,-404.552002,-1960.000000,840.000000,-9660.000000
-32202.001775,-22076.460371,-32232.757775,34645.874458,-30996.192216,-1183.122538,-16516.329827,-25146.874803,-13414.690008,-28336.222868,-15425.251773,-26577.699372,52234.775094,-8263.998719,-13467.462476,-9981.707928,-12.200000,-911.583984,-407.480011,-1540.000000,840.000000,-10360.000000
-32221.939531,-22098.968577,-32250.840336,34629.960016,-31019.818010,-1208.022381,-16539.597993,-25170.724114,-13434.873633,-28353.165490,-15444.541328,-26598.955881,52218.279507,-8266.323300,-13479.063032,-10003.456176,-10.248000,-915.976013,-408.944000,-1120.000000,840.000000,-10080.000000
-32251.130909,-22127.131775,-32276.746008,34610.066963,-31050.194031,-1242.086439,-16568.230577,-25203.067088,-13461.203988,-28375.785455,-15466.356631,-26625.263885,52191.166841,-8275.755736,-13489.210724,-10028.512481,-6.832000,-915.488037,-410.407990,0.000000,980.000000,-9100.000000
-32238.926856,-22111.999644,-32265.726598,34623.768583,-31029.719833,-1223.176864,-16547.264641,-25184.738658,-13446.183615,-28364.788397,-15452.610308,-26611.629321,52204.935516,-8272.760603,-13474.816200,-10009.826423,-8.784000,-913.536011,-409.432007,980.000000,1260.000000,-7280.000000
-32207.902635,-22079.276690,-32238.122194,34648.355502,-30993.331193,-1188.151680,-16511.993588,-25153.222698,-13415.449967,-28341.162603,-15428.783349,-26583.980213,52233.389286,-8264.244588,-13457.448895,-9985.440670,-6.832000,-914.023987,-406.503998,1820.000000,1540.000000,-5320.000000
-32220.888999,-22091.927778,-32250.706226,34639.303045,-31007.658661,-1205.340171,-16521.984818,-25167.371353,-13429.688028,-28355.244202,-15444.787198,-26598.419440,52219.732370,-8271.397146,-13457.627709,-9999.634027,-3.904000,-914.512024,-408.455994,2380.000000,1820.000000,-2660.000000
-32250.482708,-22124.874249,-32278.847072,34615.766658,-31043.309694,-1244.232207,-16552.785522,-25203.759993,-13459.661717,-28382.155702,-15473.017451,-26627.141431,52187.769376,-8289.345597,-13465.093191,-10026.701990,-6.832000,-916.463989,-406.992004,3360.000000,1540.000000,-280.000000
-32239.575057,-22114.704205,-32270.353409,34621.466353,-31034.592513,-1234.308032,-16546.951717,-25198.797905,-13445.982450,-28373.058542,-15460.679288,-26614.289178,52197.470033,-8294.777071,-13461.338098,-10017.381313,-8.784000,-914.512024,-401.623993,3500.000000,1400.000000,2100.000000
-32203.879321,-22080.170760,-32241.474955,34644.555705,-30996.885120,-1195.125424,-16515.838088,-25166.767855,-13412.633647,-28348.873955,-15434.013657,-26583.667288,52228.941289,-8284.249399,-13448.284679,-9988.681673,-9.272000,-917.440002,-405.040009,3640.000000,1120.000000,3920.000000
-32205.801571,-22085.557531,-32243.754833,34640.755909,-30999.008536,-1201.562727,-16517.067434,-25170.388838,-13418.400397,-28357.837004,-15438.640468,-26591.736268,52223.308649,-8284.249399,-13450.005764,-9993.353187,-10.736000,-913.536011,-401.623993,3360.000000,840.000000,5460.000000
-32236.624627,-22116.581752,-32271.314534,34619.007661,-31034.346644,-1243.740468,-16545.677667,-25203.782344,-13448.619956,-28385.821388,-15461.841579,-26623.073414,52191.725635,-8295.917010,-13456.398363,-10020.041170,-14.152000,-913.048035,-400.160004,2940.000000,560.000000,6440.000000
-32234.881191,-22110.077394,-32267.179461,34622.583940,-31028.959874,-1241.862922,-16542.146092,-25199.468458,-13443.389647,-28380.613432,-15456.946547,-26615.451469,52193.871402,-8296.520507,-13447.725886,-10013.022722,-19.032000,-907.192017,-405.528015,1960.000000,280.000000,6860.000000
-32199.386620,-22076.527426,-32236.803441,34644.958037,-30989.866673,-1199.282849,-16509.736062,-25160.554071,-13407.112766,-28349.030417,-15425.922325,-26583.019088,52227.980164,-8288.071548,-13433.979563,-9985.887705,-20.496000,-910.608032,-402.112000,1540.000000,560.000000,6580.000000
-32193.686926,-22072.437057,-32233.696548,34650.143641,-30982.088266,-1193.471395,-16503.566981,-25158.207137,-13403.245914,-28346.214097,-15425.274125,-26580.493341,52232.584623,-8286.328111,-13429.978601,-9987.407623,-26.352001,-909.143982,-402.112000,1120.000000,980.000000,5740.000000
-32226.208714,-22105.405880,-32262.418540,34629.758850,-31016.420545,-1233.257500,-16532.534842,-25194.215798,-13435.924165,-28376.388952,-15454.353744,-26610.355271,52202.029789,-8298.778033,-13439.902775,-10017.403664,-33.184002,-908.168030,-404.552002,700.000000,1260.000000,4340.000000
-32230.366138,-22110.546781,-32269.280525,34625.489667,-31023.863676,-1243.472248,-16539.709752,-25203.022385,-13438.002877,-28381.775723,-15455.605442,-26611.405803,52195.659542,-8304.097748,-13439.858072,-10023.013952,-30.743999,-909.632019,-403.576019,140.000000,1820.000000,2240.000000
-32196.413838,-22077.868530,-32242.436080,34646.723824,-30988.324402,-1207.374180,-16513.826431,-25171.282908,-13407.001007,-28356.205327,-15428.336314,-26578.884015,52226.884929,-8292.273675,-13430.336229,-9998.605847,-34.160000,-906.216003,-408.455994,-420.000000,2100.000000,420.000000
-32189.551853,-22070.537158,-32233.271865,34654.725749,-30974.309859,-1193.493747,-16504.505754,-25161.179919,-13404.296446,-28351.645571,-15421.295514,-26573.005506,52237.680821,-8281.746004,-13428.726903,-9991.587399,-33.672001,-906.216003,-404.552002,-420.000000,2380.000000,-1400.000000
-32218.787935,-22100.980234,-32258.708150,34635.570304,-31005.088211,-1227.490750,-16529.807929,-25193.209969,-13430.716208,-28377.484188,-15448.721105,-26603.515637,52206.991876,-8288.563286,-13436.728828,-10012.888612,-32.208000,-903.776001,-405.528015,-840.000000,2520.000000,-3220.000000
-32228.890923,-22109.943284,-32274.689648,34629.065946,-31020.801487,-1247.428506,-16541.050856,-25210.331405,-13434.761874,-28387.833045,-15463.540311,-26618.625417,52188.596390,-8296.855783,-13435.767703,-10020.041170,-27.816000,-906.216003,-400.160004,-840.000000,2380.000000,-4200.000000
-32196.749115,-22080.438981,-32249.186307,34650.009531,-30988.458513,-1213.029172,-16514.809908,-25179.687164,-13404.587019,-28361.972077,-15439.109855,-26591.311585,52216.960754,-8286.573981,-13425.955287,-9997.890591,-26.840000,-901.824036,-401.623993,-840.000000,2100.000000,-5180.000000
-32178.219518,-22065.329202,-32232.534257,34663.934668,-30967.917260,-1189.001046,-16496.123850,-25156.441350,-13391.801821,-28346.728187,-15425.430587,-26577.118227,52236.473827,-8276.538047,-13419.562688,-9986.066519,-23.912001,-908.168030,-401.136017,-980.000000,1120.000000,-5320.000000
-32204.415763,-22092.777144,-32255.556554,34645.673292,-30997.756839,-1220.874634,-16521.962466,-25185.498617,-13418.892135,-28368.476435,-15452.364439,-26603.985024,52210.232879,-8285.389338,-13428.838662,-10013.290943,-19.032000,-913.048035,-403.576019,-980.000000,1540.000000,-4900.000000
-32227.549818,-22114.614798,-32276.321325,34629.088298,-31023.215475,-1248.009652,-16543.084865,-25211.493696,-13437.622897,-28387.922452,-15472.883340,-26624.325111,52187.724672,-8293.815946,-13433.487825,-10032.222871,-21.472000,-909.632019,-405.528015,0.000000,2380.000000,-4480.000000
-32198.157275,-22086.563359,-32256.964714,34646.232086,-30997.108638,-1220.047619,-16519.369664,-25186.817370,-13404.139984,-28367.492958,-15449.749285,-26598.330033,52213.071550,-8289.166783,-13421.037903,-10013.782682,-13.176001,-911.583984,-401.623993,700.000000,2800.000000,-3500.000000
-32170.619925,-22060.657687,-32233.942417,34663.398226,-30967.134949,-1188.196383,-16494.156896,-25156.642515,-13380.715356,-28347.242278,-15427.978686,-26576.447675,52239.267795,-8282.170687,-13413.080682,-9995.588362,-11.224000,-912.072021,-404.552002,1820.000000,2940.000000,-2940.000000
-32190.624737,-22084.350536,-32250.236839,34647.752005,-30988.078533,-1210.548128,-16512.261809,-25174.680373,-13405.704606,-28365.637763,-15445.055419,-26598.754716,52221.475806,-8285.098766,-13418.847432,-10012.732150,-14.640000,-913.536011,-405.040009,1960.000000,2520.000000,-1820.000000
-32217.111554,-22109.384490,-32274.779054,34630.295292,-31016.956987,-1243.628710,-16537.251060,-25205.481077,-13431.073836,-28389.643537,-15468.860026,-26623.788670,52194.139623,-8293.055987,-13422.446063,-10032.580499,-13.176001,-914.512024,-401.136017,2520.000000,1820.000000,-700.000000
-32196.100914,-22086.541007,-32260.295124,34644.041615,-30996.438086,-1224.629727,-16519.324961,-25190.952443,-13407.045711,-28373.505577,-15454.532558,-26602.979195,52209.227050,-8289.591466,-13409.683217,-10015.414359,-16.592001,-914.023987,-404.063995,3080.000000,1540.000000,560.000000
-32162.618001,-22056.969649,-32232.713071,34662.504156,-30963.893946,-1189.805709,-16493.307530,-25162.386914,-13376.669690,-28348.516327,-15428.559831,-26576.067695,52239.446609,-8280.963693,-13402.530659,-9994.783699,-15.616000,-912.072021,-404.552002,3360.000000,1260.000000,1540.000000
-32175.626716,-22070.268937,-32243.039577,34654.099900,-30974.913356,-1205.295468,-16501.756489,-25174.590966,-13392.047690,-28362.799092,-15443.043762,-26592.228006,52226.437894,-8278.348539,-13406.039882,-10005.177260,-11.224000,-913.536011,-406.015991,4060.000000,700.000000,2520.000000
-32209.690775,-22105.964673,-32269.727560,34627.389565,-31010.542036,-1240.946500,-16533.764188,-25208.319748,-13426.804653,-28390.694069,-15471.095201,-26624.615684,52194.653713,-8283.534143,-13421.216717,-10030.278269,-13.664001,-911.583984,-406.992004,4340.000000,420.000000,3360.000000
-32203.856969,-22098.432135,-32261.099787,34630.764679,-31000.260234,-1230.731753,-16529.047969,-25200.898969,-13417.953362,-28382.736848,-15463.093276,-26613.708033,52204.890812,-8276.783917,-13422.088435,-10024.332705,-18.544001,-909.632019,-405.528015,4340.000000,140.000000,4060.000000
-32169.234117,-22062.937565,-32233.696548,34656.357426,-30964.340981,-1195.572459,-16495.050966,-25168.600699,-13378.882513,-28355.870051,-15439.467483,-26582.393239,52233.791618,-8266.479762,-13403.223563,-10003.836155,-14.152000,-911.096008,-407.480011,4480.000000,-280.000000,4340.000000
-32173.883280,-22068.905481,-32236.512868,34653.854031,-30967.313763,-1199.931049,-16498.046100,-25173.607489,-13387.778507,-28363.067313,-15449.123436,-26587.221216,52228.516606,-8266.479762,-13403.916467,-10015.906097,-19.520000,-912.559998,-401.623993,4340.000000,-280.000000,4200.000000
-32208.707298,-22102.008415,-32266.866537,34631.412879,-31000.327289,-1239.426582,-16529.427949,-25212.074842,-13423.429540,-28393.175112,-15479.342995,-26616.949036,52195.033693,-8273.073527,-13415.047635,-10046.460932,-20.984001,-915.000000,-399.671997,4060.000000,-560.000000,4060.000000
-32208.036746,-22100.533199,-32267.805310,34633.201019,-30995.856940,-1238.241939,-16526.186946,-25209.683205,-13420.836737,-28391.498732,-15480.281768,-26614.289178,52194.810175,-8270.301911,-13407.157470,-10043.175226,-21.960001,-915.000000,-402.112000,1960.000000,-3220.000000,4340.000000
-32172.676286,-22064.099856,-32236.445813,34658.771415,-30956.830794,-1195.617163,-16495.073318,-25169.606527,-13382.615254,-28359.200461,-15451.112741,-26581.610928,52229.723600,-8258.388431,-13395.109879,-10014.877917,-21.960001,-918.416016,-406.503998,2520.000000,-700.000000,2940.000000
-32170.128187,-22063.451655,-32235.037653,34660.112519,-30953.433329,-1191.795014,-16494.849800,-25163.795073,-13379.351900,-28355.177147,-15447.268241,-26583.980213,52234.976260,-8256.108553,-13397.166240,-10012.106301,-25.864000,-916.463989,-408.944000,3920.000000,560.000000,1680.000000
-32202.985251,-22098.678005,-32268.028828,34636.084394,-30989.509045,-1232.944576,-16526.052836,-25200.608397,-13410.353769,-28386.000202,-15476.638434,-26616.837277,52199.436986,-8263.998719,-13407.448042,-10041.051810,-23.424000,-909.632019,-408.455994,4760.000000,-140.000000,1540.000000
-32209.780182,-22101.963711,-32276.053104,34632.686929,-30996.683955,-1242.242902,-16530.947868,-25209.750260,-13414.824118,-28392.683374,-15483.478067,-26619.966521,52190.406882,-8265.585693,-13404.676426,-10046.863263,-28.792000,-911.583984,-409.432007,5040.000000,140.000000,1260.000000
-32179.672382,-22070.805379,-32249.700397,34656.335074,-30960.876460,-1204.669619,-16497.308492,-25175.596795,-13388.739632,-28366.844757,-15457.550044,-26590.059887,52220.514681,-8257.650823,-13390.907751,-10021.717551,-31.232000,-914.512024,-404.552002,5040.000000,140.000000,980.000000
-32164.741417,-22062.155254,-32237.161069,34663.130005,-30947.979504,-1186.765872,-16485.484420,-25162.811597,-13377.183780,-28356.630010,-15446.754151,-26580.649803,52234.037487,-8253.225178,-13387.979673,-10016.241374,-35.136002,-915.000000,-401.136017,5180.000000,700.000000,140.000000
-32194.245719,-22093.112420,-32263.200851,34641.694682,-30982.065914,-1222.774532,-16513.491155,-25198.015594,-13407.313932,-28384.368525,-15473.330375,-26608.343614,52203.974391,-8266.859742,-13397.590923,-10042.303508,-33.184002,-916.463989,-396.744019,4620.000000,700.000000,-420.000000
-32205.645109,-22104.511810,-32273.393246,34630.675272,-30998.829722,-1242.131143,-16530.031446,-25219.294455,-13414.533545,-28391.945766,-15481.578169,-26616.099669,52192.127966,-8273.632321,-13403.983522,-10053.702897,-28.792000,-915.976013,-397.231995,3780.000000,980.000000,-1400.000000
-32175.514957,-22070.537158,-32248.001665,34654.211659,-30963.893946,-1206.725980,-16495.050966,-25188.381992,-13380.581245,-28365.034266,-15457.304175,-26585.723649,52219.106521,-8262.903483,-13388.873743,-10024.802092,-29.280001,-916.463989,-397.720001,3080.000000,1260.000000,-2660.000000
-32154.593725,-22047.894841,-32229.717938,34669.120272,-30938.032977,-1181.088529,-16471.492227,-25165.113826,-13362.118705,-28349.142176,-15442.328506,-26568.803378,52238.060801,-8253.292233,-13381.318853,-10009.066464,-25.375999,-918.416016,-401.623993,2800.000000,980.000000,-3780.000000
-32179.292402,-22075.521597,-32251.376778,34648.847240,-30967.336114,-1212.917413,-16498.180210,-25195.601606,-13388.538467,-28372.455045,-15464.032050,-26596.810114,52212.758626,-8259.975405,-13392.405318,-10037.564938,-25.864000,-917.440002,-401.623993,1820.000000,840.000000,-4200.000000
-32202.426458,-22099.884999,-32271.247479,34630.183533,-30992.437123,-1240.767686,-16521.001341,-25224.033025,-13411.985446,-28389.621185,-15482.472239,-26614.467992,52192.127966,-8268.044384,-13400.943685,-10054.529912,-26.352001,-912.072021,-405.528015,1120.000000,0.000000,-4200.000000
-32177.928946,-22073.487589,-32252.874345,34646.857935,-30967.581984,-1213.990297,-16497.621417,-25202.888275,-13382.525847,-28368.252917,-15462.176855,-26590.596329,52215.910222,-8264.691623,-13386.124478,-10031.842891,-24.888000,-912.559998,-405.040009,700.000000,-1400.000000,-3780.000000
-32150.503355,-22045.838481,-32229.695586,34666.192194,-30936.848335,-1181.468508,-16471.872207,-25173.495731,-13355.860216,-28349.924487,-15444.250756,-26568.199881,52243.469923,-8253.739268,-13375.619158,-10010.005237,-18.544001,-915.000000,-397.720001,-140.000000,-280.000000,-4900.000000
-32169.167062,-22066.782065,-32247.778147,34652.892906,-30959.289486,-1206.748331,-16492.726385,-25194.461667,-13375.976786,-28369.191691,-15464.210864,-26590.171646,52222.973373,-8257.606120,-13382.995234,-10027.886632,-17.568001,-918.416016,-398.696014,-1540.000000,700.000000,-7000.000000
-32200.079525,-22096.308720,-32274.108502,34633.066908,-30991.408943,-1242.220550,-16523.012998,-25226.737586,-13407.693912,-28393.957423,-15486.875532,-26616.390242,52193.647885,-8267.396184,-13396.495688,-10050.931281,-15.616000,-920.856018,-396.256012,-2520.000000,140.000000,-7840.000000
-32181.885205,-22078.092048,-32261.524470,34644.488650,-30972.722885,-1223.221567,-16508.193792,-25213.058318,-13387.599693,-28378.266499,-15470.849332,-26597.525370,52209.651734,-8266.837390,-13389.834868,-10034.681563,-14.152000,-916.952026,-395.279999,-3500.000000,-700.000000,-8400.000000
-32148.156422,-22045.234984,-32240.200906,34667.935630,-30939.932876,-1191.079759,-16480.164704,-25185.632728,-13354.876739,-28354.506594,-15449.548119,-26571.664401,52235.982089,-8262.299986,-13374.613330,-10009.580554,-13.176001,-915.976013,-401.623993,-4340.000000,-1120.000000,-8680.000000
-32161.522765,-22057.282574,-32253.701359,34662.280638,-30951.958114,-1204.937840,-16490.334748,-25198.484981,-13369.874760,-28369.303449,-15465.417858,-26585.388373,52219.575908,-8258.768411,-13374.590978,-10018.633010,-9.760000,-909.143982,-397.231995,-4620.000000,280.000000,-8540.000000
-32193.306946,-22089.469086,-32275.293145,34637.827830,-30985.664545,-1238.420753,-16524.644676,-25233.130185,-13403.424728,-28394.292700,-15488.395451,-26609.841181,52191.368007,-8260.534198,-13395.154583,-10044.963365,-12.688000,-909.143982,-399.671997,-5180.000000,1540.000000,-7560.000000
-32185.752056,-22081.780086,-32267.000647,34640.845316,-30978.221414,-1229.256538,-16520.174327,-25224.837688,-13392.561781,-28383.630918,-15478.515980,-26600.788725,52199.995780,-8258.746059,-13394.439327,-10038.838987,-19.520000,-911.583984,-402.600006,-4900.000000,3640.000000,-5880.000000
-32151.553887,-22046.106702,-32240.692644,34668.427368,-30941.922181,-1190.364503,-16484.836219,-25188.873731,-13354.317946,-28354.461891,-15448.363477,-26572.871396,52231.690554,-8248.777181,-13366.410240,-10011.279286,-19.520000,-912.072021,-401.623993,-5040.000000,3500.000000,-4060.000000
-32155.979533,-22048.140710,-32240.737348,34669.656714,-30941.385739,-1191.817366,-16487.339614,-25192.360603,-13360.844655,-28360.809786,-15454.443151,-26575.151274,52231.467036,-8243.032782,-13362.766905,-10013.894440,-24.888000,-911.583984,-406.015991,-4900.000000,3780.000000,-2380.000000
-32189.797722,-22080.148408,-32268.900546,34648.422557,-30977.550862,-1231.134085,-16519.839051,-25229.688016,-13391.868876,-28389.732944,-15485.445021,-26602.867437,52200.822795,-8248.620719,-13374.590978,-10040.157740,-21.472000,-915.000000,-402.600006,-4060.000000,4340.000000,-700.000000
-32190.512978,-22077.577958,-32272.409770,34650.635380,-30980.657754,-1237.481980,-16517.089786,-25233.756034,-13387.040900,-28390.291737,-15485.422669,-26600.833428,52197.425329,-8248.486608,-13366.767867,-10038.883691,-26.840000,-911.583984,-402.112000,-2800.000000,4340.000000,420.000000
-32154.616076,-22037.724797,-32238.457470,34676.786921,-30939.597599,-1197.517061,-16484.009204,-25201.524818,-13350.808722,-28358.708722,-15453.325564,-26565.003582,52231.444684,-8233.555643,-13353.759152,-10018.029513,-25.375999,-909.632019,-402.600006,-2940.000000,3220.000000,1260.000000
-32148.558754,-22033.053283,-32227.750984,34680.363200,-30929.695777,-1188.531660,-16480.097649,-25195.378088,-13348.148864,-28352.874917,-15448.095256,-26558.141596,52239.021926,-8227.766541,-13361.626966,-10019.951763,-25.864000,-908.656006,-404.552002,-2800.000000,2660.000000,1120.000000
-32183.494530,-22072.012373,-32259.088130,34657.005627,-30966.576155,-1229.256538,-16508.551420,-25229.509202,-13383.062289,-28384.413229,-15477.331338,-26593.345594,52204.801405,-8240.663498,-13373.272225,-10045.902138,-21.472000,-911.096008,-410.895996,-2800.000000,2380.000000,140.000000
-32190.222405,-22082.271824,-32273.393246,34651.596505,-30980.747161,-1247.562617,-16516.665103,-25243.657856,-13384.202228,-28392.906891,-15483.701585,-26605.594350,52189.065777,-8252.241701,-13364.622100,-10055.915720,-20.007999,-909.632019,-405.040009,-2520.000000,1400.000000,-980.000000
-32158.974666,-22054.220385,-32245.297104,34672.405979,-30944.112652,-1209.028209,-16490.401803,-25212.186600,-13355.971975,-28368.588193,-15457.885320,-26574.972460,52221.229937,-8242.339878,-13357.603652,-10032.535795,-21.472000,-908.168030,-407.968018,-2100.000000,700.000000,-2380.000000
-32146.770614,-22044.162100,-32230.187324,34683.000706,-30925.739518,-1191.035055,-16480.298815,-25199.982548,-13348.573547,-28360.116882,-15448.542291,-26562.187262,52237.904339,-8233.354477,-13356.508417,-10024.332705,-16.592001,-908.168030,-411.384003,-700.000000,-420.000000,-3920.000000
-32178.621850,-22078.852007,-32260.675104,34663.375874,-30961.725826,-1229.077724,-16508.998455,-25236.348836,-13380.827115,-28388.928281,-15475.006756,-26597.234797,52205.091978,-8244.105666,-13359.861178,-10050.439543,-18.544001,-907.679993,-413.335999,0.000000,-1820.000000,-4760.000000
-32193.128132,-22095.012318,-32277.170691,34652.289409,-30981.015382,-1250.289530,-16523.549440,-25260.131092,-13392.673539,-28402.741659,-15487.009643,-26611.115230,52187.277637,-8250.297099,-13359.950585,-10062.420078,-14.152000,-908.656006,-407.968018,840.000000,-2380.000000,-5600.000000
-32163.757940,-22063.339897,-32252.941400,34672.383627,-30950.505251,-1218.326535,-16498.068452,-25233.085481,-13360.129399,-28378.914699,-15463.070925,-26582.326184,52211.685742,-8240.328221,-13347.366553,-10039.241319,-11.224000,-911.096008,-403.576019,1820.000000,-1820.000000,-6020.000000
-32144.356626,-22040.429359,-32235.305874,34686.889909,-30924.666634,-1193.471395,-16480.902312,-25213.594760,-13341.130417,-28361.547394,-15447.871738,-26563.438960,52229.947118,-8230.381695,-13342.739742,-10026.612583,-12.200000,-912.559998,-406.015991,3500.000000,-980.000000,-6160.000000
-32173.145672,-22069.866606,-32259.132833,34669.120272,-30952.628666,-1221.545186,-16506.182135,-25242.540269,-13370.835885,-28385.620223,-15471.966919,-26593.993794,52205.315495,-8238.651841,-13352.194530,-10051.288909,-10.736000,-915.000000,-403.088013,4900.000000,-840.000000,-5040.000000
-32197.531426,-22092.732441,-32282.602165,34653.205830,-30978.713152,-1252.748221,-16527.550403,-25270.748171,-13392.047690,-28405.133296,-15495.391547,-26618.178382,52179.543934,-8248.687774,-13359.570606,-10070.019671,-10.736000,-913.048035,-405.528015,5600.000000,-1120.000000,-3500.000000
-32173.682114,-22066.044458,-32262.887926,34666.527470,-30952.002818,-1226.127294,-16507.411481,-25247.703522,-13365.762039,-28380.479322,-15474.738535,-26592.362117,52205.337847,-8240.752905,-13353.178007,-10051.959461,-11.712000,-909.632019,-407.480011,6020.000000,-700.000000,-2100.000000
-32146.748262,-22039.200013,-32241.653769,34685.794674,-30922.297349,-1191.102110,-16479.024765,-25218.668606,-13341.018658,-28356.004161,-15453.057343,-26568.982192,52234.886853,-8232.393352,-13340.281050,-10032.379333,-13.176001,-909.143982,-402.600006,5040.000000,-420.000000,-700.000000
-32165.926059,-22058.802492,-32255.847127,34674.954078,-30940.648131,-1210.503424,-16491.362928,-25235.924153,-13360.576434,-28371.695086,-15470.849332,-26589.366983,52217.273678,-8233.734457,-13339.968126,-10045.008069,-15.616000,-910.119995,-406.503998,4200.000000,-140.000000,700.000000
-32192.859911,-22087.658595,-32276.455435,34653.764624,-30970.644173,-1245.193332,-16518.140318,-25267.551871,-13387.957321,-28392.124580,-15492.530524,-26615.317358,52190.943323,-8238.405971,-13347.388905,-10067.538627,-15.616000,-909.143982,-405.528015,3640.000000,140.000000,1680.000000
-32172.653934,-22068.346687,-32261.323304,34664.962848,-30951.287562,-1227.088419,-16503.879905,-25256.174833,-13366.276129,-28373.907909,-15476.146695,-26595.647823,52207.483614,-8233.354477,-13340.661030,-10055.222816,-17.080000,-907.192017,-405.528015,2660.000000,280.000000,2100.000000
-32141.607361,-22035.154347,-32236.199944,34690.801464,-30915.502419,-1190.990352,-16471.313414,-25221.417871,-13334.246079,-28349.745673,-15450.285727,-26566.590555,52235.557405,-8222.558585,-13321.617344,-10030.792359,-17.080000,-906.704041,-405.040009,2100.000000,140.000000,2240.000000
-32153.096158,-22045.682018,-32246.504098,34686.845206,-30924.823096,-1204.870785,-16474.956748,-25229.084519,-13347.612422,-28363.112016,-15461.059268,-26579.532216,52223.643926,-8222.983268,-13317.728140,-10039.218967,-17.568001,-903.776001,-402.600006,1400.000000,140.000000,1820.000000
-32184.701524,-22076.639185,-32275.404903,34665.119310,-30958.730693,-1244.455724,-16503.835202,-25266.121360,-13375.887379,-28393.063354,-15487.501381,-26608.276559,52190.675103,-8232.460407,-13327.115873,-10065.996357,-20.007999,-908.656006,-408.455994,700.000000,0.000000,1400.000000
-32177.079579,-22069.486626,-32266.285392,34666.192194,-30951.466376,-1236.252634,-16504.058719,-25265.070828,-13364.935024,-28384.480284,-15477.040765,-26596.787762,52199.571097,-8231.342820,-13333.843748,-10060.743697,-17.568001,-908.168030,-407.480011,420.000000,140.000000,840.000000
-32140.333312,-22032.852117,-32238.122194,34690.935575,-30915.725936,-1198.925221,-16471.045193,-25231.297342,-13326.087693,-28353.411359,-15445.100122,-26566.702314,52231.087057,-8224.302021,-13311.290838,-10032.446388,-20.007999,-910.608032,-406.503998,840.000000,0.000000,560.000000
-32140.109794,-22030.035797,-32237.339883,34692.388438,-30914.742460,-1200.176919,-16470.039364,-25229.576257,-13325.506547,-28355.020685,-15447.201186,-26569.876262,52228.516606,-8219.876375,-13305.926419,-10032.312278,-20.007999,-912.559998,-408.455994,1260.000000,-140.000000,560.000000
-32176.565489,-22066.022106,-32262.351485,34665.812214,-30949.633533,-1236.476152,-16503.499926,-25264.668496,-13362.565739,-28385.642575,-15475.364384,-26601.056945,52198.766434,-8227.498320,-13324.679533,-10058.463819,-17.568001,-906.704041,-405.040009,1820.000000,0.000000,560.000000
-32182.645164,-22072.057077,-32261.747987,34659.889002,-30950.996989,-1238.733678,-16508.059681,-25267.238947,-13368.220731,-28386.849569,-15477.532503,-26599.402916,52197.827661,-8225.956050,-13335.073094,-10058.732040,-17.568001,-910.119995,-409.432007,1820.000000,280.000000,420.000000
-32149.788100,-22041.792815,-32232.422499,34680.385551,-30915.681233,-1200.221622,-16479.136524,-25231.140880,-13335.810701,-28357.255859,-15449.883395,-26569.004544,52230.237690,-8212.008561,-13324.947754,-10035.262708,-19.032000,-909.143982,-406.015991,2100.000000,560.000000,560.000000
-32144.982474,-22037.076597,-32233.629493,34686.711095,-30913.513114,-1198.589945,-16468.407687,-25225.999978,-13326.892355,-28358.351095,-15449.682230,-26573.296079,52229.164807,-8213.260259,-13304.719425,-10035.732095,-17.568001,-909.632019,-406.503998,1960.000000,700.000000,700.000000
-32172.922155,-22064.278670,-32259.356351,34668.047389,-30945.476108,-1236.252634,-16496.459126,-25264.087351,-13352.909786,-28385.195540,-15479.857085,-26598.508847,52196.441853,-8220.725741,-13311.067320,-10063.738831,-17.080000,-912.072021,-402.600006,1540.000000,1260.000000,140.000000
-32182.689867,-22072.995850,-32262.150319,34659.441967,-30956.920201,-1244.478076,-16507.478536,-25276.380810,-13362.856312,-28391.208159,-15486.227332,-26601.682794,52191.077434,-8223.854986,-13321.013847,-10070.131429,-19.520000,-910.119995,-409.432007,560.000000,1540.000000,-280.000000
-32154.929001,-22043.670361,-32234.389452,34677.122197,-30926.700643,-1207.754160,-16480.097649,-25243.009656,-13334.290783,-28365.056618,-15457.482989,-26576.045343,52223.778036,-8218.714084,-13312.453128,-10045.678621,-19.520000,-917.440002,-411.872009,280.000000,1400.000000,-700.000000
-32141.026216,-22025.900725,-32223.638263,34688.767456,-30909.534503,-1191.817366,-16462.417419,-25226.424661,-13318.197527,-28355.959458,-15450.799817,-26566.478797,52233.858673,-8215.361323,-13298.751509,-10035.508577,-18.056000,-914.512024,-406.503998,280.000000,840.000000,-1120.000000
-32168.362399,-22047.805434,-32247.688740,34674.775264,-30935.730748,-1224.137989,-16485.216199,-25258.007676,-13342.717390,-28380.412266,-15480.505285,-26590.797495,52202.230954,-8217.328276,-13302.506602,-10058.933205,-20.496000,-915.000000,-404.552002,840.000000,560.000000,-1540.000000
-32186.221443,-22064.301022,-32260.898621,34661.811252,-30954.506213,-1243.673413,-16502.695263,-25279.867682,-13359.414143,-28390.314089,-15490.965902,-26602.845085,52186.830603,-8222.893861,-13309.703864,-10072.478363,-23.424000,-906.704041,-405.528015,980.000000,1120.000000,-1960.000000
-32155.085463,-22033.947353,-32236.602275,34679.826758,-30923.169067,-1212.269212,-16477.504847,-25255.370171,-13326.601783,-28362.173243,-15464.479085,-26574.056038,52215.396132,-8215.249564,-13297.544515,-10049.321955,-22.936001,-902.799988,-404.552002,0.000000,840.000000,-1960.000000
-32131.280855,-22009.606303,-32217.580940,34697.305822,-30898.895073,-1186.967038,-16457.298870,-25236.773519,-13301.433718,-28344.493013,-15448.363477,-26554.520613,52236.384420,-8203.559602,-13287.039195,-10031.619374,-15.128000,-903.288025,-406.992004,-840.000000,980.000000,-2240.000000
-32156.605382,-22035.780196,-32236.490516,34680.854938,-30924.487820,-1212.962116,-16479.807076,-25262.276860,-13328.993419,-28364.497824,-15469.240006,-26576.917061,52215.664353,-8204.297209,-13299.131489,-10048.427886,-17.568001,-901.335999,-407.968018,-1120.000000,1540.000000,-2240.000000
-32178.241870,-22058.757789,-32257.344694,34665.387531,-30952.606315,-1244.075745,-16504.081071,-25292.138790,-13347.143036,-28380.456970,-15488.015471,-26598.173570,52192.284428,-8212.455596,-13306.932248,-10066.868075,-15.128000,-901.335999,-411.872009,-1120.000000,1120.000000,-1400.000000
-32156.426568,-22037.054245,-32238.457470,34678.865633,-30931.215695,-1219.354715,-16486.512600,-25273.989174,-13323.830166,-28361.145063,-15469.910558,-26577.609966,52212.177481,-8207.135881,-13301.389015,-10049.478418,-18.544001,-902.312012,-409.920013,-1400.000000,700.000000,-700.000000
-32126.296416,-22007.661701,-32211.881246,34701.083267,-30896.279919,-1184.284828,-16455.734248,-25240.796833,-13296.069300,-28336.356978,-15448.162311,-26549.647933,52241.547673,-8193.724834,-13289.721404,-10023.751560,-6.344000,-908.168030,-413.335999,-1820.000000,0.000000,280.000000
-32142.568486,-22025.006655,-32228.242723,34691.762589,-30911.881436,-1204.446102,-16467.066582,-25258.588822,-13315.425910,-28353.187842,-15467.608329,-26567.864605,52221.922841,-8195.736491,-13288.357948,-10036.469702,-10.736000,-909.632019,-414.800018,-2940.000000,1540.000000,0.000000
-32171.044608,-22052.298135,-32258.641095,34673.076531,-30946.169012,-1242.131143,-16495.654463,-25293.926930,-13339.319925,-28379.473493,-15494.810402,-26597.011280,52188.171707,-8209.281648,-13287.866209,-10061.458953,-10.736000,-911.583984,-410.895996,-1260.000000,1680.000000,1120.000000
-32158.818204,-22039.088254,-32243.821888,34681.279621,-30927.415899,-1224.339154,-16487.183152,-25283.600424,-13327.607611,-28365.727170,-15484.349785,-26577.028820,52202.633286,-8202.039683,-13291.598951,-10051.311261,-9.272000,-915.000000,-410.895996,-140.000000,1680.000000,1540.000000
-32130.431489,-22014.434280,-32219.972577,34703.184331,-30896.414029,-1189.492785,-16458.349402,-25254.029066,-13302.014864,-28341.766100,-15459.293480,-26554.632372,52232.405809,-8193.970703,-13279.238436,-10035.486226,-12.200000,-919.880005,-411.872009,1120.000000,980.000000,2380.000000
-32143.954294,-22025.945428,-32234.277694,34700.524473,-30909.422744,-1205.742503,-16466.530140,-25268.736514,-13312.274314,-28357.300563,-15475.096163,-26574.145445,52217.541899,-8198.865735,-13273.292872,-10052.808827,-12.200000,-919.392029,-404.552002,2240.000000,-700.000000,2800.000000
-32177.034876,-22057.774312,-32258.484633,34678.619764,-30941.564553,-1241.102963,-16496.056795,-25304.722822,-13344.974917,-28384.122656,-15505.539239,-26602.442754,52185.154222,-8197.681093,-13284.066413,-10075.227627,-14.640000,-918.416016,-402.600006,3360.000000,-1820.000000,3220.000000
-32172.296306,-22054.376847,-32251.376778,34678.485653,-30935.194306,-1233.235149,-16495.453298,-25301.973558,-13342.113893,-28378.557072,-15500.353634,-26593.591463,52189.155184,-8190.305017,-13291.330730,-10065.683432,-14.640000,-911.583984,-403.088013,3920.000000,-2660.000000,3080.000000
-32135.482983,-22018.725815,-32221.716013,34703.273738,-30897.308099,-1193.761968,-16465.166684,-25266.031953,-13306.708730,-28349.164528,-15471.564588,-26561.829634,52221.609917,-8177.408061,-13281.563018,-10037.989621,-15.128000,-909.143982,-402.112000,5040.000000,-4060.000000,2800.000000
-32138.969855,-22024.917248,-32226.566342,34703.184331,-30901.197302,-1197.025323,-16466.954823,-25267.931851,-13311.223782,-28351.869089,-15472.369250,-26572.267899,52220.246460,-8175.351700,-13279.081974,-10042.459970,-15.616000,-911.096008,-403.088013,5740.000000,-4340.000000,2520.000000
-32175.716123,-22058.355458,-32257.948191,34680.899642,-30938.189440,-1237.996070,-16495.609760,-25305.236912,-13347.388905,-28380.792246,-15504.511059,-26605.527294,52186.092995,-8183.398328,-13289.162611,-10067.940958,-18.544001,-903.288025,-402.112000,4900.000000,-4060.000000,2100.000000
-32180.186472,-22062.334068,-32262.776168,34679.245613,-30941.095166,-1241.549998,-16497.464955,-25312.322415,-13350.898129,-28380.948708,-15508.668483,-26605.549646,52182.226143,-8189.455651,-13290.369605,-10065.616377,-17.568001,-904.752014,-406.503998,3780.000000,-5320.000000,2100.000000
-32142.836707,-22026.727739,-32231.841353,34702.446723,-30902.784276,-1199.528718,-16469.279405,-25280.091200,-13314.308323,-28348.739844,-15480.840561,-26569.764503,52217.050161,-8177.475116,-13282.144163,-10039.889519,-16.592001,-904.264038,-411.384003,2100.000000,-6300.000000,1820.000000
-32137.338178,-22020.804527,-32223.995891,34704.972470,-30894.961166,-1190.096282,-16465.591367,-25273.318621,-13312.386073,-28345.677655,-15476.973710,-26564.914175,52224.694458,-8170.389613,-13286.368643,-10039.666002,-15.128000,-901.335999,-408.455994,840.000000,-5880.000000,1960.000000
-32171.782216,-22056.634373,-32260.004551,34681.659601,-30936.736576,-1234.062163,-16493.329882,-25310.377814,-13342.739742,-28377.484188,-15505.114556,-26605.728460,52188.350521,-8188.181602,-13283.686433,-10070.176133,-14.152000,-906.216003,-407.480011,700.000000,-3360.000000,2100.000000
-32178.040704,-22060.367115,-32266.084226,34676.183424,-30942.548030,-1246.892064,-16500.705957,-25326.873401,-13346.181911,-28381.440447,-15512.311818,-26607.985986,52180.326245,-8190.684997,-13284.580503,-10079.787383,-15.616000,-906.704041,-403.088013,1400.000000,-2660.000000,2520.000000
-32141.964989,-22026.660684,-32234.568266,34699.675107,-30904.438305,-1206.524814,-16469.257053,-25293.256377,-13311.492003,-28350.215060,-15483.254550,-26573.698410,52214.099731,-8174.949369,-13277.182076,-10056.072182,-15.616000,-909.143982,-407.480011,1400.000000,-2520.000000,3080.000000
-32125.178829,-22011.036815,-32219.726708,34714.181389,-30884.902881,-1188.799881,-16453.655535,-25279.286537,-13298.080957,-28339.240353,-15475.185570,-26562.164910,52227.264908,-8164.332290,-13274.388108,-10045.969194,-15.616000,-915.000000,-405.528015,1400.000000,-1820.000000,3080.000000
-32152.425605,-22042.597478,-32247.621685,34694.645964,-30920.397451,-1227.110771,-16481.774030,-25314.289369,-13323.830166,-28366.353019,-15502.208829,-26594.396126,52194.854879,-8178.726814,-13281.697128,-10069.058546,-15.128000,-913.048035,-410.895996,2100.000000,-1820.000000,3920.000000
-32172.341010,-22064.122208,-32267.671200,34681.436083,-30944.090300,-1252.703518,-16501.018882,-25339.725654,-13339.901071,-28384.413229,-15518.436196,-26615.004434,52172.011396,-8192.093157,-13279.774878,-10077.418098,-13.664001,-913.048035,-407.968018,2100.000000,-1820.000000,4060.000000
-32148.782271,-22038.976495,-32241.989045,34696.679973,-30911.657919,-1217.343058,-16479.874132,-25315.272846,-13317.594030,-28361.927374,-15495.279788,-26585.522483,52202.700341,-8177.720985,-13279.752526,-10052.294737,-18.056000,-909.632019,-409.920013,2100.000000,-1820.000000,4060.000000
-32130.163268,-22020.916286,-32226.186362,34710.381593,-30890.915500,-1191.504442,-16457.812960,-25294.530427,-13297.768032,-28345.074158,-15476.146695,-26572.402009,52225.342658,-8167.595645,-13272.376451,-10040.962403,-16.104000,-907.192017,-408.455994,1680.000000,-1400.000000,4060.000000
-32154.146690,-22041.479891,-32245.274752,34699.317479,-30912.507285,-1218.527701,-16474.487361,-25321.106651,-13320.209184,-28366.196557,-15500.264227,-26595.625472,52203.236783,-8169.875523,-13273.426983,-10063.001223,-20.007999,-907.679993,-407.968018,1400.000000,-1540.000000,3920.000000
-32178.577146,-22062.267013,-32261.815043,34683.313630,-30933.786146,-1246.713250,-16496.503830,-25350.722712,-13342.806797,-28385.173188,-15523.733559,-26610.779954,52180.996797,-8176.066956,-13285.765146,-10080.815563,-18.056000,-904.752014,-411.872009,840.000000,-1400.000000,3780.000000
-32158.952315,-22041.725760,-32239.351540,34695.964717,-30909.132172,-1220.271137,-16478.823600,-25330.539087,-13323.763111,-28365.123673,-15499.973655,-26585.231910,52204.510832,-8169.272026,-13285.295759,-10062.777706,-18.056000,-904.264038,-408.455994,0.000000,-1400.000000,3500.000000
-32128.464535,-22012.377919,-32219.592597,34717.578854,-30881.147788,-1188.978695,-16446.838253,-25300.185418,-13290.324901,-28342.928391,-15473.978576,-26563.953050,52228.002516,-8162.879427,-13266.095610,-10043.108170,-21.472000,-907.679993,-404.063995,-840.000000,-1540.000000,3080.000000
-32141.383844,-22023.844364,-32232.578961,34708.638156,-30894.983518,-1207.910622,-16459.757562,-25318.759718,-13302.126622,-28356.652362,-15490.742384,-26578.369925,52211.641039,-8162.767668,-13270.811828,-10055.066354,-18.544001,-907.679993,-410.407990,-1540.000000,-1540.000000,2520.000000
-32173.570356,-22056.053228,-32263.558479,34689.438008,-30928.689948,-1249.060184,-16485.774992,-25358.814044,-13332.972030,-28385.575519,-15516.648056,-26609.863533,52176.593504,-8176.402232,-13271.840009,-10077.194581,-22.448000,-908.168030,-406.992004,-2100.000000,-1260.000000,1960.000000
-32161.411007,-22046.821957,-32250.013322,34695.294165,-30914.943625,-1234.196274,-16479.762373,-25350.387436,-13324.903050,-28372.455045,-15501.672387,-26596.094858,52188.842260,-8175.016424,-13279.417250,-10069.706746,-23.912001,-909.632019,-405.040009,-3360.000000,-1260.000000,980.000000
-32131.280855,-22021.497431,-32224.509981,34712.817933,-30885.327564,-1197.606468,-16453.052038,-25318.290331,-13297.857439,-28348.538679,-15476.347861,-26572.223195,52217.921879,-8169.339081,-13278.277311,-10049.321955,-22.448000,-913.048035,-408.944000,-4200.000000,-560.000000,-140.000000
-32135.013596,-22025.565448,-32230.612007,34708.571101,-30894.067096,-1208.156491,-16458.528216,-25331.857840,-13301.053739,-28355.490071,-15482.427535,-26578.727553,52210.322286,-8171.261331,-13279.461954,-10059.581406,-21.960001,-913.048035,-412.847992,-4060.000000,-420.000000,-700.000000
-32164.115568,-22054.510958,-32259.266944,34689.728581,-30929.159335,-1248.389631,-16486.557303,-25372.068628,-13326.087693,-28378.668830,-15505.427480,-26605.706108,52179.968617,-8181.230209,-13286.368643,-10084.525953,-20.984001,-912.559998,-417.239990,-3080.000000,-420.000000,-1120.000000
-32155.063111,-22042.932754,-32254.595429,34697.484636,-30920.553913,-1245.215684,-16476.476667,-25372.359201,-13313.615419,-28367.291792,-15496.106803,-26594.463181,52186.517678,-8179.017386,-13275.460991,-10080.368528,-22.936001,-910.119995,-412.847992,-1960.000000,0.000000,-1540.000000
-32111.343099,-21999.503314,-32217.916217,34726.094869,-30876.677439,-1204.311991,-16437.964611,-25340.753834,-13270.454201,-28329.763213,-15458.064134,-26554.498262,52223.621574,-8159.504313,-13257.177264,-10054.574615,-22.448000,-911.583984,-410.407990,-1680.000000,560.000000,-1960.000000
-32107.319785,-21993.669509,-32210.718955,34732.599227,-30865.881546,-1201.272154,-16429.448596,-25338.876288,-13269.358965,-28327.170411,-15459.516997,-26549.156195,52225.521472,-8145.914453,-13252.796322,-10050.931281,-21.960001,-906.704041,-413.824005,-1960.000000,840.000000,-2240.000000
-32135.840611,-22022.033873,-32236.758737,34713.667299,-30898.358631,-1239.963024,-16455.846006,-25374.504968,-13293.208276,-28352.807862,-15488.194285,-26576.201806,52194.430196,-8149.021345,-13256.841988,-10071.830162,-20.007999,-908.656006,-414.800018,-840.000000,980.000000,-2380.000000
-32133.001939,-22019.284608,-32242.324322,34714.941348,-30899.722087,-1247.607320,-16452.403838,-25378.438875,-13283.351157,-28355.802996,-15492.485820,-26575.240681,52187.903486,-8148.663717,-13240.435808,-10064.252921,-18.056000,-907.192017,-412.360016,140.000000,840.000000,-2240.000000
-32099.027288,-21987.053393,-32212.931778,34735.527305,-30860.047741,-1207.173015,-16422.251334,-25345.000666,-13251.634032,-28329.450289,-15467.094239,-26541.668360,52220.000591,-8133.464531,-13232.612697,-10034.927432,-19.032000,-908.656006,-410.895996,420.000000,840.000000,-2240.000000
-32092.835855,-21981.420753,-32210.182513,34743.171602,-30852.559907,-1198.589945,-16412.125994,-25335.724692,-13245.800226,-28327.304521,-15465.216692,-26540.774291,52223.666277,-8133.308069,-13223.828462,-10029.652420,-18.544001,-906.704041,-411.384003,560.000000,420.000000,-1960.000000
-32129.872695,-22015.015425,-32241.050272,34722.049203,-30891.049611,-1236.967890,-16439.350419,-25371.152207,-13282.367680,-28359.379275,-15497.626722,-26574.458370,52190.451585,-8147.881406,-13231.383351,-10053.457028,-17.568001,-909.632019,-413.335999,1260.000000,140.000000,-1960.000000
-32152.425605,-22037.367170,-32253.813118,34706.514741,-30914.004852,-1251.742393,-16460.338707,-25389.704155,-13306.149936,-28374.466702,-15509.875478,-26590.708088,52178.716919,-8157.112677,-13246.806055,-10066.778668,-17.568001,-910.608032,-407.480011,1680.000000,-280.000000,-1540.000000
-32126.475230,-22015.931847,-32227.505115,34720.372822,-30888.032125,-1213.051523,-16441.004448,-25361.071570,-13281.652425,-28349.835080,-15479.231236,-26566.322335,52211.126949,-8147.121447,-13249.085933,-10047.086781,-20.984001,-911.583984,-411.384003,2520.000000,-840.000000,-1120.000000
-32110.873712,-22003.146649,-32213.267054,34729.090003,-30871.335372,-1194.298410,-16427.839271,-25347.593468,-13268.151971,-28339.955609,-15463.540311,-26554.431207,52228.717772,-8135.900871,-13246.068447,-10040.783589,-14.152000,-915.976013,-406.503998,2660.000000,-1260.000000,-280.000000
-32139.327483,-22027.845326,-32234.322397,34712.415601,-30895.274090,-1227.915433,-16452.068562,-25383.557425,-13298.751509,-28366.643592,-15489.311873,-26576.604137,52203.303838,-8139.410095,-13255.165607,-10066.599854,-11.712000,-918.416016,-409.920013,3780.000000,-140.000000,-560.000000
-32158.885259,-22048.341876,-32249.834508,34696.478808,-30915.100088,-1249.127239,-16472.721573,-25406.356204,-13318.152823,-28383.161531,-15503.549934,-26592.786800,52185.802422,-8145.020383,-13263.994546,-10080.904970,-15.616000,-918.416016,-410.407990,3780.000000,140.000000,-1120.000000
-32135.259466,-22026.995960,-32230.969635,34709.219302,-30892.211901,-1218.505349,-16449.453407,-25379.511759,-13292.113041,-28361.256821,-15479.320643,-26572.245547,52209.763492,-8136.191444,-13255.858511,-10058.441467,-16.104000,-918.903992,-406.503998,3920.000000,-140.000000,-1400.000000
-32112.617148,-22003.705442,-32218.497362,34728.106526,-30868.429645,-1194.186651,-16422.921887,-25357.294125,-13268.800171,-28345.968228,-15461.305137,-26556.576974,52228.762475,-8127.988354,-13239.295869,-10043.421095,-16.104000,-918.416016,-407.968018,3780.000000,-560.000000,-1540.000000
-32133.113698,-22022.726777,-32235.484688,34714.628424,-30887.898015,-1219.667640,-16443.284326,-25385.054992,-13292.001282,-28366.688295,-15483.634530,-26576.112399,52208.154167,-8128.569499,-13247.655421,-10064.856418,-15.616000,-915.976013,-401.136017,3640.000000,-560.000000,-1400.000000
-32154.727835,-22043.983286,-32256.830604,34698.892796,-30913.758983,-1251.273006,-16465.971347,-25417.330911,-13310.441471,-28385.530816,-15504.019320,-26598.508847,52182.851992,-8138.873653,-13251.030535,-10084.570656,-18.056000,-911.096008,-402.600006,3640.000000,-420.000000,-1820.000000
-32130.565599,-22022.994998,-32238.368063,34712.460305,-30890.490817,-1226.775494,-16448.648745,-25401.639986,-13285.251055,-28365.280135,-15482.136963,-26577.028820,52204.287315,-8133.039848,-13246.291965,-10067.292758,-20.496000,-911.096008,-407.968018,3360.000000,0.000000,-2240.000000
-32103.497637,-21998.296320,-32214.451696,34733.113317,-30859.645410,-1194.052541,-16422.273686,-25377.924785,-13258.540721,-28345.387083,-15461.483951,-26552.464253,52231.288222,-8125.440255,-13239.653497,-10045.969194,-18.056000,-911.583984,-405.528015,2520.000000,560.000000,-2660.000000
-32122.161343,-22014.546038,-32226.722804,34725.089040,-30871.469482,-1209.229375,-16434.567146,-25400.768268,-13281.406555,-28364.162548,-15483.500419,-26565.338858,52215.262021,-8124.680296,-13247.968346,-10059.201426,-19.032000,-909.143982,-414.800018,1820.000000,420.000000,-2940.000000
-32155.264277,-22046.330219,-32253.343732,34702.312613,-30903.678346,-1245.349794,-16461.925681,-25437.268667,-13313.682474,-28389.755295,-15510.009588,-26592.093896,52185.265980,-8130.111769,-13255.031497,-10080.167363,-16.592001,-909.632019,-414.800018,2240.000000,420.000000,-3080.000000
-32143.127280,-22032.293324,-32249.901563,34712.661470,-30893.530654,-1237.593739,-16444.200748,-25429.959646,-13294.527029,-28380.702839,-15498.386681,-26584.628413,52194.005512,-8135.297374,-13228.947011,-10064.856418,-19.520000,-908.168030,-413.824005,3080.000000,560.000000,-3220.000000
-32109.532608,-21998.273968,-32221.872475,34734.409718,-30855.487985,-1199.998105,-16412.997712,-25400.164771,-13263.122828,-28353.545469,-15471.855160,-26554.632372,52227.913109,-8126.334325,-13217.368807,-10038.883691,-20.007999,-905.728027,-406.992004,3500.000000,140.000000,-3360.000000
-32116.484000,-22009.069861,-32227.616874,34725.290206,-30865.501567,-1209.095265,-16425.224116,-25414.805164,-13273.047003,-28360.630972,-15479.097125,-26564.243622,52222.571042,-8125.373200,-13232.858566,-10050.171322,-20.496000,-907.679993,-408.944000,2520.000000,140.000000,-3920.000000
-32150.391597,-22039.468234,-32257.031769,34703.720773,-30902.828980,-1247.808486,-16457.656498,-25453.987772,-13306.149936,-28391.543435,-15509.003760,-26592.809152,52190.183364,-8132.391647,-13250.471741,-10075.317034,-20.007999,-904.752014,-404.063995,1400.000000,420.000000,-4340.000000
-32150.279838,-22040.027027,-32255.891830,34703.273738,-30902.828980,-1242.108791,-16458.416457,-25451.104397,-13306.284047,-28389.643537,-15507.416786,-26589.836370,52194.094919,-8131.497578,-13252.081067,-10067.918607,-21.960001,-908.168030,-405.040009,980.000000,560.000000,-4620.000000
-32114.472343,-22007.326425,-32227.840391,34725.916055,-30866.999133,-1202.903831,-16430.007390,-25419.767251,-13268.487247,-28358.932240,-15481.019375,-26560.712047,52226.616708,-8119.449987,-13239.385276,-10040.157740,-20.496000,-910.608032,-404.063995,560.000000,140.000000,-4340.000000
-32113.019480,-22005.024195,-32227.393356,34728.307692,-30864.763959,-1203.909660,-16429.627410,-25421.711853,-13266.654404,-28359.312220,-15484.416841,-26563.528367,52226.169673,-8112.498595,-13239.631145,-10044.002240,-20.007999,-912.559998,-405.040009,1680.000000,280.000000,-3640.000000
-32144.110756,-22034.595553,-32258.305819,34709.956909,-30901.599634,-1247.182637,-16457.634146,-25459.955688,-13295.219933,-28388.861226,-15513.205887,-26594.664347,52188.529335,-8122.087493,-13245.040267,-10072.724232,-20.496000,-915.488037,-406.503998,2660.000000,-280.000000,-2800.000000
-32149.542230,-22039.624696,-32263.893755,34705.218340,-30908.238102,-1253.441126,-16462.260957,-25467.801150,-13299.064433,-28392.303394,-15513.876440,-26596.653652,52180.885038,-8124.389723,-13246.068447,-10074.087688,-15.616000,-919.392029,-401.136017,4060.000000,-560.000000,-1540.000000
-32116.484000,-22007.214666,-32234.121231,34728.866485,-30869.413122,-1214.549090,-16428.196898,-25432.977132,-13265.425058,-28363.268478,-15485.199152,-26564.623602,52214.300896,-8108.542336,-13233.819691,-10045.209234,-16.104000,-919.880005,-402.600006,5040.000000,-420.000000,-1120.000000
-32111.231340,-21998.676300,-32223.794725,34737.941293,-30856.627924,-1203.864956,-16415.568163,-25419.879010,-13263.212235,-28359.915717,-15480.102954,-26559.169776,52225.297955,-8099.422824,-13229.639915,-10040.113037,-13.176001,-918.903992,-406.992004,5460.000000,-1260.000000,-140.000000
-32147.530573,-22034.953181,-32251.130909,34714.382555,-30893.508302,-1240.722983,-16447.285288,-25453.920717,-13302.998340,-28388.905929,-15507.461489,-26593.211483,52194.653713,-8108.788205,-13243.341535,-10069.438525,-11.712000,-911.096008,-406.015991,5600.000000,-2240.000000,700.000000
-32153.744358,-22040.965800,-32260.250421,34707.632328,-30905.958224,-1255.542190,-16457.902367,-25470.572766,-13304.361797,-28393.264519,-15514.055254,-26598.777068,52183.790765,-8112.945630,-13241.620450,-10076.769898,-14.152000,-912.559998,-406.992004,5740.000000,-3080.000000,1120.000000
-32118.652119,-22005.538285,-32232.020167,34728.061822,-30870.977744,-1218.974736,-16430.253259,-25440.084987,-13264.799209,-28362.843795,-15485.623835,-26565.070637,52216.558423,-8100.585115,-13231.584517,-10049.076086,-13.176001,-908.656006,-407.968018,5600.000000,-3500.000000,1260.000000
-32102.827084,-21990.719079,-32218.542065,34739.930599,-30851.464671,-1198.411131,-16413.981189,-25419.990768,-13250.538796,-28350.036246,-15473.486838,-26551.726645,52235.289184,-8092.538487,-13230.601040,-10036.536758,-10.736000,-907.679993,-411.384003,5320.000000,-3640.000000,1260.000000
-32134.320692,-22025.543097,-32245.006531,34719.165828,-30883.517073,-1232.162265,-16440.177434,-25451.484376,-13283.731137,-28377.238319,-15499.459565,-26585.321317,52207.751835,-8102.820289,-13238.625316,-10063.917644,-15.128000,-903.288025,-407.480011,4480.000000,-2800.000000,1260.000000
-32155.934829,-22046.821957,-32267.961772,34705.643023,-30908.305157,-1262.471230,-16460.137541,-25480.809865,-13301.947808,-28397.533703,-15518.816175,-26606.801344,52183.857820,-8115.896060,-13237.284212,-10084.034215,-16.104000,-901.335999,-409.920013,2800.000000,-1680.000000,1260.000000
-32133.694843,-22021.206858,-32247.197002,34723.502067,-30879.583166,-1236.297338,-16439.283364,-25458.815749,-13280.579541,-28379.093513,-15499.079585,-26582.437942,52205.382550,-8108.676447,-13228.231755,-10065.303453,-19.032000,-902.312012,-408.455994,1680.000000,-420.000000,980.000000
-32108.906759,-21994.697689,-32225.381699,34744.579762,-30849.341255,-1207.061256,-16413.869430,-25434.429995,-13258.719535,-28360.005124,-15480.661748,-26562.053151,52226.035562,-8096.025359,-13216.340627,-10046.304470,-22.936001,-902.312012,-416.752014,980.000000,280.000000,1120.000000
-32122.004881,-22013.495506,-32242.704301,34730.609921,-30872.654125,-1230.977622,-16435.818843,-25458.681638,-13271.415326,-28374.667868,-15500.420690,-26582.303832,52205.896641,-8098.126423,-13226.935354,-10065.728136,-30.256001,-907.679993,-415.287994,980.000000,840.000000,1120.000000
-32142.054396,-22036.115472,-32267.224165,34713.846113,-30901.979614,-1262.247713,-16459.690506,-25489.795266,-13286.502753,-28391.945766,-15519.933763,-26604.879094,52181.622646,-8110.710455,-13230.377523,-10085.800002,-31.232000,-906.216003,-420.167999,1120.000000,1540.000000,700.000000
-32121.423736,-22017.228248,-32251.890868,34726.519552,-30881.304250,-1238.934843,-16441.607945,-25473.322031,-13264.508637,-28373.796150,-15500.264227,-26584.293137,52200.353408,-8111.693932,-13221.749749,-10069.840857,-30.743999,-908.656006,-417.239990,1820.000000,1540.000000,140.000000
-32094.668698,-21993.468343,-32227.818039,34745.004445,-30850.414139,-1204.133177,-16414.472927,-25445.158833,-13242.536872,-28348.650437,-15474.336204,-26560.130901,52229.745952,-8106.933010,-13214.485432,-10046.282118,-27.816000,-906.216003,-415.287994,3360.000000,1400.000000,-420.000000
-32110.873712,-22007.482887,-32239.686816,34737.203686,-30863.579317,-1221.165207,-16425.827614,-25465.476568,-13262.251110,-28362.664981,-15489.066003,-26576.045343,52217.743065,-8109.190537,-13218.642857,-10057.457990,-23.912001,-910.119995,-413.824005,4340.000000,1260.000000,-1540.000000
-32140.333312,-22031.868640,-32264.318438,34719.210532,-30891.004907,-1254.692823,-16450.973326,-25502.021671,-13289.252018,-28389.531778,-15516.893925,-26599.179399,52192.083262,-8114.152624,-13225.057808,-10077.127525,-24.400000,-909.143982,-412.847992,5460.000000,840.000000,-2520.000000
-32131.213800,-22017.719986,-32256.338865,34729.201761,-30874.218747,-1239.717154,-16436.355285,-25491.672813,-13276.355061,-28379.920528,-15508.020283,-26584.404896,52204.868460,-8108.341170,-13215.178337,-10063.135333,-23.912001,-903.776001,-412.360016,5320.000000,0.000000,-3360.000000
-32102.737677,-21988.774477,-32231.081394,34749.497145,-30839.305322,-1201.830948,-16405.375767,-25459.910984,-13250.315279,-28353.411359,-15481.488762,-26556.420512,52236.719696,-8096.271228,-13204.807127,-10038.660173,-12.688000,-907.679993,-407.480011,4340.000000,280.000000,-3780.000000
-32105.822218,-21996.664643,-32238.010435,34745.384424,-30848.246020,-1211.598660,-16412.081291,-25469.231661,-13252.438695,-28358.708722,-15486.987291,-26566.210576,52229.656545,-8097.567630,-13203.622485,-10048.360830,-10.248000,-910.119995,-406.503998,4060.000000,980.000000,-5040.000000
-32136.578219,-22027.197126,-32265.301915,34725.133744,-30884.142921,-1251.228303,-16444.424265,-25510.984720,-13279.730175,-28384.726153,-15513.764681,-26594.932567,52198.431158,-8107.581211,-13212.630238,-10075.786421,-7.320000,-912.072021,-410.895996,2800.000000,700.000000,-5740.000000
-32137.718157,-22027.688864,-32265.368970,34725.245503,-30884.902881,-1248.188466,-16447.821730,-25517.354967,-13279.774878,-28381.395743,-15510.635437,-26590.909253,52204.980219,-8109.548165,-13215.714778,-10073.931226,-4.880000,-910.608032,-407.480011,2240.000000,140.000000,-5460.000000
-32105.375183,-21993.825971,-32236.423461,34748.267799,-30846.234363,-1207.307125,-16416.372826,-25484.117923,-13248.661250,-28351.690275,-15485.333262,-26558.923907,52239.401905,-8094.259571,-13207.399929,-10044.248109,-3.904000,-914.512024,-413.335999,1960.000000,-560.000000,-4480.000000
-32104.235244,-21992.641329,-32235.998778,34749.497145,-30842.322808,-1205.340171,-16413.802375,-25484.252034,-13247.677773,-28351.176185,-15487.859009,-26562.679000,52241.793542,-8088.761042,-13204.829479,-10042.459970,-6.344000,-911.583984,-413.824005,2660.000000,-840.000000,-2800.000000
-32140.378015,-22028.314713,-32266.955944,34726.094869,-30876.275107,-1248.210817,-16444.178396,-25524.105194,-13282.144163,-28382.468627,-15517.408015,-26594.150256,52207.550670,-8099.199307,-13215.044226,-10068.052717,-4.880000,-912.072021,-410.895996,3640.000000,-840.000000,-840.000000
-32143.864887,-22031.086329,-32273.281488,34721.289244,-30881.594823,-1258.380861,-16448.022896,-25535.884563,-13281.004224,-28386.514293,-15520.894888,-26594.507884,52197.090053,-8101.881516,-13212.674941,-10071.249017,-11.712000,-912.072021,-411.872009,3920.000000,-560.000000,840.000000
-32108.437372,-21996.888160,-32249.432176,34743.864506,-30848.178965,-1222.394553,-16414.160003,-25506.268502,-13244.034439,-28356.250031,-15493.446945,-26565.696486,52224.716809,-8091.175031,-13195.106470,-10045.499807,-10.248000,-912.072021,-406.992004,3920.000000,-560.000000,2380.000000
-32097.306204,-21988.640367,-32241.832583,34753.252238,-30836.220781,-1209.743465,-16403.297055,-25498.132467,-13237.373619,-28349.008065,-15486.942588,-26561.784930,52233.590452,-8087.397586,-13189.004444,-10040.560072,-14.152000,-915.488037,-410.407990,3640.000000,-560.000000,3500.000000
-32127.302245,-22019.306960,-32268.744083,34734.454421,-30867.401465,-1246.489733,-16431.907288,-25533.515279,-13266.900273,-28375.539586,-15515.038731,-26590.953957,52205.650771,-8098.729920,-13198.749804,-10065.325804,-15.616000,-913.536011,-406.992004,3500.000000,-280.000000,4340.000000
-32139.506297,-22031.801585,-32277.774188,34724.664357,-30880.097256,-1259.252579,-16446.525329,-25549.586183,-13278.277311,-28383.608566,-15525.834623,-26596.966576,52195.547783,-8104.809595,-13205.321217,-10071.114906,-13.664001,-913.048035,-406.992004,3360.000000,-420.000000,4900.000000
-32106.872750,-22002.565503,-32251.309723,34744.110375,-30848.737758,-1223.802712,-16421.401968,-25519.008996,-13247.051924,-28355.579478,-15498.520791,-26566.970535,52224.649754,-8098.238182,-13192.223095,-10046.080952,-17.568001,-915.488037,-406.992004,3220.000000,-560.000000,5180.000000
-32087.046753,-21982.314823,-32236.512868,34758.884878,-30827.838877,-1203.552032,-16399.564314,-25503.496886,-13228.008238,-28342.146080,-15485.556780,-26553.559488,52239.670126,-8091.175031,-13176.107487,-10032.491092,-20.007999,-912.072021,-407.480011,2940.000000,-280.000000,5040.000000
-32111.477210,-22006.342948,-32259.758682,34742.903381,-30855.733854,-1235.850303,-16419.569125,-25534.342293,-13251.924604,-28366.196557,-15511.909486,-26578.504035,52211.931612,-8093.499612,-13181.024871,-10055.044002,-21.960001,-908.168030,-403.088013,2800.000000,-140.000000,4480.000000
-32132.666663,-22025.073710,-32278.914127,34727.704195,-30878.756151,-1261.778326,-16439.126902,-25562.393732,-13269.895407,-28381.887481,-15530.908469,-26597.011280,52192.329132,-8101.233316,-13188.557409,-10073.193618,-21.472000,-906.704041,-406.015991,2100.000000,-140.000000,3360.000000
-32108.347965,-21998.855114,-32256.204755,34741.830497,-30851.419968,-1231.737582,-16418.272724,-25537.829165,-13246.403724,-28358.775778,-15508.512021,-26572.916099,52218.413617,-8096.271228,-13183.349452,-10052.920586,-23.424000,-906.704041,-407.968018,980.000000,-280.000000,1960.000000
-32080.497692,-21973.575291,-32231.349615,34759.734244,-30823.368528,-1202.009762,-16394.490468,-25509.800078,-13222.129729,-28337.295751,-15487.166105,-26551.771349,52244.095772,-8087.442289,-13170.810124,-10031.418208,-21.472000,-903.776001,-413.335999,420.000000,-280.000000,560.000000
-32100.591910,-21999.391556,-32252.829641,34745.987921,-30849.788290,-1229.547111,-16413.265933,-25534.655217,-13242.939203,-28358.239336,-15506.008626,-26576.335916,52222.928670,-8092.002045,-13173.246464,-10050.484246,-24.888000,-900.359985,-410.895996,560.000000,-420.000000,-1120.000000
-32127.950445,-22027.308885,-32276.388380,34726.541904,-30878.867910,-1262.672396,-16439.730399,-25567.177006,-13269.604834,-28383.027420,-15529.701475,-26599.045288,52197.067701,-8099.422824,-13181.807182,-10069.192656,-23.912001,-899.872009,-412.360016,980.000000,-420.000000,-2660.000000
-32109.867884,-22009.159268,-32260.183365,34736.823706,-30858.237250,-1239.493637,-16422.206631,-25549.385017,-13253.109247,-28364.609583,-15513.764681,-26578.012297,52217.251327,-8094.952475,-13174.676976,-10051.914758,-23.424000,-900.848022,-413.335999,700.000000,-560.000000,-3920.000000
-32071.780511,-21974.268195,-32232.243685,34760.628314,-30824.709633,-1202.076817,-16390.355395,-25517.466726,-13214.150156,-28334.166507,-15487.322567,-26548.575049,52247.604996,-8086.078833,-13158.293147,-10029.987696,-20.007999,-900.848022,-410.407990,1120.000000,-420.000000,-5040.000000
-32085.191558,-21989.310919,-32245.230048,34752.581686,-30840.802889,-1219.131198,-16403.073538,-25536.800985,-13229.192880,-28347.912830,-15502.946437,-26563.506015,52231.824664,-8089.185725,-13162.808199,-10043.398743,-20.984001,-904.752014,-413.335999,1400.000000,-560.000000,-5320.000000
-32118.473306,-22022.592666,-32275.337848,34730.118183,-30878.666744,-1255.251617,-16430.588535,-25572.072038,-13259.479494,-28375.405476,-15532.763664,-26594.373774,52199.057007,-8101.412130,-13168.440839,-10065.974005,-19.032000,-907.679993,-409.920013,2100.000000,-560.000000,-5320.000000
-32107.923282,-22011.416794,-32268.006476,34737.427203,-30871.022447,-1244.142800,-16418.943276,-25561.522014,-13245.554357,-28364.609583,-15522.884193,-26584.583710,52208.780016,-8099.914563,-13160.483618,-10057.033307,-16.104000,-909.632019,-407.968018,2940.000000,-980.000000,-5040.000000
-32078.664849,-21980.727849,-32241.251438,34761.343570,-30832.018653,-1204.133177,-16385.214494,-25526.608589,-13218.687560,-28340.268533,-15496.620893,-26556.487567,52241.257100,-8087.397586,-13149.352449,-10032.267574,-16.104000,-908.656006,-407.480011,3920.000000,-1400.000000,-4340.000000
-32085.035096,-21992.082535,-32246.437043,34754.973323,-30835.997264,-1208.692933,-16392.367052,-25535.012845,-13229.595212,-28347.130519,-15503.281713,-26566.411742,52238.932519,-8083.106051,-13156.795580,-10040.694182,-13.664001,-913.048035,-407.480011,4760.000000,-1960.000000,-2660.000000
-32117.758050,-22024.246696,-32274.935517,34731.503991,-30872.251793,-1249.998957,-16424.397102,-25574.910709,-13261.044116,-28374.779627,-15531.377856,-26596.787762,52205.851937,-8091.912638,-13166.965624,-10066.488095,-7.320000,-909.632019,-406.992004,6160.000000,-1120.000000,-2100.000000
-32116.215779,-22018.837573,-32273.505005,34732.085136,-30870.709523,-1249.730736,-16424.486509,-25578.352878,-13255.813808,-28371.560975,-15530.148510,-26591.244530,52203.862632,-8092.091452,-13164.082249,-10061.436601,-8.784000,-908.168030,-410.407990,6300.000000,-980.000000,-1260.000000
-32083.939860,-21988.662718,-32247.442871,34754.123956,-30834.879677,-1211.196329,-16395.473945,-25546.300476,-13222.196784,-28343.308371,-15505.382777,-26561.963744,52231.534091,-8082.077871,-13153.621632,-10037.877862,-9.272000,-909.143982,-410.895996,6160.000000,-700.000000,-140.000000
-32081.034134,-21990.897893,-32246.526450,34755.353302,-30831.370453,-1211.509253,-16393.752860,-25545.406407,-13221.258011,-28344.180089,-15507.014454,-26565.137692,52230.081228,-8079.842696,-13153.196949,-10042.549377,-9.272000,-908.656006,-408.455994,6580.000000,-1120.000000,700.000000
-32116.618111,-22024.671379,-32275.203738,34732.889799,-30867.312058,-1251.496524,-16424.397102,-25581.549177,-13256.149084,-28375.226662,-15537.256364,-26598.330033,52197.917068,-8090.571534,-13160.930653,-10068.209179,-10.736000,-909.143982,-410.895996,6160.000000,-1400.000000,1820.000000
-32129.202143,-22035.713140,-32283.831511,34725.536075,-30876.744494,-1259.789021,-16430.879108,-25588.701736,-13270.387145,-28382.982717,-15542.844301,-26606.309605,52192.507946,-8096.651208,-13160.729487,-10069.483229,-11.712000,-909.632019,-410.407990,6580.000000,-1540.000000,2660.000000
-32092.858206,-22001.179695,-32255.020112,34747.060805,-30841.696959,-1220.874634,-16401.687730,-25556.828148,-13234.892575,-28350.572687,-15509.897829,-26575.866529,52227.957812,-8084.827135,-13150.514740,-10040.984755,-17.080000,-907.679993,-407.968018,6720.000000,-1680.000000,3080.000000
-32081.190596,-21991.456686,-32243.084281,34754.548640,-30828.352967,-1206.301297,-16392.411756,-25546.836918,-13227.538851,-28340.715568,-15500.979483,-26567.864605,52240.899472,-8074.925312,-13149.128932,-10034.592156,-16.104000,-906.704041,-409.920013,6580.000000,-1680.000000,3360.000000
-32115.299358,-22025.386635,-32271.403941,34731.906322,-30864.249869,-1245.528608,-16424.106529,-25583.002041,-13261.446448,-28369.705781,-15529.969696,-26600.095820,52209.048236,-8083.553086,-13160.617728,-10064.588197,-19.032000,-909.632019,-409.920013,7000.000000,-1540.000000,3360.000000
-32126.654044,-22033.768539,-32284.010325,34726.005462,-30880.879567,-1269.221457,-16434.924774,-25603.230369,-13265.156837,-28380.591080,-15540.184443,-26610.489382,52191.457414,-8093.991350,-13155.789752,-10075.965235,-18.056000,-910.119995,-409.920013,7280.000000,-1680.000000,2800.000000
-32099.139047,-22004.867733,-32259.199889,34745.049148,-30851.084691,-1235.738544,-16406.068671,-25573.189625,-13237.574784,-28355.668885,-15513.228239,-26583.734343,52218.234803,-8088.895153,-13145.306783,-10053.009993,-21.960001,-904.264038,-410.895996,7140.000000,-1960.000000,2100.000000
-32078.687200,-21984.594701,-32242.503136,34758.102567,-30829.783479,-1211.844529,-16387.226151,-25554.212994,-13221.615639,-28340.447347,-15500.755966,-26568.311640,52237.770228,-8081.429670,-13141.506987,-10041.275327,-19.032000,-909.143982,-409.432007,6860.000000,-1680.000000,1260.000000
-32103.207064,-22007.080556,-32263.714941,34741.182296,-30857.633753,-1242.220550,-16412.751843,-25586.399506,-13247.521311,-28362.910850,-15526.505175,-26592.429172,52214.367952,-8087.308179,-13151.587624,-10067.940958,-20.496000,-908.168030,-409.432007,6300.000000,-1820.000000,560.000000
-32124.128297,-22022.950294,-32283.071552,34727.190104,-30881.259546,-1268.036815,-16431.750826,-25611.053480,-13265.313299,-28381.932185,-15545.727676,-26609.796478,52192.284428,-8096.874725,-13154.783923,-10082.558999,-23.424000,-908.656006,-409.920013,6160.000000,-1820.000000,140.000000
-32102.737677,-22003.325463,-32264.586659,34739.304750,-30858.639581,-1240.611224,-16411.902477,-25586.623023,-13245.532005,-28362.217946,-15523.979428,-26590.797495,52216.714885,-8096.561801,-13146.647888,-10060.520179,-24.400000,-905.728027,-407.968018,5600.000000,-1820.000000,-140.000000
-32079.938898,-21981.979547,-32241.743176,34755.174488,-30829.515258,-1210.883404,-16390.042471,-25562.259622,-13224.722531,-28340.939086,-15502.342940,-26570.725628,52242.240577,-8087.643455,-13140.970545,-10040.761237,-22.936001,-909.632019,-406.015991,5740.000000,-1540.000000,-280.000000
-32098.736715,-22001.716137,-32262.418540,34742.813974,-30851.151747,-1237.660794,-16409.108509,-25588.321756,-13241.709857,-28359.938068,-15521.274867,-26592.719745,52218.972411,-8093.499612,-13145.127969,-10059.357889,-25.375999,-916.463989,-406.503998,5600.000000,-1260.000000,-420.000000
-32123.524800,-22025.252524,-32287.564252,34727.301863,-30879.314945,-1271.054300,-16433.963649,-25620.597675,-13264.374526,-28382.513330,-15540.162091,-26615.809097,52191.032730,-8103.222621,-13147.765475,-10079.094479,-23.912001,-914.023987,-403.576019,5600.000000,-1540.000000,-280.000000
-32103.385878,-22001.872599,-32271.091017,34741.405814,-30855.890316,-1249.998957,-16414.495279,-25603.744460,-13241.531043,-28364.341362,-15521.096053,-26596.251320,52207.796539,-8096.897077,-13136.880176,-10061.056621,-19.520000,-917.440002,-403.576019,5040.000000,-1400.000000,-420.000000
-32076.139102,-21973.754105,-32247.845202,34761.365922,-30823.100307,-1215.286698,-16389.818953,-25573.748419,-13216.295924,-28340.939086,-15496.509134,-26572.983154,52234.708039,-8085.229467,-13129.794673,-10038.436656,-19.520000,-916.952026,-405.040009,4900.000000,-1120.000000,-700.000000
-32089.125465,-21987.343965,-32259.937496,34753.542811,-30835.617284,-1228.876558,-16402.537096,-25590.176951,-13230.690447,-28351.556164,-15508.914353,-26587.221216,52221.654620,-8080.580304,-13133.929745,-10050.618357,-19.032000,-913.048035,-405.040009,4060.000000,-560.000000,-840.000000
-32123.882428,-22017.831745,-32287.698363,34733.336834,-30868.027314,-1262.672396,-16427.459291,-25622.922256,-13263.547512,-28377.059505,-15533.948306,-26614.780917,52193.491422,-8087.442289,-13138.310687,-10071.204313,-17.080000,-913.536011,-405.528015,4060.000000,-700.000000,-980.000000
-32117.221608,-22010.187448,-32280.456398,34738.589494,-30861.210032,-1252.614111,-16419.300904,-25615.657939,-13254.763276,-28365.436598,-15520.425501,-26604.074431,52204.577888,-8088.179897,-13132.029847,-10062.174208,-17.568001,-913.048035,-408.455994,4340.000000,-1120.000000,-840.000000
-32080.564747,-21974.670526,-32251.354426,34761.477680,-30826.497773,-1212.939765,-16390.064822,-25579.761038,-13216.295924,-28332.065443,-15486.160277,-26572.200843,52239.111333,-8078.188667,-13119.222298,-10036.804978,-17.080000,-910.119995,-410.407990,4900.000000,-1820.000000,-840.000000
-32081.771741,-21976.793942,-32256.182403,34760.404797,-30829.470555,-1219.488826,-16393.261122,-25586.354802,-13215.826537,-28333.786527,-15489.289521,-26577.811131,52234.931557,-8078.322778,-13117.724731,-10041.454141,-14.640000,-908.656006,-412.360016,5180.000000,-2240.000000,-840.000000
-32117.087497,-22011.193277,-32285.083209,34738.567142,-30862.998171,-1256.883294,-16424.106529,-25624.509230,-13251.946956,-28364.520176,-15520.358446,-26606.354309,52200.643981,-8085.095356,-13129.727617,-10066.979833,-10.736000,-913.048035,-406.503998,4760.000000,-2520.000000,-980.000000
-32117.042794,-22011.349739,-32284.792636,34739.148288,-30862.148805,-1254.558713,-16421.916058,-25628.912524,-13250.941128,-28362.329705,-15517.340960,-26600.744021,52199.839318,-8086.972903,-13127.425388,-10063.492961,-8.784000,-912.072021,-402.600006,4340.000000,-3080.000000,-1540.000000
-32081.257651,-21977.419791,-32258.149357,34761.745901,-30827.213028,-1217.454817,-16391.562389,-25598.335337,-13214.016046,-28333.361844,-15487.859009,-26568.870433,52229.433027,-8080.937932,-13115.668370,-10041.610604,-8.296000,-916.463989,-402.600006,4480.000000,-3080.000000,-1400.000000
-32075.602660,-21971.563634,-32253.634304,34766.752692,-30820.865133,-1212.246861,-16386.913226,-25593.350898,-13209.948028,-28331.104318,-15485.623835,-26566.210576,52232.025830,-8077.920446,-13109.611047,-10040.515368,-11.224000,-913.048035,-399.671997,3640.000000,-2800.000000,-1400.000000
-32108.951462,-22004.644216,-32279.919956,34744.825631,-30854.213936,-1250.445992,-16417.512765,-25628.532544,-13246.828407,-28360.496862,-15516.290428,-26596.206617,52198.520565,-8088.112842,-13118.328228,-10064.074107,-9.760000,-913.048035,-402.600006,2660.000000,-1960.000000,-840.000000
-32111.879541,-22010.902704,-32282.356296,34736.980168,-30861.947639,-1258.112640,-16427.101663,-25637.942629,-13251.477570,-28363.939031,-15519.576135,-26599.693489,52192.284428,-8093.477260,-13123.022094,-10068.253883,-12.688000,-913.048035,-404.552002,1820.000000,-1680.000000,840.000000
-32075.356790,-21974.692878,-32250.683874,34760.471852,-30823.703804,-1216.873672,-16394.713985,-25600.503457,-13215.938296,-28334.814708,-15489.602445,-26565.584727,52226.504949,-8078.792164,-13109.923972,-10041.498845,-16.592001,-914.023987,-411.872009,1540.000000,-1120.000000,2520.000000
-32068.204232,-21965.975698,-32242.950170,34770.172509,-30810.695089,-1203.686142,-16382.129953,-25586.086581,-13211.132671,-28330.232600,-15484.729765,-26560.443826,52235.266833,-8070.700833,-13102.838469,-10036.402647,-23.912001,-914.023987,-407.968018,1820.000000,-980.000000,3640.000000
-32098.714363,-21997.625768,-32269.347581,34750.033587,-30843.350988,-1241.594701,-16412.997712,-25620.061233,-13241.106360,-28356.920583,-15513.362350,-26591.043364,52202.141547,-8075.662920,-13113.477899,-10066.465743,-27.816000,-915.976013,-410.895996,2520.000000,-280.000000,4200.000000
-32111.790134,-22011.774422,-32281.998668,34738.276570,-30862.104101,-1262.627693,-16428.107492,-25642.390626,-13251.991660,-28367.939993,-15523.331228,-26603.180361,52184.304855,-8080.379138,-13116.227164,-10079.027424,-25.864000,-913.048035,-405.528015,2800.000000,140.000000,4060.000000
-32085.482131,-21983.924149,-32260.004551,34757.186145,-30832.331578,-1229.055372,-16399.966645,-25614.495649,-13225.907174,-28347.063464,-15499.839544,-26576.872358,52208.869423,-8074.634740,-13101.005626,-10051.937109,-30.256001,-911.583984,-402.600006,3360.000000,140.000000,3500.000000
-32065.276154,-21968.210872,-32245.766490,34769.658419,-30812.416174,-1208.268250,-16381.973491,-25594.580244,-13207.019950,-28332.758347,-15486.070870,-26563.796587,52226.750818,-8072.377214,-13091.640245,-10039.218967,-25.375999,-913.536011,-404.063995,3500.000000,-280.000000,2660.000000
-32086.018573,-21991.791963,-32270.420464,34752.335817,-30841.026406,-1242.622881,-16407.208610,-25625.805631,-13223.783758,-28353.478414,-15508.690835,-26589.612852,52198.095882,-8081.407318,-13098.815155,-10065.102287,-24.888000,-912.072021,-405.528015,3640.000000,-840.000000,1400.000000
-32106.202198,-22009.360434,-32290.291165,34737.606017,-30864.026351,-1270.584914,-16427.839271,-25654.617030,-13241.173415,-28370.711609,-15523.487690,-26607.985986,52176.727614,-8085.475336,-13101.586771,-10080.793212,-20.984001,-910.608032,-406.992004,3780.000000,-1540.000000,280.000000
-32081.391761,-21982.918320,-32270.420464,34753.363997,-30836.801927,-1243.136971,-16403.252352,-25631.460623,-13216.832366,-28350.215060,-15498.833716,-26582.974384,52204.466129,-8076.556990,-13089.449774,-10061.257787,-18.544001,-909.632019,-403.088013,4060.000000,-1960.000000,-980.000000
-32060.828157,-21966.266270,-32250.438005,34766.193898,-30811.276235,-1212.515081,-16382.509933,-25602.850390,-13200.828517,-28332.333664,-15477.040765,-26566.232928,52231.020001,-8068.622120,-13086.097012,-10044.941013,-16.592001,-904.752014,-408.944000,4200.000000,-2380.000000,-2100.000000
-32084.297488,-21990.428506,-32267.112406,34752.000541,-30833.158592,-1235.202102,-16401.978302,-25622.452870,-13227.583555,-28354.394836,-15497.380852,-26591.512751,52210.322286,-8071.706661,-13092.869591,-10059.782572,-19.032000,-906.216003,-406.992004,4060.000000,-2240.000000,-2940.000000
-32107.967986,-22014.210762,-32289.821779,34731.883971,-30866.082712,-1272.462460,-16431.974343,-25657.545109,-13247.744828,-28376.590118,-15518.011513,-26616.747870,52179.789803,-8080.625007,-13101.452661,-10084.257732,-22.936001,-905.728027,-407.968018,4200.000000,-2520.000000,-3360.000000
-32086.622070,-21991.277872,-32275.315496,34746.479660,-30844.937962,-1256.302149,-16414.785852,-25644.402283,-13221.973267,-28359.468682,-15500.957131,-26597.212445,52195.145451,-8074.433574,-13087.594579,-10067.940958,-18.056000,-905.239990,-405.528015,3920.000000,-2520.000000,-3360.000000
-32047.215944,-21952.184671,-32246.124118,34771.893593,-30807.565845,-1218.907680,-16386.600302,-25612.573399,-13183.304749,-28326.790431,-15469.485875,-26568.110474,52227.890757,-8062.900074,-13071.098992,-10041.722362,-18.056000,-902.799988,-404.552002,4060.000000,-2660.000000,-3360.000000
-32059.509404,-21961.795922,-32254.573078,34766.864451,-30815.388956,-1229.927090,-16394.311654,-25623.168126,-13199.129784,-28339.508574,-15480.460582,-26582.303832,52216.781940,-8061.626024,-13070.428439,-10049.433714,-15.616000,-904.752014,-405.528015,4480.000000,-2520.000000,-3080.000000
-32094.154608,-21993.758916,-32283.764456,34745.630294,-30847.419005,-1267.880352,-16419.613829,-25655.488748,-13234.043209,-28368.968173,-15510.344864,-26614.132716,52186.271809,-8068.957397,-13073.222407,-10070.064374,-14.152000,-909.143982,-406.503998,4480.000000,-2240.000000,-2800.000000
-32087.136160,-21986.047564,-32279.539976,34750.368863,-30839.730005,-1258.894951,-16411.902477,-25649.319667,-13226.063636,-28359.066350,-15501.873553,-26607.293082,52192.977332,-8069.471487,-13066.427477,-10060.341365,-13.176001,-913.536011,-400.648010,4620.000000,-2100.000000,-1960.000000
-32053.787357,-21953.190500,-32249.678045,34771.468910,-30802.983737,-1219.555881,-16383.493410,-25616.239085,-13193.944179,-28329.897324,-15472.749230,-26576.648841,52224.493292,-8058.742649,-13057.263262,-10033.072237,-10.736000,-909.632019,-402.600006,4760.000000,-1960.000000,-1120.000000
-32054.390854,-21957.996125,-32249.365121,34766.640933,-30805.531836,-1223.288622,-16387.784945,-25620.552971,-13198.526287,-28332.221905,-15475.789067,-26581.119189,52223.755684,-8055.814571,-13059.230215,-10037.207310,-12.688000,-912.072021,-405.528015,4620.000000,-1820.000000,140.000000
-32078.866014,-21983.566521,-32272.186252,34745.563238,-30836.891334,-1260.660739,-16419.122090,-25657.053370,-13219.358113,-28354.350132,-15503.102899,-26604.879094,52194.027864,-8062.363632,-13071.121344,-10063.783534,-13.664001,-912.559998,-408.455994,4760.000000,-1680.000000,1540.000000
-32080.430636,-21985.332308,-32272.521528,34743.305712,-30838.075976,-1260.616036,-16421.133747,-25658.997972,-13220.408645,-28354.551298,-15503.192306,-26602.174533,52192.418539,-8063.324757,-13072.395393,-10062.911816,-12.688000,-910.119995,-405.040009,4900.000000,-1960.000000,2100.000000
-32045.830136,-21954.665715,-32246.973484,34764.696332,-30804.213083,-1224.294451,-16388.902532,-25626.185611,-13187.439822,-28324.622312,-15474.582073,-26574.190149,52221.453455,-8052.595920,-13057.866759,-10037.252013,-16.592001,-913.536011,-406.992004,5180.000000,-1960.000000,2660.000000
-32038.901095,-21947.848433,-32241.743176,34771.558317,-30795.607662,-1219.935861,-16380.297110,-25622.497573,-13183.371804,-28319.190838,-15472.950396,-26571.977326,52225.454417,-8043.252890,-13049.551910,-10035.195653,-16.592001,-912.072021,-404.552002,5320.000000,-1820.000000,2940.000000
-32072.428712,-21977.643308,-32268.967601,34752.693445,-30829.179982,-1259.721966,-16408.639122,-25659.936745,-13217.033531,-28347.689312,-15502.477050,-26602.576864,52193.178498,-8051.254815,-13057.531483,-10059.089668,-22.448000,-914.023987,-405.528015,5320.000000,-1820.000000,2660.000000
-32080.341229,-21982.650099,-32277.416560,34749.385387,-30836.824278,-1270.562562,-16411.656608,-25671.313783,-13223.627296,-28354.730112,-15507.796765,-26607.404841,52182.695530,-8058.563835,-13050.937718,-10057.256825,-19.520000,-914.023987,-405.528015,5460.000000,-1680.000000,1820.000000
-32045.852488,-21947.781378,-32249.231011,34772.117111,-30797.507560,-1231.111733,-16376.586721,-25634.232239,-13190.770232,-28326.030472,-15477.107820,-26574.592480,52214.032676,-8051.143056,-13032.095198,-10028.132502,-22.936001,-914.023987,-406.015991,5600.000000,-1680.000000,980.000000
-32029.066328,-21934.817366,-32236.959903,34779.515538,-30782.286022,-1212.984468,-16364.203854,-25619.502439,-13176.040432,-28314.474620,-15465.015526,-26564.400085,52229.008344,-8048.662013,-13028.116587,-10022.768083,-25.375999,-913.536011,-403.088013,5460.000000,-1820.000000,0.000000
-32056.536622,-21961.415942,-32261.032732,34760.315390,-30811.902083,-1244.835704,-16391.070651,-25649.811405,-13203.086043,-28340.872030,-15492.888152,-26591.915082,52200.889850,-8057.669766,-13037.683134,-10048.316127,-22.936001,-911.096008,-403.088013,5600.000000,-1540.000000,-1260.000000
-32071.735808,-21981.800733,-32275.159034,34742.612808,-30834.902028,-1262.784155,-16413.422395,-25669.458588,-13218.687560,-28353.098435,-15502.722919,-26607.963634,52184.975408,-8064.554103,-13053.329355,-10062.107153,-19.520000,-906.704041,-406.015991,5460.000000,-1540.000000,-2100.000000
-32037.604694,-21951.134139,-32245.408862,34760.605962,-30803.542531,-1226.239053,-16387.650834,-25642.412978,-13185.718737,-28326.119879,-15472.525713,-26577.207634,52215.887870,-8050.763077,-13047.026163,-10038.190787,-18.544001,-907.679993,-408.455994,5460.000000,-1120.000000,-2800.000000
