-32384.660230,-22492.582797,-32642.509954,34517.418983,-30651.438910,-1477.763233,-17312.186040,-25466.840025,-14533.908908,-28232.063738,-14788.003539,-27057.568974,52225.052086,-8094.617199,-14051.915890,-10909.461785,-5.856000,-923.783997,-363.071991,3640.000000,-1120.000000,-2520.000000
-32363.873108,-22469.225224,-32623.019233,34532.171134,-30623.655692,-1446.649605,-17288.001452,-25440.621429,-14514.641704,-28212.885942,-14769.853922,-27040.671055,52247.850865,-8083.620141,-14045.813864,-10890.485154,-7.808000,-926.712036,-365.024017,3220.000000,0.000000,-1820.000000
-32382.179187,-22487.285434,-32640.095966,34517.329576,-30646.007436,-1472.041186,-17307.380415,-25464.023705,-14529.840890,-28228.934494,-14786.327158,-27059.848852,52227.957812,-8085.073004,-14056.945033,-10910.735835,-6.344000,-923.783997,-364.536011,2800.000000,840.000000,-980.000000
-32407.861341,-22510.285379,-32663.207670,34503.247977,-30671.600183,-1501.858413,-17328.033427,-25491.695165,-14551.700896,-28250.414521,-14807.628370,-27081.038306,52202.342713,-8090.571534,-14056.475646,-10928.237251,-5.856000,-922.807983,-369.903992,2240.000000,1400.000000,140.000000
-32389.130579,-22493.432163,-32650.422472,34513.708593,-30652.288276,-1481.339512,-17311.157860,-25473.433789,-14531.494919,-28235.483555,-14792.920922,-27065.481492,52220.268812,-8085.989426,-14048.540777,-10911.540498,-6.832000,-923.296021,-367.951996,1820.000000,1960.000000,1260.000000
-32362.152024,-22466.990050,-32625.030890,34532.484058,-30621.375814,-1449.622387,-17283.240531,-25441.783719,-14506.483317,-28215.255227,-14772.290262,-27042.392140,52247.269720,-8075.931141,-14037.968402,-10890.440451,-5.368000,-925.247986,-373.320007,1680.000000,2380.000000,2380.000000
-32380.122826,-22487.419544,-32637.883143,34522.179904,-30640.464203,-1466.430898,-17295.131659,-25456.826443,-14526.130501,-28231.370834,-14787.623559,-27060.720570,52233.679859,-8078.568647,-14042.394047,-10904.611457,-4.880000,-925.247986,-374.783997,1820.000000,1960.000000,3220.000000
-32413.203408,-22519.896629,-32666.694542,34501.683355,-30675.444683,-1503.646553,-17322.713712,-25492.030441,-14555.053658,-28258.058817,-14815.250315,-27090.135466,52202.074492,-8086.928199,-14051.960594,-10930.718294,-8.296000,-923.783997,-373.320007,2660.000000,1680.000000,3920.000000
-32403.011012,-22507.446707,-32658.402045,34510.691108,-30661.988933,-1492.582439,-17312.409557,-25484.632013,-14542.313164,-28245.899468,-14805.929638,-27077.551434,52210.277582,-8085.743557,-14044.785684,-10922.381094,-9.272000,-924.760010,-369.903992,2660.000000,1540.000000,4060.000000
-32373.014971,-22480.378745,-32631.132916,34529.444221,-30627.343729,-1453.243369,-17283.754621,-25449.115091,-14513.345303,-28218.786802,-14780.627463,-27050.327009,52240.854769,-8077.115783,-14038.102512,-10897.034216,-10.248000,-926.223999,-370.391998,2660.000000,1400.000000,3780.000000
-32377.552376,-22488.648890,-32636.810259,34525.845590,-30635.680930,-1462.586398,-17291.577732,-25456.871147,-14517.726245,-28227.481631,-14789.478754,-27059.580631,52231.288222,-8082.904885,-14044.629222,-10905.907858,-12.688000,-925.736023,-369.416016,2240.000000,1540.000000,2940.000000
-32408.733059,-22517.974379,-32663.699408,34506.690145,-30668.940326,-1501.724303,-17320.858517,-25491.114019,-14546.559995,-28255.041332,-14816.099681,-27086.961518,52199.325228,-8092.583191,-14051.491207,-10931.142978,-13.176001,-923.296021,-366.000000,1820.000000,1820.000000,1960.000000
-32408.487190,-22512.319387,-32661.374827,34511.160494,-30663.888832,-1499.265611,-17318.757453,-25492.768048,-14542.581384,-28252.247364,-14815.205612,-27079.496036,52201.828623,-8090.526830,-14047.646707,-10927.723161,-15.616000,-924.760010,-366.488007,1400.000000,1540.000000,1120.000000
-32376.188919,-22477.607128,-32633.412794,34534.920399,-30626.628474,-1459.144230,-17285.989795,-25457.765217,-14512.451233,-28224.262980,-14789.679919,-27049.321181,52234.149246,-8076.400528,-14032.179300,-10901.973951,-17.080000,-923.296021,-365.024017,980.000000,1260.000000,280.000000
-32370.578631,-22476.266024,-32631.535248,34536.194448,-30626.270846,-1455.746765,-17283.195827,-25454.255993,-14511.266591,-28222.228971,-14789.009367,-27051.578707,52239.446609,-8068.823286,-14032.425169,-10903.784442,-16.592001,-923.783997,-361.608002,560.000000,0.000000,-560.000000
-32400.865245,-22507.513762,-32660.503109,34513.686241,-30662.838300,-1496.404588,-17311.962523,-25492.209255,-14541.016762,-28249.229878,-14818.558373,-27081.753562,52207.930649,-8078.076908,-14042.885785,-10928.684286,-12.200000,-928.176025,-363.559998,980.000000,-840.000000,-1400.000000
-32406.274367,-22514.174582,-32667.946239,34506.980718,-30672.740122,-1506.082893,-17320.836165,-25505.106211,-14543.967193,-28252.694398,-14824.548641,-27085.866283,52200.465167,-8086.503516,-14048.138445,-10932.864062,-15.128000,-927.200012,-368.440002,1120.000000,-420.000000,-2660.000000
-32375.071332,-22487.531303,-32641.459422,34525.689128,-30640.263038,-1466.699119,-17295.377528,-25472.539720,-14513.859393,-28227.302817,-14797.659492,-27058.775968,52230.058876,-8078.769812,-14045.590347,-10912.412216,-11.224000,-926.712036,-371.856018,140.000000,980.000000,-3780.000000
-32366.778835,-22482.993899,-32633.524553,34534.071032,-30627.611950,-1456.327910,-17284.626339,-25460.112150,-14508.271457,-28225.693491,-14793.703233,-27054.484433,52237.144379,-8072.131344,-14042.304640,-10907.114852,-9.760000,-926.712036,-367.951996,-980.000000,1820.000000,-4340.000000
-32398.473608,-22511.134745,-32662.201841,34518.648329,-30656.669218,-1495.599925,-17307.201601,-25495.897293,-14537.932222,-28256.091864,-14828.013161,-27083.117018,52203.817928,-8079.060385,-14043.288117,-10930.070094,-7.320000,-925.736023,-373.808014,-1820.000000,2380.000000,-4340.000000
-32405.872036,-22521.617713,-32673.198899,34509.439410,-30671.331963,-1511.827291,-17318.735101,-25513.219895,-14542.134350,-28263.579698,-14837.870280,-27091.476571,52191.077434,-8084.111879,-14043.064599,-10938.451998,-9.760000,-927.200012,-366.488007,-1260.000000,2100.000000,-3920.000000
-32379.273460,-22498.349547,-32651.182431,34526.985529,-30642.028826,-1481.004236,-17293.544685,-25483.089743,-14515.133442,-28241.742044,-14815.384426,-27067.269631,52217.899527,-8079.462717,-14029.988829,-10914.356818,-8.784000,-927.200012,-367.951996,-280.000000,1960.000000,-3220.000000
-32363.515480,-22482.010422,-32636.944370,34539.301340,-30622.560456,-1463.413413,-17280.044231,-25464.873071,-14500.381291,-28232.376663,-14805.035568,-27054.506785,52231.020001,-8076.378176,-14024.959686,-10903.382111,-10.736000,-925.247986,-371.856018,-280.000000,1260.000000,-2380.000000
-32388.057695,-22506.574989,-32656.390388,34523.453954,-30648.466128,-1492.940067,-17305.100537,-25492.142200,-14526.130501,-28257.656486,-14829.510728,-27079.406629,52203.974391,-8081.474374,-14034.794454,-10922.850480,-7.808000,-927.687988,-371.856018,-700.000000,1680.000000,-1120.000000
-32408.330728,-22524.009350,-32675.210556,34512.278081,-30668.761512,-1518.085780,-17319.070377,-25515.030386,-14543.788379,-28275.314364,-14846.788627,-27096.393954,52182.673178,-8085.676501,-14036.113207,-10934.719257,-5.368000,-931.104004,-368.928009,-1400.000000,3360.000000,-1120.000000
-32380.458102,-22497.656643,-32654.378731,34528.796021,-30641.268866,-1490.593134,-17295.869266,-25491.873979,-14513.948800,-28251.174480,-14821.374693,-27070.845910,52207.818891,-8076.847562,-14028.267745,-10916.457882,-3.416000,-933.544006,-369.416016,-1400.000000,3920.000000,-980.000000
-32356.653494,-22476.601300,-32632.898704,34543.414061,-30617.821886,-1462.944026,-17275.618586,-25467.041191,-14490.501820,-28231.616703,-14804.543830,-27049.432939,52232.070533,-8067.728051,-14025.809053,-10901.348102,-4.392000,-935.007996,-368.440002,-280.000000,3500.000000,-560.000000
-32380.771027,-22498.193085,-32651.674170,34530.606512,-30641.514735,-1489.967285,-17294.326996,-25491.918682,-14515.736939,-28255.980105,-14828.683714,-27069.258937,52210.232879,-8073.606559,-14036.180262,-10920.928230,-5.368000,-930.127991,-367.951996,280.000000,2940.000000,0.000000
-32401.938129,-22520.254257,-32671.254298,34512.859227,-30668.739160,-1521.393838,-17317.483403,-25524.619284,-14534.937088,-28277.326021,-14849.783760,-27089.308451,52187.612914,-8080.848525,-14045.120960,-10940.374248,-8.784000,-931.104004,-366.000000,840.000000,2380.000000,560.000000
-32384.548472,-22504.339815,-32656.815071,34522.470477,-30649.471956,-1497.276306,-17301.300740,-25506.268502,-14516.608657,-28263.132663,-14831.701199,-27072.254070,52206.298972,-8079.127440,-14037.588422,-10926.225594,-6.832000,-929.640015,-364.536011,980.000000,2380.000000,840.000000
-32356.407625,-22479.238806,-32633.882181,34541.983550,-30618.447735,-1461.804087,-17273.606929,-25474.149045,-14491.574704,-28241.004436,-14808.455385,-27049.209422,52236.205606,-8068.823286,-14027.619544,-10907.248963,-6.344000,-930.616028,-366.488007,1260.000000,2240.000000,1120.000000
-32368.343457,-22492.024004,-32646.332103,34536.440317,-30629.936532,-1480.803070,-17283.508752,-25488.811790,-14504.449308,-28254.706055,-14823.989847,-27064.252146,52220.805254,-8069.605597,-14028.759483,-10917.910745,-10.736000,-929.640015,-365.511993,1260.000000,1820.000000,1120.000000
-32397.758352,-22520.276609,-32672.595402,34518.938901,-30661.363084,-1517.661097,-17310.688473,-25525.021616,-14532.411341,-28279.427085,-14851.147217,-27089.800190,52188.171707,-8078.859219,-14034.570937,-10939.636641,-11.224000,-927.200012,-368.928009,1680.000000,1120.000000,700.000000
-32387.431847,-22510.263027,-32664.638181,34524.303320,-30651.841241,-1504.585326,-17301.188982,-25518.427851,-14522.017780,-28270.151111,-14839.501958,-27078.087876,52197.000646,-8077.518115,-14032.693390,-10930.830053,-13.664001,-927.687988,-366.488007,1540.000000,980.000000,560.000000
-32353.256029,-22478.210625,-32638.218419,34544.621056,-30619.967654,-1467.749651,-17272.131714,-25486.554263,-14485.964416,-28242.032616,-14812.590458,-27051.109320,52226.683763,-8071.639606,-14024.892631,-10907.025445,-14.640000,-926.223999,-367.463989,1260.000000,700.000000,280.000000
-32363.023742,-22487.039564,-32647.181469,34540.798907,-30628.282503,-1476.824460,-17279.552493,-25494.332670,-14493.832230,-28249.229878,-14822.022894,-27061.391123,52218.391266,-8073.181876,-14029.273573,-10915.474405,-12.688000,-923.296021,-372.343994,980.000000,700.000000,-140.000000
-32394.964384,-22520.209553,-32674.919984,34517.709555,-30664.626439,-1514.598908,-17309.995569,-25527.972046,-14526.555184,-28275.649640,-14846.118074,-27092.929434,52187.724672,-8079.507420,-14039.622431,-10939.211957,-10.736000,-924.272034,-367.463989,980.000000,140.000000,-280.000000
-32387.431847,-22514.621617,-32669.890841,34518.290701,-30662.391265,-1511.290850,-17307.246304,-25526.250962,-14517.122748,-28269.994649,-14837.333839,-27086.939166,52193.133794,-8077.495763,-14037.320201,-10932.551138,-12.688000,-926.712036,-368.440002,1400.000000,280.000000,-700.000000
-32352.965457,-22478.568253,-32640.297132,34543.861096,-30625.175610,-1473.225829,-17272.846970,-25492.879807,-14482.432840,-28241.116195,-14811.159946,-27054.909117,52224.023905,-8067.482181,-14023.685637,-10905.393768,-11.224000,-925.247986,-368.440002,1260.000000,140.000000,-840.000000
-32354.038340,-22479.127047,-32641.727643,34545.805698,-30624.415651,-1472.577628,-17271.170589,-25490.845798,-14486.210285,-28243.932515,-14815.876164,-27055.713779,52221.475806,-8064.241179,-14022.568050,-10905.974913,-11.224000,-927.200012,-369.903992,1960.000000,420.000000,-840.000000
-32387.074219,-22512.542905,-32671.947202,34524.035099,-30660.759587,-1514.800073,-17302.753604,-25531.458918,-14517.748596,-28272.296878,-14843.346458,-27085.910986,52186.227105,-8075.215885,-14030.569974,-10933.713428,-12.688000,-926.223999,-368.928009,1260.000000,700.000000,-1120.000000
-32391.119884,-22514.979245,-32675.992867,34523.453954,-30665.118178,-1522.354963,-17303.647674,-25541.539555,-14519.961419,-28275.023791,-14844.776970,-27088.123809,52180.862687,-8077.898094,-14026.099625,-10936.909728,-13.664001,-927.687988,-370.880005,1120.000000,700.000000,-840.000000
-32358.441634,-22484.156189,-32648.276704,34543.481117,-30632.417575,-1483.909963,-17273.450467,-25507.944883,-14490.792393,-28249.609858,-14818.670132,-27058.619506,52212.423350,-8072.265455,-14016.197803,-10913.954486,-13.176001,-926.712036,-367.463989,1400.000000,700.000000,-980.000000
-32348.942143,-22474.388477,-32641.504126,34553.785271,-30619.319453,-1473.672864,-17257.513673,-25496.612548,-14482.835172,-28246.480614,-14815.339722,-27051.332838,52219.799426,-8069.113859,-14006.340683,-10906.421948,-12.688000,-930.616028,-365.511993,1400.000000,840.000000,-840.000000
-32372.411474,-22500.405908,-32668.057998,34536.865000,-30649.114329,-1511.916698,-17284.738098,-25532.978837,-14505.656303,-28271.402809,-14842.944126,-27077.618489,52188.931666,-8075.774679,-14012.800337,-10929.667762,-11.224000,-928.176025,-369.416016,1680.000000,840.000000,-560.000000
-32384.570823,-22514.062824,-32681.066713,34526.739660,-30665.364047,-1529.284004,-17302.351272,-25553.609497,-14518.083873,-28283.606861,-14853.695316,-27089.174341,52175.967655,-8081.876705,-14017.695369,-10939.077847,-6.344000,-928.664001,-370.391998,2100.000000,840.000000,-420.000000
-32352.339608,-22482.859788,-32653.238792,34546.610361,-30633.043424,-1492.850660,-17276.803228,-25526.005092,-14485.517381,-28258.952887,-14826.649705,-27058.217175,52206.567193,-8072.667786,-14007.771195,-10916.100254,-12.688000,-927.200012,-367.951996,2520.000000,560.000000,-140.000000
-32337.475698,-22465.805407,-32639.403062,34560.870774,-30612.278654,-1472.130593,-17259.324164,-25508.637787,-14472.799238,-28248.961657,-14814.110376,-27044.269686,52223.576870,-8064.822324,-13999.545753,-10905.617285,-11.712000,-927.200012,-367.951996,2520.000000,420.000000,0.000000
-32367.449387,-22494.616806,-32665.196975,34543.347006,-30643.280523,-1505.769969,-17285.252188,-25541.539555,-14502.951742,-28276.744876,-14840.708952,-27073.036381,52194.363140,-8073.539504,-14007.972361,-10931.455902,-9.272000,-922.807983,-369.416016,3080.000000,0.000000,140.000000
-32384.369658,-22513.347568,-32683.927737,34527.678433,-30668.202718,-1531.161550,-17304.586447,-25568.026372,-14517.323913,-28292.256986,-14855.461103,-27088.615547,52173.397204,-8081.764946,-14015.080215,-10947.526806,-10.736000,-923.783997,-369.903992,2940.000000,280.000000,140.000000
-32362.621410,-22490.884065,-32666.716894,34543.950503,-30642.699378,-1501.053751,-17278.099630,-25541.628962,-14497.564971,-28276.342544,-14838.026743,-27064.587422,52197.559440,-8076.109955,-14003.434956,-10925.219765,-6.832000,-921.343994,-368.440002,2940.000000,140.000000,280.000000
-32346.125823,-22473.069724,-32648.030835,34559.239097,-30617.576017,-1473.784622,-17255.144388,-25515.119793,-14485.472677,-28263.020904,-14822.536984,-27046.527212,52221.296992,-8067.571588,-13993.667244,-10909.059454,-8.296000,-924.760010,-372.343994,3080.000000,0.000000,280.000000
-32367.359980,-22499.243617,-32667.163928,34541.581218,-30643.861669,-1498.997390,-17278.948996,-25539.170270,-14506.349207,-28280.142341,-14839.256089,-27069.102474,52200.643981,-8072.757193,-14003.569067,-10928.684286,-9.272000,-924.272034,-372.832001,2800.000000,-140.000000,420.000000
-32393.176245,-22524.456385,-32691.057943,34524.370375,-30674.014172,-1531.921510,-17305.301703,-25570.596823,-14527.315143,-28300.013041,-14862.524255,-27090.560149,52173.352501,-8084.938894,-14011.123957,-10949.896091,-10.736000,-924.760010,-372.832001,2660.000000,-140.000000,420.000000
-32379.809902,-22507.625521,-32675.992867,34537.781422,-30655.305762,-1511.357905,-17288.224970,-25554.995305,-14511.288942,-28286.534940,-14849.403781,-27070.957669,52190.071605,-8084.670673,-14003.479660,-10936.708562,-11.224000,-924.272034,-374.295990,2240.000000,140.000000,840.000000
-32348.808032,-22480.043468,-32651.137728,34557.518012,-30624.974445,-1477.629122,-17261.179359,-25527.346197,-14481.650529,-28264.876099,-14825.554469,-27045.454329,52217.765417,-8075.372347,-13991.297959,-10915.966143,-10.736000,-926.712036,-371.368011,2520.000000,420.000000,700.000000
-32361.213250,-22492.538094,-32663.989981,34548.845535,-30640.464203,-1495.644628,-17275.998566,-25546.769863,-14494.480430,-28281.461094,-14840.351324,-27060.005314,52202.409768,-8078.389833,-13994.695424,-10929.623059,-12.200000,-925.736023,-370.880005,2380.000000,700.000000,700.000000
-32391.276347,-22518.644931,-32688.219272,34530.785326,-30670.996686,-1531.452123,-17301.390147,-25581.348012,-14521.570745,-28308.931388,-14864.044173,-27085.508655,52175.006530,-8082.480202,-14001.043320,-10952.444190,-11.224000,-924.760010,-371.856018,2660.000000,700.000000,700.000000
-32379.452274,-22506.396175,-32676.953992,34538.563733,-30659.239669,-1519.337478,-17292.851781,-25572.407314,-14506.259800,-28297.330832,-14851.594252,-27071.248242,52188.641094,-8074.366519,-13998.830497,-10944.799893,-10.736000,-924.272034,-368.440002,3080.000000,280.000000,840.000000
-32345.522326,-22475.774285,-32646.935600,34561.116643,-30620.191171,-1480.266628,-17262.945147,-25537.762110,-14474.900302,-28270.620498,-14826.672057,-27041.788643,52221.744027,-8060.508437,-13988.593398,-10920.682361,-13.176001,-927.200012,-372.343994,2940.000000,280.000000,420.000000
-32353.010160,-22484.558521,-32652.836460,34557.786233,-30626.069680,-1487.933277,-17266.096743,-25546.635753,-14486.478506,-28281.237576,-14835.344533,-27054.149157,52215.664353,-8059.614367,-13989.889799,-10929.578356,-12.200000,-927.687988,-371.856018,3080.000000,-280.000000,560.000000
-32386.426018,-22518.108489,-32684.330068,34535.255675,-30665.341695,-1528.904024,-17298.596179,-25584.857236,-14520.587268,-28313.491143,-14864.200635,-27089.353155,52182.561419,-8070.901998,-13997.534096,-10954.455847,-9.272000,-925.247986,-367.951996,3220.000000,-420.000000,560.000000
-32384.593175,-22515.850963,-32684.195958,34537.200277,-30666.347523,-1527.540568,-17301.725424,-25586.645375,-14516.563954,-28311.032452,-14859.126789,-27088.190864,52182.851992,-8072.801897,-13997.578799,-10950.924271,-7.320000,-926.712036,-370.880005,3220.000000,-560.000000,700.000000
-32350.395006,-22484.826742,-32654.535193,34559.239097,-30632.484631,-1485.765157,-17273.673984,-25552.849537,-14483.103392,-28281.595204,-14829.175452,-27060.228832,52214.546766,-8059.726126,-13990.672110,-10926.091483,-9.760000,-921.832031,-372.343994,3220.000000,-840.000000,700.000000
-32348.696273,-22486.078439,-32654.266972,34560.982533,-30630.785898,-1482.747672,-17271.662327,-25550.882584,-14484.399794,-28280.969355,-14831.120054,-27063.536890,52214.814987,-8056.954510,-13988.258122,-10927.343181,-9.272000,-919.880005,-370.880005,2800.000000,-700.000000,700.000000
-32378.915832,-22514.643969,-32682.854853,34542.408233,-30662.033637,-1523.047867,-17297.433889,-25586.958300,-14510.283114,-28305.936254,-14859.305603,-27092.392992,52182.226143,-8062.855370,-13993.801355,-10950.209016,-7.808000,-923.783997,-373.320007,1820.000000,-140.000000,700.000000
-32386.716591,-22517.929675,-32688.241623,34539.949541,-30665.252288,-1531.563882,-17301.636017,-25596.994233,-14515.178146,-28311.032452,-14863.664194,-27094.628167,52174.760661,-8062.140115,-13994.561314,-10952.868873,-7.320000,-922.807983,-371.368011,1120.000000,-140.000000,700.000000
-32356.921715,-22487.553655,-32662.403007,34561.384864,-30631.747023,-1495.443463,-17274.523351,-25566.551157,-14486.478506,-28284.299765,-14838.026743,-27066.889652,52202.745045,-8053.914673,-13985.285340,-10928.907803,-9.272000,-923.296021,-374.783997,1120.000000,-140.000000,280.000000
-32342.348378,-22475.170788,-32654.579896,34566.861041,-30621.822849,-1483.440576,-17267.594310,-25559.867985,-14470.117029,-28274.219128,-14831.991772,-27058.954782,52212.378646,-8050.740725,-13985.173581,-10925.555041,-5.856000,-923.296021,-372.832001,1120.000000,140.000000,420.000000
-32373.886689,-22504.451573,-32682.519577,34545.537477,-30655.238706,-1519.717457,-17296.964502,-25596.860122,-14500.336587,-28301.063573,-14859.819694,-27088.324975,52180.549762,-8058.742649,-13995.097756,-10951.393658,-6.344000,-925.247986,-370.391998,1540.000000,-280.000000,560.000000
-32387.387143,-22518.756690,-32695.952975,34532.908742,-30672.650715,-1537.509446,-17315.516450,-25616.440250,-14513.322951,-28310.428954,-14868.380412,-27100.774896,52167.921027,-8065.358766,-14000.149250,-10962.658937,-8.296000,-926.712036,-372.832001,1960.000000,0.000000,560.000000
-32358.598096,-22492.851018,-32671.701333,34548.309094,-30645.001608,-1504.093588,-17293.164705,-25585.751305,-14485.360919,-28285.395001,-14842.854720,-27076.590309,52198.654675,-8062.855370,-13995.880067,-10937.624984,-9.272000,-927.200012,-370.391998,2520.000000,-420.000000,560.000000
-32347.913962,-22481.317518,-32662.090082,34560.691960,-30629.176572,-1486.838041,-17275.037441,-25570.730933,-14477.291939,-28279.471788,-14834.562222,-27069.013067,52210.344638,-8063.302405,-13986.894666,-10926.158539,-8.296000,-930.127991,-369.416016,2800.000000,-420.000000,280.000000
-32373.171434,-22506.172658,-32684.754751,34547.236210,-30655.953962,-1518.041076,-17293.477630,-25601.464582,-14501.476526,-28301.532960,-14855.438752,-27092.258882,52182.472012,-8067.549237,-13987.274645,-10949.046725,-9.760000,-931.104004,-368.440002,2940.000000,-700.000000,560.000000
-32384.503768,-22519.918981,-32698.612833,34536.641483,-30674.081227,-1539.565806,-17309.325017,-25628.085509,-14511.087777,-28311.881818,-14865.206464,-27102.451277,52163.897713,-8071.192571,-13985.777078,-10963.240083,-8.784000,-931.104004,-365.024017,2800.000000,-980.000000,420.000000
-32346.081119,-22479.797599,-32671.790740,34560.110815,-30638.273732,-1509.905041,-17280.021880,-25605.063213,-14470.698174,-28279.896471,-14836.573879,-27066.621431,52191.010379,-8060.173161,-13963.827665,-10938.831978,-10.736000,-928.664001,-365.511993,2100.000000,-980.000000,140.000000
-32307.546712,-22440.056198,-32643.962818,34587.156425,-30599.560511,-1480.736015,-17247.433036,-25579.157541,-14431.806139,-28249.028712,-14813.328065,-27034.971361,52218.927708,-8044.839864,-13941.006534,-10915.206184,-9.272000,-928.664001,-372.343994,1680.000000,-1260.000000,280.000000
-32319.326081,-22450.203890,-32656.524498,34582.641373,-30612.412764,-1506.485225,-17257.491321,-25601.285768,-14442.892604,-28261.746855,-14834.271650,-27049.634105,52201.560402,-8044.012850,-13935.239784,-10928.684286,-10.248000,-925.736023,-370.880005,980.000000,-1540.000000,0.000000
-32344.024759,-22477.428314,-32678.540966,34566.481062,-30640.374796,-1537.911777,-17281.608854,-25629.158393,-14466.540750,-28284.433876,-14859.417362,-27072.343477,52176.548800,-8048.997289,-13940.112464,-10945.068114,-8.296000,-926.712036,-370.880005,1120.000000,-1120.000000,0.000000
-32331.284264,-22466.297146,-32666.716894,34574.594745,-30625.823811,-1516.319992,-17271.036478,-25611.545218,-14450.872177,-28270.978125,-14844.732266,-27058.083064,52192.798518,-8042.761152,-13939.486616,-10931.053571,-9.272000,-926.223999,-373.808014,1680.000000,-840.000000,-140.000000
-32315.593340,-22450.002724,-32649.103719,34587.782274,-30600.946319,-1483.485279,-17248.036533,-25581.102142,-14435.471825,-28253.879041,-14828.907231,-27042.168622,52218.413617,-8033.999268,-13936.670296,-10913.887431,-8.296000,-924.760010,-375.272003,2240.000000,-700.000000,-280.000000
-32341.141384,-22476.623652,-32666.538080,34573.678323,-30623.409822,-1501.545489,-17265.023859,-25596.144866,-14462.606843,-28274.822625,-14849.560243,-27067.023762,52199.995780,-8039.296632,-13947.086209,-10929.332486,-9.272000,-925.736023,-372.343994,2940.000000,-700.000000,-280.000000
-32379.340515,-22516.566219,-32697.048211,34546.610361,-30664.782901,-1540.638690,-17302.910066,-25633.539335,-14502.795279,-28307.299710,-14878.528104,-27102.987719,52167.183419,-8053.534693,-13968.767401,-10958.702679,-9.272000,-922.807983,-374.295990,3780.000000,-700.000000,140.000000
-32377.194748,-22519.315483,-32695.282423,34545.045739,-30663.844128,-1531.630937,-17303.178287,-25626.520887,-14503.287018,-28302.762306,-14870.302662,-27100.573731,52174.626550,-8057.178027,-13976.769325,-10956.646318,-8.784000,-923.296021,-373.320007,4200.000000,-840.000000,560.000000
-32348.673922,-22491.040527,-32670.963725,34566.190489,-30633.199886,-1496.829271,-17275.305662,-25596.189570,-14476.420221,-28279.695306,-14846.073371,-27074.645707,52202.655638,-8049.109048,-13968.208607,-10936.932079,-7.808000,-926.223999,-373.320007,4620.000000,-700.000000,840.000000
-32354.574782,-22494.303881,-32675.881109,34566.145786,-30638.005512,-1504.630030,-17277.317319,-25605.599654,-14483.841000,-28288.010155,-14855.371696,-27081.306527,52194.988989,-8047.879702,-13967.023965,-10943.928175,-7.808000,-926.712036,-370.391998,4620.000000,-560.000000,980.000000
-32387.387143,-22523.472908,-32704.558397,34545.895105,-30672.673067,-1543.745583,-17305.122889,-25643.083530,-14514.038207,-28314.608731,-14885.792421,-27109.626187,52161.014338,-8055.501646,-13974.087116,-10967.241045,-10.736000,-930.127991,-366.488007,4340.000000,-280.000000,1260.000000
-32380.525158,-22516.052129,-32698.724592,34549.225515,-30666.951021,-1542.516237,-17298.976159,-25643.441158,-14504.963399,-28307.679690,-14879.645691,-27100.126696,52164.054175,-8052.864141,-13966.956910,-10960.870798,-9.272000,-928.664001,-369.903992,4340.000000,-140.000000,1540.000000
-32349.322122,-22482.949195,-32669.399103,34571.465501,-30630.383567,-1505.702913,-17266.320260,-25610.248817,-14474.855599,-28283.293937,-14853.337688,-27068.856605,52194.430196,-8044.348126,-13955.177540,-10936.172120,-7.808000,-930.616028,-366.000000,4200.000000,0.000000,1680.000000
-32348.182183,-22485.899626,-32666.783949,34571.107873,-30630.696491,-1502.618373,-17266.409667,-25607.924236,-14479.169485,-28287.697230,-14854.947013,-27071.583518,52196.151280,-8042.023545,-13957.345659,-10937.870853,-9.760000,-930.127991,-367.951996,4340.000000,-280.000000,1960.000000
-32378.088817,-22520.500126,-32694.500112,34547.213858,-30668.582698,-1541.979795,-17303.446508,-25645.810443,-14510.685445,-28315.569856,-14879.936264,-27102.518332,52165.976425,-8051.008946,-13972.634253,-10966.481086,-13.664001,-929.640015,-366.488007,3920.000000,-280.000000,2380.000000
-32381.978021,-22524.545792,-32698.903406,34545.068091,-30671.980163,-1548.618263,-17307.134546,-25653.030056,-14514.373483,-28316.039242,-14882.014976,-27101.870132,52162.869532,-8051.187760,-13969.706174,-10966.123458,-12.688000,-924.760010,-367.463989,3780.000000,-140.000000,2380.000000
-32355.267686,-22495.890855,-32673.645934,34567.017504,-30635.613875,-1510.262669,-17275.350365,-25618.764832,-14488.534866,-28288.188969,-14855.908138,-27073.572823,52195.883059,-8040.280108,-13953.858787,-10937.960260,-11.712000,-924.760010,-366.976013,2800.000000,280.000000,2100.000000
-32346.818727,-22488.961815,-32665.040513,34574.482986,-30625.175610,-1498.192727,-17266.029688,-25608.080698,-14479.705927,-28278.868291,-14849.515539,-27068.275460,52206.455434,-8032.680515,-13949.544901,-10933.981649,-15.128000,-927.200012,-365.024017,2240.000000,700.000000,1540.000000
-32373.618468,-22516.767385,-32690.230929,34556.735701,-30657.160957,-1533.821408,-17293.365871,-25645.229297,-14505.835117,-28303.052879,-14876.315281,-27093.532931,52178.471050,-8037.419085,-13955.959851,-10957.585091,-13.176001,-927.687988,-366.000000,2100.000000,1120.000000,1120.000000
-32381.732152,-22525.618675,-32699.216330,34550.499564,-30670.147320,-1547.679490,-17301.904237,-25663.177748,-14511.400701,-28308.484353,-14884.630130,-27099.679661,52167.384585,-8040.391867,-13952.092999,-10961.630757,-12.200000,-925.736023,-367.463989,1680.000000,1400.000000,420.000000
-32352.361960,-22497.231960,-32677.468083,34570.414969,-30640.039520,-1513.302507,-17275.640938,-25635.305123,-14481.404660,-28281.058762,-14861.741944,-27073.796341,52194.988989,-8033.708696,-13939.374857,-10938.362591,-13.664001,-925.736023,-367.951996,1540.000000,1400.000000,0.000000
-32332.401852,-22479.685841,-32663.833518,34582.373152,-30620.995834,-1487.039207,-17259.726496,-25615.412070,-14466.205474,-28266.597184,-14850.856644,-27059.379466,52213.540937,-8025.326791,-13935.016267,-10926.404408,-11.224000,-921.832031,-363.559998,1680.000000,1260.000000,-420.000000
-32359.693332,-22506.664396,-32686.788760,34565.452882,-30650.075454,-1515.157701,-17282.167647,-25647.531527,-14494.189858,-28291.631137,-14874.616548,-27085.553358,52186.361216,-8032.121722,-13941.140645,-10948.979670,-12.688000,-923.296021,-363.071991,560.000000,1120.000000,-840.000000
-32380.435751,-22524.322274,-32704.737211,34552.332408,-30671.443721,-1539.834027,-17298.037386,-25672.051391,-14510.707797,-28307.634986,-14889.860438,-27100.976062,52165.328224,-8040.928309,-13943.264060,-10961.273129,-9.760000,-923.783997,-365.511993,0.000000,840.000000,-1120.000000
-32354.820651,-22497.567236,-32682.497225,34569.252678,-30645.269828,-1511.939050,-17274.523351,-25650.414902,-14482.969282,-28285.037373,-14868.626281,-27073.528120,52189.602219,-8036.502664,-13932.222299,-10939.636641,-11.224000,-927.687988,-366.488007,-140.000000,420.000000,-1400.000000
-32330.054919,-22476.623652,-32661.464234,34584.161292,-30622.493401,-1483.284114,-17253.624469,-25629.516021,-14461.533959,-28266.932460,-14849.984926,-27054.909117,52214.077379,-8030.378286,-13924.645057,-10923.945716,-10.736000,-934.520020,-364.048004,560.000000,-420.000000,-1400.000000
-32346.617561,-22499.713004,-32678.943298,34567.956277,-30648.220259,-1506.284059,-17275.976214,-25656.986315,-14482.097564,-28286.624347,-14865.675851,-27077.819655,52191.904448,-8035.630946,-13935.485653,-10944.285803,-10.736000,-935.496033,-365.511993,1820.000000,-980.000000,-840.000000
-32371.360942,-22526.468042,-32700.915063,34549.627846,-30676.539919,-1538.045888,-17301.412499,-25689.441048,-14506.215096,-28307.567931,-14884.272502,-27101.065469,52164.724727,-8043.141132,-13943.778151,-10963.955338,-7.808000,-937.447998,-366.976013,3780.000000,-1540.000000,-420.000000
-32355.245335,-22505.412698,-32687.794589,34565.721102,-30654.232878,-1518.957498,-17281.497095,-25674.644193,-14487.126706,-28292.882835,-14870.749697,-27082.021783,52182.695530,-8036.323850,-13926.053217,-10942.676478,-8.784000,-932.080017,-367.463989,4480.000000,-2240.000000,140.000000
-32326.478639,-22475.416657,-32663.542946,34586.374114,-30620.526447,-1483.664093,-17253.244490,-25642.524736,-14457.823570,-28270.486387,-14849.783760,-27053.947992,52211.216356,-8026.243213,-13912.709226,-10918.313076,-9.760000,-929.152039,-367.463989,4900.000000,-2520.000000,560.000000
-32341.387253,-22493.678033,-32677.065751,34574.751207,-30635.010378,-1499.623239,-17267.035516,-25658.148606,-14473.134514,-28285.685573,-14866.033479,-27068.364867,52193.312608,-8029.551271,-13919.817080,-10935.076885,-9.760000,-928.176025,-370.880005,5320.000000,-2800.000000,980.000000
-32371.226832,-22526.713911,-32703.932548,34551.728910,-30670.527300,-1535.542492,-17296.226894,-25693.017327,-14501.297712,-28309.065498,-14888.988720,-27096.326899,52163.718899,-8039.386039,-13928.333095,-10958.210940,-7.808000,-925.736023,-370.880005,5460.000000,-2940.000000,1260.000000
-32363.582535,-22519.203725,-32698.724592,34557.987399,-30661.228974,-1522.980812,-17286.705051,-25684.680126,-14492.804050,-28296.682632,-14877.008185,-27085.642765,52175.252399,-8038.626079,-13922.320476,-10949.538463,-9.760000,-922.320007,-366.000000,6020.000000,-2660.000000,1680.000000
-32330.233732,-22488.470076,-32672.394237,34580.808530,-30626.561418,-1484.826384,-17258.072467,-25654.907603,-14463.746782,-28268.608841,-14850.364906,-27057.680733,52208.981181,-8025.416198,-13912.865688,-10927.521995,-8.296000,-919.880005,-368.440002,5600.000000,-2240.000000,1960.000000
-32337.341587,-22496.047318,-32677.557490,34579.690943,-30632.417575,-1492.783605,-17260.151179,-25663.177748,-14473.648605,-28277.326021,-14864.401801,-27067.359038,52203.013265,-8017.213108,-13912.150432,-10934.182815,-12.200000,-917.928040,-370.391998,4760.000000,-1260.000000,1960.000000
-32368.991657,-22527.563277,-32706.212426,34559.552021,-30666.414579,-1534.402553,-17287.867342,-25701.220417,-14503.465832,-28306.562103,-14896.320092,-27098.964405,52170.737346,-8022.354009,-13919.235935,-10959.172065,-15.616000,-918.416016,-366.976013,3220.000000,0.000000,2380.000000
-32365.169509,-22524.411681,-32705.944205,34561.384864,-30665.028771,-1534.804885,-17287.420307,-25702.203894,-14496.648550,-28303.701079,-14893.012034,-27096.058678,52175.073585,-8022.979858,-13916.464319,-10955.618138,-20.007999,-917.440002,-373.320007,1540.000000,1260.000000,2660.000000
-32328.132669,-22489.945291,-32676.618716,34584.027181,-30628.707186,-1495.376408,-17257.267804,-25670.911452,-14460.796352,-28275.068495,-14863.753601,-27065.526195,52209.942306,-8010.351123,-13904.707301,-10928.751341,-20.984001,-918.416016,-370.880005,420.000000,2240.000000,3220.000000
-32325.808087,-22490.437030,-32676.641068,34584.876547,-30627.343729,-1491.777777,-17255.256147,-25671.961984,-14461.265738,-28275.046143,-14863.351269,-27069.773027,52211.641039,-8006.439567,-13905.020226,-10929.690114,-23.424000,-919.392029,-370.880005,-560.000000,2800.000000,3080.000000
-32357.189936,-22522.109452,-32706.860627,34564.469405,-30659.172614,-1529.619280,-17282.257054,-25709.915246,-14490.211247,-28302.695251,-14891.670929,-27101.199579,52178.649864,-8012.474538,-13910.406996,-10953.852350,-27.328001,-925.736023,-374.783997,-140.000000,2940.000000,2800.000000
-32360.430939,-22524.366978,-32711.129810,34563.262411,-30662.503023,-1535.698955,-17286.861513,-25718.677130,-14491.909980,-28306.115068,-14894.464897,-27100.909007,52174.648902,-8011.200489,-13908.037711,-10952.600652,-24.888000,-924.272034,-375.272003,560.000000,2800.000000,1960.000000
-32324.511686,-22489.632367,-32681.401990,34583.267222,-30628.416613,-1498.058617,-17258.765371,-25686.222397,-14457.309479,-28277.080152,-14864.379449,-27067.493149,52207.684780,-7998.169422,-13898.985255,-10926.694980,-23.912001,-924.272034,-373.808014,1680.000000,1960.000000,700.000000
-32317.426183,-22484.424410,-32674.942335,34588.966917,-30621.778145,-1488.179146,-17252.775103,-25678.153417,-14455.990726,-28273.079189,-14859.931452,-27063.067503,52216.267850,-7995.241343,-13899.678159,-10922.559908,-18.056000,-925.247986,-374.295990,2940.000000,980.000000,-840.000000
-32348.830384,-22516.409757,-32701.339746,34570.996114,-30655.842204,-1525.886539,-17282.525275,-25713.469173,-14489.808916,-28301.309443,-14886.954711,-27093.421172,52186.472975,-8004.606724,-13908.842374,-10949.896091,-14.152000,-923.783997,-372.832001,3360.000000,-280.000000,-2240.000000
-32361.727340,-22529.686693,-32714.549627,34562.547155,-30670.572003,-1543.678527,-17296.271598,-25732.155231,-14500.560105,-28312.284149,-14896.320092,-27103.010071,52173.777184,-8010.686399,-13911.658694,-10961.071963,-8.296000,-926.223999,-370.391998,3500.000000,-980.000000,-3640.000000
-32335.285227,-22506.172658,-32693.695449,34579.623887,-30641.268866,-1509.323896,-17269.538912,-25703.366185,-14475.146171,-28290.021812,-14874.057755,-27076.366791,52201.806271,-8005.590201,-13906.674255,-10937.133245,-8.784000,-927.687988,-368.928009,3640.000000,-1820.000000,-4620.000000
-32320.555427,-22494.125067,-32680.664382,34592.386734,-30622.806325,-1491.509556,-17250.227004,-25685.194216,-14463.299747,-28279.248271,-14864.625319,-27063.268669,52216.089036,-8000.650466,-13903.746176,-10924.906841,-0.976000,-930.127991,-369.416016,3780.000000,-2660.000000,-5180.000000
-32343.197744,-22518.689635,-32701.384449,34580.137978,-30649.851936,-1522.399667,-17269.248339,-25715.927865,-14486.880837,-28300.594187,-14888.295816,-27086.179207,52191.658579,-8003.019750,-13909.691740,-10948.309117,-3.904000,-931.104004,-368.928009,4060.000000,-3080.000000,-5040.000000
-32359.648628,-22535.900478,-32717.790630,34570.526728,-30671.711942,-1545.377260,-17287.889694,-25745.476871,-14501.923561,-28312.820591,-14901.818621,-27100.506675,52172.681948,-8007.423044,-13911.770452,-10965.519961,-2.928000,-927.200012,-369.416016,4340.000000,-3500.000000,-4060.000000
-32331.753651,-22507.714928,-32694.880092,34588.832806,-30645.962733,-1517.728152,-17265.940281,-25725.762633,-14471.279320,-28286.154960,-14879.153952,-27074.310431,52197.648847,-8001.276314,-13898.873496,-10946.565681,2.928000,-932.080017,-367.951996,3920.000000,-2800.000000,-4060.000000
-32308.329023,-22483.798562,-32672.148367,34606.356574,-30620.749965,-1487.329780,-17242.515652,-25699.476981,-14446.602994,-28265.054913,-14859.573824,-27054.417378,52223.018077,-7990.972160,-13886.267112,-10931.478254,-1.952000,-932.080017,-370.880005,3920.000000,-2520.000000,-3360.000000
-32335.933427,-22510.374786,-32690.677964,34590.911518,-30646.499174,-1510.486187,-17263.950975,-25721.739319,-14470.497009,-28283.852730,-14878.393993,-27082.267652,52203.996742,-7992.290913,-13891.139792,-10951.393658,-0.976000,-931.104004,-374.295990,4060.000000,-2940.000000,-2100.000000
-32360.788567,-22535.744016,-32711.576845,34576.360533,-30673.544785,-1539.565806,-17287.621473,-25752.361208,-14492.535829,-28303.522265,-14896.945941,-27105.491114,52182.673178,-7998.705864,-13893.844353,-10967.084583,-4.392000,-927.687988,-371.856018,4620.000000,-2380.000000,-560.000000
-32338.123898,-22512.498201,-32692.935490,34594.532501,-30650.410730,-1517.683449,-17267.795475,-25736.580877,-14467.546578,-28285.037373,-14878.595159,-27080.837140,52204.086149,-7990.972160,-13880.030975,-10946.342164,-3.904000,-928.664001,-370.391998,4620.000000,-2380.000000,980.000000
-32307.613767,-22484.603224,-32665.934582,34615.811362,-30618.984177,-1481.853602,-17239.878147,-25709.579970,-14437.304668,-28259.288163,-14852.734191,-27052.919811,52234.193949,-7978.499887,-13870.464429,-10925.890318,-5.856000,-927.687988,-370.391998,4760.000000,-1540.000000,2520.000000
-32322.052994,-22499.355376,-32676.730475,34609.351708,-30632.283465,-1498.259783,-17249.221176,-25725.092080,-14451.185101,-28270.374628,-14867.508694,-27067.627259,52220.671144,-7977.538762,-13871.582016,-10938.273184,-7.320000,-924.272034,-370.880005,4760.000000,-1260.000000,3500.000000
-32350.774986,-22527.071539,-32701.630318,34592.587899,-30662.972410,-1533.553187,-17275.931510,-25760.988982,-14477.560160,-28292.189931,-14894.353139,-27093.465876,52191.792690,-7983.171401,-13876.678214,-10960.490818,-8.784000,-926.712036,-367.951996,3780.000000,-560.000000,4200.000000
-32333.944122,-22511.224152,-32692.466103,34602.914405,-30648.913163,-1519.583347,-17265.515598,-25754.417569,-14459.276433,-28277.437780,-14884.004281,-27078.221986,52203.683818,-7977.181134,-13871.492609,-10950.745457,-9.760000,-924.272034,-367.951996,2940.000000,-280.000000,4900.000000
-32301.154113,-22479.954062,-32666.180452,34625.556722,-30612.323357,-1481.227753,-17234.290211,-25721.404042,-14429.481558,-28250.638038,-14859.372659,-27048.985904,52234.082190,-7965.781744,-13859.288556,-10923.431626,-11.712000,-924.760010,-367.463989,1680.000000,-140.000000,5040.000000
-32305.780924,-22487.553655,-32671.567222,34625.601426,-30615.765526,-1487.642704,-17236.346571,-25726.902572,-14440.143340,-28256.829471,-14866.838141,-27056.652553,52227.086094,-7963.859494,-13858.506245,-10926.225594,-12.688000,-924.760010,-367.951996,560.000000,-140.000000,4760.000000
-32336.983959,-22521.193030,-32700.110400,34606.289519,-30652.176518,-1528.300527,-17265.582653,-25764.744075,-14472.352203,-28281.259928,-14891.246246,-27086.045097,52195.570135,-7973.940131,-13869.637414,-10953.829998,-17.568001,-927.200012,-369.416016,-280.000000,280.000000,4200.000000
-32329.786698,-22513.995768,-32695.707106,34610.804571,-30648.779052,-1525.260690,-17260.486455,-25762.754770,-14460.259910,-28274.107370,-14883.266673,-27078.803131,52199.995780,-7975.728270,-13865.055307,-10949.829036,-20.984001,-928.664001,-366.488007,-980.000000,280.000000,3080.000000
-32292.772209,-22477.808294,-32662.403007,34636.442022,-30609.887017,-1483.820556,-17225.953010,-25728.914229,-14422.574869,-28243.463128,-14852.264804,-27045.431977,52236.920862,-7966.027613,-13852.024240,-10919.922402,-20.984001,-922.320007,-368.928009,-1400.000000,700.000000,1680.000000
-32289.754723,-22473.919090,-32658.066768,34643.147545,-30603.270901,-1478.970227,-17217.749920,-25728.355435,-14420.540860,-28243.016093,-14852.108342,-27044.515555,52239.759533,-7961.378451,-13847.039801,-10916.234364,-19.032000,-924.272034,-371.856018,-1540.000000,840.000000,-140.000000
-32321.941235,-22503.915132,-32682.631336,34624.439135,-30636.552648,-1517.348172,-17245.466083,-25763.961764,-14453.934366,-28270.799311,-14878.483400,-27072.589346,52206.924821,-7966.497000,-13854.549987,-10939.726047,-18.544001,-924.272034,-374.783997,-840.000000,560.000000,-1540.000000
-32324.958721,-22509.458364,-32685.581766,34618.404164,-30645.493346,-1524.992469,-17256.194920,-25774.735305,-14457.600052,-28271.559271,-14878.461048,-27074.601003,52201.783920,-7968.419250,-13859.713240,-10944.375210,-17.568001,-918.416016,-371.368011,-420.000000,0.000000,-3080.000000
-32289.687668,-22475.237843,-32657.105643,34642.655807,-30610.758735,-1486.703931,-17227.204708,-25744.806319,-14423.491290,-28242.010265,-14849.493188,-27043.509727,52231.578795,-7957.243378,-13845.609289,-10917.329600,-18.056000,-917.928040,-375.272003,140.000000,-280.000000,-4200.000000
-32282.378648,-22467.392381,-32650.869507,34650.925952,-30602.577997,-1476.533887,-17217.705216,-25737.631409,-14420.093825,-28237.115233,-14846.118074,-27040.425186,52238.731353,-7950.269634,-13843.262356,-10908.545364,-16.104000,-920.856018,-371.368011,1120.000000,-560.000000,-5180.000000
-32315.191008,-22499.534190,-32678.764484,34630.094126,-30636.463241,-1513.190748,-17246.851891,-25774.712953,-14453.353221,-28265.703114,-14875.041232,-27071.695277,52207.170690,-7958.472724,-13856.025202,-10931.210033,-13.664001,-919.880005,-372.832001,1680.000000,-980.000000,-6020.000000
-32327.640930,-22510.598303,-32690.029763,34620.907560,-30650.969523,-1529.619280,-17260.262938,-25792.504942,-14460.282261,-28275.761399,-14883.981929,-27080.434809,52194.586658,-7964.239474,-13857.925100,-10937.937908,-10.736000,-921.832031,-370.391998,2380.000000,-980.000000,-6160.000000
-32300.863540,-22482.166884,-32667.029818,34639.414804,-30620.705261,-1494.705855,-17235.564260,-25763.648839,-14431.761435,-28252.694398,-14863.239510,-27052.562183,52222.347524,-7959.143276,-13846.592766,-10914.893259,-8.784000,-923.296021,-371.856018,2800.000000,-980.000000,-6020.000000
-32286.044334,-22469.694611,-32653.708178,34648.176688,-30604.589654,-1472.644683,-17224.120167,-25749.835461,-14418.328037,-28238.903372,-14852.175397,-27040.268724,52239.357202,-7954.248244,-13844.402295,-10906.421948,-8.296000,-926.712036,-372.832001,3500.000000,-1260.000000,-5460.000000
-32316.353299,-22500.987053,-32676.953992,34629.155353,-30634.004549,-1504.384161,-17247.097760,-25778.691563,-14450.000459,-28261.255117,-14874.795362,-27069.460102,52214.211489,-7958.584483,-13851.688963,-10928.930155,-7.320000,-925.736023,-370.880005,3640.000000,-1260.000000,-4760.000000
-32338.593285,-22520.477774,-32696.176493,34617.577150,-30654.188175,-1529.149893,-17263.570996,-25804.284311,-14470.921692,-28277.773056,-14893.369662,-27088.593196,52193.066739,-7965.781744,-13851.241928,-10939.994268,-8.296000,-928.664001,-365.511993,4060.000000,-1400.000000,-3780.000000
-32307.859636,-22494.102716,-32672.751865,34632.441060,-30628.640131,-1501.836062,-17246.069580,-25787.408744,-14439.092808,-28252.604992,-14869.140371,-27063.268669,52219.888833,-7958.360965,-13845.788103,-10922.761073,-5.856000,-929.152039,-366.976013,4200.000000,-1400.000000,-2940.000000
-32285.709058,-22476.936576,-32654.311675,34643.929856,-30608.255340,-1475.684521,-17228.992847,-25766.465159,-14418.238630,-28234.969465,-14853.158874,-27046.281343,52241.726487,-7950.202578,-13842.882376,-10910.378207,-6.832000,-925.247986,-365.511993,4200.000000,-1120.000000,-1960.000000
-32310.027756,-22500.919998,-32674.919984,34630.965845,-30632.238761,-1500.696123,-17246.114283,-25790.202712,-14442.333811,-28258.729369,-14877.678737,-27071.069428,52216.826644,-7950.448448,-13843.642335,-10924.660972,-8.784000,-928.176025,-370.880005,4060.000000,-1120.000000,-1120.000000
-32337.878029,-22528.055016,-32699.439847,34612.391545,-30659.753759,-1533.821408,-17272.087010,-25823.685625,-14467.256006,-28283.562158,-14900.544572,-27094.203483,52188.328169,-7959.098573,-13849.677306,-10942.654126,-7.808000,-926.712036,-368.440002,4200.000000,-980.000000,-140.000000
-32318.521418,-22509.413661,-32683.793626,34623.321548,-30640.732424,-1514.062466,-17256.977231,-25809.291102,-14447.854691,-28265.479596,-14882.238493,-27074.824521,52207.170690,-7956.706936,-13845.341068,-10930.159501,-7.320000,-924.760010,-366.488007,3640.000000,-1260.000000,700.000000
-32288.570081,-22480.334041,-32656.949181,34641.918199,-30610.043479,-1478.858468,-17228.992847,-25778.669212,-14422.284296,-28240.982084,-14856.891615,-27049.276477,52235.892682,-7947.498017,-13836.668591,-10907.919515,-10.736000,-925.736023,-369.416016,3500.000000,-1120.000000,840.000000
-32304.618633,-22498.237788,-32669.846138,34631.479935,-30627.410785,-1495.532870,-17241.666286,-25796.014165,-14443.652564,-28256.382436,-14872.291967,-27066.532024,52219.732370,-7950.739020,-13842.144768,-10920.369437,-10.248000,-929.640015,-369.416016,3500.000000,-1260.000000,980.000000
-32334.502916,-22529.641989,-32699.126923,34610.759868,-30661.743064,-1533.128504,-17270.432981,-25833.743910,-14473.358032,-28280.969355,-14901.215124,-27094.985794,52188.484632,-7960.014994,-13848.850292,-10943.436437,-11.224000,-926.712036,-370.880005,3640.000000,-1260.000000,980.000000
-32324.399927,-22519.583704,-32694.321298,34617.599501,-30652.444738,-1522.958460,-17263.727458,-25828.357140,-14459.924633,-28272.207471,-14893.235552,-27082.625280,52198.408806,-7958.606834,-13843.307059,-10933.400504,-11.224000,-926.223999,-370.391998,3360.000000,-980.000000,840.000000
-32294.403886,-22489.654719,-32668.460330,34639.727728,-30617.888942,-1486.502765,-17232.770292,-25796.617663,-14430.152110,-28246.927648,-14868.335708,-27054.618544,52227.287260,-7947.140389,-13831.013600,-10908.366550,-12.200000,-926.712036,-368.440002,3220.000000,-980.000000,560.000000
-32301.556444,-22500.204742,-32673.243603,34634.877400,-30625.734404,-1494.281172,-17237.710027,-25805.401898,-14440.769188,-28253.253192,-14876.337633,-27064.810939,52218.838301,-7944.189959,-13833.114664,-10916.636695,-10.736000,-928.176025,-370.880005,3080.000000,-1260.000000,420.000000
-32330.032567,-22532.123033,-32699.126923,34610.737516,-30661.653657,-1533.441428,-17266.141446,-25843.891602,-14469.938215,-28277.415428,-14903.226781,-27091.476571,52187.098823,-7948.190921,-13841.585975,-10940.798931,-12.688000,-922.320007,-373.808014,3640.000000,-1120.000000,420.000000
-32323.014119,-22526.468042,-32695.237719,34613.755001,-30657.071550,-1530.245129,-17259.301813,-25844.338637,-14462.360974,-28269.279393,-14900.410461,-27082.625280,52189.713978,-7944.011145,-13834.545175,-10936.842672,-15.128000,-923.296021,-373.808014,3780.000000,-1120.000000,420.000000
-32286.960755,-22492.828666,-32667.119225,34636.173801,-30622.091069,-1492.850660,-17227.830556,-25813.537933,-14429.973296,-28239.931552,-14872.828409,-27053.389198,52220.000591,-7937.707953,-13824.688056,-10914.468576,-17.080000,-924.272034,-376.735992,4060.000000,-1540.000000,560.000000
-32286.491369,-22493.163942,-32667.834481,34637.000816,-30621.085241,-1493.208288,-17228.255240,-25815.996625,-14432.968430,-28243.954866,-14875.734136,-27055.244393,52219.128873,-7938.132636,-13823.302248,-10920.369437,-18.056000,-926.223999,-371.856018,4340.000000,-1400.000000,700.000000
-32318.923750,-22525.551620,-32697.182321,34615.900769,-30658.435006,-1532.569710,-17261.827560,-25858.531995,-14464.104410,-28271.983954,-14903.338540,-27084.189902,52187.255286,-7948.257977,-13834.746341,-10951.170141,-17.568001,-931.104004,-369.903992,3920.000000,-1540.000000,840.000000
-32320.376613,-22527.451518,-32700.378621,34612.413897,-30663.508852,-1538.559978,-17266.186150,-25868.322059,-14462.025697,-28270.240518,-14901.036310,-27085.106323,52184.930704,-7952.862436,-13832.958202,-10951.930100,-15.128000,-927.687988,-365.511993,3080.000000,-1260.000000,280.000000
-32286.156092,-22495.868504,-32673.288306,34633.156315,-30629.131869,-1500.673771,-17234.223155,-25835.956733,-14427.872232,-28241.786747,-14871.844932,-27055.758483,52216.513719,-7943.139427,-13818.384864,-10923.073998,-12.688000,-927.687988,-365.511993,2240.000000,-840.000000,0.000000
-32275.181386,-22490.772306,-32668.370923,34638.967769,-30620.638206,-1490.973114,-17229.663399,-25825.674930,-14421.703150,-28238.188116,-14867.039307,-27052.383369,52224.515644,-7942.804151,-13816.484966,-10918.760111,-10.248000,-927.687988,-366.976013,1820.000000,-560.000000,-560.000000
-32301.824665,-22521.707120,-32696.087086,34620.885208,-30653.450567,-1525.707725,-17257.759542,-25858.375532,-14452.101523,-28264.920803,-14892.050909,-27082.513521,52197.850013,-7954.561168,-13826.386789,-10943.503492,-11.224000,-933.056030,-367.463989,1680.000000,0.000000,-840.000000
-32313.402869,-22533.330027,-32707.397068,34613.352670,-30666.347523,-1541.689222,-17267.370792,-25874.178216,-14465.244349,-28277.080152,-14902.779746,-27094.292890,52184.058986,-7960.171456,-13827.347914,-10950.924271,-12.200000,-931.591980,-370.391998,1540.000000,420.000000,-700.000000
-32281.171653,-22503.043414,-32681.647859,34632.530467,-30632.417575,-1505.479396,-17238.358228,-25843.779843,-14434.153072,-28251.062721,-14876.449391,-27067.113169,52210.188175,-7948.548549,-13815.322675,-10927.253774,-10.736000,-932.080017,-374.783997,1960.000000,280.000000,-560.000000
-32264.094921,-22487.531303,-32668.929716,34645.092147,-30613.530351,-1482.635913,-17223.270801,-25827.328959,-14419.244459,-28237.584619,-14863.463028,-27055.602021,52224.247423,-7940.725439,-13807.656027,-10912.814547,-10.248000,-922.320007,-367.951996,2380.000000,-140.000000,-420.000000
-32292.705154,-22516.342701,-32694.500112,34627.456621,-30643.705206,-1515.224757,-17249.712914,-25856.542689,-14450.983936,-28263.691457,-14889.391051,-27083.049963,52195.927762,-7947.810942,-13813.758053,-10934.406332,-7.808000,-924.272034,-374.783997,1960.000000,-1120.000000,-700.000000
-32310.206569,-22534.447614,-32710.950996,34614.984347,-30666.079303,-1541.979795,-17270.053002,-25881.777809,-14468.239482,-28278.734181,-14903.830278,-27096.952748,52178.046367,-7954.851741,-13818.831899,-10951.706583,-4.392000,-924.760010,-368.440002,1260.000000,-2100.000000,-1120.000000
-32278.735313,-22508.318425,-32689.001583,34630.787031,-30641.447680,-1515.157701,-17248.304754,-25859.940155,-14439.025752,-28253.700227,-14879.377470,-27068.878957,52203.348542,-7946.581596,-13813.243963,-10933.266393,-0.976000,-928.664001,-367.463989,980.000000,-2800.000000,-1120.000000
-32249.901563,-22482.636271,-32668.907364,34648.221391,-30617.196037,-1487.039207,-17227.472928,-25838.638942,-14413.164784,-28233.762471,-14860.378487,-27048.114186,52225.923804,-7936.746828,-13805.532611,-10915.988495,-1.952000,-930.616028,-366.976013,1680.000000,-3220.000000,-1680.000000
-32270.174595,-22504.317463,-32686.632298,34635.436193,-30638.430195,-1510.329725,-17245.555490,-25862.220032,-14434.153072,-28252.806157,-14881.992624,-27069.437751,52205.583716,-7937.484436,-13806.896067,-10932.439379,-0.976000,-928.664001,-364.536011,1960.000000,-3500.000000,-1680.000000
-32292.548691,-22527.697388,-32707.732345,34619.387641,-30664.514680,-1539.364641,-17265.984984,-25890.115010,-14454.761381,-28270.978125,-14902.198601,-27089.420210,52181.197963,-7942.737096,-13807.231344,-10948.242062,-4.392000,-928.176025,-366.000000,1400.000000,-2940.000000,-1540.000000
-32272.946211,-22510.374786,-32693.606042,34629.535333,-30645.068663,-1515.515329,-17247.678905,-25872.434780,-14432.946078,-28255.264849,-14886.194752,-27070.734152,52197.604143,-7937.126808,-13797.821259,-10932.506434,-6.344000,-929.152039,-366.488007,980.000000,-1820.000000,-700.000000
-32244.157165,-22481.295166,-32668.437978,34648.355502,-30611.719860,-1479.596076,-17218.532231,-25842.103462,-14404.157031,-28231.661407,-14864.513560,-27046.907192,52223.956850,-7928.320221,-13786.868904,-10909.081806,-11.712000,-930.127991,-366.000000,140.000000,-980.000000,420.000000
-32259.535165,-22495.220303,-32682.094894,34639.705377,-30626.382604,-1497.924506,-17230.423359,-25860.096617,-14421.770206,-28246.994704,-14880.897389,-27064.185091,52208.712960,-7932.209424,-13789.327596,-10921.531727,-16.104000,-926.712036,-366.976013,-420.000000,-280.000000,1540.000000
-32288.726543,-22523.830536,-32709.006394,34619.007661,-30660.826643,-1535.050754,-17259.525330,-25897.960472,-14450.134569,-28273.906204,-14907.853592,-27092.527103,52178.739271,-7945.151084,-13795.474326,-10946.632737,-19.520000,-930.616028,-366.488007,-840.000000,840.000000,2100.000000
-32279.159996,-22512.475850,-32701.026821,34625.288501,-30650.991875,-1523.316088,-17251.054019,-25891.053783,-14438.109331,-28263.579698,-14897.795307,-27080.479512,52185.713015,-7948.772067,-13789.998149,-10937.915556,-22.936001,-930.127991,-368.928009,-840.000000,1400.000000,2380.000000
-32248.024016,-22484.446762,-32677.803359,34642.968731,-30619.297101,-1485.049902,-17222.332027,-25858.733160,-14409.253229,-28239.395111,-14869.497999,-27053.702122,52213.965620,-7942.781799,-13784.700785,-10915.496756,-20.984001,-927.200012,-365.024017,-560.000000,1540.000000,2100.000000
-32255.511851,-22494.773268,-32685.827635,34637.313740,-30627.969578,-1493.364751,-17229.998676,-25869.439646,-14419.289162,-28249.542803,-14876.985833,-27063.559242,52206.276620,-7941.753619,-13790.623998,-10925.689152,-22.936001,-925.736023,-367.463989,280.000000,1120.000000,1540.000000
-32284.211491,-22524.791661,-32711.487438,34616.236045,-30662.033637,-1531.340364,-17260.553510,-25906.521190,-14449.709886,-28275.381419,-14905.059624,-27087.542664,52175.945303,-7944.681697,-13799.162364,-10951.661879,-18.544001,-921.343994,-368.440002,560.000000,420.000000,980.000000
-32278.847072,-22519.159021,-32707.799400,34617.443039,-30658.122082,-1526.892367,-17258.206577,-25907.705832,-14444.121950,-28270.396980,-14900.388110,-27078.736076,52179.163954,-7941.328936,-13795.876657,-10948.845559,-16.104000,-920.367981,-370.880005,1120.000000,-560.000000,0.000000
-32248.627513,-22487.777172,-32682.810150,34638.699548,-30623.655692,-1488.201498,-17228.702274,-25874.513492,-14413.790633,-28243.977218,-14873.677775,-27050.796396,52208.601202,-7930.711857,-13783.784364,-10925.532690,-14.640000,-918.416016,-373.320007,840.000000,-1540.000000,-840.000000
-32247.509926,-22486.503123,-32683.391295,34641.247647,-30621.420517,-1485.519288,-17225.975362,-25874.200568,-14412.315418,-28244.357198,-14875.264749,-27051.265782,52208.556498,-7928.968421,-13780.453954,-10927.723161,-9.272000,-918.416016,-371.856018,980.000000,-2240.000000,-1680.000000
-32278.355334,-22517.102661,-32711.532141,34618.381812,-30657.496233,-1523.249033,-17254.630298,-25910.410394,-14440.389209,-28273.906204,-14902.131546,-27079.049001,52175.565323,-7938.043229,-13788.880561,-10951.818341,-10.248000,-919.392029,-370.391998,1260.000000,-2800.000000,-2660.000000
-32282.937441,-22522.355321,-32715.846028,34612.927987,-30665.252288,-1530.625109,-17259.502978,-25918.926408,-14442.490273,-28277.348373,-14899.896371,-27080.680678,52170.223256,-7943.631165,-13790.489887,-10954.746420,-8.784000,-923.783997,-367.951996,1400.000000,-3080.000000,-3220.000000
-32250.594467,-22490.347623,-32688.845121,34633.290426,-30632.082299,-1492.135405,-17230.311600,-25887.812780,-14411.153127,-28251.755625,-14871.084973,-27050.729340,52201.336885,-7936.456255,-13781.079803,-10930.204204,-9.272000,-924.760010,-367.463989,1540.000000,-3360.000000,-3500.000000
-32242.816060,-22481.742201,-32681.558452,34638.744252,-30623.029843,-1479.327855,-17220.007446,-25878.782675,-14406.615723,-28249.051064,-14867.240473,-27047.890669,52207.371856,-7937.484436,-13778.062317,-10923.901012,-6.344000,-925.736023,-368.928009,1820.000000,-3500.000000,-3500.000000
-32274.153206,-22514.107527,-32709.118153,34615.520789,-30656.736273,-1514.867129,-17249.668211,-25915.216019,-14439.875119,-28277.907166,-14894.442546,-27079.719553,52176.258227,-7950.046116,-13790.825163,-10949.717277,-6.344000,-926.712036,-374.295990,2520.000000,-3360.000000,-3360.000000
-32286.223148,-22524.434033,-32720.025804,34606.110705,-30670.594355,-1531.340364,-17262.788685,-25933.879725,-14448.167616,-28286.758457,-14903.003264,-27088.459085,52163.562437,-7957.578654,-13796.100175,-10959.753211,-5.368000,-925.736023,-369.416016,3500.000000,-3080.000000,-2520.000000
-32258.641095,-22495.332062,-32694.455408,34625.936702,-30638.676064,-1497.723341,-17233.686713,-25903.838981,-14418.573906,-28260.003419,-14879.645691,-27061.234660,52190.228068,-7948.414439,-13784.074936,-10933.981649,-7.320000,-927.687988,-368.440002,3920.000000,-2660.000000,-1960.000000
-32241.474955,-22480.065820,-32679.971478,34636.084394,-30621.889904,-1479.081986,-17219.716873,-25889.846789,-14402.882982,-28246.570021,-14865.519388,-27050.416416,52204.130853,-7938.199692,-13782.443259,-10921.487024,-5.856000,-922.320007,-372.832001,4480.000000,-2380.000000,-840.000000
-32269.012304,-22508.407832,-32701.809132,34616.772487,-30650.969523,-1512.296678,-17242.336839,-25920.289865,-14431.716732,-28271.849843,-14891.134488,-27077.149102,52177.264056,-7941.775971,-13792.389785,-10943.235271,-6.344000,-922.807983,-369.903992,4620.000000,-2240.000000,420.000000
-32286.781941,-22526.579800,-32716.851856,34603.629661,-30673.008343,-1538.962309,-17260.464103,-25944.273286,-14447.273546,-28288.323079,-14910.222877,-27092.080068,52157.147486,-7949.554378,-13795.653140,-10959.797914,-7.808000,-919.880005,-369.903992,4620.000000,-2240.000000,1680.000000
-32262.999685,-22501.545847,-32696.511769,34619.767621,-30648.555535,-1514.084818,-17240.951030,-25923.799088,-14422.418406,-28269.972297,-14889.346348,-27070.622393,52177.331111,-7948.906177,-13786.466573,-10941.715353,-4.880000,-921.343994,-373.808014,4340.000000,-2100.000000,2800.000000
-32241.743176,-22479.954062,-32676.998696,34634.028033,-30622.515753,-1483.306466,-17218.599286,-25899.011004,-14403.106499,-28255.130739,-14869.274481,-27054.305620,52198.118233,-7943.139427,-13781.683300,-10923.409274,-7.320000,-923.296021,-371.368011,4480.000000,-2100.000000,3640.000000
-32266.061874,-22503.468097,-32697.651708,34617.510094,-30644.599276,-1508.474530,-17238.022952,-25922.279170,-14427.000514,-28277.907166,-14891.089784,-27078.378448,52175.542972,-7949.241453,-13790.378128,-10939.837806,-10.248000,-923.296021,-371.368011,4620.000000,-1960.000000,4060.000000
-32289.330040,-22525.797489,-32719.534066,34602.467370,-30671.354314,-1541.644519,-17258.385391,-25951.939935,-14446.178311,-28296.883797,-14911.318113,-27099.165571,52152.073640,-7957.869227,-13791.965102,-10955.506379,-9.760000,-925.247986,-368.928009,4480.000000,-1820.000000,4340.000000
-32272.029790,-22508.385480,-32706.100667,34613.039745,-30654.925782,-1523.204329,-17241.688638,-25933.991484,-14426.888755,-28282.243405,-14896.029520,-27080.390105,52170.357367,-7952.191884,-13783.829067,-10939.547234,-12.688000,-926.712036,-369.416016,4480.000000,-1820.000000,4200.000000
-32244.671255,-22483.016250,-32683.748923,34628.328339,-30626.673177,-1488.290905,-17219.292190,-25904.688347,-14403.754700,-28260.986896,-14873.051926,-27057.591326,52197.067701,-7944.480532,-13777.078840,-10921.419969,-11.712000,-927.200012,-367.463989,4200.000000,-1400.000000,3920.000000
-32258.059950,-22499.064803,-32696.556472,34617.219522,-30643.168764,-1503.467739,-17234.178452,-25922.078004,-14419.959714,-28273.481521,-14884.607778,-27073.461065,52181.712053,-7948.839122,-13783.896122,-10935.613327,-13.176001,-929.640015,-367.951996,3780.000000,-1400.000000,3080.000000
-32287.541901,-22527.920905,-32724.339691,34597.572338,-30675.064704,-1538.448219,-17260.777028,-25957.617278,-14447.050029,-28296.906149,-14910.267581,-27100.573731,52150.486666,-7958.696241,-13791.182791,-10957.093353,-16.104000,-928.176025,-365.511993,3360.000000,-980.000000,2100.000000
-32274.846110,-22514.666321,-32715.935435,34604.300213,-30664.671143,-1527.294699,-17250.986964,-25949.481243,-14432.342581,-28283.852730,-14897.124755,-27087.386201,52159.986157,-7957.399840,-13787.003015,-10947.146827,-13.664001,-924.272034,-369.903992,3220.000000,-980.000000,1260.000000
-32241.407900,-22484.603224,-32688.532196,34623.522714,-30632.752852,-1488.335608,-17221.773234,-25915.059556,-14401.117194,-28256.024808,-14867.285176,-27059.290059,52192.083262,-7944.793456,-13778.196428,-10925.018600,-16.592001,-925.736023,-369.416016,2660.000000,-980.000000,140.000000
-32247.889906,-22491.822838,-32694.634222,34621.712222,-30638.743119,-1495.152890,-17225.908306,-25918.769946,-14410.706092,-28264.652582,-14875.778839,-27068.789550,52185.556553,-7944.972270,-13777.257654,-10934.182815,-15.128000,-924.272034,-370.880005,2800.000000,-700.000000,-700.000000
-32276.790711,-22520.075443,-32721.478667,34603.093219,-30671.778997,-1532.189731,-17254.183263,-25953.146929,-14437.952869,-28290.133570,-14902.444470,-27093.890559,52154.733497,-7954.896445,-13782.219742,-10960.937853,-13.664001,-924.272034,-372.343994,2660.000000,-980.000000,-1400.000000
-32270.845147,-22516.186239,-32719.534066,34604.613138,-30668.023904,-1529.798094,-17252.708048,-25955.292696,-14429.235688,-28283.897434,-14895.627188,-27085.821579,52157.750983,-7955.701107,-13779.448125,-10957.942719,-12.200000,-921.343994,-370.880005,2520.000000,-1260.000000,-1540.000000
-32236.378758,-22481.719849,-32691.370868,34625.936702,-30630.629436,-1489.766120,-17223.159042,-25920.692196,-14395.104575,-28256.449492,-14866.681679,-27053.098625,52190.071605,-7948.325032,-13768.004032,-10931.053571,-11.224000,-923.296021,-370.391998,2520.000000,-1400.000000,-1680.000000
-32235.618798,-22483.329175,-32690.767371,34625.154391,-30629.690663,-1486.100434,-17223.404911,-25916.534772,-14396.065700,-28259.377570,-14867.888673,-27056.205518,52191.122137,-7947.855645,-13768.428715,-10932.819358,-12.200000,-924.272034,-370.391998,2240.000000,-1400.000000,-1680.000000
-32271.672162,-22519.270780,-32722.573903,34602.087391,-30665.833433,-1525.081876,-17253.780932,-25950.084740,-14430.710903,-28291.809951,-14898.309397,-27089.666079,52159.159143,-7956.014032,-13773.591968,-10956.243987,-9.272000,-926.712036,-369.903992,2380.000000,-1540.000000,-1260.000000
-32278.131816,-22523.629370,-32731.536952,34596.678269,-30673.343620,-1533.977870,-17259.905310,-25960.902984,-14434.108369,-28296.526169,-14903.293837,-27093.845855,52152.498323,-7960.059698,-13771.893236,-10957.473333,-12.200000,-927.200012,-372.832001,2520.000000,-1540.000000,-560.000000
-32248.962790,-22491.286396,-32705.608929,34618.001833,-30636.776166,-1495.734035,-17229.484585,-25929.387025,-14401.206601,-28271.000477,-14878.461048,-27066.107341,52180.952094,-7952.907139,-13759.130390,-10931.768826,-7.808000,-927.687988,-367.951996,2660.000000,-1680.000000,0.000000
-32241.385548,-22484.111486,-32697.227025,34625.176743,-30625.734404,-1483.261762,-17220.700350,-25920.669844,-14393.897580,-28263.423236,-14871.420249,-27061.525233,52190.451585,-7948.526197,-13758.213968,-10930.092446,-9.272000,-930.616028,-370.391998,3080.000000,-1400.000000,420.000000
-32272.767397,-22516.253294,-32722.439792,34605.037821,-30659.530241,-1520.052733,-17247.768312,-25955.985600,-14423.156014,-28288.814818,-14895.515429,-27091.185998,52163.517733,-7953.287119,-13768.115791,-10957.093353,-6.832000,-930.127991,-371.368011,3360.000000,-1400.000000,1260.000000
-32283.339773,-22527.719739,-32732.095746,34595.940661,-30673.053047,-1537.732963,-17261.581690,-25973.241147,-14431.001476,-28296.436762,-14902.936209,-27099.433792,52153.057117,-7954.807038,-13774.061355,-10965.676423,-9.760000,-930.616028,-372.832001,3640.000000,-1120.000000,1680.000000
-32252.069682,-22499.087155,-32706.257129,34615.677251,-30639.301913,-1504.741788,-17235.854833,-25941.926353,-14399.530220,-28272.185120,-14877.544627,-27071.516463,52182.360254,-7943.899386,-13764.092477,-10941.447132,-8.784000,-927.200012,-371.368011,4060.000000,-1400.000000,2380.000000
-32235.909371,-22482.859788,-32692.130827,34628.216580,-30620.772317,-1483.619390,-17220.253315,-25925.207248,-14384.599255,-28263.713809,-14867.128714,-27060.161777,52196.441853,-7936.813883,-13759.130390,-10930.762998,-8.784000,-931.104004,-367.463989,4200.000000,-1260.000000,2800.000000
-32266.978296,-22512.028815,-32718.192961,34611.341013,-30650.053102,-1513.637783,-17242.180376,-25952.945763,-14417.948057,-28292.189931,-14892.274426,-27091.275405,52166.244646,-7944.033497,-13765.232416,-10953.561777,-13.664001,-927.687988,-367.463989,4340.000000,-1260.000000,3220.000000
-32286.692534,-22532.927696,-32739.561229,34597.058248,-30674.550614,-1540.593987,-17263.392182,-25976.035115,-14436.723523,-28306.986786,-14907.361854,-27109.179152,52145.368117,-7953.801209,-13768.853398,-10970.124420,-11.224000,-928.176025,-368.440002,4620.000000,-1400.000000,3360.000000
-32259.535165,-22506.127954,-32719.712880,34613.665594,-30649.539012,-1514.688315,-17243.767350,-25952.543432,-14408.202697,-28281.326983,-14885.278330,-27083.653460,52169.910332,-7951.297814,-13759.666831,-10948.689097,-13.176001,-928.664001,-369.416016,4480.000000,-1540.000000,3360.000000
-32237.630455,-22485.519646,-32698.277557,34628.618911,-30624.482706,-1487.240373,-17224.343684,-25929.185859,-14387.728499,-28260.271640,-14866.234644,-27065.481492,52193.178498,-7945.419305,-13756.805808,-10932.372324,-14.152000,-927.687988,-369.903992,4760.000000,-1820.000000,3360.000000
-32259.736330,-22507.960797,-32717.388298,34614.716126,-30645.515698,-1511.849643,-17243.119150,-25954.040999,-14411.264886,-28279.449437,-14884.831296,-27088.101457,52169.999739,-7949.643785,-13764.673622,-10948.979670,-15.616000,-925.247986,-367.463989,4480.000000,-1820.000000,3080.000000
-32281.864557,-22528.189126,-32737.527220,34601.014507,-30668.448587,-1541.599815,-17261.469932,-25981.511293,-14431.247345,-28298.359012,-14903.405595,-27107.905103,52144.630509,-7953.220064,-13765.455933,-10964.380022,-13.176001,-925.247986,-368.440002,4340.000000,-1820.000000,2520.000000
-32264.005514,-22509.704233,-32723.579731,34611.944510,-30648.689645,-1523.807826,-17246.181339,-25966.423865,-14411.421348,-28283.740972,-14891.916799,-27090.336632,52158.488591,-7952.303642,-13761.432619,-10950.074905,-15.128000,-926.712036,-368.440002,4200.000000,-2100.000000,2100.000000
-32235.752909,-22484.983204,-32701.205635,34629.468278,-30619.922950,-1491.666018,-17221.728530,-25938.528888,-14385.873304,-28264.563175,-14871.420249,-27068.677791,52184.148393,-7946.380430,-13753.274233,-10929.198376,-14.640000,-925.247986,-369.416016,4200.000000,-2240.000000,1820.000000
-32245.587676,-22496.270835,-32712.917949,34622.650996,-30632.819907,-1509.793283,-17236.301868,-25956.253821,-14397.362101,-28277.974221,-14882.707880,-27083.966384,52169.820925,-7950.426096,-13756.179959,-10944.062286,-17.080000,-926.712036,-367.951996,3920.000000,-2240.000000,1120.000000
-32270.778092,-22522.556486,-32735.470859,34604.300213,-30663.642962,-1543.812638,-17262.721629,-25992.396592,-14423.960677,-28303.097582,-14904.903162,-27109.648539,52141.098933,-7962.473686,-13763.310166,-10964.581187,-15.128000,-922.320007,-371.368011,3640.000000,-1960.000000,700.000000
-32259.199889,-22510.419489,-32726.954845,34611.966862,-30652.534145,-1531.496827,-17250.450522,-25986.026345,-14411.376645,-28291.988765,-14892.497944,-27094.427001,52151.984233,-7963.390108,-13756.939919,-10951.326603,-15.616000,-926.712036,-368.928009,3500.000000,-1960.000000,420.000000
-32228.130964,-22478.590605,-32700.132751,34632.888095,-30619.364157,-1494.214117,-17221.102681,-25955.158586,-14380.866513,-28264.920803,-14864.133580,-27063.358076,52185.042463,-7953.801209,-13746.076971,-10925.353876,-14.152000,-928.664001,-366.488007,2800.000000,-1540.000000,140.000000
-32234.188287,-22485.340832,-32706.279481,34627.970711,-30624.549761,-1501.970172,-17225.237754,-25960.746522,-14389.069604,-28271.603974,-14872.828409,-27071.427056,52178.202829,-7954.091782,-13748.312145,-10932.595841,-11.712000,-930.616028,-370.880005,2940.000000,-1540.000000,0.000000
-32270.398113,-22518.734338,-32734.845011,34605.149580,-30656.803329,-1538.604681,-17253.669173,-25996.352851,-14424.921802,-28300.840056,-14903.293837,-27101.691318,52145.077544,-7963.278349,-13755.330593,-10957.026298,-11.224000,-928.176025,-368.440002,2660.000000,-1260.000000,140.000000
-32269.146415,-22516.454460,-32733.392147,34604.099048,-30655.953962,-1535.631899,-17253.825635,-25998.364508,-14417.053988,-28294.045126,-14899.002302,-27098.204446,52148.318547,-7963.099535,-13754.905910,-10953.651184,-10.736000,-928.664001,-366.000000,2660.000000,-1260.000000,280.000000
-32235.439984,-22483.597396,-32707.017089,34626.853124,-30621.264055,-1496.315181,-17221.527364,-25966.669734,-14380.017147,-28266.105445,-14871.532008,-27069.057771,52179.342768,-7950.649613,-13743.841796,-10928.930155,-11.224000,-923.296021,-369.903992,2380.000000,-1260.000000,560.000000
-32236.065833,-22488.805352,-32709.095801,34625.512019,-30622.806325,-1493.588268,-17220.767405,-25965.798016,-14384.599255,-28270.799311,-14872.448429,-27075.271556,52181.108556,-7948.101514,-13747.686296,-10930.606536,-9.760000,-928.176025,-365.511993,1960.000000,-1120.000000,560.000000
-32267.939421,-22521.461251,-32739.360063,34603.719068,-30657.630343,-1531.519178,-17250.227004,-26002.231360,-14416.450491,-28300.325966,-14902.042139,-27106.429888,52150.620776,-7959.724421,-13756.649346,-10956.199283,-14.640000,-927.687988,-367.463989,2100.000000,-1260.000000,700.000000
-32270.152243,-22522.601190,-32743.718653,34601.081562,-30660.603125,-1537.844722,-17256.798417,-26010.143877,-14414.282371,-28300.482428,-14903.495002,-27107.659234,52145.926910,-7967.480477,-13755.308241,-10955.484027,-12.200000,-924.760010,-370.880005,2100.000000,-1260.000000,840.000000
-32239.731519,-22493.610977,-32716.114249,34622.650996,-30626.829639,-1499.600887,-17227.450577,-25977.510330,-14385.716842,-28273.123893,-14877.052889,-27081.351230,52176.258227,-7960.506733,-13745.920509,-10926.404408,-10.248000,-925.247986,-368.928009,2380.000000,-1400.000000,980.000000
-32233.428327,-22487.441896,-32709.855760,34629.065946,-30619.028880,-1489.989637,-17218.152251,-25969.933089,-14382.855819,-28270.776960,-14876.337633,-27078.669021,52181.510887,-7959.769125,-13745.942860,-10920.235326,-9.760000,-924.272034,-371.856018,2660.000000,-1540.000000,980.000000
-32264.050217,-22516.968550,-32736.119060,34608.636452,-30650.433081,-1529.306356,-17248.640030,-26007.126392,-14412.158956,-28299.409544,-14906.914819,-27107.391013,52147.200960,-7972.442564,-13759.309204,-10946.364516,-11.712000,-923.783997,-371.856018,2660.000000,-1820.000000,980.000000
-32273.572060,-22527.607981,-32746.065586,34599.807513,-30664.380570,-1545.980757,-17262.073429,-26024.292532,-14419.266810,-28308.484353,-14914.112081,-27114.990606,52132.001773,-7979.885695,-13763.913663,-10954.768772,-12.688000,-925.736023,-369.416016,2660.000000,-1960.000000,840.000000
-32245.498269,-22501.009405,-32721.031633,34618.135943,-30634.876267,-1510.709704,-17235.161929,-25992.061316,-14392.109441,-28284.188006,-14885.948883,-27088.794361,52157.661576,-7974.409518,-13752.514273,-10929.377190,-13.664001,-923.783997,-369.416016,2660.000000,-1960.000000,1120.000000
-32227.013377,-22484.156189,-32706.547702,34631.144658,-30616.458430,-1490.682541,-17217.928734,-25975.498673,-14375.010356,-28271.291050,-14871.308490,-27076.903233,52173.620722,-7970.117983,-13745.495825,-10917.642524,-12.688000,-925.736023,-371.368011,3080.000000,-1960.000000,840.000000
-32254.662484,-22512.498201,-32733.101575,34613.777353,-30646.007436,-1522.310260,-17242.269783,-26008.579255,-14402.547705,-28296.794390,-14895.962464,-27104.440582,52146.016317,-7976.957616,-13752.938956,-10940.173082,-12.200000,-923.783997,-365.511993,2940.000000,-2100.000000,700.000000
-32275.583717,-22533.665303,-32753.396959,34598.309946,-30670.639058,-1548.037117,-17263.191016,-26032.897953,-14419.266810,-28312.820591,-14911.787499,-27121.964350,52123.798683,-7983.126698,-13757.588119,-10955.059344,-15.128000,-923.296021,-368.440002,2800.000000,-1960.000000,700.000000
-32250.795633,-22509.100736,-32732.140450,34612.860931,-30643.302875,-1518.197539,-17240.369885,-26005.002976,-14394.389319,-28288.256024,-14888.139354,-27098.830294,52148.340899,-7974.789497,-13747.529834,-10933.802835,-14.152000,-924.760010,-367.463989,2660.000000,-1540.000000,560.000000
-32227.885095,-22485.340832,-32710.481609,34629.334167,-30617.553665,-1489.341437,-17215.559449,-25975.878653,-14373.781010,-28269.681724,-14868.559226,-27080.993602,52173.352501,-7965.692337,-13736.041038,-10914.334466,-13.176001,-923.783997,-365.511993,2660.000000,-1400.000000,560.000000
-32247.241705,-22503.401041,-32727.178362,34617.912426,-30640.307741,-1514.174225,-17230.289248,-25996.464610,-14394.501077,-28289.910053,-14890.709804,-27100.014937,52151.380736,-7971.459087,-13737.091570,-10931.321792,-14.640000,-924.272034,-368.928009,2380.000000,-1400.000000,420.000000
-32271.694514,-22526.691559,-32751.452357,34600.500417,-30671.019038,-1546.159571,-17255.524368,-26027.533534,-14416.048159,-28311.300672,-14914.961447,-27120.980873,52122.390523,-7981.159744,-13746.613413,-10953.807646,-16.104000,-922.807983,-373.320007,1960.000000,-1260.000000,140.000000
-32254.662484,-22509.033681,-32739.672987,34612.548007,-30654.456395,-1527.831140,-17239.609926,-26010.635616,-14398.502040,-28295.676803,-14897.214162,-27101.512504,52139.221387,-7978.768108,-13742.768913,-10936.976783,-13.176001,-924.272034,-371.368011,1960.000000,-1120.000000,0.000000
-32225.404051,-22482.055125,-32716.740098,34632.709281,-30624.370947,-1495.242297,-17211.737300,-25979.454932,-14372.484609,-28274.196777,-14872.940168,-27078.177283,52167.116364,-7970.430907,-13734.230546,-10913.552155,-13.664001,-925.247986,-371.368011,2240.000000,-980.000000,0.000000
-32239.105670,-22497.455477,-32729.681758,34624.483839,-30640.017169,-1512.520196,-17224.790719,-25995.570540,-14387.080298,-28289.798294,-14888.072299,-27096.013975,52151.403088,-7972.241398,-13741.427808,-10927.700809,-14.640000,-927.200012,-369.416016,2380.000000,-1400.000000,-280.000000
-32270.666334,-22528.457347,-32754.492194,34603.316737,-30673.075399,-1550.428754,-17254.116208,-26031.087462,-14414.304723,-28313.915827,-14913.687398,-27124.512449,52120.200052,-7981.115041,-13750.413209,-10951.036030,-10.736000,-924.760010,-373.320007,3080.000000,-1680.000000,-560.000000
-32261.971505,-22518.354358,-32746.289104,34610.134019,-30663.844128,-1539.744620,-17247.678905,-26024.627808,-14403.620589,-28303.477562,-14904.322017,-27112.107231,52130.191282,-7980.958579,-13746.591061,-10940.709524,-12.200000,-924.760010,-368.928009,2940.000000,-1680.000000,-840.000000
-32230.969635,-22487.240730,-32718.729403,34632.552818,-30630.920009,-1499.399722,-17218.420472,-25990.563749,-14374.540970,-28275.314364,-14878.103421,-27082.759390,52162.914236,-7969.872113,-13734.632878,-10915.742626,-10.736000,-926.223999,-365.511993,3360.000000,-2100.000000,-1120.000000
-32242.212563,-22500.540018,-32727.603045,34627.009586,-30642.833488,-1510.955573,-17225.349513,-26001.314938,-14388.399051,-28286.579643,-14889.748679,-27096.036326,52153.481800,-7971.660253,-13736.689238,-10926.784387,-11.712000,-925.736023,-368.440002,3360.000000,-2100.000000,-1400.000000
-32275.427255,-22534.782891,-32755.274505,34602.601481,-30682.641945,-1551.211065,-17256.485493,-26043.716197,-14421.278467,-28315.681614,-14915.542592,-27126.032367,52121.809378,-7984.981893,-13749.563843,-10953.740591,-10.736000,-927.200012,-367.951996,3500.000000,-2380.000000,-1540.000000
-32271.068665,-22530.089024,-32750.334770,34603.517902,-30680.317364,-1549.646443,-17252.775103,-26046.733683,-14415.757586,-28310.697175,-14910.111119,-27120.287969,52126.033858,-7991.352140,-13746.144026,-10946.185702,-9.272000,-927.687988,-369.416016,3360.000000,-1960.000000,-1680.000000
-32233.853010,-22493.543922,-32720.718708,34630.630568,-30639.279561,-1509.860338,-17216.028835,-26012.915494,-14377.469048,-28280.812893,-14881.031499,-27087.274443,52158.265073,-7984.244285,-13726.988581,-10915.362646,-12.200000,-928.664001,-366.488007,3220.000000,-1960.000000,-1540.000000
-32221.783068,-22484.133838,-32714.549627,34638.185458,-30630.651788,-1508.943916,-17209.613885,-26012.714328,-14363.610967,-28275.180253,-14876.985833,-27080.166588,52159.762640,-7980.869172,-13719.187822,-10913.708617,-9.760000,-926.712036,-365.511993,2660.000000,-1680.000000,-1260.000000
-32242.749005,-22503.423393,-32733.839182,34624.617949,-30656.132776,-1546.964234,-17232.233850,-26046.577221,-14381.961749,-28295.229768,-14898.465860,-27100.618434,52128.336087,-7982.813773,-13714.404549,-10932.886414,-11.224000,-925.736023,-367.951996,2380.000000,-1260.000000,-1120.000000
-32236.624627,-22498.684823,-32731.581656,34626.942531,-30655.797500,-1552.328652,-17232.703237,-26053.796834,-14371.031746,-28291.698193,-14895.627188,-27095.365774,52123.105779,-7980.131564,-13702.468717,-10927.410236,-10.736000,-928.664001,-369.903992,2240.000000,-1260.000000,-840.000000
-32197.173798,-22458.049352,-32700.378621,34654.569287,-30613.552703,-1512.453140,-17197.588646,-26016.335310,-14330.329219,-28262.573870,-14867.307528,-27057.077236,52153.504152,-7965.647634,-13678.977034,-10894.396710,-13.664001,-928.664001,-369.903992,2100.000000,-1260.000000,-840.000000
-32188.434266,-22448.616916,-32694.924795,34660.805423,-30603.494418,-1499.936163,-17189.698480,-26005.025328,-14322.215536,-28257.187099,-14863.038345,-27051.176375,52163.160105,-7961.333747,-13677.546522,-10889.322864,-12.200000,-929.640015,-366.488007,2520.000000,-1400.000000,-840.000000
-32227.303949,-22489.386498,-32726.105479,34635.994987,-30643.436985,-1535.408382,-17221.348550,-26038.888221,-14366.293176,-28290.200626,-14894.688415,-27089.084934,52132.269994,-7971.503791,-13694.176220,-10919.430664,-14.640000,-931.591980,-366.488007,2800.000000,-1540.000000,-840.000000
-32248.560458,-22510.173620,-32740.701168,34622.516885,-30663.151224,-1551.680452,-17236.994772,-26056.009657,-14387.572037,-28303.790486,-14908.837069,-27106.005204,52118.143692,-7977.538762,-13701.574648,-10930.025390,-15.616000,-930.127991,-366.488007,3220.000000,-1960.000000,-840.000000
-32228.309778,-22491.800486,-32719.936397,34634.117440,-30639.234857,-1518.957498,-17216.744091,-26025.074843,-14368.081316,-28285.819684,-14887.915836,-27085.195730,52143.892901,-7976.197657,-13699.898267,-10910.020579,-14.152000,-931.591980,-369.903992,3360.000000,-2100.000000,-840.000000
-32218.922045,-22488.559483,-32711.196865,34636.017339,-30630.249456,-1500.383198,-17210.887934,-26010.121526,-14363.253339,-28279.695306,-14877.902255,-27081.686506,52157.616873,-7974.789497,-13708.146060,-10908.523012,-15.128000,-930.127991,-366.000000,3500.000000,-2520.000000,-1260.000000
-32250.147432,-22520.433071,-32739.605932,34616.101934,-30662.123044,-1534.089629,-17240.571051,-26044.342046,-14397.496211,-28306.159771,-14905.171383,-27112.710728,52128.917233,-7985.071300,-13723.367598,-10936.552100,-16.104000,-929.640015,-364.536011,3640.000000,-2380.000000,-1400.000000
-32272.476825,-22538.873260,-32759.990723,34605.328394,-30682.820759,-1560.084708,-17258.407743,-26070.605346,-14419.356217,-28322.275379,-14922.650447,-27130.167440,52105.470253,-7996.314227,-13725.111035,-10951.818341,-15.616000,-930.127991,-368.928009,3360.000000,-2240.000000,-1680.000000
-32246.839374,-22511.313559,-32739.315360,34622.427478,-30656.065721,-1533.083800,-17236.771254,-26047.851270,-14389.360176,-28296.548521,-14898.287046,-27103.010071,52127.352611,-7993.520259,-13714.851584,-10929.645411,-14.640000,-932.567993,-365.024017,3080.000000,-1960.000000,-1960.000000
-32223.146525,-22486.234902,-32718.818810,34636.732595,-30630.249456,-1503.735960,-17214.844193,-26023.823145,-14365.622624,-28275.694344,-14877.611682,-27081.395934,52149.436134,-7985.071300,-13705.955590,-10910.937001,-14.152000,-932.567993,-366.976013,3220.000000,-1680.000000,-2240.000000
-32245.878249,-22507.357300,-32736.521391,34620.304062,-30652.645904,-1527.004126,-17232.569126,-26044.520860,-14387.415574,-28294.000422,-14897.415328,-27104.373527,52128.492549,-7985.451279,-13709.531869,-10928.840748,-15.128000,-933.544006,-365.511993,4060.000000,-1820.000000,-2380.000000
-32272.499177,-22530.692521,-32758.247287,34603.674365,-30680.742047,-1558.900065,-17254.071504,-26071.968802,-14408.917953,-28313.379385,-14920.705845,-27127.060548,52101.916325,-7989.094614,-13714.784529,-10944.732838,-15.128000,-931.104004,-366.488007,4900.000000,-2100.000000,-2100.000000
-32254.729540,-22513.280512,-32744.210392,34613.598539,-30664.313515,-1541.286891,-17239.609926,-26055.406160,-14391.483592,-28296.906149,-14904.858459,-27111.190809,52117.875471,-7986.233590,-13711.454119,-10928.550175,-16.592001,-927.200012,-367.463989,5460.000000,-2240.000000,-1540.000000
-32227.885095,-22488.470076,-32720.651653,34630.541161,-30635.524468,-1509.480358,-17214.888896,-26025.946561,-14368.684813,-28274.107370,-14882.640825,-27089.531969,52143.468218,-7978.589294,-13704.010988,-10907.047797,-15.128000,-922.807983,-366.000000,5880.000000,-2380.000000,-1260.000000
-32237.943380,-22500.137687,-32730.821697,34621.756926,-30650.187212,-1524.366620,-17227.271763,-26038.999979,-14380.598292,-28284.344469,-14894.129621,-27103.032422,52130.392448,-7979.125736,-13707.184935,-10921.621134,-15.616000,-921.343994,-366.488007,4900.000000,-2240.000000,-840.000000
-32267.671200,-22530.021969,-32756.995589,34602.914405,-30683.513663,-1557.782478,-17254.764408,-26071.387657,-14410.750796,-28310.853638,-14918.649485,-27129.586295,52102.117491,-7990.569829,-13714.471604,-10946.789199,-15.128000,-923.296021,-366.976013,3500.000000,-1680.000000,-840.000000
-32256.271810,-22516.610922,-32748.032540,34613.464429,-30670.884928,-1545.332556,-17242.605059,-26058.267183,-14395.551609,-28300.638890,-14905.640770,-27117.046966,52111.751093,-7990.122794,-13704.949761,-10934.339277,-14.640000,-927.200012,-364.536011,2800.000000,-1680.000000,-700.000000
-32224.621740,-22483.932672,-32720.428135,34634.743289,-30636.798517,-1506.731094,-17213.368978,-26022.146764,-14360.101743,-28270.821663,-14874.482438,-27087.162684,52144.295233,-7980.466840,-13699.071252,-10911.160518,-16.104000,-928.664001,-362.584015,2520.000000,-1400.000000,-700.000000
-32234.031824,-22491.666376,-32728.161839,34631.301121,-30643.660503,-1516.901137,-17218.576934,-26028.874639,-14370.763525,-28278.823588,-14882.886694,-27095.365774,52136.740343,-7983.014939,-13705.173278,-10922.694018,-13.176001,-925.736023,-364.048004,2940.000000,-1260.000000,-700.000000
-32271.180424,-22525.506917,-32758.917839,34611.855103,-30679.020963,-1559.660025,-17248.975307,-26067.766674,-14408.202697,-28311.233617,-14912.100424,-27125.115946,52102.653933,-7994.861364,-13713.555183,-10950.924271,-14.152000,-925.247986,-364.536011,2520.000000,-1260.000000,-980.000000
-32267.291220,-22520.723643,-32757.196755,34613.419725,-30677.232823,-1559.235341,-17249.422342,-26070.985326,-14396.780955,-28307.992614,-14907.987703,-27119.148030,52107.236041,-7997.878849,-13711.834098,-10946.588033,-13.664001,-925.247986,-361.119995,1540.000000,-1680.000000,-1260.000000
-32235.216467,-22489.185332,-32729.346481,34636.017339,-30641.380625,-1521.080914,-17218.040492,-26036.429529,-14360.437019,-28279.896471,-14881.277368,-27089.219044,52137.388544,-7988.714634,-13698.423052,-10922.269335,-9.272000,-924.760010,-363.071991,560.000000,-2240.000000,-1260.000000
-32233.942417,-22490.526437,-32726.373699,34637.447850,-30638.184325,-1513.794245,-17214.106585,-26031.713311,-14363.230987,-28277.549538,-14880.092726,-27089.844893,52138.506131,-7983.618436,-13694.913828,-10921.978762,-12.200000,-926.712036,-364.048004,140.000000,-2940.000000,-1260.000000
-32263.849051,-22524.121109,-32753.866345,34615.811362,-30670.795521,-1549.288815,-17242.649763,-26064.369209,-14397.116232,-28304.215169,-14909.373511,-27119.595065,52106.677247,-7992.983817,-13706.357921,-10947.370344,-13.176001,-934.031982,-362.584015,1400.000000,-3640.000000,-1120.000000
-32268.811139,-22527.339760,-32760.348351,34612.704469,-30674.975297,-1559.928246,-17246.628373,-26074.405143,-14399.127889,-28308.104373,-14913.843860,-27121.472612,52098.831785,-7996.828317,-13705.128575,-10950.209016,-12.688000,-938.424011,-368.928009,2940.000000,-4340.000000,-280.000000
-32236.266999,-22494.661509,-32732.118098,34633.849220,-30639.592485,-1522.936108,-17215.693559,-26042.240982,-14366.807266,-28279.740009,-14883.512543,-27090.448390,52128.894881,-7989.809870,-13692.030453,-10924.169233,-13.664001,-941.351990,-365.511993,4900.000000,-4760.000000,280.000000
-32223.526504,-22484.670280,-32721.322205,34642.365234,-30626.650825,-1509.145082,-17203.668321,-26032.920305,-14354.871435,-28270.352277,-14874.236569,-27081.127713,52140.830712,-7985.674797,-13687.649511,-10916.122605,-12.688000,-935.984009,-361.608002,6440.000000,-5460.000000,700.000000
-32253.768415,-22516.365053,-32747.272581,34621.287539,-30660.357256,-1545.891350,-17233.709065,-26068.884262,-14383.436964,-28296.481466,-14900.544572,-27109.559132,52110.141767,-7993.632018,-13700.099432,-10938.250832,-13.176001,-932.567993,-366.976013,6580.000000,-5460.000000,1120.000000
-32267.872365,-22529.977266,-32761.175366,34611.810400,-30675.914070,-1563.415118,-17248.528272,-26088.218521,-14395.283389,-28308.037318,-14910.871078,-27122.098460,52095.143747,-7999.063492,-13705.329741,-10946.945661,-10.736000,-933.056030,-368.440002,7000.000000,-5460.000000,1400.000000
-32237.898676,-22498.170733,-32738.287179,34632.664577,-30642.319398,-1527.741734,-17218.979266,-26059.563584,-14364.661499,-28283.584509,-14886.798249,-27093.957614,52123.552814,-7989.854573,-13691.985749,-10923.990419,-10.736000,-926.712036,-369.903992,7000.000000,-5460.000000,1680.000000
-32216.709222,-22479.708192,-32722.305682,34647.595542,-30623.365119,-1506.105245,-17199.779117,-26041.279857,-14345.841330,-28267.245384,-14870.772048,-27078.981945,52141.769486,-7982.210276,-13685.839020,-10912.747492,-11.224000,-922.807983,-366.000000,7000.000000,-5040.000000,2100.000000
-32244.604199,-22507.983149,-32744.299799,34632.664577,-30652.243573,-1535.944824,-17220.052149,-26067.297288,-14375.792667,-28290.424143,-14892.185020,-27106.496943,52118.277802,-7990.301608,-13689.415299,-10933.936946,-12.688000,-920.367981,-365.511993,6720.000000,-4620.000000,2520.000000
-32265.994819,-22528.680864,-32763.388188,34619.611158,-30676.025829,-1557.491905,-17238.604097,-26088.889073,-14396.870362,-28308.417297,-14906.244267,-27126.501754,52096.686017,-7999.734044,-13693.259799,-10948.599690,-15.616000,-918.416016,-363.071991,6160.000000,-3920.000000,2940.000000
-32237.451641,-22502.797544,-32742.042272,34636.285560,-30650.075454,-1525.595966,-17215.023007,-26065.822073,-14369.109496,-28284.366820,-14880.249188,-27102.071297,52120.177701,-7993.430852,-13683.045051,-10927.812568,-19.032000,-914.512024,-369.903992,4480.000000,-3080.000000,3360.000000
-32207.947339,-22478.478846,-32719.891694,34651.708263,-30623.834506,-1495.421111,-17192.850076,-26041.883354,-14344.634336,-28259.668143,-14857.673926,-27080.680678,52145.613986,-7983.841954,-13675.043127,-10910.937001,-23.912001,-911.583984,-368.928009,2800.000000,-1680.000000,3640.000000
-32226.879266,-22501.858771,-32738.086014,34635.615007,-30648.466128,-1520.767989,-17214.240696,-26065.486797,-14364.929720,-28276.387248,-14876.091764,-27102.808905,52124.692753,-7986.546515,-13685.034357,-10929.690114,-26.352001,-913.048035,-372.343994,840.000000,-140.000000,3360.000000
-32252.516717,-22525.216344,-32760.616572,34620.862856,-30674.260041,-1555.748469,-17237.262993,-26094.678175,-14388.533162,-28299.387193,-14898.465860,-27122.813716,52093.780290,-7994.928419,-13685.570799,-10948.934966,-26.352001,-915.000000,-376.735992,-420.000000,560.000000,2940.000000
-32234.590618,-22507.692576,-32747.406691,34631.591693,-30655.886907,-1540.973966,-17225.595382,-26080.350707,-14369.444772,-28285.909091,-14882.014976,-27104.351175,52107.191337,-7994.302570,-13683.045051,-10938.183777,-29.280001,-916.952026,-378.200012,-840.000000,560.000000,2380.000000
-32204.996908,-22482.323346,-32722.864476,34650.702435,-30625.801459,-1506.306411,-17199.689710,-26050.086445,-14342.510920,-28262.596221,-14857.226891,-27080.166588,52134.460465,-7985.674797,-13676.048955,-10917.977800,-27.816000,-922.807983,-380.640015,-420.000000,140.000000,1120.000000
-32223.638263,-22498.997748,-32737.326054,34642.342882,-30640.799480,-1522.287908,-17211.804356,-26069.487759,-14361.979289,-28278.220091,-14874.728307,-27098.964405,52117.294326,-7985.451279,-13678.418240,-10934.518091,-24.400000,-927.687988,-375.760010,840.000000,-700.000000,-140.000000
-32251.510889,-22524.322274,-32762.427063,34622.963920,-30671.086093,-1556.329615,-17239.565222,-26105.384660,-14385.247455,-28300.035393,-14900.991607,-27122.903123,52087.678264,-7989.161669,-13686.151944,-10961.206074,-18.544001,-929.152039,-372.343994,2100.000000,-1540.000000,-1680.000000
-32237.451641,-22509.212495,-32751.653522,34632.105783,-30657.831509,-1542.136257,-17229.439882,-26097.315681,-14368.438943,-28285.283242,-14889.078127,-27107.100440,52099.368226,-7983.081994,-13683.335624,-10952.310080,-13.176001,-928.664001,-371.856018,3360.000000,-2660.000000,-3360.000000
-32205.488647,-22480.803428,-32725.054947,34653.071720,-30625.555590,-1505.971134,-17198.929751,-26064.391561,-14338.129978,-28257.052989,-14862.837179,-27080.792437,52130.504206,-7976.152954,-13673.322043,-10926.694980,-9.272000,-928.664001,-370.880005,4340.000000,-3640.000000,-4480.000000
-32214.228179,-22491.420506,-32732.565133,34650.434214,-30634.339825,-1515.649440,-17201.768422,-26068.884262,-14351.496321,-28265.658410,-14874.281272,-27091.811847,52123.575166,-7979.461012,-13673.433801,-10930.941812,-3.904000,-931.104004,-366.976013,4760.000000,-4340.000000,-5180.000000
-32246.124118,-22526.132766,-32761.756511,34629.133001,-30671.309611,-1557.715423,-17229.819862,-26104.200018,-14385.515676,-28292.815780,-14903.137374,-27121.517315,52092.729758,-7992.223858,-13680.854581,-10955.573434,-2.928000,-931.104004,-371.856018,5040.000000,-4760.000000,-5320.000000
-32242.078452,-22522.869411,-32760.728331,34632.552818,-30667.152186,-1556.061394,-17224.991885,-26101.249588,-14380.039499,-28288.703059,-14899.561095,-27116.152896,52095.344912,-7994.593143,-13674.037298,-10947.236234,0.976000,-932.080017,-370.391998,4900.000000,-5320.000000,-5040.000000
-32207.500304,-22487.620710,-32730.888752,34656.849165,-30629.802421,-1515.940012,-17193.006539,-26064.503320,-14343.561452,-28259.981067,-14871.599063,-27083.228777,52126.860872,-7987.440585,-13661.140342,-10919.028332,-1.464000,-930.127991,-370.880005,5040.000000,-5180.000000,-3920.000000
-32204.549873,-22487.061916,-32730.039386,34658.570249,-30630.182401,-1513.123693,-17194.682919,-26063.810416,-14340.253394,-28259.690495,-14874.080107,-27084.145198,52128.134922,-7988.871096,-13664.426048,-10924.996248,0.000000,-926.712036,-375.272003,5320.000000,-5180.000000,-2660.000000
-32237.853973,-22519.695463,-32759.543688,34638.610141,-30664.782901,-1550.562865,-17224.902478,-26100.243759,-14371.322318,-28288.054858,-14903.338540,-27116.510524,52095.970761,-7999.823451,-13671.645662,-10953.159446,-2.440000,-925.736023,-373.320007,5460.000000,-4620.000000,-1260.000000
-32242.927819,-22523.338797,-32767.232688,34635.212676,-30672.069570,-1557.402498,-17231.742112,-26113.341881,-14372.797534,-28292.458152,-14906.758357,-27119.304492,52088.639389,-8006.260753,-13669.410487,-10957.294519,-4.392000,-927.200012,-371.856018,6300.000000,-4340.000000,560.000000
-32212.752964,-22494.706213,-32744.679778,34653.429348,-30638.497250,-1521.416190,-17206.842268,-26083.502303,-14342.309754,-28266.641887,-14883.490191,-27091.588329,52116.154387,-8000.672817,-13662.414391,-10935.613327,-7.320000,-923.783997,-371.856018,6720.000000,-4060.000000,2100.000000
-32203.231120,-22483.999727,-32738.398938,34663.442929,-30625.510886,-1508.787454,-17192.805373,-26072.617003,-14334.888975,-28261.970372,-14880.271540,-27085.262786,52123.105779,-7999.041140,-13656.200606,-10929.935983,-8.784000,-924.760010,-372.343994,6860.000000,-3640.000000,3640.000000
-32235.104708,-22513.436975,-32766.875060,34644.890981,-30659.262020,-1546.897179,-17219.471004,-26107.485724,-14363.432153,-28291.631137,-14909.865249,-27114.230646,52093.467366,-8008.831204,-13662.772019,-10954.567606,-10.248000,-925.736023,-370.391998,6720.000000,-2940.000000,4620.000000
-32248.024016,-22525.618675,-32778.028581,34634.832696,-30676.226995,-1564.867981,-17233.574955,-26122.684911,-14371.568188,-28300.147152,-14919.565906,-27123.148992,52079.721043,-8010.909916,-13666.616519,-10963.932987,-12.688000,-922.807983,-370.391998,5600.000000,-2380.000000,5040.000000
-32218.452658,-22495.823800,-32752.145261,34654.636342,-30645.068663,-1530.580405,-17206.127013,-26091.034840,-14340.946298,-28271.983954,-14893.503772,-27094.918739,52104.799700,-8006.372512,-13659.083981,-10940.754228,-13.664001,-925.736023,-366.488007,4760.000000,-1680.000000,5460.000000
-32201.398277,-22478.948233,-32737.974255,34667.622705,-30624.035671,-1509.502710,-17186.189256,-26071.789988,-14326.998809,-28260.025771,-14883.601950,-27081.597099,52119.998887,-8002.460957,-13651.886720,-10930.427722,-17.568001,-926.712036,-366.000000,3640.000000,-1540.000000,5320.000000
-32227.728632,-22505.636216,-32760.527165,34652.647037,-30651.282448,-1542.695051,-17205.948199,-26099.752021,-14356.681926,-28286.467884,-14907.518316,-27107.636882,52093.802642,-8007.154823,-13654.457170,-10954.254681,-19.032000,-927.200012,-364.536011,2520.000000,-1120.000000,5040.000000
-32245.721787,-22526.289228,-32775.614593,34638.632493,-30674.729428,-1567.326673,-17225.193051,-26123.601332,-14372.417554,-28300.683594,-14918.917706,-27122.389033,52075.228342,-8014.352085,-13659.598072,-10973.343071,-20.984001,-923.296021,-368.440002,1540.000000,-1120.000000,4340.000000
-32221.626606,-22503.155172,-32755.073339,34652.781147,-30651.953000,-1540.884559,-17206.059957,-26101.160181,-14345.506054,-28279.069457,-14895.738947,-27098.629129,52098.585915,-8010.172309,-13650.925595,-10957.003946,-22.448000,-924.760010,-364.048004,700.000000,-980.000000,3220.000000
-32200.861836,-22483.530341,-32735.269694,34667.578002,-30629.355386,-1512.162568,-17185.138724,-26074.583957,-14326.931754,-28262.015076,-14878.371641,-27081.507693,52119.775369,-8002.729178,-13642.163711,-10942.274146,-23.424000,-925.247986,-364.536011,-140.000000,-700.000000,1820.000000
-32222.587731,-22507.893742,-32754.134566,34652.691740,-30652.824718,-1535.721306,-17205.925847,-26099.193227,-14349.261147,-28283.830379,-14899.538743,-27108.240379,52097.222459,-8007.490099,-13648.556310,-10963.016565,-26.840000,-928.176025,-364.536011,-840.000000,-700.000000,280.000000
-32245.453566,-22533.039455,-32777.581546,34633.446888,-30684.251271,-1569.003054,-17234.714894,-26133.257286,-14366.896673,-28306.271530,-14920.281162,-27133.408443,52069.394537,-8016.251983,-13655.038316,-10986.821173,-21.960001,-925.736023,-364.536011,-980.000000,-700.000000,-1680.000000
-32223.928836,-22510.039510,-32762.315305,34646.969694,-30665.274640,-1547.947711,-17217.146423,-26116.716995,-14343.919080,-28288.613652,-14901.416290,-27113.828315,52087.342988,-8011.714579,-13646.656411,-10972.672519,-22.448000,-927.200012,-369.903992,-840.000000,-840.000000,-3500.000000
-32194.335126,-22482.010422,-32737.974255,34667.063912,-30633.333997,-1513.481321,-17188.938521,-26087.324451,-14318.706312,-28266.597184,-14877.365813,-27088.772009,52114.455654,-8002.505660,-13637.402789,-10953.852350,-20.984001,-925.247986,-364.536011,-560.000000,-840.000000,-5040.000000
-32208.953167,-22496.896684,-32750.602990,34658.592601,-30648.086148,-1529.149893,-17199.645007,-26101.361346,-14335.537176,-28281.125817,-14892.386185,-27105.267597,52100.150538,-8001.969218,-13639.302688,-10967.397507,-18.056000,-924.272034,-373.320007,0.000000,-1400.000000,-6160.000000
-32240.491479,-22527.563277,-32779.079113,34638.632493,-30682.038448,-1564.666815,-17227.249411,-26137.258248,-14367.008432,-28307.277358,-14921.175232,-27133.207277,52069.662758,-8012.429835,-13645.114141,-10986.329435,-16.104000,-923.783997,-368.928009,1120.000000,-980.000000,-6860.000000
-32232.333092,-22518.868449,-32771.121892,34643.728691,-30674.483558,-1553.647405,-17218.196955,-26128.384605,-14356.659574,-28297.353184,-14910.312284,-27120.958521,52078.603456,-8012.966277,-13641.984897,-10973.164257,-10.736000,-925.736023,-366.976013,2380.000000,280.000000,-7420.000000
-32200.168932,-22487.732469,-32743.204563,34664.560516,-30640.732424,-1515.828254,-17186.569236,-26092.666518,-14325.434187,-28271.581623,-14881.165609,-27090.783666,52112.265183,-8004.360855,-13634.988801,-10947.057420,-13.176001,-921.832031,-371.368011,2380.000000,-1260.000000,-7000.000000
-32206.002737,-22495.376765,-32749.686569,34659.240801,-30648.622590,-1523.561957,-17191.508972,-26098.232102,-14334.598402,-28281.103466,-14890.083956,-27099.523199,52105.693770,-8006.931306,-13639.302688,-10954.299385,-10.248000,-925.247986,-362.096008,2520.000000,-3640.000000,-6020.000000
-32236.624627,-22526.512745,-32777.156863,34638.073699,-30683.938346,-1561.962254,-17219.694521,-26134.643094,-14365.712031,-28310.428954,-14919.208279,-27129.385129,52072.054395,-8016.095521,-13648.668068,-10980.897961,-7.808000,-926.712036,-368.440002,2800.000000,-2800.000000,-4760.000000
-32235.484688,-22522.690597,-32777.089808,34640.532391,-30684.228919,-1562.342234,-17218.152251,-26137.884097,-14363.298042,-28310.585417,-14919.521203,-27126.389995,52071.048566,-8019.448283,-13646.723467,-10978.640435,-5.856000,-930.127991,-366.976013,2940.000000,-2800.000000,-3780.000000
-32205.443943,-22492.873370,-32751.720578,34661.654790,-30652.668256,-1524.366620,-17190.346681,-26104.959977,-14333.525519,-28285.596166,-14893.883752,-27098.495018,52099.882317,-8012.698056,-13634.921746,-10955.036992,-9.272000,-926.712036,-366.488007,3360.000000,-2520.000000,-2380.000000
-32208.282615,-22494.281530,-32752.592296,34663.957019,-30651.416558,-1523.383143,-17189.407908,-26102.747155,-14337.437074,-28287.451361,-14897.303569,-27100.752544,52100.932849,-8008.630038,-13633.938269,-10954.813475,-9.272000,-929.152039,-365.511993,3500.000000,-2100.000000,-1120.000000
-32242.547839,-22528.278533,-32782.565985,34641.672330,-30686.061762,-1563.281007,-17219.091024,-26137.951152,-14369.757696,-28316.195704,-14924.863270,-27130.055681,52071.205028,-8016.833129,-13646.567005,-10979.109821,-10.248000,-928.664001,-368.440002,3360.000000,-2380.000000,0.000000
-32246.437043,-22531.854812,-32789.718543,34637.134926,-30693.326079,-1572.847554,-17222.823766,-26143.449681,-14368.841275,-28319.548466,-14925.176194,-27131.240324,52065.438278,-8022.868100,-13648.377496,-10982.015548,-11.224000,-927.200012,-366.488007,3500.000000,-1960.000000,840.000000
-32213.825847,-22500.249445,-32763.119967,34657.251496,-30659.709055,-1535.989527,-17194.638216,-26108.871533,-14337.057094,-28294.358050,-14896.677720,-27099.880826,52094.428491,-8017.704847,-13638.654487,-10955.148751,-12.688000,-928.664001,-367.951996,3220.000000,-1960.000000,1400.000000
-32202.761734,-22493.588626,-32754.425139,34662.101825,-30650.433081,-1524.187806,-17185.943387,-26099.036765,-14330.016295,-28290.066515,-14890.441583,-27093.801152,52100.530517,-8011.424006,-13637.894528,-10948.644394,-14.640000,-925.247986,-367.951996,3220.000000,-1540.000000,1960.000000
-32236.490516,-22527.473870,-32782.476578,34642.164068,-30685.950003,-1561.135240,-17210.217382,-26132.072643,-14365.108534,-28320.375481,-14919.655313,-27126.166478,52067.896970,-8018.174233,-13643.705981,-10972.449001,-16.592001,-927.200012,-367.463989,3640.000000,-1680.000000,2240.000000
-32250.080377,-22536.660437,-32792.244290,34635.994987,-30700.210416,-1575.574467,-17219.448652,-26149.015266,-14374.697432,-28329.070309,-14929.557136,-27136.045949,52055.759973,-8021.191719,-13639.883833,-10980.406222,-18.056000,-926.223999,-368.440002,3500.000000,-1820.000000,1820.000000
-32216.463353,-22503.781021,-32763.902278,34658.033807,-30666.191061,-1538.738792,-17193.207704,-26118.080451,-14339.851062,-28299.007213,-14902.667988,-27105.312300,52087.074767,-8010.060550,-13627.344504,-10956.534559,-17.568001,-924.272034,-369.416016,3780.000000,-1820.000000,1680.000000
-32196.659708,-22485.720812,-32746.847897,34672.473034,-30645.091015,-1514.978887,-17176.019213,-26097.919178,-14320.717969,-28282.846902,-14888.161706,-27091.118943,52104.553831,-8000.292838,-13618.850841,-10945.224577,-19.520000,-926.712036,-369.903992,3640.000000,-1960.000000,1120.000000
-32223.034766,-22513.280512,-32770.540747,34654.591638,-30674.885890,-1545.511370,-17201.723719,-26127.714053,-14345.662516,-28305.712736,-14911.541630,-27118.388071,52078.245828,-8004.986704,-13626.025751,-10971.286711,-20.496000,-924.272034,-369.416016,3920.000000,-2100.000000,700.000000
-32241.765528,-22532.659475,-32789.450322,34641.046481,-30698.489332,-1571.059414,-17224.008408,-26151.988048,-14361.465199,-28320.911923,-14927.701941,-27136.269466,52058.531589,-8008.831204,-13632.060722,-10986.977635,-17.568001,-928.176025,-369.903992,4200.000000,-2100.000000,140.000000
-32217.804458,-22507.893742,-32769.020828,34659.687836,-30672.203681,-1543.767934,-17201.656664,-26127.557591,-14339.024048,-28300.057745,-14907.004226,-27111.235513,52081.240962,-8001.321018,-13621.175423,-10965.139981,-16.592001,-928.176025,-368.928009,4480.000000,-2240.000000,-560.000000
-32195.117437,-22483.977376,-32749.373645,34677.613935,-30646.119195,-1517.437579,-17179.103753,-26102.456582,-14317.566373,-28282.981012,-14890.039252,-27090.403687,52101.469290,-7993.408500,-13613.151147,-10944.442266,-16.592001,-928.176025,-368.928009,4620.000000,-2380.000000,-840.000000
-32219.793763,-22508.519591,-32770.540747,34662.727673,-30672.002515,-1542.449181,-17199.712062,-26125.300065,-14343.695562,-28301.957643,-14912.011017,-27114.655330,52076.189467,-7999.622285,-13623.589411,-10962.010737,-16.104000,-927.687988,-370.391998,5040.000000,-2380.000000,-980.000000
-32246.481746,-22533.911173,-32792.512511,34643.728691,-30702.691460,-1572.445222,-17224.634257,-26153.977353,-14366.740211,-28319.481411,-14928.998343,-27138.169365,52051.356679,-8007.445396,-13633.826510,-10980.540333,-15.616000,-923.783997,-368.440002,4900.000000,-2240.000000,-980.000000
-32227.326301,-22511.917056,-32776.329848,34657.184441,-30682.172559,-1549.422926,-17206.283475,-26134.061949,-14343.784969,-28300.862408,-14910.491098,-27118.410423,52071.026214,-8003.735006,-13626.651600,-10964.290615,-15.128000,-924.272034,-367.951996,4620.000000,-1960.000000,-560.000000
-32198.291385,-22486.905454,-32752.569944,34674.082360,-30654.679913,-1514.196576,-17181.294224,-26102.702451,-14318.214574,-28279.047105,-14888.720499,-27097.623300,52098.250639,-7995.822489,-13622.449472,-10949.270242,-15.128000,-929.640015,-367.463989,4480.000000,-1540.000000,0.000000
-32211.590673,-22501.299977,-32762.248249,34664.560516,-30671.242556,-1529.015783,-17191.598379,-26118.169858,-14336.230080,-28295.319175,-14901.885677,-27116.354062,52083.096156,-7997.275352,-13625.913993,-10965.251740,-15.616000,-931.104004,-359.656006,4340.000000,-1540.000000,280.000000
-32234.903542,-22524.679902,-32783.057723,34646.992045,-30700.255120,-1562.319882,-17216.811146,-26152.077455,-14358.291251,-28315.659263,-14922.695151,-27139.599876,52056.966967,-8003.131509,-13628.998533,-10987.491725,-14.152000,-927.687988,-363.071991,3780.000000,-1540.000000,560.000000
-32218.698528,-22506.507934,-32771.613630,34657.698531,-30685.681782,-1550.808734,-17203.847135,-26142.801481,-14340.566318,-28303.365803,-14912.055720,-27123.260751,52066.689976,-7999.354064,-13619.007304,-10976.762888,-14.152000,-929.640015,-364.048004,3080.000000,-1120.000000,560.000000
-32186.310850,-22472.712096,-32744.411557,34680.586717,-30650.366026,-1513.950707,-17172.130009,-26109.430326,-14308.759786,-28279.985878,-14889.614569,-27094.650518,52095.814299,-7989.787518,-13607.160879,-10952.310080,-15.128000,-933.544006,-362.096008,2100.000000,-280.000000,560.000000
-32195.765638,-22483.016250,-32754.045159,34675.848147,-30657.585640,-1521.349135,-17177.270910,-26113.118364,-14318.907478,-28289.865350,-14901.662159,-27106.742812,52087.432395,-7990.547477,-13610.737158,-10958.501513,-13.664001,-933.056030,-364.048004,1540.000000,140.000000,560.000000
-32226.923970,-22514.263989,-32782.834206,34653.898734,-30692.767285,-1560.844667,-17207.177544,-26147.718864,-14348.724705,-28315.547504,-14931.166462,-27136.269466,52054.284758,-8000.628114,-13619.655504,-10983.602522,-10.248000,-935.496033,-367.951996,1680.000000,0.000000,980.000000
-32224.934664,-22510.263027,-32781.828377,34657.027979,-30689.146303,-1560.799964,-17204.674149,-26147.651809,-14343.092065,-28311.501838,-14929.803005,-27131.799118,52054.351813,-8003.198564,-13614.849879,-10980.160353,-10.736000,-934.520020,-370.391998,1820.000000,-140.000000,1120.000000
-32192.479931,-22476.936576,-32753.061682,34679.580889,-30653.227049,-1523.249033,-17173.940500,-26112.045480,-14310.972608,-28283.428047,-14903.584409,-27104.038251,52085.666607,-7996.358931,-13605.037463,-10958.546216,-10.248000,-931.104004,-366.000000,2660.000000,-1260.000000,980.000000
-32192.949318,-22478.277681,-32750.826508,34681.056104,-30648.577887,-1519.359829,-17169.134875,-26109.340919,-14313.476004,-28285.640870,-14902.489174,-27105.736984,52085.867773,-7990.502774,-13604.031635,-10961.340184,-9.272000,-933.544006,-365.511993,2240.000000,-2380.000000,560.000000
-32229.494420,-22515.605094,-32778.967354,34656.513888,-30684.810064,-1558.005996,-17198.326254,-26147.316533,-14346.713048,-28317.670920,-14928.707770,-27136.582391,52050.082630,-7998.482346,-13612.391187,-10986.977635,-7.320000,-931.591980,-366.000000,2100.000000,-2520.000000,140.000000
-32236.311702,-22523.428204,-32784.979973,34650.121290,-30691.873216,-1566.901990,-17205.299998,-26157.665391,-14351.362211,-28323.817649,-14929.870061,-27139.801042,52040.583139,-8003.019750,-13610.111309,-10985.480068,-4.880000,-933.544006,-359.656006,1540.000000,-2660.000000,-560.000000
-32199.006641,-22485.273777,-32756.727368,34675.401112,-30654.121119,-1530.513350,-17174.499294,-26126.350597,-14315.219440,-28295.319175,-14901.662159,-27106.139315,52070.981511,-7994.190811,-13594.018053,-10959.037955,-8.784000,-934.520020,-357.704010,1680.000000,-3080.000000,-980.000000
-32187.674306,-22474.701402,-32749.016017,34684.721790,-30642.744081,-1517.281117,-17165.111561,-26115.152373,-14304.311789,-28290.468847,-14895.694243,-27098.807943,52082.045624,-7989.675759,-13591.872286,-10956.355745,-7.320000,-929.152039,-360.632019,1400.000000,-2800.000000,-1260.000000
-32217.066850,-22506.306768,-32776.799235,34665.879269,-30676.450512,-1553.759164,-17194.437050,-26149.484652,-14333.972553,-28317.022719,-14920.392921,-27128.245190,52054.955310,-7999.465823,-13603.539896,-10981.613217,-10.736000,-929.640015,-364.048004,1260.000000,-2100.000000,-1120.000000
-32226.901618,-22519.114318,-32788.466846,34656.625647,-30691.940271,-1570.321807,-17207.646931,-26167.656620,-14340.432208,-28323.437670,-14927.813700,-27136.560039,52044.092362,-8005.500794,-13606.557382,-10989.279865,-17.568001,-928.664001,-363.559998,1120.000000,-1120.000000,-420.000000
-32194.715106,-22486.525474,-32762.203546,34677.256307,-30658.971448,-1535.341327,-17175.214550,-26133.883135,-14305.652893,-28295.609748,-14899.985778,-27105.535818,52072.546133,-7995.554268,-13592.252265,-10963.575359,-21.472000,-928.176025,-366.488007,1120.000000,-140.000000,560.000000
-32179.650030,-22470.655736,-32749.619514,34689.080380,-30640.732424,-1514.688315,-17157.266099,-26110.547913,-14292.174791,-28283.405695,-14885.524200,-27091.677736,52087.074767,-7988.021730,-13586.083184,-10948.197359,-24.400000,-927.200012,-366.000000,700.000000,560.000000,1120.000000
-32207.366193,-22497.723698,-32774.228784,34670.930764,-30670.102617,-1546.763068,-17182.501219,-26138.867574,-14321.500280,-28309.177257,-14910.602857,-27119.237437,52058.643348,-7998.102367,-13594.710957,-10968.783315,-29.280001,-929.152039,-363.071991,420.000000,980.000000,1540.000000
-32229.159144,-22518.421414,-32792.847787,34655.619819,-30693.259024,-1572.199353,-17201.723719,-26164.393266,-14342.779141,-28329.360882,-14927.567831,-27137.208240,52036.805694,-8009.434701,-13598.868382,-10983.066080,-28.792000,-930.616028,-361.119995,140.000000,1540.000000,1680.000000
-32201.957071,-22493.320405,-32771.054837,34672.048351,-30666.861614,-1542.873865,-17179.148457,-26138.331132,-14315.062978,-28307.523228,-14901.729214,-27111.414327,52060.431488,-8004.696131,-13590.240608,-10962.681289,-28.304001,-929.640015,-362.584015,0.000000,1400.000000,1260.000000
-32178.823016,-22473.762628,-32751.228839,34687.180482,-30641.246514,-1513.637783,-17158.473093,-26110.279692,-14293.404137,-28291.273509,-14882.216141,-27093.130600,52083.744357,-7998.884678,-13584.317396,-10944.509321,-27.816000,-928.176025,-365.024017,-140.000000,1260.000000,560.000000
-32202.314699,-22496.986091,-32771.121892,34673.568269,-30663.866480,-1540.214007,-17177.472076,-26129.613951,-14316.649952,-28311.881818,-14903.807927,-27116.108193,52062.465496,-8005.880774,-13588.854800,-10961.608405,-25.375999,-923.296021,-367.951996,-140.000000,560.000000,0.000000
-32227.974502,-22520.477774,-32793.361878,34657.631476,-30691.761457,-1574.948618,-17198.952103,-26157.888908,-14340.856891,-28335.485260,-14925.846747,-27137.811737,52035.956327,-8015.536727,-13591.000568,-10979.713318,-21.472000,-920.856018,-367.951996,-420.000000,0.000000,-980.000000
-32209.914292,-22500.361204,-32778.654430,34670.170804,-30673.969468,-1554.049737,-17182.545922,-26142.242687,-14321.254411,-28321.090737,-14908.859421,-27118.231609,52052.295453,-8012.228669,-13585.725556,-10966.570493,-17.080000,-923.783997,-369.416016,-280.000000,-840.000000,-2100.000000
-32181.684039,-22473.047372,-32753.888697,34688.231014,-30644.219296,-1517.415228,-17157.266099,-26112.537219,-14295.304036,-28297.688460,-14883.825467,-27094.270539,52082.224438,-8003.176213,-13579.712937,-10948.599690,-16.104000,-922.320007,-369.416016,0.000000,-1260.000000,-3220.000000
-32195.430362,-22488.112448,-32764.997514,34679.044447,-30659.597297,-1534.424905,-17167.011460,-26125.858858,-14309.899725,-28312.887646,-14899.024653,-27111.928417,52068.947502,-8008.875908,-13581.970463,-10961.429591,-14.152000,-921.832031,-367.951996,140.000000,-1680.000000,-4060.000000
-32223.146525,-22516.029777,-32789.427971,34659.173746,-30690.599166,-1569.740661,-17193.945312,-26157.821853,-14335.805397,-28335.239391,-14923.298648,-27138.795214,52040.314918,-8022.979858,-13590.128850,-10983.781336,-12.688000,-923.296021,-370.391998,140.000000,-2100.000000,-4480.000000
-32208.997871,-22501.299977,-32779.414389,34667.086264,-30677.791617,-1557.223684,-17184.937559,-26146.847146,-14319.443920,-28321.828344,-14910.714616,-27123.864248,52052.697784,-8022.868100,-13582.439850,-10973.276016,-9.272000,-926.223999,-368.440002,840.000000,-2240.000000,-4760.000000
-32174.464425,-22469.672259,-32753.061682,34688.990973,-30644.174593,-1518.063428,-17156.752009,-26111.419631,-14284.754012,-28293.821608,-14880.204484,-27092.772972,52084.772537,-8011.871041,-13569.386431,-10950.298423,-8.784000,-927.200012,-368.440002,1960.000000,-2660.000000,-4760.000000
-32183.203957,-22480.982242,-32760.728331,34684.945307,-30651.371855,-1526.713553,-17163.882215,-26119.779184,-14293.068861,-28304.259873,-14889.636921,-27102.987719,52075.384805,-8012.519242,-13570.615777,-10956.042821,-8.784000,-929.640015,-365.024017,3640.000000,-2940.000000,-4340.000000
-32218.787935,-22518.041434,-32788.533901,34662.437101,-30686.195873,-1566.857286,-17196.851039,-26158.335943,-14327.758769,-28332.646588,-14919.945886,-27135.442452,52044.427639,-8021.281126,-13579.556475,-10979.065118,-10.248000,-928.176025,-366.000000,4620.000000,-2800.000000,-3640.000000
-32216.731574,-22514.621617,-32785.024677,34664.739330,-30683.826588,-1564.532705,-17195.241713,-26158.045370,-14320.986190,-28325.404623,-14915.430834,-27130.413309,52047.243958,-8022.845748,-13576.293120,-10972.828981,-6.344000,-925.736023,-366.976013,5320.000000,-2520.000000,-2520.000000
-32185.215614,-22484.267948,-32757.800252,34685.369991,-30648.421424,-1525.663021,-17164.463361,-26121.790841,-14289.850210,-28297.330832,-14887.647615,-27100.976062,52076.167116,-8018.397751,-13566.257187,-10945.448094,-7.320000,-926.712036,-363.071991,5460.000000,-2380.000000,-1260.000000
-32186.780237,-22485.653756,-32758.426101,34685.057066,-30646.298009,-1521.058562,-17160.529454,-26117.745175,-14294.074690,-28298.984861,-14889.659272,-27103.032422,52076.971779,-8018.934193,-13564.647861,-10947.079771,-7.320000,-924.760010,-366.976013,5460.000000,-1960.000000,280.000000
-32220.643129,-22520.030739,-32787.751590,34661.364217,-30683.066628,-1556.977815,-17189.966701,-26149.886984,-14328.228155,-28330.143193,-14917.464842,-27134.503679,52046.729868,-8029.059533,-13571.912178,-10975.019452,-8.784000,-925.247986,-367.463989,5040.000000,-1680.000000,1540.000000
-32224.532333,-22523.539963,-32793.272471,34655.441005,-30690.509759,-1566.007920,-17199.309730,-26155.296106,-14327.870527,-28333.875934,-14920.907011,-27135.665969,52040.694897,-8033.172254,-13573.476800,-10978.752193,-12.200000,-922.807983,-365.024017,4480.000000,-1540.000000,2660.000000
-32190.289460,-22486.637233,-32765.578659,34678.284488,-30653.472919,-1531.787399,-17169.425448,-26120.494440,-14291.884219,-28305.578626,-14895.001339,-27101.803076,52068.545171,-8026.556137,-13559.775181,-10951.058382,-10.736000,-924.760010,-366.488007,4200.000000,-1680.000000,3360.000000
-32178.152463,-22475.014326,-32754.983932,34686.219357,-30642.051177,-1519.248071,-17160.194178,-26107.061041,-14279.613111,-28300.951815,-14888.809906,-27093.041193,52077.731738,-8023.337486,-13555.081314,-10945.537501,-10.736000,-925.736023,-366.000000,4060.000000,-1540.000000,3920.000000
-32208.372022,-22504.272759,-32779.056761,34666.862746,-30675.176463,-1553.155667,-17188.536190,-26138.264077,-14307.284571,-28328.243295,-14915.229668,-27121.427908,52050.596720,-8031.317059,-13562.747963,-10970.839676,-16.104000,-925.736023,-366.488007,4200.000000,-1680.000000,3640.000000
-32224.487629,-22518.644931,-32791.707849,34656.692702,-30691.225015,-1569.919475,-17199.600303,-26155.586678,-14319.958010,-28339.910905,-14925.802043,-27133.274333,52037.811522,-8039.967184,-13567.642995,-10980.607388,-17.080000,-926.223999,-366.488007,4340.000000,-1400.000000,3220.000000
-32195.430362,-22490.168809,-32766.070398,34674.305877,-30661.810119,-1537.598853,-17170.744201,-26126.708225,-14291.548943,-28315.793373,-14901.572752,-27107.569827,52066.019424,-8035.519187,-13561.652727,-10961.541350,-21.960001,-929.152039,-365.024017,4340.000000,-1680.000000,2380.000000
-32183.338068,-22480.982242,-32754.671008,34683.291278,-30647.795576,-1516.409399,-17155.053276,-26109.050346,-14284.195219,-28308.082021,-14889.502810,-27099.634957,52081.442127,-8029.819492,-13559.797533,-10955.685193,-23.424000,-931.104004,-366.488007,4060.000000,-1400.000000,1260.000000
-32208.215560,-22510.687710,-32779.816720,34666.974505,-30678.193948,-1544.259673,-17179.975471,-26137.213545,-14312.850155,-28334.010045,-14912.033369,-27127.574638,52055.379993,-8037.352030,-13569.006451,-10979.869781,-24.888000,-927.687988,-365.511993,3500.000000,-1540.000000,0.000000
-32226.633397,-22529.306713,-32799.530959,34655.664522,-30699.606919,-1568.399557,-17198.102736,-26159.252365,-14329.748074,-28351.511461,-14929.601840,-27144.561964,52034.212891,-8044.951623,-13572.247454,-10992.409109,-21.472000,-928.664001,-363.559998,2240.000000,-1260.000000,-1260.000000
-32202.180589,-22504.920960,-32780.979011,34673.188290,-30673.567137,-1544.125562,-17176.779172,-26134.039597,-14305.161155,-28331.707815,-14909.194697,-27122.478440,52056.117601,-8041.285937,-13565.184303,-10972.851333,-23.424000,-933.056030,-362.584015,1260.000000,-1260.000000,-2800.000000
-32177.772484,-22481.541035,-32760.527165,34691.181444,-30648.644942,-1517.459931,-17156.327326,-26107.195152,-14282.720003,-28312.217094,-14891.603874,-27104.172361,52078.715215,-8038.134341,-13558.769352,-10955.796952,-24.400000,-930.616028,-361.119995,280.000000,-560.000000,-3920.000000
-32195.944452,-22500.875294,-32777.022752,34678.753874,-30672.538957,-1538.850551,-17177.583835,-26131.066815,-14302.121318,-28330.880801,-14910.826374,-27125.115946,52058.553941,-8044.012850,-13566.525408,-10973.723051,-21.472000,-932.080017,-363.071991,-700.000000,-420.000000,-4480.000000
-32217.335071,-22519.963684,-32796.401715,34662.370045,-30700.925672,-1568.041929,-17202.595437,-26158.380647,-14318.236925,-28351.444405,-14928.841880,-27145.992475,52036.582176,-8049.377268,-13572.247454,-10993.481993,-15.616000,-932.567993,-363.071991,-1540.000000,-280.000000,-4900.000000
-32200.526559,-22498.662472,-32780.151997,34675.848147,-30681.502006,-1545.980757,-17186.591588,-26139.359312,-14299.327350,-28335.753481,-14908.926476,-27126.457051,52056.408174,-8044.795161,-13562.591501,-10977.545199,-17.080000,-930.616028,-367.951996,-1540.000000,0.000000,-5040.000000
-32174.062094,-22472.667393,-32755.386264,34694.847130,-30653.674084,-1512.631954,-17159.635384,-26109.698547,-14277.847323,-28314.094641,-14884.965406,-27102.831257,52082.872639,-8035.116856,-13555.014259,-10954.120571,-16.592001,-928.176025,-371.856018,-1120.000000,-140.000000,-4620.000000
-32189.283632,-22491.398155,-32768.305572,34685.213528,-30670.214375,-1530.222777,-17170.364221,-26120.941475,-14297.874486,-28328.466812,-14901.148069,-27121.137335,52067.338177,-8040.056591,-13559.663422,-10963.620062,-13.176001,-927.687988,-370.880005,-560.000000,-420.000000,-4200.000000
-32217.402126,-22521.975341,-32792.691325,34664.918144,-30701.752687,-1566.633769,-17200.024986,-26152.591545,-14324.942449,-28352.383179,-14925.913802,-27149.367589,52036.537473,-8051.768905,-13569.297024,-10985.234199,-11.712000,-926.712036,-369.903992,280.000000,-840.000000,-3220.000000
-32205.913330,-22509.860696,-32782.297764,34672.405979,-30688.296937,-1554.742641,-17190.279626,-26143.293219,-14310.771443,-28340.581458,-14916.369607,-27137.722330,52044.494694,-8052.417106,-13560.892768,-10969.207998,-9.272000,-923.296021,-374.783997,700.000000,-1260.000000,-2520.000000
-32170.731684,-22476.802466,-32755.967409,34695.808255,-30653.271753,-1518.376353,-17161.535282,-26109.273864,-14274.583968,-28313.893475,-14892.117964,-27109.179152,52072.277912,-8045.353954,-13550.454503,-10944.799893,-9.760000,-927.200012,-370.391998,1680.000000,-1260.000000,-1680.000000
-32176.096103,-22484.223245,-32762.471767,34693.014287,-30662.435968,-1530.245129,-17168.777248,-26117.231085,-14281.691823,-28324.175277,-14901.215124,-27119.617417,52064.499505,-8048.349088,-13554.880149,-10957.361574,-9.272000,-926.712036,-370.880005,2240.000000,-1540.000000,-840.000000
-32208.170856,-22517.683806,-32792.333697,34670.886060,-30697.438800,-1572.512278,-17196.158134,-26152.233917,-14314.258315,-28353.321952,-14930.339447,-27150.373417,52032.827083,-8058.228559,-13561.876245,-10985.010682,-11.712000,-927.687988,-369.903992,2520.000000,-1400.000000,-140.000000
