Interval=	0.001 s
ExcelDateTime=	4.5785660442621396e+004	5/8/2025 15:51:02.242488
TimeFormat=	StartOfBlock
DateFormat=	
ChannelTitle=	Channel 2	Channel 3	Channel 4	Channel 5	Channel 6	Channel 7	Channel 8	Channel 9
Range=	112.50 mV	112.50 mV	112.50 mV	112.50 mV	112.50 mV	112.50 mV	112.50 mV	112.50 mV
0	-0.1300781	-0.2671875	0.02109375	-0.2214844	-0.2917969	-0.4359375	-0.2601563	-0.1546875
0.001	-0.1300781	-0.2671875	0.02109375	-0.2214844	-0.2917969	-0.4359375	-0.2601563	-0.1546875
0.002	-0.4710938	-0.6011719	-0.2988281	-0.534375	-0.6539063	-0.6855469	-0.5660156	-0.4605469
0.003	-0.7839844	-0.9070313	-0.6011719	-0.815625	-0.9949219	-0.9	-0.8402344	-0.7347656
0.004	-0.9246094	-1.040625	-0.7347656	-0.9316406	-1.163672	-0.9773438	-0.9632813	-0.8507813
0.005	-0.9246094	-1.040625	-0.7417969	-0.9210938	-1.177734	-0.9492188	-0.9527344	-0.8332031
0.006	-0.815625	-0.9246094	-0.6363281	-0.8050781	-1.061719	-0.84375	-0.8367188	-0.7101563
0.007	-0.5660156	-0.675	-0.39375	-0.5625	-0.7980469	-0.6398438	-0.6011719	-0.4640625
0.008	-0.16875	-0.28125	-0.01757813	-0.1898438	-0.3832031	-0.3269531	-0.2390625	-0.0984375
0.009	0.2039063	0.09140625	0.3445313	0.1617188	0.0140625	-0.04570313	0.0984375	0.2460938
0.01	0.5800781	0.4675781	0.7066406	0.5167969	0.4253906	0.2355469	0.4394531	0.5871094
0.011	0.928125	0.815625	1.030078	0.8296875	0.8050781	0.4851563	0.7523438	0.8964844
0.012	1.121484	1.005469	1.219922	1.001953	1.023047	0.6117188	0.928125	1.06875
0.013	1.170703	1.047656	1.269141	1.030078	1.079297	0.6222656	0.9632813	1.100391
0.014	1.096875	0.9738281	1.191797	0.9492188	1.005469	0.534375	0.8753906	1.005469
0.015	0.9	0.7769531	1.008984	0.7558594	0.8015625	0.3550781	0.6785156	0.8015625
0.016	0.5308594	0.4042969	0.6609375	0.4007813	0.4078125	0.05625	0.3339844	0.4464844
0.017	0.1335938	0.003515625	0.2777344	0.02460938	-0.01757813	-0.2425781	-0.02460938	0.08085938
0.018	-0.2285156	-0.3550781	-0.0703125	-0.309375	-0.4078125	-0.5132813	-0.3550781	-0.2460938
0.019	-0.6011719	-0.7171875	-0.4253906	-0.646875	-0.8050781	-0.7804688	-0.6855469	-0.5695313
0.02	-0.8472656	-0.9597656	-0.6609375	-0.8683594	-1.082813	-0.9457031	-0.9070313	-0.7839844
0.021	-0.9386719	-1.051172	-0.7523438	-0.9421875	-1.202344	-0.9878906	-0.9878906	-0.8578125
0.022	-0.8964844	-1.005469	-0.7101563	-0.8929688	-1.163672	-0.9316406	-0.9316406	-0.7945313
0.023	-0.7523438	-0.8507813	-0.5660156	-0.7417969	-1.001953	-0.7980469	-0.7769531	-0.6398438
0.024	-0.4359375	-0.5378906	-0.2636719	-0.4359375	-0.6679688	-0.534375	-0.4851563	-0.3339844
0.025	-0.03164063	-0.1371094	0.1195313	-0.05625	-0.2425781	-0.2214844	-0.1160156	0.03515625
0.026	0.3304688	0.225	0.4746094	0.2847656	0.1441406	0.04570313	0.2109375	0.365625
0.027	0.7136719	0.6082031	0.84375	0.646875	0.5695313	0.3339844	0.5660156	0.7136719
0.028	1.016016	0.9070313	1.128516	0.9175781	0.9070313	0.5519531	0.84375	0.984375
0.029	1.160156	1.044141	1.269141	1.037109	1.065234	0.6398438	0.9703125	1.103906
0.03	1.160156	1.040625	1.269141	1.023047	1.075781	0.6082031	0.9597656	1.086328
0.031	1.051172	0.9246094	1.160156	0.9070313	0.9667969	0.4921875	0.8332031	0.9597656
0.032	0.7980469	0.6679688	0.9246094	0.6574219	0.6996094	0.2707031	0.5800781	0.703125
0.033	0.3972656	0.2636719	0.5414063	0.2707031	0.2636719	-0.04570313	0.2039063	0.3234375
0.034	0.01054688	-0.1160156	0.1757813	-0.084375	-0.140625	-0.3339844	-0.1371094	-0.01757813
0.035	-0.3585938	-0.4851563	-0.1792969	-0.4324219	-0.5414063	-0.6082031	-0.4710938	-0.3550781
0.036	-0.6996094	-0.8226563	-0.5097656	-0.7453125	-0.9140625	-0.8542969	-0.7734375	-0.6574219
0.037	-0.8964844	-1.0125	-0.6996094	-0.9140625	-1.139063	-0.9738281	-0.9492188	-0.8261719
0.038	-0.9457031	-1.058203	-0.7453125	-0.9421875	-1.202344	-0.984375	-0.984375	-0.8507813
0.039	-0.8648438	-0.9738281	-0.6679688	-0.8578125	-1.117969	-0.9035156	-0.8929688	-0.7558594
0.04	-0.6714844	-0.7734375	-0.478125	-0.6644531	-0.9070313	-0.73125	-0.6996094	-0.5554688
0.041	-0.309375	-0.4113281	-0.1335938	-0.3164063	-0.5238281	-0.4324219	-0.3585938	-0.2144531
0.042	0.08085938	-0.01757813	0.2460938	0.05625	-0.1054688	-0.1265625	0	0.1476563
0.043	0.4605469	0.3550781	0.6082031	0.4042969	0.2953125	0.1441406	0.3375	0.4851563
0.044	0.8402344	0.73125	0.9632813	0.7558594	0.7101563	0.4253906	0.6820313	0.8226563
0.045	1.086328	0.9738281	1.198828	0.9738281	0.9878906	0.5941406	0.9105469	1.044141
0.046	1.18125	1.065234	1.290234	1.047656	1.089844	0.6398438	0.9914063	1.121484
0.047	1.146094	1.023047	1.248047	0.9949219	1.054688	0.5800781	0.9351563	1.065234
0.048	0.9949219	0.8753906	1.103906	0.84375	0.9035156	0.4324219	0.7769531	0.9035156
0.049	0.6785156	0.5519531	0.8050781	0.534375	0.5660156	0.1652344	0.4710938	0.5976563
0.05	0.2671875	0.1335938	0.4113281	0.1441406	0.1265625	-0.1476563	0.09492188	0.2144531
0.051	-0.1019531	-0.2320313	0.05625	-0.2003906	-0.2671875	-0.421875	-0.2320313	-0.1195313
0.052	-0.4816406	-0.6082031	-0.3023438	-0.5484375	-0.675	-0.703125	-0.5730469	-0.4605469
0.053	-0.7804688	-0.9	-0.590625	-0.8191406	-1.001953	-0.9070313	-0.8402344	-0.7242188
0.054	-0.9246094	-1.044141	-0.73125	-0.9421875	-1.170703	-0.9878906	-0.9667969	-0.8472656
0.055	-0.9316406	-1.044141	-0.73125	-0.928125	-1.184766	-0.9632813	-0.9527344	-0.8332031
0.056	-0.8191406	-0.928125	-0.6257813	-0.8085938	-1.061719	-0.8542969	-0.8296875	-0.7066406
0.057	-0.5660156	-0.6714844	-0.3832031	-0.5625	-0.7910156	-0.6433594	-0.5871094	-0.4605469
0.058	-0.16875	-0.2742188	0	-0.1828125	-0.3726563	-0.3269531	-0.225	-0.084375
0.059	0.2109375	0.1019531	0.365625	0.1722656	0.028125	-0.0421875	0.1195313	0.2636719
0.06	0.5976563	0.4886719	0.7347656	0.5308594	0.4464844	0.2425781	0.4640625	0.6152344
0.061	0.9421875	0.8367188	1.061719	0.8507813	0.8226563	0.4957031	0.7804688	0.9246094
0.062	1.135547	1.023047	1.248047	1.016016	1.040625	0.6222656	0.95625	1.093359
0.063	1.184766	1.065234	1.297266	1.040625	1.096875	0.6257813	0.9914063	1.117969
0.064	1.107422	0.984375	1.219922	0.9597656	1.023047	0.5378906	0.9035156	1.026563
0.065	0.9105469	0.7839844	1.030078	0.7628906	0.8191406	0.3550781	0.703125	0.8191406
0.066	0.5414063	0.4042969	0.6785156	0.4007813	0.421875	0.05273438	0.3515625	0.4640625
0.067	0.1371094	0	0.2953125	0.02109375	0	-0.2460938	-0.00703125	0.09140625
0.068	-0.2285156	-0.365625	-0.05625	-0.3199219	-0.3972656	-0.5203125	-0.3410156	-0.2425781
0.069	-0.6011719	-0.73125	-0.4148438	-0.6574219	-0.7945313	-0.7910156	-0.6714844	-0.5695313
0.07	-0.8507813	-0.9738281	-0.6574219	-0.8789063	-1.072266	-0.9527344	-0.8929688	-0.7875
0.071	-0.9457031	-1.065234	-0.7488281	-0.9527344	-1.191797	-0.9949219	-0.9738281	-0.8613281
0.072	-0.9070313	-1.016016	-0.7066406	-0.9	-1.153125	-0.9386719	-0.9175781	-0.7980469
0.073	-0.7523438	-0.8578125	-0.5589844	-0.7417969	-0.9914063	-0.8015625	-0.7628906	-0.6328125
0.074	-0.4394531	-0.5414063	-0.2601563	-0.4394531	-0.6644531	-0.5484375	-0.4746094	-0.3339844
0.075	-0.0421875	-0.1476563	0.1160156	-0.06328125	-0.2460938	-0.2355469	-0.1125	0.03515625
0.076	0.3269531	0.2214844	0.478125	0.2847656	0.1511719	0.0421875	0.2214844	0.3761719
0.077	0.7171875	0.6152344	0.8507813	0.6503906	0.5800781	0.3339844	0.5800781	0.73125
0.078	1.019531	0.9140625	1.139063	0.9210938	0.9140625	0.5519531	0.8578125	0.9984375
0.079	1.163672	1.047656	1.276172	1.037109	1.075781	0.6363281	0.984375	1.114453
0.08	1.163672	1.044141	1.276172	1.023047	1.082813	0.6046875	0.9738281	1.096875
0.081	1.054688	0.928125	1.170703	0.9070313	0.9738281	0.4886719	0.8542969	0.9703125
0.082	0.8015625	0.6714844	0.928125	0.6574219	0.7066406	0.2671875	0.6046875	0.7136719
0.083	0.3972656	0.2601563	0.5449219	0.2671875	0.2707031	-0.05273438	0.2285156	0.3304688
0.084	0.0140625	-0.1195313	0.1757813	-0.08789063	-0.1335938	-0.3375	-0.1125	-0.01757813
0.085	-0.3585938	-0.4886719	-0.1792969	-0.4324219	-0.534375	-0.6152344	-0.45	-0.3550781
0.086	-0.6996094	-0.8296875	-0.50625	-0.7453125	-0.9035156	-0.8613281	-0.7523438	-0.6574219
0.087	-0.8929688	-1.023047	-0.6925781	-0.9175781	-1.128516	-0.9773438	-0.9210938	-0.8261719
0.088	-0.9386719	-1.065234	-0.7347656	-0.9457031	-1.188281	-0.984375	-0.95625	-0.8507813
0.089	-0.8613281	-0.9808594	-0.6609375	-0.8578125	-1.107422	-0.9035156	-0.8648438	-0.7558594
0.09	-0.6609375	-0.7769531	-0.4675781	-0.6609375	-0.8964844	-0.7382813	-0.6714844	-0.5554688
0.091	-0.2988281	-0.4113281	-0.1195313	-0.309375	-0.5097656	-0.4359375	-0.3304688	-0.2109375
0.092	0.09140625	-0.01757813	0.2601563	0.06679688	-0.08789063	-0.1300781	0.02460938	0.1476563
0.093	0.4675781	0.3550781	0.6222656	0.4183594	0.3128906	0.1441406	0.365625	0.4886719
0.094	0.8472656	0.7347656	0.9808594	0.7664063	0.7242188	0.421875	0.7066406	0.8296875
0.095	1.096875	0.9773438	1.219922	0.9878906	1.001953	0.5941406	0.9316406	1.051172
0.096	1.191797	1.065234	1.314844	1.061719	1.107422	0.6398438	1.0125	1.117969
0.097	1.149609	1.023047	1.272656	1.008984	1.072266	0.5765625	0.95625	1.061719
0.098	1.001953	0.8683594	1.128516	0.8578125	0.9140625	0.4324219	0.7980469	0.9035156
0.099	0.6820313	0.5449219	0.8261719	0.5449219	0.5765625	0.1652344	0.4921875	0.590625
0.1	0.2671875	0.1300781	0.4324219	0.1476563	0.1371094	-0.1511719	0.1125	0.2039063
0.101	-0.1019531	-0.2390625	0.07382813	-0.196875	-0.2566406	-0.4253906	-0.2144531	-0.1300781
0.102	-0.4816406	-0.6117188	-0.2847656	-0.5449219	-0.6609375	-0.7066406	-0.5554688	-0.4710938
0.103	-0.7769531	-0.9	-0.5730469	-0.8121094	-0.984375	-0.9105469	-0.8191406	-0.7277344
0.104	-0.9210938	-1.040625	-0.7136719	-0.9316406	-1.156641	-0.9914063	-0.9457031	-0.8472656
0.105	-0.9210938	-1.040625	-0.7136719	-0.9175781	-1.167188	-0.9632813	-0.9316406	-0.8296875
0.106	-0.8121094	-0.9246094	-0.6046875	-0.8015625	-1.044141	-0.8542969	-0.8050781	-0.703125
0.107	-0.5589844	-0.6679688	-0.3621094	-0.5554688	-0.7734375	-0.6433594	-0.5660156	-0.4535156
0.108	-0.1617188	-0.2707031	0.01757813	-0.1757813	-0.3550781	-0.3269531	-0.2039063	-0.084375
0.109	0.2144531	0.1054688	0.3832031	0.1792969	0.0421875	-0.04570313	0.140625	0.2601563
0.11	0.6046875	0.4921875	0.7523438	0.5378906	0.4605469	0.2355469	0.4851563	0.6152344
0.111	0.9527344	0.8402344	1.079297	0.8542969	0.8402344	0.4886719	0.8015625	0.928125
0.112	1.142578	1.026563	1.265625	1.023047	1.051172	0.61875	0.9773438	1.093359
0.113	1.191797	1.06875	1.307813	1.051172	1.103906	0.6257813	1.008984	1.121484
0.114	1.110938	0.9878906	1.233984	0.9703125	1.030078	0.5308594	0.9175781	1.023047
0.115	0.9105469	0.7875	1.040625	0.7734375	0.8261719	0.3550781	0.7171875	0.815625
0.116	0.5378906	0.4078125	0.6925781	0.4113281	0.4324219	0.05625	0.3691406	0.4605469
0.117	0.140625	0.00703125	0.3164063	0.03515625	0.00703125	-0.2460938	0.00703125	0.08789063
0.118	-0.225	-0.3550781	-0.03867188	-0.3058594	-0.3832031	-0.5167969	-0.3234375	-0.2425781
0.119	-0.590625	-0.7207031	-0.3902344	-0.6433594	-0.7804688	-0.7839844	-0.646875	-0.5695313
0.12	-0.8332031	-0.95625	-0.6292969	-0.8648438	-1.054688	-0.9421875	-0.8648438	-0.7839844
0.121	-0.9210938	-1.044141	-0.7171875	-0.9316406	-1.167188	-0.984375	-0.9421875	-0.8507813
0.122	-0.8789063	-0.9949219	-0.6714844	-0.871875	-1.121484	-0.9246094	-0.8824219	-0.7875
0.123	-0.73125	-0.84375	-0.5273438	-0.7207031	-0.9597656	-0.7910156	-0.7277344	-0.6292969
0.124	-0.421875	-0.534375	-0.2320313	-0.421875	-0.6363281	-0.5378906	-0.4429688	-0.3339844
0.125	-0.0140625	-0.1300781	0.1582031	-0.03515625	-0.2109375	-0.2214844	-0.07382813	0.03867188
0.126	0.3585938	0.2390625	0.5167969	0.309375	0.1863281	0.04921875	0.2636719	0.3832031
0.127	0.7488281	0.6292969	0.8859375	0.6679688	0.6082031	0.3375	0.6117188	0.7382813
0.128	1.047656	0.928125	1.170703	0.9457031	0.9386719	0.5554688	0.8824219	1.005469
0.129	1.188281	1.065234	1.304297	1.065234	1.096875	0.6433594	1.0125	1.121484
0.13	1.184766	1.058203	1.300781	1.044141	1.103906	0.6152344	0.9984375	1.103906
0.131	1.072266	0.9421875	1.191797	0.928125	0.9949219	0.4957031	0.8753906	0.9738281
0.132	0.8121094	0.6820313	0.9492188	0.6785156	0.7207031	0.2742188	0.6222656	0.7136719
0.133	0.4078125	0.2707031	0.5660156	0.2882813	0.2882813	-0.04570313	0.2425781	0.3339844
0.134	0.02460938	-0.1054688	0.2003906	-0.06679688	-0.1125	-0.3304688	-0.0984375	-0.01054688
0.135	-0.3515625	-0.478125	-0.1582031	-0.4113281	-0.5097656	-0.6046875	-0.4289063	-0.3515625
0.136	-0.6925781	-0.815625	-0.4851563	-0.7207031	-0.8789063	-0.8507813	-0.73125	-0.6503906
0.137	-0.8824219	-1.005469	-0.675	-0.8894531	-1.103906	-0.9703125	-0.9035156	-0.8191406
0.138	-0.9316406	-1.044141	-0.7207031	-0.9175781	-1.167188	-0.9773438	-0.9351563	-0.84375
0.139	-0.8542969	-0.9597656	-0.6433594	-0.8296875	-1.086328	-0.8929688	-0.84375	-0.7488281
0.14	-0.6574219	-0.7628906	-0.4535156	-0.6363281	-0.8753906	-0.7207031	-0.6503906	-0.5519531
0.141	-0.2917969	-0.3972656	-0.1054688	-0.2847656	-0.4921875	-0.4253906	-0.3128906	-0.2109375
0.142	0.0984375	-0.00703125	0.2707031	0.084375	-0.07382813	-0.1230469	0.0421875	0.1511719
0.143	0.4710938	0.3621094	0.6328125	0.4324219	0.3234375	0.1476563	0.3796875	0.4886719
0.144	0.84375	0.7382813	0.984375	0.7734375	0.73125	0.4183594	0.7171875	0.8261719
0.145	1.089844	0.9773438	1.216406	0.9949219	0.9984375	0.5871094	0.9386719	1.047656
0.146	1.18125	1.061719	1.307813	1.065234	1.100391	0.6292969	1.016016	1.117969
0.147	1.139063	1.019531	1.265625	1.0125	1.065234	0.5695313	0.9597656	1.058203
0.148	0.984375	0.8648438	1.121484	0.8613281	0.9140625	0.421875	0.8050781	0.8929688
0.149	0.6679688	0.5378906	0.8226563	0.5519531	0.5765625	0.1546875	0.4992188	0.5835938
0.15	0.2566406	0.1230469	0.4324219	0.1582031	0.140625	-0.1546875	0.1230469	0.2003906
0.151	-0.1089844	-0.2390625	0.07734375	-0.1828125	-0.2496094	-0.4253906	-0.2039063	-0.1335938
0.152	-0.4851563	-0.6117188	-0.28125	-0.5273438	-0.6574219	-0.703125	-0.5378906	-0.4710938
0.153	-0.7804688	-0.9	-0.5625	-0.7945313	-0.984375	-0.9070313	-0.8015625	-0.7277344
0.154	-0.9210938	-1.033594	-0.6960938	-0.9140625	-1.149609	-0.9808594	-0.9246094	-0.84375
0.155	-0.9175781	-1.030078	-0.6960938	-0.9	-1.160156	-0.9527344	-0.9105469	-0.8261719
0.156	-0.8050781	-0.9105469	-0.5871094	-0.7804688	-1.037109	-0.8472656	-0.7910156	-0.6996094
0.157	-0.5519531	-0.6574219	-0.3410156	-0.5308594	-0.7664063	-0.6328125	-0.5484375	-0.4464844
0.158	-0.1546875	-0.2601563	0.03515625	-0.1546875	-0.3515625	-0.3164063	-0.1863281	-0.08085938
0.159	0.2214844	0.1125	0.4007813	0.2003906	0.04921875	-0.03164063	0.1582031	0.2636719
0.16	0.6046875	0.4992188	0.7628906	0.5589844	0.4640625	0.2460938	0.5027344	0.6082031
0.161	0.9457031	0.8332031	1.086328	0.8683594	0.8402344	0.4921875	0.8121094	0.9140625
0.162	1.135547	1.019531	1.272656	1.030078	1.051172	0.6152344	0.984375	1.079297
0.163	1.18125	1.061719	1.314844	1.054688	1.100391	0.61875	1.0125	1.103906
0.164	1.107422	0.9808594	1.2375	0.9703125	1.030078	0.5308594	0.9246094	1.008984
0.165	0.9105469	0.7804688	1.044141	0.7734375	0.8226563	0.3480469	0.7242188	0.8050781
0.166	0.5378906	0.4007813	0.6925781	0.4113281	0.421875	0.04570313	0.3726563	0.45
0.167	0.140625	0.003515625	0.309375	0.03867188	0	-0.2496094	0.01054688	0.08085938
0.168	-0.225	-0.3550781	-0.0421875	-0.2988281	-0.39375	-0.5203125	-0.3164063	-0.2460938
0.169	-0.5976563	-0.7207031	-0.39375	-0.6398438	-0.7875	-0.7875	-0.6398438	-0.5730469
0.17	-0.8367188	-0.9597656	-0.6292969	-0.8542969	-1.058203	-0.9492188	-0.8578125	-0.7875
0.171	-0.9246094	-1.044141	-0.7101563	-0.9175781	-1.167188	-0.984375	-0.9316406	-0.8507813
0.172	-0.8859375	-0.9949219	-0.6714844	-0.8648438	-1.128516	-0.928125	-0.8789063	-0.7875
0.173	-0.7453125	-0.8472656	-0.534375	-0.7171875	-0.9738281	-0.7980469	-0.7277344	-0.6363281
0.174	-0.4359375	-0.534375	-0.2355469	-0.4148438	-0.646875	-0.5378906	-0.4324219	-0.3375
0.175	-0.03515625	-0.1335938	0.1511719	-0.03164063	-0.2179688	-0.2214844	-0.06328125	0.03515625
0.176	0.3339844	0.2320313	0.5097656	0.309375	0.1757813	0.04921875	0.2707031	0.3726563
0.177	0.7242188	0.6222656	0.8789063	0.6644531	0.5976563	0.3339844	0.6222656	0.7242188
0.178	1.023047	0.9140625	1.160156	0.9316406	0.928125	0.5449219	0.8929688	0.9878906
0.179	1.163672	1.047656	1.297266	1.047656	1.082813	0.6292969	1.0125	1.103906
0.18	1.160156	1.044141	1.29375	1.030078	1.086328	0.5976563	0.9949219	1.086328
0.181	1.044141	0.928125	1.18125	0.9140625	0.9738281	0.4816406	0.871875	0.95625
0.182	0.7875	0.6714844	0.9386719	0.6644531	0.703125	0.2601563	0.61875	0.6996094
0.183	0.3867188	0.2636719	0.5589844	0.2777344	0.2742188	-0.05273438	0.2460938	0.3199219
0.184	0.003515625	-0.1125	0.1933594	-0.07382813	-0.1265625	-0.3339844	-0.09492188	-0.02460938
0.185	-0.3691406	-0.4816406	-0.1617188	-0.4183594	-0.5273438	-0.6117188	-0.421875	-0.3585938
0.186	-0.7066406	-0.8121094	-0.4816406	-0.7277344	-0.8929688	-0.8542969	-0.7207031	-0.6574219
0.187	-0.8964844	-1.001953	-0.6679688	-0.8964844	-1.117969	-0.9703125	-0.8929688	-0.8226563
0.188	-0.9386719	-1.037109	-0.7101563	-0.9210938	-1.177734	-0.9738281	-0.9246094	-0.84375
0.189	-0.8578125	-0.9492188	-0.6328125	-0.8296875	-1.093359	-0.8929688	-0.8332031	-0.7453125
0.19	-0.6609375	-0.7488281	-0.4394531	-0.6328125	-0.8824219	-0.7207031	-0.6398438	-0.5414063
0.191	-0.2988281	-0.3832031	-0.09140625	-0.2847656	-0.4992188	-0.421875	-0.3023438	-0.2003906
0.192	0.09140625	0.00703125	0.2847656	0.084375	-0.08085938	-0.1195313	0.04921875	0.1617188
0.193	0.4640625	0.3796875	0.6433594	0.4324219	0.3164063	0.1476563	0.3832031	0.5027344
0.194	0.8402344	0.7523438	0.9949219	0.7769531	0.7242188	0.4183594	0.7207031	0.8402344
0.195	1.082813	0.9949219	1.223438	0.9914063	0.9878906	0.5871094	0.9386719	1.051172
0.196	1.174219	1.075781	1.314844	1.061719	1.089844	0.6292969	1.016016	1.117969
0.197	1.132031	1.033594	1.272656	1.005469	1.054688	0.5695313	0.9632813	1.058203
0.198	0.9773438	0.8789063	1.121484	0.8507813	0.9	0.4253906	0.8050781	0.8929688
0.199	0.6574219	0.5519531	0.8261719	0.5378906	0.5625	0.1582031	0.4992188	0.5800781
0.2	0.253125	0.140625	0.4359375	0.1546875	0.1230469	-0.1546875	0.1265625	0.2003906
0.201	-0.1125	-0.2179688	0.07734375	-0.1863281	-0.2671875	-0.4289063	-0.2003906	-0.1265625
0.202	-0.4921875	-0.590625	-0.28125	-0.534375	-0.6714844	-0.7066406	-0.5378906	-0.4675781
0.203	-0.7839844	-0.8824219	-0.5625	-0.8015625	-0.9914063	-0.9105469	-0.7980469	-0.7242188
0.204	-0.9210938	-1.019531	-0.703125	-0.9210938	-1.163672	-0.9878906	-0.9246094	-0.8472656
0.205	-0.9210938	-1.0125	-0.703125	-0.9035156	-1.177734	-0.9597656	-0.9105469	-0.8261719
0.206	-0.8050781	-0.8929688	-0.5941406	-0.7839844	-1.054688	-0.8507813	-0.7875	-0.6960938
0.207	-0.5519531	-0.6363281	-0.3445313	-0.5308594	-0.7839844	-0.6363281	-0.5449219	-0.4464844
0.208	-0.1546875	-0.2425781	0.03515625	-0.1546875	-0.365625	-0.3269531	-0.1828125	-0.08085938
0.209	0.2214844	0.1300781	0.4007813	0.196875	0.03164063	-0.04570313	0.1546875	0.2671875
0.21	0.6046875	0.5132813	0.7628906	0.5554688	0.4464844	0.2320313	0.4992188	0.61875
0.211	0.9421875	0.8542969	1.082813	0.8648438	0.8226563	0.4816406	0.8085938	0.9175781
0.212	1.132031	1.033594	1.265625	1.030078	1.033594	0.6117188	0.984375	1.079297
0.213	1.170703	1.06875	1.307813	1.054688	1.086328	0.61875	1.019531	1.100391
0.214	1.089844	0.9878906	1.226953	0.9667969	1.0125	0.5273438	0.928125	1.001953
0.215	0.8894531	0.7875	1.033594	0.7664063	0.7980469	0.3445313	0.7207031	0.7945313
0.216	0.5132813	0.4113281	0.6820313	0.4078125	0.3972656	0.04570313	0.3691406	0.4394531
0.217	0.1195313	0.01054688	0.3023438	0.03164063	-0.02460938	-0.2496094	0.00703125	0.07734375
0.218	-0.2425781	-0.3515625	-0.04570313	-0.3023438	-0.4113281	-0.5238281	-0.3164063	-0.253125
0.219	-0.6082031	-0.7066406	-0.3972656	-0.6363281	-0.8050781	-0.7910156	-0.6398438	-0.5765625
0.22	-0.84375	-0.9351563	-0.6257813	-0.8472656	-1.06875	-0.9457031	-0.8507813	-0.7804688
0.221	-0.9316406	-1.023047	-0.7136719	-0.9175781	-1.184766	-0.984375	-0.9246094	-0.8507813
0.222	-0.8964844	-0.984375	-0.6785156	-0.8683594	-1.153125	-0.9351563	-0.8753906	-0.7945313
0.223	-0.7453125	-0.8296875	-0.534375	-0.7136719	-0.9914063	-0.8015625	-0.7242188	-0.6328125
0.224	-0.4253906	-0.50625	-0.2285156	-0.4078125	-0.6539063	-0.5378906	-0.4289063	-0.3269531
0.225	-0.02460938	-0.1054688	0.1546875	-0.02460938	-0.2320313	-0.225	-0.05976563	0.0421875
0.226	0.3445313	0.2601563	0.5132813	0.3164063	0.1652344	0.0421875	0.2707031	0.3796875
0.227	0.7277344	0.6433594	0.8789063	0.6714844	0.5871094	0.3269531	0.61875	0.7242188
0.228	1.023047	0.9316406	1.153125	0.9386719	0.9105469	0.534375	0.8859375	0.9878906
0.229	1.160156	1.061719	1.286719	1.051172	1.065234	0.61875	1.0125	1.100391
0.23	1.156641	1.051172	1.283203	1.033594	1.072266	0.5871094	0.9949219	1.075781
0.231	1.047656	0.9351563	1.174219	0.9140625	0.9597656	0.4675781	0.8683594	0.9457031
0.232	0.7910156	0.675	0.928125	0.6609375	0.6855469	0.2460938	0.6117188	0.6855469
0.233	0.3867188	0.2671875	0.5449219	0.2742188	0.2496094	-0.0703125	0.2390625	0.309375
0.234	0.00703125	-0.1054688	0.1828125	-0.07734375	-0.1511719	-0.3515625	-0.1019531	-0.03164063
0.235	-0.365625	-0.4746094	-0.1722656	-0.421875	-0.5484375	-0.6292969	-0.4359375	-0.3691406
0.236	-0.703125	-0.8050781	-0.4957031	-0.7277344	-0.9140625	-0.8683594	-0.73125	-0.6644531
0.237	-0.8894531	-0.9914063	-0.6785156	-0.8929688	-1.135547	-0.984375	-0.9035156	-0.8226563
0.238	-0.9316406	-1.026563	-0.7171875	-0.9175781	-1.195313	-0.9878906	-0.9351563	-0.84375
0.239	-0.8542969	-0.9421875	-0.6398438	-0.8261719	-1.107422	-0.9070313	-0.84375	-0.7488281
0.24	-0.6609375	-0.7453125	-0.4464844	-0.6292969	-0.8929688	-0.7382813	-0.6433594	-0.5519531
0.241	-0.2988281	-0.3796875	-0.0984375	-0.28125	-0.50625	-0.4394531	-0.3023438	-0.2109375
0.242	0.09140625	0.00703125	0.2742188	0.084375	-0.0984375	-0.1371094	0.04570313	0.1511719
0.243	0.4640625	0.3796875	0.6292969	0.4324219	0.2988281	0.1300781	0.3796875	0.4921875
0.244	0.8367188	0.7523438	0.9808594	0.7769531	0.7066406	0.4007813	0.7136719	0.8296875
0.245	1.079297	0.9914063	1.209375	0.9914063	0.9738281	0.5660156	0.9316406	1.044141
0.246	1.167188	1.072266	1.29375	1.058203	1.072266	0.6082031	1.005469	1.110938
0.247	1.121484	1.026563	1.248047	1.001953	1.033594	0.5449219	0.9492188	1.047656
0.248	0.9667969	0.871875	1.096875	0.84375	0.8753906	0.3972656	0.7875	0.8824219
0.249	0.646875	0.5449219	0.7945313	0.5308594	0.5308594	0.1300781	0.4816406	0.5730469
0.25	0.2425781	0.1335938	0.4078125	0.1476563	0.09492188	-0.1792969	0.1089844	0.1898438
0.251	-0.1230469	-0.225	0.05273438	-0.1898438	-0.2917969	-0.45	-0.2179688	-0.140625
0.252	-0.4992188	-0.5976563	-0.3058594	-0.5378906	-0.6925781	-0.7207031	-0.5484375	-0.4746094
0.253	-0.7910156	-0.8859375	-0.5871094	-0.8015625	-1.0125	-0.9210938	-0.8050781	-0.73125
0.254	-0.9316406	-1.023047	-0.7207031	-0.9175781	-1.177734	-0.9984375	-0.928125	-0.8472656
0.255	-0.9316406	-1.016016	-0.7171875	-0.9	-1.184766	-0.9703125	-0.9140625	-0.8296875
0.256	-0.815625	-0.8964844	-0.6082031	-0.7839844	-1.061719	-0.8648438	-0.7945313	-0.703125
0.257	-0.5589844	-0.6363281	-0.3691406	-0.534375	-0.7910156	-0.6539063	-0.5519531	-0.45
0.258	-0.1652344	-0.2425781	0.00703125	-0.1546875	-0.3796875	-0.3375	-0.1933594	-0.084375
0.259	0.2074219	0.1300781	0.3726563	0.1933594	0.01757813	-0.05273438	0.140625	0.2601563
0.26	0.590625	0.5132813	0.7347656	0.5484375	0.4289063	0.2179688	0.4816406	0.6082031
0.261	0.9386719	0.8542969	1.058203	0.8613281	0.8050781	0.4675781	0.7910156	0.9140625
0.262	1.125	1.037109	1.241016	1.023047	1.016016	0.5941406	0.9597656	1.075781
0.263	1.163672	1.072266	1.283203	1.047656	1.065234	0.5976563	0.9878906	1.096875
0.264	1.082813	0.9878906	1.205859	0.9597656	0.9914063	0.5097656	0.8964844	0.9984375
0.265	0.8824219	0.7839844	1.0125	0.759375	0.7804688	0.3269531	0.6925781	0.7875
0.266	0.50625	0.4078125	0.6609375	0.4007813	0.3832031	0.028125	0.3445313	0.4324219
0.267	0.1160156	0.01054688	0.28125	0.028125	-0.03515625	-0.2671875	-0.0140625	0.0703125
0.268	-0.2496094	-0.3480469	-0.06679688	-0.309375	-0.4289063	-0.5378906	-0.3445313	-0.2566406
0.269	-0.6117188	-0.7066406	-0.4148438	-0.6398438	-0.8191406	-0.8015625	-0.6679688	-0.5800781
0.27	-0.8507813	-0.9421875	-0.646875	-0.8542969	-1.086328	-0.9597656	-0.8789063	-0.7875
0.271	-0.9457031	-1.037109	-0.7417969	-0.9351563	-1.205859	-1.008984	-0.9597656	-0.8648438
0.272	-0.9105469	-0.9949219	-0.703125	-0.8824219	-1.167188	-0.9527344	-0.9105469	-0.8050781
0.273	-0.7558594	-0.8367188	-0.5519531	-0.7277344	-0.9984375	-0.8121094	-0.7523438	-0.6433594
0.274	-0.4394531	-0.5203125	-0.2460938	-0.421875	-0.6609375	-0.5554688	-0.4535156	-0.3410156
0.275	-0.03867188	-0.1230469	0.1371094	-0.03867188	-0.2355469	-0.2425781	-0.08789063	0.028125
0.276	0.3304688	0.2425781	0.4957031	0.3023438	0.1546875	0.02460938	0.2460938	0.365625
0.277	0.7171875	0.6328125	0.8613281	0.6609375	0.5765625	0.309375	0.590625	0.7136719
0.278	1.016016	0.9246094	1.142578	0.9316406	0.9035156	0.5203125	0.8578125	0.9773438
0.279	1.153125	1.054688	1.276172	1.040625	1.058203	0.6046875	0.9808594	1.093359
0.28	1.149609	1.051172	1.272656	1.026563	1.058203	0.5730469	0.9632813	1.075781
0.281	1.037109	0.9351563	1.163672	0.9105469	0.9457031	0.4535156	0.8367188	0.9457031
0.282	0.7769531	0.6679688	0.9140625	0.6574219	0.6679688	0.2320313	0.5800781	0.6855469
0.283	0.3691406	0.2636719	0.534375	0.2707031	0.2355469	-0.07734375	0.2074219	0.3058594
0.284	0	-0.1054688	0.16875	-0.07734375	-0.1652344	-0.3585938	-0.1265625	-0.03515625
0.285	-0.3726563	-0.478125	-0.1828125	-0.421875	-0.5625	-0.6363281	-0.4605469	-0.3726563
0.286	-0.7101563	-0.8121094	-0.5027344	-0.7347656	-0.9246094	-0.871875	-0.759375	-0.6714844
0.287	-0.9	-0.9949219	-0.6855469	-0.8964844	-1.139063	-0.9878906	-0.928125	-0.8332031
0.288	-0.9386719	-1.030078	-0.7277344	-0.9175781	-1.195313	-0.9914063	-0.9527344	-0.8542969
0.289	-0.8542969	-0.9457031	-0.646875	-0.8261719	-1.110938	-0.9070313	-0.8578125	-0.7523438
0.29	-0.6539063	-0.7382813	-0.4535156	-0.6257813	-0.8964844	-0.73125	-0.6609375	-0.5484375
0.291	-0.2882813	-0.365625	-0.1054688	-0.2707031	-0.5132813	-0.4324219	-0.3199219	-0.2003906
0.292	0.1019531	0.02109375	0.2671875	0.09492188	-0.1019531	-0.1335938	0.03164063	0.1582031
0.293	0.478125	0.39375	0.6257813	0.4429688	0.2988281	0.1371094	0.365625	0.4992188
0.294	0.8507813	0.7628906	0.984375	0.7839844	0.7066406	0.4042969	0.703125	0.8332031
0.295	1.089844	0.9984375	1.216406	0.9949219	0.9738281	0.5730469	0.9246094	1.044141
0.296	1.177734	1.082813	1.297266	1.061719	1.075781	0.6152344	0.9984375	1.110938
0.297	1.135547	1.037109	1.255078	1.005469	1.033594	0.5449219	0.9351563	1.047656
0.298	0.9808594	0.8789063	1.103906	0.8472656	0.8789063	0.4007813	0.7769531	0.8789063
0.299	0.6539063	0.5484375	0.7945313	0.534375	0.534375	0.1335938	0.4710938	0.5625
0.3	0.2460938	0.140625	0.4042969	0.1476563	0.09492188	-0.1792969	0.0984375	0.1828125
0.301	-0.1160156	-0.2179688	0.05273438	-0.1898438	-0.2953125	-0.45	-0.2320313	-0.1441406
0.302	-0.4921875	-0.5871094	-0.309375	-0.534375	-0.6996094	-0.7277344	-0.5695313	-0.478125
0.303	-0.7839844	-0.871875	-0.5871094	-0.7945313	-1.023047	-0.928125	-0.8261719	-0.73125
0.304	-0.9175781	-1.005469	-0.7207031	-0.9140625	-1.18125	-1.001953	-0.9457031	-0.84375
0.305	-0.9140625	-0.9984375	-0.7171875	-0.9	-1.184766	-0.9773438	-0.928125	-0.8226563
0.306	-0.7980469	-0.8789063	-0.6046875	-0.7734375	-1.061719	-0.8683594	-0.8050781	-0.6925781
0.307	-0.5414063	-0.61875	-0.3550781	-0.5203125	-0.7875	-0.6503906	-0.5589844	-0.4394531
0.308	-0.1441406	-0.225	0.01757813	-0.1441406	-0.3691406	-0.3375	-0.1933594	-0.0703125
0.309	0.2285156	0.1476563	0.3796875	0.2109375	0.02460938	-0.05273438	0.1441406	0.2742188
0.31	0.6082031	0.534375	0.7453125	0.5695313	0.4429688	0.2285156	0.4921875	0.61875
0.311	0.9527344	0.8683594	1.06875	0.8789063	0.815625	0.4746094	0.8015625	0.9246094
0.312	1.142578	1.051172	1.248047	1.040625	1.023047	0.5976563	0.9703125	1.089844
0.313	1.184766	1.082813	1.286719	1.061719	1.072266	0.6011719	0.9949219	1.110938
0.314	1.103906	1.001953	1.205859	0.9738281	0.9914063	0.50625	0.9	1.008984
0.315	0.8964844	0.7980469	1.0125	0.7734375	0.7734375	0.3269531	0.6890625	0.7980469
0.316	0.5203125	0.4148438	0.6574219	0.4078125	0.3726563	0.028125	0.3375	0.4359375
0.317	0.1230469	0.01757813	0.2777344	0.03515625	-0.04570313	-0.2671875	-0.0140625	0.0703125
0.318	-0.2390625	-0.3410156	-0.06679688	-0.2988281	-0.4289063	-0.534375	-0.3375	-0.253125
0.319	-0.6046875	-0.703125	-0.4148438	-0.6363281	-0.8191406	-0.8015625	-0.6644531	-0.5765625
0.32	-0.8542969	-0.9421875	-0.6539063	-0.8578125	-1.096875	-0.9667969	-0.8859375	-0.7910156
0.321	-0.9421875	-1.026563	-0.7382813	-0.928125	-1.209375	-1.008984	-0.9597656	-0.8613281
0.322	-0.8929688	-0.9738281	-0.6890625	-0.8683594	-1.163672	-0.9457031	-0.9035156	-0.7945313
0.323	-0.7382813	-0.815625	-0.5414063	-0.7101563	-1.001953	-0.8121094	-0.7488281	-0.6292969
0.324	-0.4183594	-0.4957031	-0.2355469	-0.4042969	-0.6609375	-0.5484375	-0.45	-0.3234375
0.325	-0.0140625	-0.09492188	0.1476563	-0.02109375	-0.2320313	-0.2320313	-0.08085938	0.04570313
0.326	0.3515625	0.2742188	0.5097656	0.3234375	0.1617188	0.03867188	0.253125	0.3832031
0.327	0.7382813	0.6609375	0.8753906	0.6820313	0.5800781	0.3234375	0.5976563	0.73125
0.328	1.030078	0.9492188	1.149609	0.9457031	0.9035156	0.5308594	0.8648438	0.9949219
0.329	1.163672	1.075781	1.283203	1.054688	1.054688	0.6117188	0.984375	1.103906
0.33	1.160156	1.065234	1.279688	1.030078	1.054688	0.5730469	0.9667969	1.079297
0.331	1.044141	0.9492188	1.167188	0.9105469	0.9386719	0.4535156	0.8402344	0.9457031
0.332	0.7839844	0.6820313	0.9175781	0.6539063	0.6609375	0.2285156	0.5835938	0.6820313
0.333	0.3761719	0.2742188	0.5378906	0.2707031	0.225	-0.084375	0.2109375	0.3023438
0.334	0	-0.0984375	0.1722656	-0.08085938	-0.1722656	-0.365625	-0.1265625	-0.03867188
0.335	-0.3691406	-0.4710938	-0.1792969	-0.4253906	-0.5660156	-0.6398438	-0.4570313	-0.3761719
0.336	-0.7066406	-0.8015625	-0.4957031	-0.73125	-0.928125	-0.8753906	-0.7558594	-0.6714844
0.337	-0.8929688	-0.984375	-0.6820313	-0.8929688	-1.142578	-0.9914063	-0.9210938	-0.8332031
0.338	-0.9351563	-1.019531	-0.7171875	-0.9175781	-1.195313	-0.9878906	-0.9457031	-0.8542969
0.339	-0.8542969	-0.9351563	-0.6363281	-0.8261719	-1.107422	-0.9070313	-0.8507813	-0.7558594
0.34	-0.6539063	-0.73125	-0.4464844	-0.6292969	-0.8929688	-0.7347656	-0.6539063	-0.5519531
0.341	-0.28125	-0.3585938	-0.09492188	-0.2742188	-0.5097656	-0.4324219	-0.3128906	-0.2039063
0.342	0.1125	0.03164063	0.2847656	0.09492188	-0.09492188	-0.1371094	0.03867188	0.1582031
0.343	0.4851563	0.4042969	0.6433594	0.4429688	0.3058594	0.1335938	0.3726563	0.5027344
0.344	0.8578125	0.7769531	0.9949219	0.7875	0.7101563	0.4078125	0.7101563	0.8367188
0.345	1.100391	1.0125	1.223438	0.9984375	0.9773438	0.5730469	0.9246094	1.047656
0.346	1.184766	1.093359	1.307813	1.061719	1.079297	0.6152344	1.001953	1.114453
0.347	1.139063	1.044141	1.262109	1.008984	1.033594	0.5484375	0.9457031	1.051172
0.348	0.984375	0.8894531	1.110938	0.8542969	0.871875	0.4007813	0.7804688	0.8859375
0.349	0.6609375	0.5625	0.8050781	0.5414063	0.5273438	0.1335938	0.4710938	0.5730469
0.35	0.2496094	0.1546875	0.4183594	0.1546875	0.08789063	-0.1792969	0.09492188	0.1933594
0.351	-0.1160156	-0.2074219	0.05976563	-0.1863281	-0.2988281	-0.45	-0.2320313	-0.1335938
0.352	-0.4921875	-0.5835938	-0.2988281	-0.534375	-0.6996094	-0.7277344	-0.5660156	-0.4710938
0.353	-0.7839844	-0.8683594	-0.5730469	-0.7980469	-1.016016	-0.928125	-0.8226563	-0.7277344
0.354	-0.9175781	-1.001953	-0.7066406	-0.9140625	-1.177734	-1.005469	-0.9421875	-0.8402344
0.355	-0.9140625	-0.9914063	-0.703125	-0.8964844	-1.184766	-0.9738281	-0.9246094	-0.815625
0.356	-0.8015625	-0.871875	-0.590625	-0.7734375	-1.061719	-0.8578125	-0.7980469	-0.6855469
0.357	-0.5449219	-0.6117188	-0.3445313	-0.5203125	-0.7839844	-0.6398438	-0.5449219	-0.4359375
0.358	-0.1546875	-0.2179688	0.03164063	-0.1476563	-0.365625	-0.3234375	-0.1828125	-0.0703125
0.359	0.2214844	0.1476563	0.4007813	0.2003906	0.03164063	-0.04921875	0.1546875	0.2671875
0.36	0.6082031	0.5273438	0.7664063	0.5589844	0.45	0.2285156	0.4992188	0.6152344
0.361	0.9492188	0.8683594	1.086328	0.8683594	0.8191406	0.4746094	0.8050781	0.9210938
0.362	1.135547	1.047656	1.269141	1.030078	1.019531	0.5976563	0.9703125	1.082813
0.363	1.174219	1.082813	1.304297	1.051172	1.06875	0.6011719	0.9949219	1.103906
0.364	1.093359	0.9984375	1.226953	0.9597656	0.9914063	0.5027344	0.9035156	0.9984375
0.365	0.8929688	0.7875	1.030078	0.7558594	0.7734375	0.3164063	0.6925781	0.7875
0.366	0.5167969	0.4078125	0.675	0.39375	0.3726563	0.00703125	0.3375	0.4289063
0.367	0.1300781	0.01757813	0.3023438	0.028125	-0.0421875	-0.28125	-0.0140625	0.0703125
0.368	-0.2390625	-0.3445313	-0.04921875	-0.3128906	-0.4359375	-0.5519531	-0.3445313	-0.2601563
0.369	-0.6152344	-0.7136719	-0.4113281	-0.6574219	-0.8367188	-0.8226563	-0.6785156	-0.590625
0.37	-0.8578125	-0.9527344	-0.6433594	-0.8753906	-1.103906	-0.984375	-0.8929688	-0.8015625
0.371	-0.9421875	-1.033594	-0.7207031	-0.9421875	-1.205859	-1.016016	-0.9597656	-0.8683594
0.372	-0.8964844	-0.9773438	-0.6785156	-0.8789063	-1.163672	-0.9527344	-0.9035156	-0.7980469
0.373	-0.7453125	-0.8191406	-0.5308594	-0.7207031	-0.9949219	-0.8191406	-0.7453125	-0.6363281
0.374	-0.4253906	-0.4992188	-0.225	-0.4078125	-0.6609375	-0.5519531	-0.4464844	-0.3304688
0.375	-0.02109375	-0.09492188	0.1582031	-0.02460938	-0.2390625	-0.2320313	-0.08085938	0.0421875
0.376	0.3480469	0.2742188	0.5167969	0.3234375	0.1511719	0.03515625	0.2496094	0.3796875
0.377	0.7382813	0.6609375	0.8894531	0.6820313	0.5730469	0.3199219	0.5941406	0.7347656
0.378	1.033594	0.9527344	1.167188	0.9457031	0.8964844	0.5238281	0.8578125	0.9984375
0.379	1.167188	1.082813	1.29375	1.054688	1.044141	0.6082031	0.9808594	1.110938
0.38	1.156641	1.06875	1.290234	1.037109	1.044141	0.5765625	0.9632813	1.082813
0.381	1.037109	0.9527344	1.177734	0.9175781	0.9316406	0.4535156	0.8332031	0.9492188
0.382	0.7769531	0.6820313	0.928125	0.6574219	0.6539063	0.2285156	0.5765625	0.6890625
0.383	0.3726563	0.2742188	0.5449219	0.2707031	0.2179688	-0.08789063	0.2039063	0.3058594
0.384	-0.00703125	-0.1054688	0.1792969	-0.084375	-0.1792969	-0.3691406	-0.1335938	-0.03867188
0.385	-0.3796875	-0.478125	-0.1757813	-0.4359375	-0.5765625	-0.6503906	-0.4675781	-0.3726563
0.386	-0.7136719	-0.8085938	-0.4921875	-0.7347656	-0.9386719	-0.8894531	-0.7628906	-0.6679688
0.387	-0.9035156	-0.9878906	-0.675	-0.8929688	-1.153125	-0.9949219	-0.928125	-0.8296875
0.388	-0.9386719	-1.019531	-0.7101563	-0.9140625	-1.209375	-0.9914063	-0.9527344	-0.8472656
0.389	-0.8578125	-0.928125	-0.6328125	-0.8226563	-1.125	-0.9070313	-0.8613281	-0.7453125
0.39	-0.6539063	-0.7207031	-0.4359375	-0.61875	-0.9070313	-0.7277344	-0.6609375	-0.5378906
0.391	-0.28125	-0.3515625	-0.07734375	-0.2636719	-0.5132813	-0.4253906	-0.3128906	-0.1898438
0.392	0.1089844	0.03515625	0.2988281	0.1019531	-0.09492188	-0.1300781	0.03867188	0.16875
0.393	0.4886719	0.4148438	0.6574219	0.4464844	0.3058594	0.140625	0.3761719	0.5132813
0.394	0.8613281	0.7875	1.005469	0.7910156	0.7136719	0.4113281	0.7101563	0.8507813
0.395	1.100391	1.023047	1.233984	1.001953	0.9773438	0.5765625	0.9246094	1.061719
0.396	1.18125	1.100391	1.314844	1.061719	1.072266	0.6152344	0.9949219	1.121484
0.397	1.128516	1.047656	1.265625	1.001953	1.030078	0.5449219	0.9386719	1.054688
0.398	0.9738281	0.8894531	1.117969	0.84375	0.871875	0.4007813	0.7769531	0.8859375
0.399	0.646875	0.5554688	0.8085938	0.5273438	0.5238281	0.1300781	0.4675781	0.5660156
0.4	0.2390625	0.1476563	0.4183594	0.1441406	0.08789063	-0.1828125	0.09140625	0.1863281
0.401	-0.1230469	-0.2144531	0.06679688	-0.1898438	-0.3058594	-0.4535156	-0.2390625	-0.140625
0.402	-0.5027344	-0.5835938	-0.2988281	-0.5378906	-0.7101563	-0.73125	-0.5730469	-0.478125
0.403	-0.7910156	-0.8683594	-0.5765625	-0.7980469	-1.026563	-0.9246094	-0.8296875	-0.73125
0.404	-0.9246094	-1.001953	-0.7066406	-0.9140625	-1.188281	-0.9984375	-0.9492188	-0.84375
0.405	-0.9210938	-0.9914063	-0.6996094	-0.8964844	-1.188281	-0.9667969	-0.9246094	-0.8191406
0.406	-0.8050781	-0.871875	-0.5835938	-0.7699219	-1.058203	-0.8578125	-0.7980469	-0.6890625
0.407	-0.5414063	-0.6082031	-0.3304688	-0.5167969	-0.7839844	-0.6433594	-0.5519531	-0.4359375
0.408	-0.1441406	-0.2074219	0.04570313	-0.1335938	-0.365625	-0.3199219	-0.1828125	-0.06328125
0.409	0.2285156	0.1652344	0.4148438	0.2179688	0.03164063	-0.03515625	0.1546875	0.28125
0.41	0.6152344	0.5519531	0.7804688	0.5730469	0.45	0.2390625	0.4992188	0.6257813
0.411	0.9527344	0.8859375	1.100391	0.8789063	0.8191406	0.4851563	0.8085938	0.928125
0.412	1.135547	1.061719	1.276172	1.037109	1.026563	0.6011719	0.9738281	1.082813
0.413	1.174219	1.089844	1.314844	1.054688	1.072266	0.5976563	0.9949219	1.103906
0.414	1.089844	1.005469	1.233984	0.9632813	0.9914063	0.5027344	0.9	1.005469
0.415	0.8859375	0.7980469	1.037109	0.7628906	0.7769531	0.3199219	0.6925781	0.7945313
0.416	0.5097656	0.421875	0.6855469	0.4042969	0.3796875	0.02460938	0.3445313	0.4359375
0.417	0.1125	0.02460938	0.3058594	0.028125	-0.03867188	-0.2671875	-0.01054688	0.07382813
0.418	-0.2601563	-0.3445313	-0.04921875	-0.3128906	-0.4394531	-0.5484375	-0.3480469	-0.2601563
0.419	-0.6257813	-0.7066406	-0.3972656	-0.6503906	-0.8332031	-0.8191406	-0.675	-0.5871094
0.42	-0.8613281	-0.9351563	-0.6257813	-0.8613281	-1.096875	-0.9703125	-0.8824219	-0.7945313
0.421	-0.9421875	-1.016016	-0.7066406	-0.928125	-1.205859	-1.005469	-0.9527344	-0.8578125
0.422	-0.9	-0.9632813	-0.6609375	-0.8683594	-1.156641	-0.9421875	-0.8964844	-0.7910156
0.423	-0.7453125	-0.8050781	-0.50625	-0.7066406	-0.9878906	-0.8050781	-0.7347656	-0.6292969
0.424	-0.4183594	-0.4816406	-0.1933594	-0.3972656	-0.646875	-0.5378906	-0.4324219	-0.3234375
0.425	-0.02109375	-0.08085938	0.1898438	-0.01757813	-0.225	-0.225	-0.06679688	0.04570313
0.426	0.3445313	0.28125	0.5449219	0.3269531	0.1652344	0.0421875	0.2671875	0.3832031
0.427	0.73125	0.6679688	0.9070313	0.6820313	0.5835938	0.3269531	0.6152344	0.7277344
0.428	1.019531	0.95625	1.18125	0.9457031	0.9070313	0.534375	0.8789063	0.9878906
0.429	1.153125	1.079297	1.307813	1.054688	1.054688	0.6117188	0.9949219	1.100391
0.43	1.146094	1.065234	1.300781	1.030078	1.051172	0.5730469	0.9703125	1.072266
0.431	1.030078	0.9492188	1.188281	0.9070313	0.9351563	0.45	0.84375	0.9386719
0.432	0.7628906	0.6785156	0.9386719	0.6398438	0.6539063	0.225	0.5835938	0.6679688
0.433	0.3550781	0.2671875	0.5519531	0.253125	0.2179688	-0.08789063	0.2109375	0.2847656
0.434	-0.01757813	-0.1089844	0.1863281	-0.0984375	-0.1792969	-0.3691406	-0.1230469	-0.05625
0.435	-0.39375	-0.4816406	-0.16875	-0.4429688	-0.5835938	-0.646875	-0.4605469	-0.3902344
0.436	-0.7277344	-0.8085938	-0.4921875	-0.7453125	-0.9492188	-0.8859375	-0.759375	-0.6855469
0.437	-0.9105469	-0.9878906	-0.675	-0.9070313	-1.167188	-1.001953	-0.928125	-0.84375
0.438	-0.9457031	-1.019531	-0.7101563	-0.9246094	-1.219922	-0.9984375	-0.95625	-0.8578125
0.439	-0.8578125	-0.928125	-0.6257813	-0.8296875	-1.132031	-0.9105469	-0.8613281	-0.7558594
0.44	-0.6574219	-0.7207031	-0.4289063	-0.6292969	-0.9105469	-0.7347656	-0.6574219	-0.5519531
0.441	-0.2847656	-0.3480469	-0.07382813	-0.2742188	-0.5167969	-0.4324219	-0.3128906	-0.196875
0.442	0.1054688	0.03867188	0.3023438	0.09492188	-0.1019531	-0.1300781	0.03867188	0.1617188
0.443	0.4816406	0.4148438	0.6609375	0.4464844	0.2988281	0.140625	0.3761719	0.5027344
0.444	0.8542969	0.7839844	1.008984	0.7875	0.7066406	0.4078125	0.7101563	0.8367188
0.445	1.089844	1.016016	1.2375	0.9949219	0.9703125	0.5730469	0.9246094	1.047656
0.446	1.174219	1.093359	1.318359	1.058203	1.06875	0.6152344	0.9984375	1.110938
0.447	1.128516	1.040625	1.269141	0.9984375	1.030078	0.5449219	0.9386719	1.040625
0.448	0.9703125	0.8789063	1.117969	0.8402344	0.871875	0.39375	0.7734375	0.8683594
0.449	0.6398438	0.5449219	0.8085938	0.5238281	0.5203125	0.1230469	0.4570313	0.5449219
0.45	0.2320313	0.1335938	0.421875	0.1335938	0.07734375	-0.1898438	0.084375	0.16875
0.451	-0.1335938	-0.2285156	0.06679688	-0.2074219	-0.3128906	-0.4640625	-0.2460938	-0.1617188
0.452	-0.5097656	-0.6011719	-0.2953125	-0.5519531	-0.7171875	-0.7417969	-0.5800781	-0.4992188
0.453	-0.7980469	-0.8824219	-0.5730469	-0.8121094	-1.037109	-0.9351563	-0.8367188	-0.7523438
0.454	-0.9316406	-1.008984	-0.703125	-0.9246094	-1.195313	-1.005469	-0.95625	-0.8648438
0.455	-0.9210938	-0.9984375	-0.6925781	-0.9035156	-1.195313	-0.9738281	-0.9351563	-0.8367188
0.456	-0.8050781	-0.8789063	-0.5765625	-0.7769531	-1.061719	-0.8648438	-0.8085938	-0.7066406
0.457	-0.5378906	-0.6152344	-0.3199219	-0.5167969	-0.7804688	-0.6503906	-0.5589844	-0.45
0.458	-0.1371094	-0.2144531	0.06328125	-0.1371094	-0.3621094	-0.3339844	-0.1933594	-0.07734375
0.459	0.2390625	0.1582031	0.4289063	0.2109375	0.03515625	-0.05273438	0.1441406	0.2707031
0.46	0.6257813	0.5449219	0.7945313	0.5695313	0.45	0.2320313	0.4921875	0.6152344
0.461	0.95625	0.8789063	1.103906	0.8789063	0.8261719	0.4816406	0.7980469	0.9175781
0.462	1.135547	1.054688	1.283203	1.037109	1.026563	0.6011719	0.9667969	1.072266
0.463	1.170703	1.086328	1.318359	1.054688	1.072266	0.6011719	0.9878906	1.089844
0.464	1.086328	0.9984375	1.233984	0.9632813	0.9914063	0.5027344	0.8929688	0.984375
0.465	0.8859375	0.7945313	1.040625	0.7628906	0.7804688	0.3199219	0.6855469	0.7734375
0.466	0.50625	0.4113281	0.6820313	0.4007813	0.3761719	0.01757813	0.3304688	0.4148438
0.467	0.1054688	0.01054688	0.2988281	0.02460938	-0.05273438	-0.2847656	-0.03515625	0.04570313
0.468	-0.2601563	-0.3480469	-0.05625	-0.3128906	-0.45	-0.5589844	-0.3691406	-0.28125
0.469	-0.61875	-0.703125	-0.4007813	-0.6433594	-0.8367188	-0.8191406	-0.6890625	-0.6011719
0.47	-0.8542969	-0.9386719	-0.6292969	-0.8542969	-1.100391	-0.9703125	-0.8964844	-0.8085938
0.471	-0.9386719	-1.023047	-0.7101563	-0.9210938	-1.205859	-1.001953	-0.9632813	-0.871875
0.472	-0.8929688	-0.9703125	-0.6609375	-0.8613281	-1.156641	-0.9386719	-0.9	-0.8015625
0.473	-0.7382813	-0.8050781	-0.5097656	-0.6996094	-0.9878906	-0.7980469	-0.7347656	-0.6328125
0.474	-0.4113281	-0.478125	-0.2003906	-0.3867188	-0.6433594	-0.5378906	-0.4359375	-0.3234375
0.475	-0.003515625	-0.07382813	0.1863281	-0.003515625	-0.2179688	-0.225	-0.0703125	0.04921875
0.476	0.3621094	0.2917969	0.5449219	0.3410156	0.1757813	0.04921875	0.2601563	0.3867188
0.477	0.7488281	0.6785156	0.9070313	0.6996094	0.5976563	0.3339844	0.6082031	0.7347656
0.478	1.040625	0.9703125	1.18125	0.9597656	0.9175781	0.5378906	0.871875	0.9949219
0.479	1.174219	1.093359	1.311328	1.06875	1.065234	0.6152344	0.9878906	1.103906
0.48	1.163672	1.079297	1.300781	1.044141	1.058203	0.5765625	0.9632813	1.075781
0.481	1.044141	0.9597656	1.18125	0.9210938	0.9386719	0.4570313	0.8332031	0.9421875
0.482	0.7804688	0.6890625	0.928125	0.6609375	0.6539063	0.2285156	0.5730469	0.6785156
0.483	0.3726563	0.28125	0.5484375	0.2742188	0.2179688	-0.084375	0.196875	0.2988281
0.484	0	-0.09140625	0.1863281	-0.07382813	-0.1792969	-0.365625	-0.140625	-0.0421875
0.485	-0.3726563	-0.4640625	-0.16875	-0.421875	-0.5730469	-0.6433594	-0.4710938	-0.3761719
0.486	-0.703125	-0.7910156	-0.4851563	-0.7242188	-0.9316406	-0.8753906	-0.7664063	-0.6714844
0.487	-0.8894531	-0.9703125	-0.6644531	-0.8859375	-1.142578	-0.9878906	-0.928125	-0.8296875
0.488	-0.928125	-1.001953	-0.6996094	-0.9035156	-1.195313	-0.9878906	-0.9492188	-0.8472656
0.489	-0.84375	-0.9175781	-0.61875	-0.8085938	-1.103906	-0.9035156	-0.8542969	-0.7453125
0.49	-0.6363281	-0.703125	-0.421875	-0.6046875	-0.8859375	-0.7242188	-0.6539063	-0.534375
0.491	-0.2636719	-0.3304688	-0.06328125	-0.2496094	-0.4921875	-0.421875	-0.309375	-0.1828125
0.492	0.1265625	0.05976563	0.3164063	0.1195313	-0.07734375	-0.1230469	0.0421875	0.1722656
0.493	0.5027344	0.4359375	0.6785156	0.4710938	0.3234375	0.1476563	0.3832031	0.5167969
0.494	0.871875	0.8050781	1.023047	0.8085938	0.7277344	0.421875	0.7171875	0.8472656
0.495	1.107422	1.030078	1.244531	1.016016	0.9878906	0.5800781	0.9316406	1.051172
0.496	1.188281	1.107422	1.325391	1.075781	1.079297	0.6152344	0.9984375	1.114453
0.497	1.142578	1.054688	1.276172	1.016016	1.033594	0.5449219	0.9351563	1.047656
0.498	0.9878906	0.8964844	1.121484	0.8578125	0.871875	0.39375	0.7699219	0.8789063
0.499	0.6539063	0.5625	0.8085938	0.534375	0.5167969	0.1230469	0.4535156	0.5589844
0.5	0.2460938	0.1511719	0.421875	0.1476563	0.084375	-0.1863281	0.08085938	0.1792969
0.501	-0.1195313	-0.2109375	0.06679688	-0.1933594	-0.3023438	-0.4535156	-0.2425781	-0.1546875
0.502	-0.4992188	-0.5835938	-0.2953125	-0.5414063	-0.7101563	-0.73125	-0.5800781	-0.4921875
0.503	-0.7839844	-0.8683594	-0.5695313	-0.8015625	-1.030078	-0.9316406	-0.8367188	-0.7417969
0.504	-0.9175781	-0.9949219	-0.6996094	-0.9140625	-1.188281	-1.001953	-0.9492188	-0.8542969
0.505	-0.9105469	-0.9808594	-0.6925781	-0.8894531	-1.188281	-0.9703125	-0.928125	-0.8261719
0.506	-0.7910156	-0.8578125	-0.5730469	-0.7628906	-1.054688	-0.8613281	-0.7980469	-0.6960938
0.507	-0.5273438	-0.5941406	-0.3199219	-0.5027344	-0.7664063	-0.6328125	-0.5378906	-0.4359375
0.508	-0.1300781	-0.196875	0.05625	-0.1195313	-0.3445313	-0.3128906	-0.1652344	-0.06328125
0.509	0.2425781	0.1757813	0.421875	0.2285156	0.05273438	-0.03164063	0.1722656	0.2777344
0.51	0.6292969	0.5625	0.7875	0.5835938	0.4746094	0.2460938	0.5167969	0.6222656
0.511	0.9632813	0.8929688	1.103906	0.8894531	0.84375	0.4921875	0.8191406	0.9246094
0.512	1.146094	1.06875	1.276172	1.047656	1.040625	0.6082031	0.984375	1.079297
0.513	1.18125	1.100391	1.311328	1.065234	1.086328	0.6082031	1.005469	1.096875
0.514	1.103906	1.019531	1.233984	0.9773438	1.008984	0.5167969	0.9070313	1.001953
0.515	0.8964844	0.8085938	1.033594	0.7699219	0.7875	0.3269531	0.6960938	0.7839844
0.516	0.5097656	0.4148438	0.6679688	0.39375	0.3726563	0.01054688	0.3304688	0.4148438
0.517	0.1125	0.01757813	0.2917969	0.01757813	-0.04921875	-0.2847656	-0.028125	0.05273438
0.518	-0.2460938	-0.3375	-0.05625	-0.3128906	-0.4359375	-0.5554688	-0.3550781	-0.2742188
0.519	-0.6082031	-0.6925781	-0.4007813	-0.6433594	-0.8226563	-0.815625	-0.675	-0.590625
0.52	-0.84375	-0.9210938	-0.6292969	-0.8507813	-1.086328	-0.9632813	-0.8824219	-0.7945313
0.521	-0.9246094	-0.9984375	-0.7066406	-0.9140625	-1.188281	-0.9949219	-0.9492188	-0.8578125
0.522	-0.871875	-0.9421875	-0.6574219	-0.8507813	-1.139063	-0.9316406	-0.8894531	-0.7875
0.523	-0.7171875	-0.7839844	-0.5027344	-0.6925781	-0.9632813	-0.7945313	-0.7277344	-0.61875
0.524	-0.3902344	-0.4570313	-0.1898438	-0.3761719	-0.61875	-0.5273438	-0.421875	-0.309375
0.525	0.01054688	-0.05273438	0.1933594	0	-0.2003906	-0.2144531	-0.05976563	0.05625
0.526	0.3832031	0.3128906	0.5484375	0.3480469	0.1933594	0.04921875	0.2671875	0.39375
0.527	0.7699219	0.6996094	0.9105469	0.6996094	0.6117188	0.3339844	0.6152344	0.7417969
0.528	1.054688	0.9808594	1.184766	0.9597656	0.928125	0.5378906	0.8753906	0.9949219
0.529	1.177734	1.103906	1.307813	1.06875	1.072266	0.6152344	0.9878906	1.100391
0.53	1.163672	1.086328	1.29375	1.044141	1.072266	0.5765625	0.9667969	1.06875
0.531	1.047656	0.9667969	1.18125	0.9210938	0.95625	0.4535156	0.8367188	0.9351563
0.532	0.7769531	0.6925781	0.928125	0.6539063	0.6714844	0.225	0.5730469	0.6679688
0.533	0.365625	0.2777344	0.5449219	0.2671875	0.2320313	-0.08789063	0.196875	0.2847656
0.534	-0.00703125	-0.09140625	0.1792969	-0.08085938	-0.1617188	-0.3691406	-0.1371094	-0.05625
0.535	-0.3796875	-0.4605469	-0.1757813	-0.4253906	-0.5625	-0.646875	-0.4710938	-0.3902344
0.536	-0.7101563	-0.7875	-0.4886719	-0.7242188	-0.9210938	-0.8789063	-0.7628906	-0.6820313
0.537	-0.8859375	-0.9632813	-0.6679688	-0.8789063	-1.128516	-0.9914063	-0.9246094	-0.8367188
0.538	-0.9175781	-0.9949219	-0.703125	-0.9	-1.177734	-0.9914063	-0.9457031	-0.8542969
0.539	-0.8332031	-0.9070313	-0.61875	-0.8085938	-1.086328	-0.9035156	-0.8507813	-0.7488281
0.54	-0.6292969	-0.6960938	-0.4183594	-0.6011719	-0.8648438	-0.7242188	-0.6433594	-0.5414063
0.541	-0.2566406	-0.3199219	-0.06328125	-0.2460938	-0.4746094	-0.421875	-0.2988281	-0.1898438
0.542	0.1300781	0.06328125	0.309375	0.1230469	-0.06328125	-0.1265625	0.04921875	0.1652344
0.543	0.50625	0.4394531	0.6679688	0.4710938	0.3375	0.1441406	0.39375	0.5097656
0.544	0.8753906	0.8085938	1.0125	0.8085938	0.7417969	0.4148438	0.7277344	0.8402344
0.545	1.107422	1.037109	1.2375	1.016016	1.001953	0.5730469	0.9386719	1.040625
0.546	1.18125	1.103906	1.314844	1.072266	1.089844	0.6117188	1.005469	1.096875
0.547	1.128516	1.047656	1.258594	1.008984	1.040625	0.5414063	0.9386719	1.026563
0.548	0.9738281	0.8894531	1.107422	0.8472656	0.8789063	0.3867188	0.7734375	0.8542969
0.549	0.6433594	0.5554688	0.7980469	0.5273438	0.5238281	0.1160156	0.4570313	0.534375
0.55	0.2285156	0.140625	0.4042969	0.1371094	0.09140625	-0.1933594	0.08085938	0.1546875
0.551	-0.1371094	-0.2214844	0.04921875	-0.2003906	-0.2953125	-0.4605469	-0.2425781	-0.1757813
0.552	-0.5097656	-0.590625	-0.3058594	-0.5414063	-0.6960938	-0.7382813	-0.5765625	-0.5097656
0.553	-0.7875	-0.8683594	-0.5765625	-0.7980469	-1.008984	-0.9351563	-0.8296875	-0.7523438
0.554	-0.9175781	-0.9914063	-0.703125	-0.9070313	-1.163672	-1.005469	-0.9421875	-0.8613281
0.555	-0.9070313	-0.9773438	-0.6925781	-0.8789063	-1.163672	-0.9667969	-0.9210938	-0.8296875
0.556	-0.7875	-0.8507813	-0.5765625	-0.7523438	-1.037109	-0.8578125	-0.7945313	-0.6925781
0.557	-0.5203125	-0.5835938	-0.3234375	-0.4921875	-0.7523438	-0.6328125	-0.5414063	-0.4324219
0.558	-0.1230469	-0.1863281	0.05625	-0.1125	-0.3339844	-0.3164063	-0.1757813	-0.06328125
0.559	0.2460938	0.1828125	0.4183594	0.2355469	0.06328125	-0.03515625	0.1582031	0.28125
0.56	0.6328125	0.5695313	0.7839844	0.590625	0.4746094	0.2390625	0.5027344	0.6257813
0.561	0.9632813	0.9	1.100391	0.8964844	0.8402344	0.4816406	0.8015625	0.928125
0.562	1.142578	1.072266	1.272656	1.051172	1.037109	0.5976563	0.9667969	1.082813
0.563	1.177734	1.103906	1.307813	1.06875	1.086328	0.5976563	0.9878906	1.103906
0.564	1.093359	1.019531	1.223438	0.9808594	1.001953	0.5027344	0.8894531	0.9984375
0.565	0.8753906	0.7980469	1.019531	0.7664063	0.7734375	0.309375	0.675	0.7734375
0.566	0.4921875	0.4113281	0.6574219	0.3972656	0.365625	0.003515625	0.3199219	0.4078125
0.567	0.1054688	0.01757813	0.2882813	0.028125	-0.0421875	-0.2847656	-0.03164063	0.04921875
0.568	-0.2601563	-0.3445313	-0.05976563	-0.3128906	-0.4289063	-0.5589844	-0.3585938	-0.2777344
0.569	-0.6222656	-0.6996094	-0.4078125	-0.6433594	-0.815625	-0.8191406	-0.675	-0.5941406
0.57	-0.8578125	-0.9246094	-0.6328125	-0.8472656	-1.079297	-0.9667969	-0.8824219	-0.7945313
0.571	-0.9351563	-1.001953	-0.7066406	-0.9070313	-1.18125	-0.9984375	-0.9492188	-0.8542969
0.572	-0.8824219	-0.9492188	-0.6539063	-0.84375	-1.128516	-0.9351563	-0.8859375	-0.7875
0.573	-0.7242188	-0.7875	-0.4992188	-0.6855469	-0.95625	-0.7945313	-0.7242188	-0.6222656
0.574	-0.3972656	-0.4605469	-0.1863281	-0.365625	-0.6152344	-0.5273438	-0.4183594	-0.309375
0.575	0	-0.05976563	0.196875	0.01054688	-0.196875	-0.2109375	-0.05273438	0.05625
0.576	0.3691406	0.309375	0.5554688	0.3550781	0.196875	0.05625	0.2777344	0.3972656
0.577	0.7558594	0.6960938	0.9175781	0.7136719	0.6117188	0.3375	0.61875	0.7488281
0.578	1.040625	0.9738281	1.188281	0.9703125	0.928125	0.5378906	0.8753906	0.9984375
0.579	1.167188	1.093359	1.311328	1.072266	1.072266	0.6117188	0.9878906	1.100391
0.58	1.153125	1.075781	1.297266	1.044141	1.065234	0.5695313	0.9632813	1.06875
0.581	1.033594	0.9527344	1.177734	0.9210938	0.9457031	0.4464844	0.8367188	0.9351563
0.582	0.759375	0.6820313	0.9246094	0.6609375	0.6609375	0.2179688	0.5730469	0.6644531
0.583	0.3550781	0.2707031	0.5378906	0.2707031	0.2214844	-0.0984375	0.196875	0.2847656
0.584	-0.01757813	-0.1019531	0.1757813	-0.07734375	-0.1722656	-0.3796875	-0.1371094	-0.05273438
0.585	-0.3902344	-0.4746094	-0.1792969	-0.421875	-0.5730469	-0.6539063	-0.4675781	-0.3902344
0.586	-0.7207031	-0.7945313	-0.4957031	-0.7207031	-0.9316406	-0.8859375	-0.759375	-0.6785156
0.587	-0.9035156	-0.9703125	-0.6714844	-0.8789063	-1.135547	-0.9949219	-0.9210938	-0.8332031
0.588	-0.9351563	-1.001953	-0.703125	-0.8964844	-1.184766	-0.9914063	-0.9421875	-0.84375
0.589	-0.8472656	-0.9140625	-0.61875	-0.8050781	-1.093359	-0.9070313	-0.84375	-0.7417969
0.59	-0.6398438	-0.703125	-0.4183594	-0.5976563	-0.871875	-0.7277344	-0.6398438	-0.5308594
0.591	-0.2671875	-0.3269531	-0.06328125	-0.2355469	-0.478125	-0.4253906	-0.2917969	-0.1792969
0.592	0.1195313	0.05625	0.309375	0.1300781	-0.06679688	-0.1265625	0.05625	0.1792969
0.593	0.4957031	0.4324219	0.6679688	0.4746094	0.3304688	0.1476563	0.3902344	0.5203125
0.594	0.8648438	0.8015625	1.0125	0.8121094	0.73125	0.4148438	0.7207031	0.8472656
0.595	1.093359	1.026563	1.233984	1.016016	0.9914063	0.5730469	0.9316406	1.047656
0.596	1.174219	1.096875	1.307813	1.075781	1.079297	0.6046875	1.001953	1.103906
0.597	1.121484	1.044141	1.258594	1.0125	1.033594	0.5308594	0.9351563	1.033594
0.598	0.9597656	0.8789063	1.100391	0.8472656	0.8683594	0.3796875	0.7664063	0.8613281
0.599	0.6257813	0.5449219	0.7875	0.5238281	0.5132813	0.1089844	0.45	0.5378906
0.6	0.2214844	0.1371094	0.4007813	0.1371094	0.07382813	-0.196875	0.07734375	0.1617188
0.601	-0.140625	-0.225	0.04921875	-0.196875	-0.3128906	-0.4675781	-0.2460938	-0.1652344
0.602	-0.5203125	-0.5976563	-0.309375	-0.5449219	-0.7101563	-0.7453125	-0.5800781	-0.4992188
0.603	-0.8050781	-0.8753906	-0.5835938	-0.8015625	-1.019531	-0.9386719	-0.8296875	-0.7453125
0.604	-0.9316406	-0.9984375	-0.7066406	-0.9070313	-1.174219	-1.005469	-0.9421875	-0.8542969
0.605	-0.9210938	-0.984375	-0.6925781	-0.8824219	-1.174219	-0.9667969	-0.9175781	-0.8226563
0.606	-0.8015625	-0.8578125	-0.5765625	-0.7558594	-1.044141	-0.8578125	-0.7910156	-0.6855469
0.607	-0.534375	-0.5835938	-0.3199219	-0.4921875	-0.759375	-0.6292969	-0.534375	-0.421875
0.608	-0.1371094	-0.1863281	0.05976563	-0.1125	-0.3339844	-0.3128906	-0.16875	-0.05273438
0.609	0.2320313	0.1863281	0.421875	0.2355469	0.05976563	-0.03164063	0.16875	0.2882813
0.61	0.61875	0.5660156	0.7839844	0.590625	0.4710938	0.2460938	0.5132813	0.6328125
0.611	0.9492188	0.8964844	1.096875	0.8929688	0.8367188	0.4816406	0.8085938	0.9351563
0.612	1.132031	1.072266	1.279688	1.047656	1.037109	0.6046875	0.9738281	1.089844
0.613	1.163672	1.096875	1.311328	1.065234	1.079297	0.6046875	0.9984375	1.103906
0.614	1.06875	1.001953	1.219922	0.9632813	0.9914063	0.4992188	0.8929688	0.9949219
0.615	0.8542969	0.7875	1.0125	0.7558594	0.7628906	0.3128906	0.675	0.7734375
0.616	0.4746094	0.4042969	0.6574219	0.3902344	0.3550781	0.00703125	0.3199219	0.4113281
0.617	0.084375	0.0140625	0.2847656	0.02109375	-0.05976563	-0.2882813	-0.03515625	0.05625
0.618	-0.2777344	-0.3480469	-0.06679688	-0.3164063	-0.4535156	-0.5589844	-0.365625	-0.2707031
0.619	-0.6398438	-0.703125	-0.4113281	-0.646875	-0.8402344	-0.815625	-0.6820313	-0.5941406
0.62	-0.8683594	-0.928125	-0.6363281	-0.8472656	-1.096875	-0.9632813	-0.8824219	-0.7980469
0.621	-0.9421875	-1.001953	-0.7101563	-0.9105469	-1.195313	-0.9914063	-0.9457031	-0.8578125
0.622	-0.8894531	-0.9457031	-0.6574219	-0.8472656	-1.142578	-0.928125	-0.8824219	-0.7839844
0.623	-0.73125	-0.7875	-0.5027344	-0.6855469	-0.9703125	-0.7910156	-0.7207031	-0.6152344
0.624	-0.4042969	-0.4605469	-0.1898438	-0.3726563	-0.6222656	-0.5238281	-0.4148438	-0.3058594
0.625	-0.00703125	-0.06328125	0.1898438	0.003515625	-0.2003906	-0.2144531	-0.04921875	0.05625
0.626	0.3621094	0.3023438	0.5449219	0.3480469	0.1863281	0.05273438	0.2777344	0.39375
0.627	0.7453125	0.6820313	0.9105469	0.6996094	0.6046875	0.3339844	0.6257813	0.7382813
0.628	1.030078	0.9632813	1.177734	0.95625	0.9175781	0.534375	0.8824219	0.9878906
0.629	1.156641	1.082813	1.300781	1.054688	1.058203	0.6082031	0.9914063	1.093359
0.63	1.142578	1.065234	1.283203	1.026563	1.047656	0.5625	0.9597656	1.065234
0.631	1.023047	0.9421875	1.167188	0.9	0.928125	0.4394531	0.8296875	0.928125
0.632	0.7488281	0.6644531	0.9140625	0.6328125	0.6433594	0.2074219	0.5660156	0.6539063
0.633	0.3445313	0.253125	0.5308594	0.2425781	0.2074219	-0.1054688	0.1898438	0.2707031
0.634	-0.028125	-0.1160156	0.16875	-0.1054688	-0.1898438	-0.3867188	-0.1441406	-0.06328125
0.635	-0.4007813	-0.4886719	-0.1863281	-0.45	-0.590625	-0.6644531	-0.4746094	-0.3972656
0.636	-0.7277344	-0.8085938	-0.5027344	-0.7417969	-0.9421875	-0.8929688	-0.7628906	-0.6855469
0.637	-0.9070313	-0.9808594	-0.6714844	-0.8929688	-1.146094	-0.9984375	-0.9210938	-0.8402344
0.638	-0.9386719	-1.005469	-0.703125	-0.9105469	-1.191797	-0.9914063	-0.9386719	-0.8472656
0.639	-0.8542969	-0.9140625	-0.6152344	-0.815625	-1.096875	-0.9	-0.8402344	-0.7453125
0.64	-0.6433594	-0.7066406	-0.4113281	-0.6082031	-0.8683594	-0.7207031	-0.6292969	-0.534375
0.641	-0.2742188	-0.3339844	-0.05625	-0.2460938	-0.4710938	-0.4148438	-0.28125	-0.1863281
0.642	0.1089844	0.05273438	0.3164063	0.1195313	-0.06328125	-0.1230469	0.0703125	0.16875
0.643	0.4886719	0.4289063	0.675	0.4675781	0.3339844	0.1476563	0.4042969	0.5132813
0.644	0.8542969	0.7945313	1.016016	0.8050781	0.73125	0.4148438	0.7347656	0.8402344
0.645	1.082813	1.016016	1.2375	1.005469	0.984375	0.5730469	0.9421875	1.040625
0.646	1.160156	1.086328	1.311328	1.058203	1.072266	0.6046875	1.008984	1.100391
0.647	1.107422	1.030078	1.255078	0.9949219	1.026563	0.5308594	0.9421875	1.030078
0.648	0.9457031	0.8683594	1.100391	0.8367188	0.8613281	0.3796875	0.7734375	0.8542969
0.649	0.6117188	0.5273438	0.7875	0.5132813	0.50625	0.1089844	0.4570313	0.5308594
0.65	0.2074219	0.1230469	0.4042969	0.1265625	0.07382813	-0.2003906	0.084375	0.1582031
0.651	-0.1546875	-0.2320313	0.05273438	-0.2074219	-0.3128906	-0.4710938	-0.2390625	-0.1652344
0.652	-0.5273438	-0.6011719	-0.3058594	-0.5519531	-0.7101563	-0.7453125	-0.5695313	-0.4992188
0.653	-0.8085938	-0.8753906	-0.5730469	-0.8015625	-1.016016	-0.9316406	-0.815625	-0.7488281
0.654	-0.9316406	-0.9984375	-0.6960938	-0.9070313	-1.170703	-0.9949219	-0.928125	-0.8507813
0.655	-0.9175781	-0.9808594	-0.6820313	-0.8789063	-1.167188	-0.9597656	-0.9	-0.8191406
0.656	-0.7945313	-0.8542969	-0.5589844	-0.7523438	-1.033594	-0.8507813	-0.7699219	-0.6820313
0.657	-0.5203125	-0.5835938	-0.3023438	-0.4921875	-0.7488281	-0.6292969	-0.5203125	-0.4183594
0.658	-0.1265625	-0.1863281	0.07734375	-0.1125	-0.3304688	-0.3128906	-0.1582031	-0.04921875
0.659	0.2390625	0.1792969	0.4359375	0.2390625	0.06328125	-0.03515625	0.1792969	0.2882813
0.66	0.6222656	0.5660156	0.7945313	0.5941406	0.4746094	0.2425781	0.5238281	0.6328125
0.661	0.95625	0.9	1.110938	0.8964844	0.84375	0.4886719	0.8261719	0.9351563
0.662	1.132031	1.06875	1.283203	1.047656	1.040625	0.6046875	0.9878906	1.086328
0.663	1.156641	1.086328	1.304297	1.051172	1.072266	0.5941406	1.001953	1.089844
0.664	1.06875	0.9949219	1.219922	0.95625	0.9878906	0.4921875	0.9	0.984375
0.665	0.8578125	0.7839844	1.019531	0.7488281	0.7628906	0.3058594	0.6890625	0.7699219
0.666	0.4746094	0.4007813	0.6609375	0.3832031	0.3585938	0.003515625	0.3304688	0.4042969
0.667	0.08789063	0.00703125	0.2882813	0.01757813	-0.05273438	-0.2847656	-0.02109375	0.04570313
0.668	-0.2742188	-0.3480469	-0.06328125	-0.3234375	-0.4464844	-0.5589844	-0.3480469	-0.2777344
0.669	-0.6328125	-0.6996094	-0.4078125	-0.646875	-0.8296875	-0.8191406	-0.6644531	-0.5941406
0.67	-0.8578125	-0.9210938	-0.6257813	-0.8507813	-1.086328	-0.9632813	-0.871875	-0.7910156
0.671	-0.9351563	-0.9949219	-0.6996094	-0.9070313	-1.18125	-0.9914063	-0.9316406	-0.8472656
0.672	-0.8824219	-0.9386719	-0.6503906	-0.84375	-1.128516	-0.928125	-0.8648438	-0.7769531
0.673	-0.7277344	-0.7804688	-0.4957031	-0.6855469	-0.95625	-0.7875	-0.703125	-0.6117188
0.674	-0.4007813	-0.4535156	-0.1828125	-0.3691406	-0.6082031	-0.5203125	-0.3972656	-0.2988281
0.675	0	-0.05625	0.2003906	0.00703125	-0.1898438	-0.2109375	-0.03515625	0.06679688
0.676	0.3691406	0.309375	0.5554688	0.3550781	0.2003906	0.05976563	0.2917969	0.4042969
0.677	0.7523438	0.6960938	0.9175781	0.7066406	0.6152344	0.3375	0.6398438	0.7523438
0.678	1.030078	0.9738281	1.18125	0.9632813	0.9246094	0.5378906	0.8929688	1.001953
0.679	1.153125	1.089844	1.304297	1.061719	1.065234	0.6117188	1.005469	1.103906
0.68	1.139063	1.072266	1.290234	1.033594	1.054688	0.5695313	0.9773438	1.06875
0.681	1.016016	0.9457031	1.170703	0.9070313	0.9351563	0.4464844	0.8472656	0.928125
0.682	0.7417969	0.6679688	0.9140625	0.6363281	0.646875	0.2109375	0.5800781	0.6574219
0.683	0.3410156	0.2601563	0.5308594	0.2496094	0.2109375	-0.1019531	0.2039063	0.2777344
0.684	-0.028125	-0.1089844	0.16875	-0.09492188	-0.1828125	-0.3832031	-0.1300781	-0.05625
0.685	-0.4007813	-0.478125	-0.1863281	-0.4394531	-0.5800781	-0.6574219	-0.4605469	-0.3867188
0.686	-0.7277344	-0.7945313	-0.4957031	-0.7347656	-0.9386719	-0.8894531	-0.7523438	-0.675
0.687	-0.9035156	-0.9667969	-0.6644531	-0.8894531	-1.142578	-0.9984375	-0.9105469	-0.8296875
0.688	-0.9386719	-0.9984375	-0.6996094	-0.9035156	-1.184766	-0.9914063	-0.928125	-0.8402344
0.689	-0.8507813	-0.9070313	-0.6117188	-0.8050781	-1.089844	-0.9	-0.8296875	-0.7347656
0.69	-0.6398438	-0.6890625	-0.4078125	-0.5941406	-0.8683594	-0.7207031	-0.6222656	-0.5238281
0.691	-0.2707031	-0.3199219	-0.05273438	-0.2355469	-0.4710938	-0.4183594	-0.2777344	-0.1722656
0.692	0.1125	0.06328125	0.3164063	0.1230469	-0.06679688	-0.1230469	0.0703125	0.1792969
0.693	0.4886719	0.4394531	0.675	0.4710938	0.3304688	0.1476563	0.4078125	0.5167969
0.694	0.8542969	0.8015625	1.0125	0.8050781	0.73125	0.4148438	0.7382813	0.84375
0.695	1.082813	1.023047	1.230469	1.005469	0.9773438	0.5730469	0.9421875	1.044141
0.696	1.156641	1.093359	1.304297	1.061719	1.061719	0.6011719	1.005469	1.096875
0.697	1.103906	1.037109	1.251563	0.9984375	1.016016	0.5273438	0.9351563	1.026563
0.698	0.9421875	0.8753906	1.093359	0.8367188	0.84375	0.3761719	0.7664063	0.8542969
0.699	0.6082031	0.5378906	0.7769531	0.5097656	0.4886719	0.1019531	0.45	0.5308594
0.7	0.2039063	0.1300781	0.3902344	0.1265625	0.05273438	-0.2039063	0.08085938	0.1582031
0.701	-0.1582031	-0.2285156	0.0421875	-0.2074219	-0.3304688	-0.4746094	-0.2425781	-0.1652344
0.702	-0.5308594	-0.5976563	-0.3128906	-0.5554688	-0.7277344	-0.7523438	-0.5765625	-0.4992188
0.703	-0.8121094	-0.871875	-0.5835938	-0.8050781	-1.040625	-0.9421875	-0.8261719	-0.7417969
0.704	-0.9351563	-0.9914063	-0.703125	-0.9070313	-1.188281	-1.008984	-0.9316406	-0.84375
0.705	-0.9210938	-0.9703125	-0.6855469	-0.8789063	-1.177734	-0.9703125	-0.9	-0.8085938
0.706	-0.7980469	-0.8402344	-0.5660156	-0.7488281	-1.047656	-0.8542969	-0.7734375	-0.675
0.707	-0.5273438	-0.5660156	-0.3058594	-0.4851563	-0.759375	-0.6257813	-0.5132813	-0.4113281
0.708	-0.1300781	-0.1722656	0.07382813	-0.1089844	-0.3445313	-0.3128906	-0.1476563	-0.03867188
0.709	0.2390625	0.1933594	0.4359375	0.2390625	0.04921875	-0.03867188	0.1863281	0.2988281
0.71	0.6292969	0.5835938	0.8015625	0.6011719	0.4710938	0.2460938	0.534375	0.6503906
0.711	0.9597656	0.9070313	1.110938	0.8964844	0.8296875	0.478125	0.8332031	0.9457031
0.712	1.125	1.065234	1.272656	1.037109	1.016016	0.5835938	0.9808594	1.086328
0.713	1.153125	1.089844	1.297266	1.047656	1.051172	0.5800781	0.9949219	1.093359
0.714	1.065234	1.001953	1.212891	0.95625	0.9703125	0.4816406	0.8964844	0.9878906
0.715	0.8542969	0.7839844	1.0125	0.7453125	0.7453125	0.2882813	0.6820313	0.7699219
0.716	0.4710938	0.39375	0.6539063	0.3761719	0.3339844	-0.01757813	0.3199219	0.4042969
0.717	0.08085938	0.003515625	0.28125	0.00703125	-0.07734375	-0.309375	-0.03164063	0.04570313
0.718	-0.28125	-0.3515625	-0.0703125	-0.3234375	-0.4710938	-0.5765625	-0.3585938	-0.28125
0.719	-0.6433594	-0.703125	-0.4148438	-0.646875	-0.8578125	-0.8332031	-0.675	-0.5976563
0.72	-0.8683594	-0.9246094	-0.6328125	-0.8472656	-1.110938	-0.9773438	-0.8753906	-0.7945313
0.721	-0.9457031	-0.9984375	-0.703125	-0.9070313	-1.205859	-1.005469	-0.9316406	-0.8507813
0.722	-0.8929688	-0.9421875	-0.6503906	-0.84375	-1.146094	-0.9421875	-0.8648438	-0.7769531
0.723	-0.73125	-0.7769531	-0.4921875	-0.6785156	-0.9703125	-0.7980469	-0.6960938	-0.6082031
0.724	-0.4042969	-0.45	-0.1757813	-0.3621094	-0.6222656	-0.5273438	-0.39375	-0.2953125
0.725	-0.00703125	-0.05273438	0.2003906	0.01054688	-0.2039063	-0.2214844	-0.03164063	0.0703125
0.726	0.3550781	0.309375	0.5554688	0.3550781	0.1863281	0.05273438	0.2953125	0.4007813
0.727	0.7382813	0.6890625	0.9175781	0.7101563	0.6011719	0.3304688	0.6433594	0.7453125
0.728	1.019531	0.9667969	1.18125	0.9597656	0.9105469	0.5238281	0.8929688	0.9949219
0.729	1.142578	1.082813	1.300781	1.058203	1.044141	0.5976563	1.001953	1.100391
0.73	1.128516	1.061719	1.286719	1.030078	1.037109	0.5519531	0.9738281	1.065234
0.731	1.005469	0.9386719	1.167188	0.9070313	0.9175781	0.4289063	0.8402344	0.9246094
0.732	0.73125	0.6609375	0.9035156	0.6398438	0.61875	0.196875	0.5730469	0.6539063
0.733	0.3234375	0.253125	0.5167969	0.253125	0.1828125	-0.1160156	0.196875	0.2707031
0.734	-0.04570313	-0.1160156	0.1582031	-0.09492188	-0.2109375	-0.39375	-0.1371094	-0.06328125
0.735	-0.4183594	-0.4851563	-0.196875	-0.4359375	-0.6117188	-0.6644531	-0.4710938	-0.3972656
0.736	-0.7382813	-0.8015625	-0.50625	-0.7277344	-0.9632813	-0.8894531	-0.7558594	-0.6785156
0.737	-0.9140625	-0.9703125	-0.675	-0.8824219	-1.167188	-0.9984375	-0.9105469	-0.8261719
0.738	-0.9421875	-0.9949219	-0.703125	-0.8929688	-1.205859	-0.9914063	-0.928125	-0.8402344
0.739	-0.8542969	-0.9035156	-0.6152344	-0.7945313	-1.110938	-0.9035156	-0.8296875	-0.7347656
0.74	-0.6398438	-0.6890625	-0.4113281	-0.5871094	-0.8859375	-0.7242188	-0.6257813	-0.5167969
0.741	-0.2636719	-0.3128906	-0.04921875	-0.225	-0.4886719	-0.421875	-0.28125	-0.1652344
0.742	0.1195313	0.0703125	0.3199219	0.1371094	-0.08085938	-0.1300781	0.06679688	0.1898438
0.743	0.4957031	0.4429688	0.6785156	0.4816406	0.3199219	0.140625	0.4042969	0.5273438
0.744	0.8542969	0.8050781	1.023047	0.8121094	0.7171875	0.4042969	0.73125	0.8542969
0.745	1.079297	1.019531	1.233984	1.0125	0.9667969	0.5554688	0.9351563	1.047656
0.746	1.153125	1.082813	1.304297	1.061719	1.051172	0.590625	0.9949219	1.100391
0.747	1.096875	1.026563	1.248047	0.9984375	0.9984375	0.5167969	0.9246094	1.023047
0.748	0.9316406	0.8578125	1.089844	0.8332031	0.8296875	0.365625	0.7558594	0.84375
0.749	0.5976563	0.5132813	0.7769531	0.5027344	0.4746094	0.09140625	0.4394531	0.5132813
0.75	0.196875	0.1054688	0.3902344	0.1195313	0.0421875	-0.2144531	0.0703125	0.140625
0.751	-0.1652344	-0.253125	0.03867188	-0.2144531	-0.3445313	-0.4851563	-0.253125	-0.1828125
0.752	-0.534375	-0.61875	-0.3199219	-0.5589844	-0.7488281	-0.759375	-0.5871094	-0.5132813
0.753	-0.8085938	-0.8894531	-0.5835938	-0.8085938	-1.054688	-0.9457031	-0.8296875	-0.7523438
0.754	-0.9316406	-1.001953	-0.703125	-0.9035156	-1.198828	-1.008984	-0.9386719	-0.8507813
0.755	-0.9175781	-0.984375	-0.6890625	-0.8753906	-1.184766	-0.9703125	-0.9105469	-0.815625
0.756	-0.7945313	-0.8542969	-0.5660156	-0.7488281	-1.051172	-0.8578125	-0.7804688	-0.675
0.757	-0.5203125	-0.5765625	-0.3023438	-0.4816406	-0.7628906	-0.6292969	-0.5167969	-0.4113281
0.758	-0.1230469	-0.1828125	0.07382813	-0.1019531	-0.3410156	-0.3128906	-0.1511719	-0.03867188
0.759	0.2496094	0.1863281	0.4394531	0.2496094	0.05625	-0.03164063	0.1898438	0.3023438
0.76	0.6328125	0.5695313	0.8015625	0.6011719	0.4710938	0.2425781	0.5273438	0.6433594
0.761	0.9527344	0.8824219	1.103906	0.8894531	0.8226563	0.4710938	0.815625	0.928125
0.762	1.121484	1.047656	1.265625	1.037109	1.0125	0.5835938	0.9703125	1.075781
0.763	1.149609	1.072266	1.29375	1.047656	1.051172	0.5800781	0.9878906	1.082813
0.764	1.061719	0.984375	1.205859	0.9527344	0.9632813	0.4816406	0.8859375	0.9773438
0.765	0.8472656	0.7664063	1.001953	0.7382813	0.7382813	0.2917969	0.6679688	0.759375
0.766	0.4640625	0.3796875	0.6398438	0.3691406	0.3269531	-0.01054688	0.309375	0.3902344
0.767	0.0703125	-0.01054688	0.2671875	0	-0.08085938	-0.3023438	-0.03515625	0.03164063
0.768	-0.2917969	-0.3726563	-0.08085938	-0.3339844	-0.4710938	-0.5730469	-0.365625	-0.2953125
0.769	-0.646875	-0.7242188	-0.4183594	-0.6574219	-0.8542969	-0.8261719	-0.6785156	-0.6117188
0.77	-0.871875	-0.9421875	-0.6363281	-0.8578125	-1.107422	-0.9703125	-0.8753906	-0.8085938
0.771	-0.9457031	-1.016016	-0.7101563	-0.9140625	-1.195313	-0.9949219	-0.9351563	-0.8613281
0.772	-0.8929688	-0.9597656	-0.6503906	-0.8507813	-1.135547	-0.928125	-0.8613281	-0.7910156
0.773	-0.7347656	-0.7945313	-0.4921875	-0.6820313	-0.95625	-0.7804688	-0.6925781	-0.6222656
0.774	-0.4078125	-0.4640625	-0.1792969	-0.3585938	-0.6082031	-0.5027344	-0.3832031	-0.3128906
0.775	-0.01054688	-0.06679688	0.2003906	0.0140625	-0.1898438	-0.1933594	-0.01757813	0.04921875
0.776	0.3515625	0.2917969	0.5589844	0.3550781	0.2039063	0.07382813	0.3128906	0.3796875
0.777	0.73125	0.6714844	0.9175781	0.7066406	0.6222656	0.3515625	0.6539063	0.7207031
0.778	1.008984	0.9421875	1.177734	0.95625	0.928125	0.5484375	0.9035156	0.9667969
0.779	1.128516	1.058203	1.29375	1.054688	1.061719	0.6222656	1.0125	1.065234
0.78	1.110938	1.040625	1.279688	1.026563	1.051172	0.5765625	0.9773438	1.033594
0.781	0.9878906	0.9175781	1.156641	0.9035156	0.9246094	0.4535156	0.8402344	0.8964844
0.782	0.7136719	0.6363281	0.9	0.6328125	0.6292969	0.2214844	0.5695313	0.6222656
0.783	0.3058594	0.2285156	0.5167969	0.2460938	0.196875	-0.0984375	0.196875	0.2390625
0.784	-0.06328125	-0.1371094	0.1617188	-0.1019531	-0.196875	-0.3726563	-0.1371094	-0.09492188
0.785	-0.4359375	-0.50625	-0.1898438	-0.4464844	-0.590625	-0.646875	-0.4675781	-0.4253906
0.786	-0.7558594	-0.8261719	-0.4957031	-0.7382813	-0.9421875	-0.8789063	-0.7558594	-0.7066406
0.787	-0.9246094	-0.9949219	-0.6609375	-0.8894531	-1.139063	-0.984375	-0.9105469	-0.8578125
0.788	-0.9492188	-1.016016	-0.6890625	-0.9	-1.188281	-0.9738281	-0.9246094	-0.8648438
0.789	-0.8578125	-0.9175781	-0.6011719	-0.8015625	-1.093359	-0.8859375	-0.8261719	-0.7523438
0.79	-0.646875	-0.703125	-0.3972656	-0.5871094	-0.8683594	-0.7066406	-0.61875	-0.5378906
0.791	-0.2742188	-0.3269531	-0.03867188	-0.225	-0.4710938	-0.4007813	-0.2742188	-0.1828125
0.792	0.1089844	0.05273438	0.3269531	0.1335938	-0.06328125	-0.1089844	0.07382813	0.1722656
0.793	0.4851563	0.4289063	0.6855469	0.4816406	0.3339844	0.1617188	0.4078125	0.5132813
0.794	0.8507813	0.7945313	1.026563	0.8121094	0.7277344	0.4253906	0.73125	0.84375
0.795	1.079297	1.016016	1.2375	1.0125	0.9703125	0.5730469	0.9316406	1.044141
0.796	1.149609	1.079297	1.307813	1.061719	1.054688	0.6011719	0.9878906	1.096875
0.797	1.093359	1.023047	1.248047	0.9984375	1.001953	0.5238281	0.9175781	1.023047
0.798	0.9316406	0.8542969	1.089844	0.8332031	0.8296875	0.3691406	0.7417969	0.84375
0.799	0.590625	0.5167969	0.7699219	0.50625	0.4710938	0.09140625	0.4183594	0.5203125
0.8	0.1898438	0.1125	0.3867188	0.1265625	0.03867188	-0.2144531	0.04921875	0.1546875
0.801	-0.1652344	-0.2425781	0.03515625	-0.2074219	-0.3445313	-0.4816406	-0.2707031	-0.16875
0.802	-0.534375	-0.6082031	-0.3128906	-0.5519531	-0.7453125	-0.759375	-0.6011719	-0.4992188
0.803	-0.8121094	-0.8789063	-0.5765625	-0.7980469	-1.047656	-0.9421875	-0.8472656	-0.7382813
0.804	-0.9316406	-0.9914063	-0.6996094	-0.8964844	-1.195313	-1.001953	-0.9527344	-0.8367188
0.805	-0.9140625	-0.9703125	-0.6820313	-0.8648438	-1.18125	-0.9632813	-0.9210938	-0.8015625
0.806	-0.7945313	-0.84375	-0.5589844	-0.7382813	-1.047656	-0.8507813	-0.7875	-0.6644531
0.807	-0.5203125	-0.5695313	-0.2953125	-0.4710938	-0.7558594	-0.6222656	-0.5273438	-0.4042969
0.808	-0.1160156	-0.1722656	0.09140625	-0.09140625	-0.3304688	-0.3058594	-0.1582031	-0.028125
0.809	0.2566406	0.1933594	0.4464844	0.253125	0.06328125	-0.028125	0.1757813	0.309375
0.81	0.6292969	0.5730469	0.7980469	0.6046875	0.4640625	0.2425781	0.5097656	0.6503906
0.811	0.9527344	0.8964844	1.100391	0.8964844	0.8191406	0.478125	0.8050781	0.9386719
0.812	1.125	1.061719	1.265625	1.044141	1.016016	0.5941406	0.9632813	1.089844
0.813	1.153125	1.079297	1.29375	1.051172	1.051172	0.5835938	0.9773438	1.096875
0.814	1.065234	0.9878906	1.205859	0.95625	0.9632813	0.4816406	0.871875	0.9878906
0.815	0.8472656	0.7664063	1.001953	0.7417969	0.7347656	0.2917969	0.6574219	0.7628906
0.816	0.4675781	0.3796875	0.6433594	0.3691406	0.3269531	-0.0140625	0.3023438	0.3972656
0.817	0.08085938	-0.00703125	0.2707031	0.003515625	-0.07734375	-0.3058594	-0.0421875	0.0421875
0.818	-0.28125	-0.3691406	-0.07734375	-0.3339844	-0.4675781	-0.5730469	-0.3691406	-0.2847656
0.819	-0.6363281	-0.7207031	-0.4183594	-0.6574219	-0.8507813	-0.8296875	-0.6855469	-0.6011719
0.82	-0.8613281	-0.9386719	-0.6328125	-0.8542969	-1.100391	-0.9703125	-0.8824219	-0.7945313
0.821	-0.9316406	-1.001953	-0.703125	-0.9070313	-1.195313	-0.9949219	-0.9386719	-0.8472656
0.822	-0.8753906	-0.9421875	-0.6503906	-0.8402344	-1.135547	-0.928125	-0.871875	-0.7734375
0.823	-0.7136719	-0.7734375	-0.4921875	-0.6714844	-0.95625	-0.7804688	-0.703125	-0.6011719
0.824	-0.3796875	-0.4394531	-0.1722656	-0.3515625	-0.6082031	-0.5097656	-0.3972656	-0.2847656
0.825	0.0140625	-0.0421875	0.2074219	0.02109375	-0.1898438	-0.2039063	-0.03867188	0.07734375
0.826	0.3796875	0.3199219	0.5625	0.365625	0.2039063	0.06328125	0.2882813	0.4113281
0.827	0.759375	0.7066406	0.9175781	0.7171875	0.6152344	0.3445313	0.6328125	0.7558594
0.828	1.037109	0.9808594	1.177734	0.9703125	0.9175781	0.5378906	0.8824219	1.001953
0.829	1.156641	1.089844	1.29375	1.065234	1.047656	0.6046875	0.984375	1.100391
0.83	1.135547	1.065234	1.276172	1.026563	1.033594	0.5589844	0.9527344	1.058203
0.831	1.008984	0.9386719	1.149609	0.9	0.9070313	0.4324219	0.8191406	0.9175781
0.832	0.7347656	0.6609375	0.8824219	0.6292969	0.6117188	0.196875	0.5484375	0.646875
0.833	0.3304688	0.253125	0.5027344	0.2425781	0.1792969	-0.1160156	0.1757813	0.2636719
0.834	-0.03515625	-0.1125	0.1476563	-0.1019531	-0.2109375	-0.39375	-0.1582031	-0.0703125
0.835	-0.4078125	-0.4816406	-0.2074219	-0.4464844	-0.6117188	-0.6714844	-0.4886719	-0.4007813
0.836	-0.73125	-0.7980469	-0.5167969	-0.7382813	-0.9632813	-0.8964844	-0.7699219	-0.6855469
0.837	-0.9	-0.9632813	-0.6855469	-0.8859375	-1.160156	-0.9914063	-0.9210938	-0.8332031
0.838	-0.928125	-0.984375	-0.7101563	-0.8929688	-1.198828	-0.9808594	-0.9316406	-0.8402344
0.839	-0.8402344	-0.8929688	-0.6222656	-0.7945313	-1.103906	-0.8859375	-0.8296875	-0.73125
0.84	-0.6222656	-0.675	-0.4148438	-0.5800781	-0.871875	-0.703125	-0.6222656	-0.5167969
0.841	-0.2460938	-0.2953125	-0.05273438	-0.2179688	-0.4746094	-0.3972656	-0.2742188	-0.1617188
0.842	0.1335938	0.084375	0.3164063	0.1371094	-0.06328125	-0.1054688	0.07382813	0.1898438
0.843	0.5097656	0.4535156	0.6714844	0.4816406	0.3339844	0.1617188	0.4113281	0.5273438
0.844	0.871875	0.8121094	1.016016	0.8121094	0.73125	0.4289063	0.7347656	0.8507813
0.845	1.089844	1.030078	1.226953	1.008984	0.9738281	0.5765625	0.9351563	1.047656
0.846	1.160156	1.096875	1.29375	1.058203	1.058203	0.6046875	0.9914063	1.100391
0.847	1.103906	1.033594	1.233984	0.9949219	1.005469	0.5273438	0.9210938	1.023047
0.848	0.9351563	0.8648438	1.075781	0.8296875	0.8332031	0.3761719	0.7523438	0.84375
0.849	0.5976563	0.5238281	0.759375	0.5027344	0.4710938	0.0984375	0.4289063	0.5167969
0.85	0.196875	0.1160156	0.3726563	0.1195313	0.03867188	-0.2074219	0.06328125	0.140625
0.851	-0.1652344	-0.2390625	0.028125	-0.2179688	-0.3410156	-0.4816406	-0.2601563	-0.1828125
0.852	-0.5378906	-0.6117188	-0.3304688	-0.5625	-0.7382813	-0.7558594	-0.590625	-0.5132813
0.853	-0.8085938	-0.8824219	-0.5941406	-0.8121094	-1.044141	-0.9386719	-0.8332031	-0.7523438
0.854	-0.928125	-0.9949219	-0.7101563	-0.9070313	-1.188281	-1.001953	-0.9421875	-0.8472656
0.855	-0.9140625	-0.9773438	-0.6925781	-0.8789063	-1.177734	-0.9597656	-0.9105469	-0.8121094
0.856	-0.7910156	-0.8472656	-0.5730469	-0.7488281	-1.040625	-0.84375	-0.7734375	-0.675
0.857	-0.5097656	-0.5695313	-0.3023438	-0.4746094	-0.7417969	-0.6082031	-0.5097656	-0.4042969
0.858	-0.1125	-0.1722656	0.07734375	-0.09492188	-0.3234375	-0.2917969	-0.1441406	-0.03515625
0.859	0.2460938	0.1863281	0.4289063	0.2390625	0.06328125	-0.02109375	0.1792969	0.2953125
0.86	0.6292969	0.5660156	0.7875	0.590625	0.4746094	0.253125	0.5238281	0.6398438
0.861	0.95625	0.8964844	1.096875	0.8929688	0.8332031	0.4921875	0.8191406	0.9351563
0.862	1.125	1.061719	1.262109	1.040625	1.023047	0.6011719	0.9738281	1.082813
0.863	1.146094	1.079297	1.283203	1.047656	1.054688	0.590625	0.984375	1.086328
0.864	1.058203	0.9878906	1.191797	0.9492188	0.9667969	0.4921875	0.8824219	0.9808594
0.865	0.8367188	0.7664063	0.9878906	0.73125	0.7347656	0.2953125	0.6574219	0.759375
0.866	0.4535156	0.3761719	0.6222656	0.3585938	0.3199219	-0.00703125	0.2953125	0.39375
0.867	0.06679688	-0.003515625	0.2496094	0	-0.08789063	-0.2953125	-0.05625	0.03867188
0.868	-0.2953125	-0.365625	-0.0984375	-0.3375	-0.4816406	-0.5695313	-0.3867188	-0.2882813
0.869	-0.6503906	-0.7171875	-0.4359375	-0.6679688	-0.8648438	-0.8296875	-0.6996094	-0.5976563
0.87	-0.871875	-0.9351563	-0.646875	-0.8613281	-1.110938	-0.9667969	-0.8929688	-0.7910156
0.871	-0.9386719	-0.9984375	-0.7136719	-0.9105469	-1.198828	-0.9878906	-0.9457031	-0.8402344
0.872	-0.8859375	-0.9386719	-0.6539063	-0.8402344	-1.139063	-0.9175781	-0.871875	-0.7628906
0.873	-0.7171875	-0.7699219	-0.4957031	-0.6714844	-0.9597656	-0.7699219	-0.7066406	-0.5941406
0.874	-0.3867188	-0.4324219	-0.1757813	-0.3480469	-0.6082031	-0.4992188	-0.3972656	-0.2742188
0.875	0.00703125	-0.03515625	0.2003906	0.02109375	-0.1863281	-0.1898438	-0.03164063	0.08789063
0.876	0.3726563	0.3269531	0.5554688	0.365625	0.2039063	0.084375	0.2953125	0.4183594
0.877	0.7523438	0.7066406	0.9140625	0.7207031	0.61875	0.365625	0.6398438	0.7628906
0.878	1.030078	0.984375	1.170703	0.9667969	0.9246094	0.5589844	0.8894531	1.008984
0.879	1.149609	1.093359	1.283203	1.061719	1.054688	0.6257813	0.9878906	1.103906
0.88	1.128516	1.065234	1.262109	1.026563	1.040625	0.5800781	0.95625	1.065234
0.881	1.001953	0.9386719	1.135547	0.8964844	0.9140625	0.4535156	0.8191406	0.9246094
0.882	0.7242188	0.6574219	0.871875	0.61875	0.6117188	0.2144531	0.5449219	0.646875
0.883	0.3199219	0.2460938	0.4851563	0.2320313	0.1757813	-0.1054688	0.16875	0.2671875
0.884	-0.04921875	-0.1195313	0.1300781	-0.1125	-0.2179688	-0.3832031	-0.1652344	-0.06679688
0.885	-0.421875	-0.4921875	-0.2214844	-0.4570313	-0.6117188	-0.6539063	-0.4992188	-0.4042969
0.886	-0.7417969	-0.8050781	-0.5273438	-0.7453125	-0.9632813	-0.8789063	-0.7804688	-0.6820313
0.887	-0.9105469	-0.9703125	-0.6925781	-0.8929688	-1.156641	-0.9773438	-0.928125	-0.8296875
0.888	-0.9351563	-0.9914063	-0.7136719	-0.9	-1.191797	-0.9667969	-0.9386719	-0.8367188
0.889	-0.8472656	-0.9	-0.61875	-0.8015625	-1.089844	-0.8753906	-0.8367188	-0.7277344
0.89	-0.6363281	-0.6785156	-0.4148438	-0.5871094	-0.8613281	-0.6960938	-0.6257813	-0.5167969
0.891	-0.2601563	-0.3023438	-0.05625	-0.225	-0.4640625	-0.3902344	-0.2777344	-0.1617188
0.892	0.1195313	0.07734375	0.3128906	0.1335938	-0.05625	-0.09492188	0.06679688	0.1933594
0.893	0.4957031	0.4535156	0.6679688	0.4816406	0.3410156	0.1792969	0.4042969	0.5273438
0.894	0.8578125	0.815625	1.005469	0.815625	0.73125	0.4394531	0.7277344	0.8507813
0.895	1.075781	1.030078	1.216406	1.005469	0.9738281	0.5871094	0.9246094	1.047656
0.896	1.146094	1.089844	1.286719	1.054688	1.054688	0.6117188	0.9808594	1.093359
0.897	1.089844	1.030078	1.226953	0.9878906	1.001953	0.534375	0.9070313	1.016016
0.898	0.9210938	0.8578125	1.061719	0.8191406	0.8261719	0.3761719	0.7347656	0.8367188
0.899	0.5765625	0.5132813	0.7417969	0.4851563	0.4640625	0.0984375	0.4113281	0.50625
0.9	0.1722656	0.1054688	0.3550781	0.1054688	0.03164063	-0.2074219	0.04570313	0.1300781
0.901	-0.1863281	-0.2496094	0.003515625	-0.2320313	-0.3515625	-0.4746094	-0.2777344	-0.196875
0.902	-0.5589844	-0.6152344	-0.3445313	-0.5765625	-0.7488281	-0.7453125	-0.6082031	-0.5273438
0.903	-0.8261719	-0.8789063	-0.6046875	-0.8191406	-1.047656	-0.9316406	-0.8472656	-0.7628906
0.904	-0.9457031	-0.9949219	-0.7207031	-0.9175781	-1.195313	-0.9949219	-0.95625	-0.8578125
0.905	-0.928125	-0.9703125	-0.703125	-0.8894531	-1.18125	-0.95625	-0.9246094	-0.8226563
0.906	-0.7980469	-0.8367188	-0.5765625	-0.7523438	-1.037109	-0.8332031	-0.7839844	-0.6820313
0.907	-0.5203125	-0.5554688	-0.309375	-0.4746094	-0.7453125	-0.6011719	-0.5203125	-0.4113281
0.908	-0.1300781	-0.1652344	0.05976563	-0.1054688	-0.3304688	-0.2953125	-0.1652344	-0.04570313
0.909	0.2390625	0.2003906	0.4148438	0.2390625	0.05625	-0.02109375	0.1652344	0.2917969
0.91	0.6292969	0.5871094	0.7839844	0.5976563	0.4710938	0.2601563	0.5097656	0.6433594
0.911	0.9492188	0.9070313	1.086328	0.8929688	0.8261719	0.4957031	0.8015625	0.9316406
0.912	1.114453	1.06875	1.248047	1.033594	1.016016	0.6046875	0.95625	1.075781
0.913	1.139063	1.086328	1.269141	1.040625	1.047656	0.5941406	0.9703125	1.079297
0.914	1.051172	0.9914063	1.174219	0.9421875	0.9597656	0.4921875	0.8648438	0.9703125
0.915	0.8296875	0.7699219	0.9667969	0.7242188	0.73125	0.2988281	0.646875	0.7488281
0.916	0.4429688	0.3796875	0.6046875	0.3550781	0.3199219	-0.00703125	0.2882813	0.3832031
0.917	0.05976563	-0.003515625	0.2320313	-0.00703125	-0.09492188	-0.2988281	-0.05625	0.03164063
0.918	-0.3023438	-0.365625	-0.1160156	-0.3445313	-0.4886719	-0.5695313	-0.3867188	-0.2882813
0.919	-0.6574219	-0.7136719	-0.4535156	-0.6679688	-0.8683594	-0.8226563	-0.6960938	-0.6011719
0.92	-0.8753906	-0.928125	-0.6679688	-0.8613281	-1.114453	-0.9632813	-0.8894531	-0.7945313
0.921	-0.9386719	-0.9878906	-0.7347656	-0.9070313	-1.202344	-0.984375	-0.9457031	-0.8402344
0.922	-0.8789063	-0.9210938	-0.675	-0.8367188	-1.139063	-0.9105469	-0.871875	-0.759375
0.923	-0.7136719	-0.7488281	-0.5132813	-0.6644531	-0.95625	-0.7628906	-0.6996094	-0.5871094
0.924	-0.3796875	-0.4183594	-0.1933594	-0.3410156	-0.6011719	-0.4851563	-0.3867188	-0.2707031
0.925	0.01054688	-0.02109375	0.1863281	0.028125	-0.1792969	-0.1757813	-0.02109375	0.09140625
0.926	0.3761719	0.3410156	0.5414063	0.3691406	0.2109375	0.09140625	0.309375	0.4253906
0.927	0.759375	0.7207031	0.9	0.7171875	0.6257813	0.3726563	0.6539063	0.7699219
0.928	1.033594	0.9914063	1.163672	0.9632813	0.9316406	0.5660156	0.9035156	1.0125
0.929	1.149609	1.100391	1.276172	1.058203	1.061719	0.6292969	1.001953	1.107422
0.93	1.128516	1.075781	1.255078	1.019531	1.044141	0.5835938	0.9703125	1.065234
0.931	0.9984375	0.9492188	1.128516	0.8929688	0.9175781	0.4570313	0.8332031	0.9210938
0.932	0.7136719	0.6609375	0.8613281	0.6152344	0.6152344	0.2179688	0.5625	0.6398438
0.933	0.309375	0.2496094	0.4816406	0.225	0.1792969	-0.1019531	0.1863281	0.2601563
0.934	-0.04921875	-0.1160156	0.1265625	-0.1195313	-0.2074219	-0.3761719	-0.1441406	-0.07382813
0.935	-0.421875	-0.4816406	-0.225	-0.4605469	-0.6046875	-0.6503906	-0.4816406	-0.4078125
0.936	-0.7382813	-0.7945313	-0.5273438	-0.7488281	-0.9527344	-0.8753906	-0.7628906	-0.6855469
0.937	-0.9035156	-0.95625	-0.6925781	-0.8929688	-1.146094	-0.9703125	-0.9105469	-0.8261719
0.938	-0.9246094	-0.9703125	-0.7136719	-0.9	-1.18125	-0.95625	-0.9175781	-0.8261719
0.939	-0.8332031	-0.8753906	-0.61875	-0.8015625	-1.082813	-0.8648438	-0.815625	-0.7171875
0.94	-0.6152344	-0.6539063	-0.4078125	-0.5835938	-0.8472656	-0.6785156	-0.6046875	-0.4992188
0.941	-0.2390625	-0.2742188	-0.04570313	-0.2179688	-0.45	-0.3691406	-0.2496094	-0.1441406
0.942	0.140625	0.1054688	0.3164063	0.1371094	-0.03867188	-0.07734375	0.09492188	0.2109375
0.943	0.5203125	0.478125	0.675	0.4851563	0.3585938	0.1898438	0.4289063	0.5484375
0.944	0.8789063	0.8332031	1.016016	0.815625	0.7523438	0.4535156	0.7523438	0.871875
0.945	1.096875	1.047656	1.223438	1.005469	0.9949219	0.6011719	0.9492188	1.065234
0.946	1.167188	1.107422	1.286719	1.054688	1.06875	0.6292969	1.005469	1.114453
0.947	1.107422	1.044141	1.226953	0.984375	1.016016	0.5519531	0.9316406	1.037109
0.948	0.9351563	0.871875	1.06875	0.815625	0.8402344	0.3902344	0.7523438	0.8578125
0.949	0.590625	0.5238281	0.7453125	0.4851563	0.4746094	0.1089844	0.4289063	0.5238281
0.95	0.1898438	0.1195313	0.3585938	0.1054688	0.0421875	-0.196875	0.06328125	0.1511719
0.951	-0.16875	-0.2355469	0.01054688	-0.2285156	-0.3410156	-0.4605469	-0.2566406	-0.1722656
0.952	-0.5414063	-0.6046875	-0.3410156	-0.5695313	-0.7347656	-0.73125	-0.5871094	-0.5027344
0.953	-0.8121094	-0.8683594	-0.6011719	-0.8121094	-1.033594	-0.9140625	-0.8261719	-0.7382813
0.954	-0.9246094	-0.9808594	-0.7171875	-0.9070313	-1.174219	-0.9738281	-0.9246094	-0.8332031
0.955	-0.9035156	-0.9492188	-0.6890625	-0.8683594	-1.153125	-0.9210938	-0.8859375	-0.7875
0.956	-0.7769531	-0.815625	-0.5625	-0.7347656	-1.008984	-0.8015625	-0.7488281	-0.646875
0.957	-0.5027344	-0.5414063	-0.3023438	-0.4640625	-0.7207031	-0.5730469	-0.4921875	-0.3832031
0.958	-0.1089844	-0.1476563	0.07382813	-0.08789063	-0.3058594	-0.2601563	-0.1300781	-0.0140625
0.959	0.2601563	0.2214844	0.4359375	0.2566406	0.08789063	0.01054688	0.2074219	0.3234375
0.96	0.646875	0.6046875	0.8015625	0.6117188	0.5027344	0.2917969	0.5484375	0.6679688
0.961	0.9667969	0.9175781	1.103906	0.9	0.8578125	0.5203125	0.8367188	0.9527344
0.962	1.132031	1.075781	1.258594	1.040625	1.033594	0.6292969	0.9808594	1.093359
0.963	1.153125	1.096875	1.276172	1.044141	1.061719	0.61875	0.9878906	1.096875
0.964	1.058203	0.9984375	1.184766	0.9492188	0.9703125	0.5167969	0.8824219	0.9878906
0.965	0.8332031	0.7734375	0.9738281	0.73125	0.7382813	0.3199219	0.6609375	0.7558594
0.966	0.4464844	0.3832031	0.6117188	0.3585938	0.3234375	0.01054688	0.3023438	0.3902344
0.967	0.05976563	0	0.2425781	-0.003515625	-0.08085938	-0.2742188	-0.04570313	0.03867188
0.968	-0.3023438	-0.365625	-0.1054688	-0.3410156	-0.4710938	-0.5414063	-0.3691406	-0.2882813
0.969	-0.6539063	-0.7136719	-0.4429688	-0.6609375	-0.8472656	-0.7945313	-0.6785156	-0.6046875
0.97	-0.8683594	-0.9210938	-0.6503906	-0.8542969	-1.093359	-0.9351563	-0.871875	-0.7910156
0.971	-0.9386719	-0.984375	-0.7136719	-0.9035156	-1.177734	-0.9597656	-0.9246094	-0.8367188
0.972	-0.8824219	-0.9210938	-0.6609375	-0.8296875	-1.117969	-0.8894531	-0.8542969	-0.759375
0.973	-0.7171875	-0.7523438	-0.4992188	-0.6609375	-0.9351563	-0.7417969	-0.6820313	-0.590625
0.974	-0.3796875	-0.4148438	-0.1757813	-0.3375	-0.5765625	-0.4640625	-0.365625	-0.2707031
0.975	0.0140625	-0.01757813	0.2003906	0.03515625	-0.1617188	-0.1546875	-0.003515625	0.09140625
0.976	0.3796875	0.3445313	0.5519531	0.3761719	0.225	0.1054688	0.3199219	0.4253906
0.977	0.7628906	0.7171875	0.9105469	0.7207031	0.6328125	0.3796875	0.6574219	0.7699219
0.978	1.033594	0.984375	1.167188	0.9597656	0.9316406	0.5660156	0.9	1.005469
0.979	1.146094	1.093359	1.276172	1.051172	1.061719	0.6292969	0.9949219	1.100391
0.98	1.121484	1.065234	1.251563	1.019531	1.044141	0.5835938	0.9632813	1.058203
0.981	0.9914063	0.9351563	1.125	0.8894531	0.9175781	0.4570313	0.8261719	0.9175781
0.982	0.7101563	0.6503906	0.8613281	0.6117188	0.6152344	0.2144531	0.5449219	0.6363281
0.983	0.3058594	0.2425781	0.478125	0.225	0.1792969	-0.0984375	0.16875	0.2566406
0.984	-0.05625	-0.1195313	0.1265625	-0.1160156	-0.2074219	-0.3726563	-0.1582031	-0.07734375
0.985	-0.4253906	-0.4886719	-0.225	-0.4570313	-0.6082031	-0.646875	-0.4851563	-0.4078125
0.986	-0.7382813	-0.7980469	-0.5273438	-0.7417969	-0.9492188	-0.8683594	-0.7628906	-0.6820313
0.987	-0.9070313	-0.95625	-0.6855469	-0.8859375	-1.139063	-0.9632813	-0.9105469	-0.8226563
0.988	-0.928125	-0.9773438	-0.703125	-0.8929688	-1.174219	-0.9492188	-0.9140625	-0.8261719
0.989	-0.8367188	-0.8753906	-0.6152344	-0.7839844	-1.072266	-0.8507813	-0.8085938	-0.7136719
0.99	-0.61875	-0.6503906	-0.4042969	-0.5625	-0.8332031	-0.6609375	-0.5941406	-0.4957031
0.991	-0.2390625	-0.2742188	-0.0421875	-0.2003906	-0.4359375	-0.3550781	-0.2425781	-0.140625
0.992	0.140625	0.1054688	0.3199219	0.1546875	-0.03515625	-0.06679688	0.0984375	0.2109375
0.993	0.5132813	0.4746094	0.675	0.4992188	0.3621094	0.2003906	0.4324219	0.5484375
0.994	0.8683594	0.8296875	1.0125	0.8261719	0.7558594	0.4605469	0.7558594	0.8648438
0.995	1.082813	1.040625	1.219922	1.016016	0.9984375	0.6082031	0.9527344	1.054688
0.996	1.153125	1.100391	1.283203	1.065234	1.075781	0.6328125	1.005469	1.100391
0.997	1.093359	1.037109	1.223438	0.9914063	1.023047	0.5554688	0.9316406	1.023047
0.998	0.9246094	0.8613281	1.065234	0.8226563	0.8472656	0.3972656	0.7558594	0.84375
0.999	0.5835938	0.5167969	0.7453125	0.4921875	0.4816406	0.1160156	0.4359375	0.5097656
1	0.1792969	0.1125	0.3621094	0.1089844	0.04921875	-0.1898438	0.0703125	0.1371094
1.001	-0.1757813	-0.2425781	0.0140625	-0.2214844	-0.3339844	-0.4535156	-0.253125	-0.1828125
1.002	-0.5484375	-0.6046875	-0.3410156	-0.5589844	-0.73125	-0.7242188	-0.5835938	-0.5097656
1.003	-0.8191406	-0.8683594	-0.6011719	-0.7980469	-1.026563	-0.9070313	-0.815625	-0.7453125
1.004	-0.928125	-0.9738281	-0.7066406	-0.8894531	-1.160156	-0.95625	-0.9070313	-0.8332031
1.005	-0.9035156	-0.9421875	-0.6820313	-0.8507813	-1.142578	-0.9140625	-0.8683594	-0.7875
1.006	-0.7804688	-0.815625	-0.5660156	-0.7207031	-1.0125	-0.8015625	-0.7453125	-0.6539063
1.007	-0.4957031	-0.534375	-0.2988281	-0.45	-0.7171875	-0.5730469	-0.4851563	-0.3832031
1.008	-0.09492188	-0.1371094	0.08085938	-0.0703125	-0.2953125	-0.2566406	-0.1160156	-0.00703125
1.009	0.2636719	0.225	0.4359375	0.2707031	0.09492188	0.01757813	0.2144531	0.3199219
1.01	0.6433594	0.6046875	0.7980469	0.6222656	0.5097656	0.2988281	0.5589844	0.6644531
1.011	0.9632813	0.9246094	1.100391	0.9140625	0.8648438	0.5308594	0.8472656	0.9492188
1.012	1.125	1.079297	1.258594	1.054688	1.044141	0.6328125	0.9949219	1.089844
1.013	1.146094	1.096875	1.279688	1.061719	1.072266	0.61875	1.001953	1.093359
1.014	1.054688	1.001953	1.184766	0.9597656	0.9808594	0.5167969	0.8929688	0.9808594
1.015	0.8296875	0.7734375	0.9738281	0.7382813	0.7453125	0.3234375	0.6679688	0.7488281
1.016	0.4394531	0.3796875	0.6117188	0.365625	0.3339844	0.01054688	0.309375	0.3796875
1.017	0.05976563	0	0.2425781	0	-0.0703125	-0.2777344	-0.03867188	0.028125
1.018	-0.3023438	-0.3621094	-0.1054688	-0.3339844	-0.4605469	-0.5449219	-0.3691406	-0.2988281
1.019	-0.6574219	-0.7066406	-0.4429688	-0.6539063	-0.8367188	-0.7980469	-0.6785156	-0.6117188
1.02	-0.871875	-0.9210938	-0.6503906	-0.8402344	-1.079297	-0.9386719	-0.8648438	-0.7945313
1.021	-0.9351563	-0.9773438	-0.7101563	-0.8859375	-1.163672	-0.95625	-0.9140625	-0.8402344
1.022	-0.8753906	-0.9140625	-0.6503906	-0.8121094	-1.103906	-0.8859375	-0.8402344	-0.7628906
1.023	-0.7066406	-0.7417969	-0.4851563	-0.6398438	-0.9210938	-0.7382813	-0.675	-0.5835938
1.024	-0.365625	-0.4007813	-0.1652344	-0.3164063	-0.5660156	-0.4605469	-0.3621094	-0.2636719
1.025	0.02460938	-0.00703125	0.2144531	0.05625	-0.1476563	-0.1511719	0	0.0984375
1.026	0.3902344	0.3515625	0.5695313	0.3972656	0.2390625	0.1160156	0.3339844	0.4289063
1.027	0.7699219	0.7277344	0.928125	0.7417969	0.6539063	0.3902344	0.6679688	0.7664063
1.028	1.040625	0.9949219	1.18125	0.984375	0.9492188	0.5800781	0.9105469	1.008984
1.029	1.149609	1.103906	1.290234	1.079297	1.072266	0.6433594	1.008984	1.100391
1.03	1.128516	1.075781	1.262109	1.040625	1.054688	0.5941406	0.9703125	1.054688
1.031	0.9984375	0.9421875	1.135547	0.9035156	0.9210938	0.4640625	0.8296875	0.9105469
1.032	0.7101563	0.6539063	0.8648438	0.6257813	0.6152344	0.2214844	0.5519531	0.6292969
1.033	0.309375	0.2425781	0.4816406	0.2355469	0.1863281	-0.09140625	0.1792969	0.2496094
1.034	-0.05625	-0.1195313	0.1265625	-0.1019531	-0.2003906	-0.365625	-0.1476563	-0.084375
1.035	-0.4289063	-0.4886719	-0.225	-0.4429688	-0.6011719	-0.6363281	-0.478125	-0.4148438
1.036	-0.7417969	-0.7980469	-0.5273438	-0.7277344	-0.9421875	-0.8542969	-0.7558594	-0.6890625
1.037	-0.9	-0.9527344	-0.6855469	-0.8683594	-1.128516	-0.9492188	-0.9	-0.8261719
1.038	-0.9210938	-0.9667969	-0.7066406	-0.871875	-1.163672	-0.9351563	-0.9070313	-0.8261719
1.039	-0.8296875	-0.8683594	-0.6117188	-0.7664063	-1.061719	-0.8367188	-0.8015625	-0.7136719
1.04	-0.6082031	-0.6433594	-0.3972656	-0.5484375	-0.8226563	-0.6503906	-0.5871094	-0.4921875
1.041	-0.2320313	-0.2636719	-0.03515625	-0.1792969	-0.4183594	-0.3445313	-0.2355469	-0.1371094
1.042	0.1476563	0.1125	0.3339844	0.1757813	-0.0140625	-0.05273438	0.1089844	0.2109375
1.043	0.5203125	0.4851563	0.6890625	0.5203125	0.3832031	0.2144531	0.4429688	0.5484375
1.044	0.8753906	0.8402344	1.019531	0.84375	0.7699219	0.4746094	0.7628906	0.8648438
1.045	1.089844	1.044141	1.219922	1.026563	1.008984	0.61875	0.95625	1.051172
1.046	1.149609	1.100391	1.279688	1.072266	1.082813	0.6398438	1.005469	1.093359
1.047	1.086328	1.030078	1.216406	0.9984375	1.019531	0.5625	0.928125	1.0125
1.048	0.9140625	0.8578125	1.051172	0.8261719	0.84375	0.4007813	0.7488281	0.8296875
1.049	0.5695313	0.5132813	0.7242188	0.4921875	0.4746094	0.1195313	0.4253906	0.4992188
1.05	0.1722656	0.1125	0.3410156	0.1125	0.04570313	-0.1828125	0.05976563	0.1300781
1.051	-0.1828125	-0.2425781	0	-0.2179688	-0.3375	-0.4535156	-0.2671875	-0.1933594
1.052	-0.5554688	-0.6046875	-0.3550781	-0.5589844	-0.7382813	-0.7242188	-0.5976563	-0.5167969
1.053	-0.815625	-0.8613281	-0.6046875	-0.7945313	-1.026563	-0.9	-0.8261719	-0.7453125
1.054	-0.9246094	-0.9703125	-0.7101563	-0.8824219	-1.156641	-0.95625	-0.9210938	-0.8367188
1.055	-0.9105469	-0.9492188	-0.6960938	-0.8542969	-1.146094	-0.9175781	-0.8929688	-0.8015625
1.056	-0.7839844	-0.8191406	-0.5730469	-0.7242188	-1.005469	-0.7980469	-0.7558594	-0.6644531
1.057	-0.4992188	-0.534375	-0.2988281	-0.4464844	-0.6996094	-0.5625	-0.4851563	-0.3867188
1.058	-0.0984375	-0.1335938	0.08085938	-0.06328125	-0.28125	-0.2496094	-0.1230469	-0.01757813
1.059	0.2671875	0.2320313	0.4359375	0.2777344	0.1054688	0.02109375	0.2074219	0.3199219
1.06	0.646875	0.6117188	0.7980469	0.6292969	0.5203125	0.3023438	0.5519531	0.6609375
1.061	0.9632813	0.9246094	1.100391	0.9140625	0.8683594	0.5273438	0.8367188	0.9386719
1.062	1.121484	1.079297	1.255078	1.051172	1.044141	0.6292969	0.984375	1.079297
1.063	1.139063	1.093359	1.272656	1.054688	1.06875	0.6152344	0.9914063	1.079297
1.064	1.047656	0.9949219	1.177734	0.9527344	0.9773438	0.5097656	0.8824219	0.9703125
1.065	0.8226563	0.7664063	0.9632813	0.73125	0.7382813	0.3128906	0.6539063	0.7382813
1.066	0.4324219	0.3761719	0.5941406	0.3585938	0.3234375	0.00703125	0.2917969	0.3726563
1.067	0.04921875	-0.003515625	0.2285156	0	-0.08085938	-0.2777344	-0.05273438	0.02460938
1.068	-0.3128906	-0.3691406	-0.1195313	-0.3339844	-0.4710938	-0.5484375	-0.3761719	-0.3023438
1.069	-0.6609375	-0.7136719	-0.4535156	-0.6503906	-0.84375	-0.8015625	-0.6855469	-0.6117188
1.07	-0.8753906	-0.9175781	-0.6609375	-0.8402344	-1.086328	-0.9351563	-0.8753906	-0.7980469
1.071	-0.9351563	-0.9773438	-0.7207031	-0.8859375	-1.167188	-0.9527344	-0.9210938	-0.84375
1.072	-0.8753906	-0.9140625	-0.6574219	-0.815625	-1.100391	-0.8859375	-0.8472656	-0.7628906
1.073	-0.7066406	-0.7417969	-0.4957031	-0.6433594	-0.9175781	-0.7347656	-0.6785156	-0.5871094
1.074	-0.365625	-0.4007813	-0.1722656	-0.3128906	-0.5625	-0.4570313	-0.3621094	-0.2636719
1.075	0.02460938	-0.003515625	0.2039063	0.05625	-0.1441406	-0.1511719	-0.003515625	0.0984375
1.076	0.3902344	0.3585938	0.5554688	0.3972656	0.2390625	0.1160156	0.3234375	0.4324219
1.077	0.7699219	0.7347656	0.9105469	0.7488281	0.6539063	0.39375	0.6679688	0.7734375
1.078	1.040625	0.9984375	1.163672	0.984375	0.9527344	0.5800781	0.9070313	1.008984
1.079	1.149609	1.100391	1.269141	1.075781	1.075781	0.6398438	1.001953	1.100391
1.08	1.121484	1.072266	1.241016	1.037109	1.054688	0.590625	0.9667969	1.058203
1.081	0.9914063	0.9386719	1.114453	0.9035156	0.9210938	0.4605469	0.8261719	0.9070313
1.082	0.703125	0.646875	0.84375	0.6257813	0.6152344	0.2179688	0.5449219	0.6257813
1.083	0.2988281	0.2355469	0.4605469	0.2355469	0.1792969	-0.09492188	0.16875	0.2460938
1.084	-0.06328125	-0.1265625	0.1054688	-0.1019531	-0.2074219	-0.3691406	-0.1582031	-0.084375
1.085	-0.4324219	-0.4886719	-0.2460938	-0.4429688	-0.6046875	-0.6398438	-0.4886719	-0.4148438
1.086	-0.7417969	-0.7980469	-0.5449219	-0.7242188	-0.9421875	-0.8613281	-0.7664063	-0.6890625
1.087	-0.9070313	-0.9527344	-0.6996094	-0.8648438	-1.132031	-0.95625	-0.9105469	-0.8226563
1.088	-0.9246094	-0.9632813	-0.7171875	-0.8683594	-1.167188	-0.9457031	-0.9175781	-0.8226563
1.089	-0.8296875	-0.8648438	-0.6257813	-0.759375	-1.061719	-0.8472656	-0.8085938	-0.7101563
1.09	-0.6046875	-0.6398438	-0.4078125	-0.5378906	-0.8226563	-0.6574219	-0.5941406	-0.4886719
1.091	-0.2285156	-0.2566406	-0.0421875	-0.1722656	-0.4183594	-0.3515625	-0.2390625	-0.1300781
1.092	0.1511719	0.1195313	0.3269531	0.1828125	-0.01054688	-0.06328125	0.1054688	0.2144531
1.093	0.5273438	0.4886719	0.6820313	0.5308594	0.3902344	0.2109375	0.4429688	0.5519531
1.094	0.8824219	0.84375	1.019531	0.8542969	0.7769531	0.4710938	0.759375	0.8683594
1.095	1.096875	1.047656	1.219922	1.037109	1.016016	0.6117188	0.9527344	1.058203
1.096	1.163672	1.103906	1.276172	1.082813	1.086328	0.6363281	0.9984375	1.103906
1.097	1.100391	1.037109	1.212891	1.008984	1.026563	0.5554688	0.9246094	1.016016
1.098	0.9246094	0.8613281	1.047656	0.8367188	0.8507813	0.39375	0.7488281	0.8332031
1.099	0.5800781	0.5132813	0.7207031	0.5027344	0.4816406	0.1125	0.4183594	0.4992188
1.1	0.1863281	0.1125	0.3410156	0.1230469	0.05273438	-0.1863281	0.05625	0.1300781
1.101	-0.16875	-0.2425781	-0.003515625	-0.2074219	-0.3304688	-0.4570313	-0.2671875	-0.1863281
1.102	-0.534375	-0.6011719	-0.3515625	-0.5414063	-0.7207031	-0.7242188	-0.590625	-0.50625
1.103	-0.7980469	-0.8578125	-0.6046875	-0.7769531	-1.0125	-0.9	-0.8226563	-0.7347656
1.104	-0.9210938	-0.9738281	-0.7207031	-0.8753906	-1.153125	-0.9597656	-0.9246094	-0.8332031
1.105	-0.9	-0.9492188	-0.6996094	-0.8402344	-1.135547	-0.9175781	-0.8894531	-0.7945313
1.106	-0.7628906	-0.8121094	-0.5695313	-0.703125	-0.9914063	-0.7945313	-0.7453125	-0.646875
1.107	-0.4816406	-0.5273438	-0.2988281	-0.4253906	-0.6855469	-0.5589844	-0.478125	-0.3761719
1.108	-0.08789063	-0.1300781	0.07734375	-0.04570313	-0.2707031	-0.2460938	-0.1125	-0.00703125
1.109	0.28125	0.2285156	0.4359375	0.2917969	0.1195313	0.02460938	0.2179688	0.3269531
1.11	0.6644531	0.6082031	0.7980469	0.646875	0.5308594	0.3023438	0.5554688	0.6679688
1.111	0.9738281	0.9210938	1.093359	0.928125	0.8753906	0.5273438	0.8402344	0.9492188
1.112	1.132031	1.072266	1.244531	1.061719	1.051172	0.6292969	0.984375	1.082813
1.113	1.149609	1.082813	1.262109	1.065234	1.075781	0.6152344	0.9878906	1.075781
1.114	1.047656	0.9808594	1.167188	0.9597656	0.984375	0.5097656	0.8789063	0.9632813
1.115	0.8226563	0.7523438	0.9492188	0.7382813	0.7488281	0.3128906	0.6503906	0.73125
1.116	0.4359375	0.3621094	0.5835938	0.365625	0.3304688	0.003515625	0.2847656	0.365625
1.117	0.05625	-0.0140625	0.2179688	0.00703125	-0.07382813	-0.28125	-0.05976563	0.01757813
1.118	-0.3058594	-0.3761719	-0.1265625	-0.3269531	-0.4640625	-0.5484375	-0.3832031	-0.3058594
1.119	-0.6539063	-0.7207031	-0.4605469	-0.6433594	-0.8367188	-0.7980469	-0.6890625	-0.6152344
1.12	-0.8648438	-0.928125	-0.6644531	-0.8332031	-1.075781	-0.9351563	-0.8753906	-0.7980469
1.121	-0.9246094	-0.984375	-0.7242188	-0.8789063	-1.156641	-0.9527344	-0.9246094	-0.8402344
1.122	-0.8613281	-0.9175781	-0.6644531	-0.8050781	-1.093359	-0.8789063	-0.8472656	-0.759375
1.123	-0.6890625	-0.7417969	-0.4992188	-0.6328125	-0.9070313	-0.73125	-0.6785156	-0.5800781
1.124	-0.3445313	-0.4007813	-0.1757813	-0.3023438	-0.5484375	-0.4535156	-0.3621094	-0.2566406
1.125	0.04570313	-0.01054688	0.2003906	0.0703125	-0.1371094	-0.1476563	-0.003515625	0.1054688
1.126	0.4113281	0.3515625	0.5519531	0.4113281	0.2496094	0.1195313	0.3199219	0.4394531
1.127	0.7839844	0.73125	0.9070313	0.759375	0.6609375	0.39375	0.6539063	0.7769531
1.128	1.051172	0.9914063	1.156641	0.9949219	0.9527344	0.5800781	0.8929688	1.0125
1.129	1.160156	1.089844	1.265625	1.079297	1.075781	0.6363281	0.9914063	1.100391
1.13	1.135547	1.058203	1.2375	1.040625	1.058203	0.5871094	0.9492188	1.058203
1.131	1.001953	0.928125	1.110938	0.9035156	0.928125	0.4570313	0.8085938	0.9140625
1.132	0.7101563	0.6328125	0.8367188	0.6222656	0.6222656	0.2144531	0.5308594	0.6257813
1.133	0.3023438	0.2214844	0.4535156	0.2355469	0.1863281	-0.09492188	0.1582031	0.2425781
1.134	-0.05976563	-0.140625	0.1019531	-0.1054688	-0.2003906	-0.3691406	-0.16875	-0.084375
1.135	-0.4324219	-0.50625	-0.2496094	-0.4464844	-0.5976563	-0.6398438	-0.4957031	-0.4148438
1.136	-0.7453125	-0.8121094	-0.5484375	-0.7277344	-0.9351563	-0.8578125	-0.7699219	-0.6890625
1.137	-0.9	-0.9667969	-0.7066406	-0.8683594	-1.121484	-0.9527344	-0.9140625	-0.8226563
1.138	-0.9175781	-0.9773438	-0.7242188	-0.871875	-1.149609	-0.9386719	-0.9175781	-0.8226563
1.139	-0.8191406	-0.8753906	-0.6292969	-0.7664063	-1.047656	-0.84375	-0.8085938	-0.7101563
1.14	-0.5941406	-0.6503906	-0.4113281	-0.5449219	-0.8085938	-0.6539063	-0.590625	-0.4851563
1.141	-0.2179688	-0.2671875	-0.04570313	-0.1792969	-0.4078125	-0.3515625	-0.2425781	-0.1265625
1.142	0.1617188	0.1054688	0.3164063	0.1757813	-0.00703125	-0.06328125	0.09492188	0.2179688
1.143	0.5378906	0.478125	0.6714844	0.5203125	0.3902344	0.2039063	0.4324219	0.5589844
1.144	0.8929688	0.8296875	1.005469	0.8472656	0.7839844	0.4640625	0.7523438	0.8753906
1.145	1.103906	1.033594	1.209375	1.030078	1.019531	0.6046875	0.9457031	1.054688
1.146	1.163672	1.089844	1.265625	1.075781	1.089844	0.6292969	0.9949219	1.096875
1.147	1.100391	1.026563	1.202344	1.005469	1.026563	0.5519531	0.9140625	1.019531
1.148	0.9246094	0.8507813	1.030078	0.8332031	0.84375	0.3902344	0.73125	0.8332031
1.149	0.5800781	0.4992188	0.703125	0.4957031	0.4710938	0.1054688	0.4007813	0.4992188
1.15	0.1792969	0.09492188	0.3234375	0.1160156	0.0421875	-0.196875	0.03515625	0.1265625
1.151	-0.1757813	-0.2566406	-0.0140625	-0.2109375	-0.3304688	-0.4605469	-0.28125	-0.1898438
1.152	-0.5414063	-0.61875	-0.3621094	-0.5484375	-0.7207031	-0.7242188	-0.6011719	-0.5167969
1.153	-0.8121094	-0.8824219	-0.6222656	-0.7910156	-1.019531	-0.9105469	-0.84375	-0.7523438
1.154	-0.9175781	-0.9878906	-0.7277344	-0.8824219	-1.160156	-0.9703125	-0.9457031	-0.8402344
1.155	-0.8894531	-0.95625	-0.6996094	-0.8402344	-1.135547	-0.9210938	-0.9035156	-0.7910156
1.156	-0.759375	-0.8191406	-0.5730469	-0.6996094	-0.9914063	-0.7980469	-0.7628906	-0.6433594
1.157	-0.4710938	-0.534375	-0.2988281	-0.421875	-0.6855469	-0.5625	-0.4957031	-0.3726563
1.158	-0.07382813	-0.1371094	0.08085938	-0.04570313	-0.2636719	-0.2460938	-0.1300781	-0.003515625
1.159	0.2917969	0.2214844	0.4394531	0.2988281	0.1195313	0.02460938	0.2003906	0.3304688
1.16	0.6714844	0.6046875	0.8015625	0.6503906	0.534375	0.3058594	0.5414063	0.675
1.161	0.9878906	0.9175781	1.096875	0.9351563	0.8824219	0.5378906	0.8261719	0.95625
1.162	1.142578	1.06875	1.248047	1.072266	1.058203	0.6363281	0.9703125	1.089844
1.163	1.160156	1.082813	1.265625	1.072266	1.086328	0.6222656	0.9773438	1.082813
1.164	1.065234	0.984375	1.174219	0.9667969	0.9949219	0.5167969	0.8683594	0.9703125
1.165	0.8367188	0.7488281	0.95625	0.7382813	0.7488281	0.3128906	0.6328125	0.7347656
1.166	0.4464844	0.3550781	0.5871094	0.365625	0.3269531	0.003515625	0.2671875	0.3691406
1.167	0.06679688	-0.02109375	0.2214844	0.00703125	-0.07734375	-0.28125	-0.07382813	0.01757813
1.168	-0.2953125	-0.3867188	-0.1230469	-0.3269531	-0.4640625	-0.5519531	-0.3972656	-0.3023438
1.169	-0.6433594	-0.7277344	-0.4535156	-0.6433594	-0.8367188	-0.8015625	-0.703125	-0.6046875
1.17	-0.8507813	-0.9316406	-0.6574219	-0.8261719	-1.075781	-0.9351563	-0.8929688	-0.7839844
1.171	-0.9070313	-0.9878906	-0.7171875	-0.8683594	-1.156641	-0.9527344	-0.9386719	-0.8261719
1.172	-0.8472656	-0.9175781	-0.6574219	-0.7945313	-1.089844	-0.8789063	-0.8613281	-0.7453125
1.173	-0.6714844	-0.7417969	-0.4886719	-0.6222656	-0.9035156	-0.7277344	-0.6890625	-0.5660156
1.174	-0.3304688	-0.3972656	-0.1617188	-0.2917969	-0.5449219	-0.45	-0.3726563	-0.2425781
1.175	0.05625	-0.00703125	0.2144531	0.08085938	-0.1300781	-0.1441406	-0.0140625	0.1160156
1.176	0.421875	0.3550781	0.5695313	0.421875	0.2636719	0.1230469	0.309375	0.4464844
1.177	0.8015625	0.73125	0.9210938	0.7699219	0.675	0.3972656	0.6503906	0.7839844
1.178	1.061719	0.9914063	1.170703	1.001953	0.9632813	0.5800781	0.8859375	1.016016
1.179	1.167188	1.086328	1.276172	1.082813	1.082813	0.6363281	0.9808594	1.100391
1.18	1.139063	1.054688	1.244531	1.040625	1.061719	0.5871094	0.9386719	1.051172
1.181	1.005469	0.9175781	1.117969	0.9035156	0.9246094	0.4535156	0.7945313	0.9
1.182	0.7136719	0.6222656	0.84375	0.6222656	0.61875	0.2074219	0.5132813	0.6117188
1.183	0.3058594	0.2144531	0.4605469	0.2320313	0.1828125	-0.1054688	0.1371094	0.2320313
1.184	-0.05976563	-0.1476563	0.1054688	-0.1054688	-0.2074219	-0.3726563	-0.1898438	-0.09492188
1.185	-0.4289063	-0.5167969	-0.2460938	-0.4429688	-0.6046875	-0.6433594	-0.5203125	-0.4253906
1.186	-0.7382813	-0.8191406	-0.5378906	-0.7242188	-0.9386719	-0.8613281	-0.7945313	-0.6960938
1.187	-0.8929688	-0.9738281	-0.6890625	-0.8613281	-1.121484	-0.9492188	-0.9316406	-0.8296875
1.188	-0.9105469	-0.984375	-0.7066406	-0.8613281	-1.149609	-0.9351563	-0.9316406	-0.8226563
1.189	-0.8121094	-0.8824219	-0.6152344	-0.7523438	-1.047656	-0.8367188	-0.8226563	-0.7066406
1.19	-0.5871094	-0.6539063	-0.3972656	-0.5308594	-0.8050781	-0.646875	-0.6082031	-0.478125
1.191	-0.2039063	-0.2707031	-0.03164063	-0.1652344	-0.4007813	-0.3410156	-0.2566406	-0.1230469
1.192	0.1722656	0.1054688	0.3304688	0.1898438	0	-0.05273438	0.084375	0.2214844
1.193	0.5449219	0.4816406	0.6890625	0.5378906	0.4007813	0.2179688	0.4183594	0.5625
1.194	0.8964844	0.8332031	1.016016	0.8648438	0.7839844	0.478125	0.7347656	0.8753906
1.195	1.103906	1.033594	1.216406	1.047656	1.016016	0.6152344	0.9246094	1.058203
1.196	1.163672	1.086328	1.276172	1.082813	1.086328	0.6328125	0.9703125	1.100391
1.197	1.100391	1.019531	1.212891	1.005469	1.023047	0.5519531	0.8894531	1.019531
1.198	0.9246094	0.84375	1.040625	0.8332031	0.8402344	0.3867188	0.7101563	0.8332031
1.199	0.5730469	0.4921875	0.7136719	0.4957031	0.4675781	0.1019531	0.3796875	0.4957031
1.2	0.1792969	0.09492188	0.3375	0.1195313	0.04921875	-0.1933594	0.02109375	0.1300781
1.201	-0.1757813	-0.2566406	-0.003515625	-0.2109375	-0.3304688	-0.4605469	-0.2953125	-0.1898438
1.202	-0.5519531	-0.6292969	-0.3621094	-0.5554688	-0.73125	-0.7347656	-0.6257813	-0.5273438
1.203	-0.815625	-0.8894531	-0.61875	-0.7980469	-1.023047	-0.9105469	-0.8613281	-0.759375
1.204	-0.9175781	-0.9878906	-0.7171875	-0.8789063	-1.153125	-0.9597656	-0.9492188	-0.8402344
1.205	-0.8894531	-0.95625	-0.6890625	-0.8367188	-1.128516	-0.9140625	-0.9070313	-0.7945313
1.206	-0.759375	-0.8191406	-0.5625	-0.6996094	-0.984375	-0.7875	-0.7664063	-0.6503906
1.207	-0.4710938	-0.5273438	-0.2882813	-0.4183594	-0.6785156	-0.5484375	-0.4957031	-0.3726563
1.208	-0.07382813	-0.1300781	0.09140625	-0.0421875	-0.2601563	-0.2355469	-0.1335938	-0.003515625
1.209	0.2917969	0.2285156	0.45	0.2988281	0.1265625	0.028125	0.196875	0.3304688
1.21	0.675	0.6117188	0.8121094	0.6503906	0.5378906	0.309375	0.5378906	0.6714844
1.211	0.9808594	0.9175781	1.103906	0.9316406	0.8789063	0.5308594	0.815625	0.9492188
1.212	1.139063	1.065234	1.251563	1.061719	1.051172	0.6257813	0.95625	1.082813
1.213	1.153125	1.075781	1.262109	1.061719	1.072266	0.6046875	0.95625	1.082813
1.214	1.051172	0.9738281	1.167188	0.95625	0.9773438	0.5027344	0.84375	0.9597656
1.215	0.815625	0.7417969	0.9457031	0.73125	0.7382813	0.3023438	0.6222656	0.7242188
1.216	0.4253906	0.3480469	0.5765625	0.3550781	0.3199219	-0.003515625	0.2601563	0.3585938
1.217	0.0421875	-0.028125	0.2074219	0	-0.084375	-0.2882813	-0.084375	0.01054688
1.218	-0.3199219	-0.39375	-0.140625	-0.3410156	-0.478125	-0.5589844	-0.4113281	-0.3128906
1.219	-0.6644531	-0.7347656	-0.4710938	-0.6574219	-0.8507813	-0.8050781	-0.7171875	-0.6152344
1.22	-0.8683594	-0.9316406	-0.6714844	-0.8367188	-1.089844	-0.9386719	-0.9070313	-0.7945313
1.221	-0.928125	-0.9878906	-0.7277344	-0.8753906	-1.167188	-0.95625	-0.9527344	-0.8332031
1.222	-0.8648438	-0.9175781	-0.6679688	-0.8015625	-1.096875	-0.8789063	-0.871875	-0.7488281
1.223	-0.6925781	-0.7417969	-0.4992188	-0.6292969	-0.9105469	-0.7277344	-0.6960938	-0.5695313
1.224	-0.3515625	-0.4007813	-0.16875	-0.2988281	-0.5519531	-0.45	-0.3761719	-0.2460938
1.225	0.03867188	-0.01054688	0.2039063	0.07382813	-0.1371094	-0.1476563	-0.02109375	0.1160156
1.226	0.4042969	0.3515625	0.5589844	0.4148438	0.253125	0.1195313	0.3058594	0.45
1.227	0.7804688	0.7277344	0.9105469	0.759375	0.6644531	0.39375	0.646875	0.7875
1.228	1.040625	0.9808594	1.156641	0.9914063	0.9527344	0.5765625	0.8824219	1.0125
1.229	1.146094	1.075781	1.262109	1.072266	1.072266	0.6328125	0.9773438	1.093359
1.23	1.117969	1.044141	1.233984	1.033594	1.051172	0.5835938	0.9351563	1.047656
1.231	0.984375	0.9070313	1.103906	0.8964844	0.9175781	0.45	0.7910156	0.8964844
1.232	0.6890625	0.6082031	0.8296875	0.6117188	0.6046875	0.2039063	0.50625	0.6082031
1.233	0.2847656	0.2003906	0.4464844	0.225	0.1722656	-0.1089844	0.1371094	0.2285156
1.234	-0.07734375	-0.1582031	0.09140625	-0.1125	-0.2144531	-0.3796875	-0.1863281	-0.1019531
1.235	-0.4464844	-0.5238281	-0.2566406	-0.4535156	-0.6117188	-0.6503906	-0.5203125	-0.4324219
1.236	-0.7558594	-0.8261719	-0.5519531	-0.73125	-0.9492188	-0.8683594	-0.7945313	-0.703125
1.237	-0.9105469	-0.9773438	-0.703125	-0.8648438	-1.135547	-0.95625	-0.9316406	-0.8367188
1.238	-0.9246094	-0.9878906	-0.7171875	-0.8648438	-1.160156	-0.9421875	-0.9316406	-0.8296875
1.239	-0.8261719	-0.8859375	-0.6222656	-0.7558594	-1.047656	-0.84375	-0.8191406	-0.7136719
1.24	-0.5976563	-0.6539063	-0.4007813	-0.5273438	-0.8050781	-0.6503906	-0.6011719	-0.4886719
1.241	-0.2144531	-0.2707031	-0.03515625	-0.1617188	-0.4007813	-0.3410156	-0.2460938	-0.1265625
1.242	0.1652344	0.1054688	0.3269531	0.1933594	0	-0.05625	0.09492188	0.2179688
1.243	0.5449219	0.4816406	0.6890625	0.5378906	0.4042969	0.2109375	0.4359375	0.5589844
1.244	0.8964844	0.8296875	1.019531	0.8613281	0.7910156	0.4710938	0.7523438	0.871875
1.245	1.103906	1.033594	1.216406	1.044141	1.019531	0.6082031	0.9386719	1.054688
1.246	1.160156	1.089844	1.272656	1.082813	1.089844	0.6292969	0.984375	1.093359
1.247	1.093359	1.016016	1.205859	1.001953	1.026563	0.5484375	0.9070313	1.005469
1.248	0.9140625	0.8367188	1.037109	0.8226563	0.84375	0.3832031	0.7207031	0.815625
1.249	0.5695313	0.4886719	0.7136719	0.4921875	0.4710938	0.0984375	0.3972656	0.4851563
1.25	0.1757813	0.09140625	0.3410156	0.1160156	0.04921875	-0.1933594	0.03515625	0.1195313
1.251	-0.1898438	-0.2707031	-0.01054688	-0.2214844	-0.3375	-0.4675781	-0.2917969	-0.2109375
1.252	-0.5589844	-0.6363281	-0.3621094	-0.5625	-0.7347656	-0.7417969	-0.6222656	-0.5414063
1.253	-0.815625	-0.8859375	-0.6082031	-0.7945313	-1.019531	-0.9140625	-0.8472656	-0.7664063
1.254	-0.9210938	-0.984375	-0.7136719	-0.8789063	-1.149609	-0.9632813	-0.9421875	-0.8472656
1.255	-0.8929688	-0.9527344	-0.6855469	-0.8332031	-1.121484	-0.9105469	-0.9	-0.7980469
1.256	-0.759375	-0.8085938	-0.5484375	-0.6925781	-0.9773438	-0.7875	-0.7558594	-0.6503906
1.257	-0.4675781	-0.5203125	-0.2707031	-0.4113281	-0.6714844	-0.5484375	-0.4851563	-0.3726563
1.258	-0.0703125	-0.1230469	0.1089844	-0.03515625	-0.2496094	-0.2355469	-0.1195313	-0.003515625
1.259	0.2917969	0.2355469	0.4640625	0.3023438	0.1371094	0.03164063	0.2074219	0.3304688
1.26	0.675	0.61875	0.8226563	0.6574219	0.5484375	0.3128906	0.5484375	0.6714844
1.261	0.9808594	0.9246094	1.117969	0.9351563	0.8894531	0.5308594	0.8296875	0.9457031
1.262	1.135547	1.072266	1.265625	1.065234	1.058203	0.6292969	0.9703125	1.079297
1.263	1.146094	1.079297	1.279688	1.061719	1.082813	0.6117188	0.9703125	1.075781
1.264	1.044141	0.9808594	1.184766	0.95625	0.984375	0.5027344	0.8578125	0.9527344
1.265	0.815625	0.7417969	0.9632813	0.7277344	0.7417969	0.2988281	0.6222656	0.7171875
1.266	0.4253906	0.3480469	0.5941406	0.3515625	0.3234375	-0.00703125	0.2601563	0.3515625
1.267	0.04570313	-0.03164063	0.2285156	-0.003515625	-0.08085938	-0.2917969	-0.08085938	0
1.268	-0.3164063	-0.3972656	-0.1230469	-0.3445313	-0.4746094	-0.5625	-0.4078125	-0.3269531
1.269	-0.6644531	-0.7382813	-0.4535156	-0.6539063	-0.84375	-0.8085938	-0.7136719	-0.6292969
1.27	-0.8683594	-0.9351563	-0.6539063	-0.8332031	-1.075781	-0.9351563	-0.8929688	-0.8085938
1.271	-0.9246094	-0.9914063	-0.7101563	-0.8753906	-1.149609	-0.9527344	-0.9386719	-0.8472656
1.272	-0.8648438	-0.9210938	-0.6433594	-0.7980469	-1.082813	-0.8789063	-0.8578125	-0.7628906
1.273	-0.6890625	-0.7417969	-0.4710938	-0.6222656	-0.8929688	-0.7277344	-0.6820313	-0.5800781
1.274	-0.3410156	-0.39375	-0.1441406	-0.2917969	-0.534375	-0.4464844	-0.365625	-0.2496094
1.275	0.04570313	-0.003515625	0.2320313	0.07382813	-0.1195313	-0.1441406	-0.00703125	0.1125
1.276	0.4148438	0.3550781	0.5871094	0.4183594	0.2707031	0.1195313	0.3164063	0.4429688
1.277	0.7910156	0.73125	0.9386719	0.7664063	0.6785156	0.39375	0.6539063	0.7804688
1.278	1.047656	0.9878906	1.18125	0.9984375	0.9632813	0.5765625	0.8894531	1.0125
1.279	1.153125	1.082813	1.286719	1.079297	1.079297	0.6363281	0.984375	1.093359
1.28	1.125	1.051172	1.258594	1.037109	1.054688	0.5835938	0.9421875	1.044141
1.281	0.9914063	0.9140625	1.125	0.9	0.9210938	0.45	0.7945313	0.8929688
1.282	0.6996094	0.6152344	0.8472656	0.6082031	0.6046875	0.2003906	0.50625	0.6046875
1.283	0.2953125	0.2074219	0.4640625	0.2179688	0.16875	-0.1160156	0.1335938	0.225
1.284	-0.06679688	-0.1546875	0.1089844	-0.1195313	-0.2144531	-0.3832031	-0.1863281	-0.1019531
1.285	-0.4394531	-0.5203125	-0.2425781	-0.4605469	-0.6082031	-0.6539063	-0.5167969	-0.4324219
1.286	-0.7453125	-0.8191406	-0.534375	-0.7382813	-0.9386719	-0.8683594	-0.7875	-0.6996094
1.287	-0.8964844	-0.9667969	-0.6820313	-0.8683594	-1.121484	-0.95625	-0.9246094	-0.8296875
1.288	-0.9105469	-0.9738281	-0.6960938	-0.8683594	-1.146094	-0.9386719	-0.928125	-0.8226563
1.289	-0.8121094	-0.871875	-0.6011719	-0.759375	-1.037109	-0.8402344	-0.8191406	-0.7066406
1.29	-0.5800781	-0.6398438	-0.3796875	-0.5308594	-0.7945313	-0.6503906	-0.5976563	-0.4816406
1.291	-0.196875	-0.2566406	-0.0140625	-0.1652344	-0.39375	-0.3410156	-0.2496094	-0.1230469
1.292	0.1757813	0.1160156	0.3480469	0.1828125	0.00703125	-0.05625	0.09140625	0.2179688
1.293	0.5484375	0.4886719	0.7066406	0.5308594	0.4113281	0.2144531	0.4289063	0.5554688
1.294	0.8964844	0.8367188	1.033594	0.8542969	0.7945313	0.4746094	0.7453125	0.8683594
1.295	1.103906	1.037109	1.230469	1.037109	1.019531	0.6117188	0.9316406	1.047656
1.296	1.160156	1.093359	1.286719	1.072266	1.089844	0.6257813	0.9738281	1.086328
1.297	1.096875	1.019531	1.223438	0.9949219	1.026563	0.5414063	0.8929688	0.9984375
1.298	0.9210938	0.84375	1.054688	0.8226563	0.84375	0.3761719	0.7136719	0.8121094
1.299	0.5730469	0.4886719	0.7277344	0.4851563	0.4710938	0.09140625	0.3832031	0.478125
1.3	0.1652344	0.08085938	0.3410156	0.0984375	0.0421875	-0.2144531	0.01757813	0.1054688
1.301	-0.1933594	-0.2777344	-0.00703125	-0.2320313	-0.3410156	-0.4816406	-0.3058594	-0.2214844
1.302	-0.5554688	-0.6363281	-0.3550781	-0.5660156	-0.7347656	-0.7453125	-0.6292969	-0.5414063
1.303	-0.8121094	-0.8859375	-0.6011719	-0.8015625	-1.019531	-0.9210938	-0.8578125	-0.7664063
1.304	-0.9175781	-0.984375	-0.7066406	-0.8824219	-1.146094	-0.9703125	-0.9492188	-0.8507813
1.305	-0.8894531	-0.9527344	-0.6785156	-0.8402344	-1.117969	-0.9175781	-0.9070313	-0.8050781
1.306	-0.759375	-0.8121094	-0.5449219	-0.703125	-0.9738281	-0.7945313	-0.7628906	-0.6609375
1.307	-0.4675781	-0.5203125	-0.2671875	-0.4183594	-0.6644531	-0.5519531	-0.4851563	-0.3796875
1.308	-0.0703125	-0.1230469	0.1160156	-0.03867188	-0.2460938	-0.2390625	-0.1230469	-0.00703125
1.309	0.2917969	0.2390625	0.4675781	0.3058594	0.140625	0.028125	0.2039063	0.3269531
1.31	0.675	0.6222656	0.8261719	0.6574219	0.5519531	0.309375	0.5449219	0.6714844
1.311	0.984375	0.928125	1.121484	0.9351563	0.8929688	0.5308594	0.8261719	0.9492188
1.312	1.135547	1.072266	1.269141	1.065234	1.065234	0.6257813	0.9632813	1.079297
1.313	1.149609	1.079297	1.279688	1.065234	1.086328	0.6082031	0.9632813	1.072266
1.314	1.051172	0.9773438	1.177734	0.95625	0.9878906	0.5027344	0.8507813	0.9527344
1.315	0.8191406	0.7382813	0.95625	0.7277344	0.7417969	0.2988281	0.6152344	0.7136719
1.316	0.4253906	0.3480469	0.5871094	0.3550781	0.3199219	-0.00703125	0.253125	0.3410156
1.317	0.04570313	-0.028125	0.2179688	0	-0.084375	-0.2917969	-0.08789063	-0.003515625
1.318	-0.3164063	-0.39375	-0.1335938	-0.3375	-0.4746094	-0.5625	-0.4183594	-0.3304688
1.319	-0.6644531	-0.7347656	-0.4640625	-0.6539063	-0.84375	-0.8121094	-0.7207031	-0.6363281
1.32	-0.8683594	-0.9351563	-0.6574219	-0.8367188	-1.075781	-0.9457031	-0.9070313	-0.8191406
1.321	-0.9246094	-0.9914063	-0.7136719	-0.871875	-1.153125	-0.9597656	-0.9527344	-0.8578125
1.322	-0.8578125	-0.9210938	-0.6503906	-0.7945313	-1.086328	-0.8859375	-0.8753906	-0.7699219
1.323	-0.6785156	-0.7382813	-0.478125	-0.61875	-0.8964844	-0.73125	-0.6925781	-0.5871094
1.324	-0.3339844	-0.3902344	-0.1476563	-0.2847656	-0.534375	-0.45	-0.3726563	-0.2566406
1.325	0.05273438	0	0.225	0.084375	-0.1195313	-0.1441406	-0.0140625	0.1054688
1.326	0.421875	0.3621094	0.5800781	0.4253906	0.2707031	0.1230469	0.309375	0.4359375
1.327	0.7980469	0.7382813	0.9316406	0.7699219	0.6820313	0.3972656	0.646875	0.7734375
1.328	1.054688	0.9949219	1.177734	0.9984375	0.9667969	0.5765625	0.8824219	1.005469
1.329	1.160156	1.089844	1.279688	1.079297	1.082813	0.6328125	0.9738281	1.086328
1.33	1.128516	1.054688	1.248047	1.040625	1.061719	0.5800781	0.9316406	1.037109
1.331	0.9914063	0.9140625	1.117969	0.9035156	0.9246094	0.4464844	0.7875	0.8824219
1.332	0.6960938	0.6152344	0.8402344	0.6117188	0.6117188	0.196875	0.5027344	0.5941406
1.333	0.2882813	0.2039063	0.4570313	0.225	0.1792969	-0.1125	0.1335938	0.2144531
1.334	-0.07734375	-0.1546875	0.1054688	-0.1160156	-0.2109375	-0.3832031	-0.1933594	-0.1160156
1.335	-0.4464844	-0.5203125	-0.2460938	-0.4570313	-0.6082031	-0.6574219	-0.5238281	-0.4429688
1.336	-0.7523438	-0.8226563	-0.5414063	-0.7347656	-0.9421875	-0.8683594	-0.7980469	-0.7066406
1.337	-0.9070313	-0.9738281	-0.6890625	-0.8683594	-1.125	-0.9597656	-0.9316406	-0.8367188
1.338	-0.9210938	-0.984375	-0.6996094	-0.8648438	-1.146094	-0.9421875	-0.9316406	-0.8332031
1.339	-0.8226563	-0.8789063	-0.6046875	-0.7558594	-1.037109	-0.8472656	-0.8226563	-0.7171875
1.34	-0.590625	-0.646875	-0.3796875	-0.5273438	-0.7875	-0.6539063	-0.5976563	-0.4851563
1.341	-0.2074219	-0.2636719	-0.00703125	-0.1617188	-0.3832031	-0.3445313	-0.2460938	-0.1265625
1.342	0.1722656	0.1125	0.3550781	0.1933594	0.0140625	-0.05625	0.08789063	0.2179688
1.343	0.5484375	0.4886719	0.7136719	0.5378906	0.4148438	0.2109375	0.4253906	0.5589844
1.344	0.8964844	0.8367188	1.037109	0.8578125	0.7980469	0.4675781	0.7382813	0.871875
1.345	1.100391	1.033594	1.233984	1.037109	1.026563	0.6046875	0.9246094	1.047656
1.346	1.156641	1.082813	1.286719	1.072266	1.089844	0.6222656	0.9667969	1.082813
1.347	1.093359	1.016016	1.219922	0.9984375	1.026563	0.5449219	0.8859375	0.9984375
1.348	0.9175781	0.8367188	1.051172	0.8191406	0.8472656	0.3796875	0.7066406	0.8121094
1.349	0.5589844	0.4710938	0.7136719	0.4746094	0.4640625	0.08789063	0.3691406	0.4640625
1.35	0.1546875	0.06679688	0.3304688	0.09492188	0.03515625	-0.2179688	0.003515625	0.09140625
1.351	-0.2003906	-0.28125	-0.0140625	-0.2355469	-0.3410156	-0.478125	-0.3128906	-0.2285156
1.352	-0.5660156	-0.6433594	-0.3621094	-0.5730469	-0.73125	-0.7417969	-0.6328125	-0.5484375
1.353	-0.8226563	-0.8964844	-0.6082031	-0.8050781	-1.016016	-0.9140625	-0.8578125	-0.7734375
1.354	-0.9246094	-0.9914063	-0.7101563	-0.8859375	-1.139063	-0.9632813	-0.9492188	-0.8578125
1.355	-0.8964844	-0.9597656	-0.6785156	-0.8402344	-1.110938	-0.9140625	-0.9035156	-0.8085938
1.356	-0.759375	-0.8191406	-0.5449219	-0.6996094	-0.9632813	-0.7875	-0.7558594	-0.6609375
1.357	-0.4640625	-0.5273438	-0.2671875	-0.4148438	-0.6539063	-0.5449219	-0.478125	-0.3796875
1.358	-0.06679688	-0.1265625	0.1125	-0.03867188	-0.2355469	-0.2320313	-0.1160156	-0.01054688
1.359	0.2953125	0.2355469	0.4640625	0.3058594	0.1511719	0.03515625	0.2144531	0.3199219
1.36	0.6785156	0.61875	0.8226563	0.6574219	0.5660156	0.3164063	0.5554688	0.6679688
1.361	0.9878906	0.9210938	1.114453	0.9351563	0.9070313	0.5378906	0.8332031	0.9457031
1.362	1.139063	1.06875	1.258594	1.065234	1.075781	0.6328125	0.9738281	1.075781
1.363	1.149609	1.072266	1.269141	1.061719	1.093359	0.6152344	0.9703125	1.065234
1.364	1.047656	0.9667969	1.170703	0.9527344	0.9949219	0.50625	0.8578125	0.9457031
1.365	0.815625	0.7277344	0.9421875	0.7207031	0.7453125	0.2988281	0.6222656	0.7066406
1.366	0.421875	0.3304688	0.5730469	0.3480469	0.3234375	-0.00703125	0.2566406	0.3375
1.367	0.04570313	-0.04570313	0.2074219	-0.00703125	-0.08085938	-0.2953125	-0.084375	-0.003515625
1.368	-0.3164063	-0.4042969	-0.140625	-0.3410156	-0.4710938	-0.5660156	-0.4078125	-0.3339844
1.369	-0.6644531	-0.7417969	-0.4710938	-0.6539063	-0.8402344	-0.8085938	-0.7101563	-0.6398438
1.37	-0.8683594	-0.9421875	-0.6679688	-0.8367188	-1.072266	-0.9386719	-0.8894531	-0.815625
1.371	-0.9210938	-0.9914063	-0.7207031	-0.871875	-1.139063	-0.9527344	-0.9316406	-0.8507813
1.372	-0.8507813	-0.9175781	-0.6539063	-0.7910156	-1.065234	-0.8753906	-0.8507813	-0.7628906
1.373	-0.6714844	-0.7382813	-0.478125	-0.6082031	-0.871875	-0.7171875	-0.6714844	-0.5800781
