-457.875485,5671.978673,1516.655268,-7043.414658,9830.386618,6186.180554,2806.775606,-3673.375091,-5252.168209,13988.459288,9191.439651,16280.921254,18041.076427,16336.286525,7532.984916,8288.607989,0.000000,-838.872009,-537.288025,1540.000000,-140.000000,1820.000000
-462.323482,5665.071984,1524.634841,-7099.830461,9829.179624,6189.153336,2798.013723,-3684.059225,-5227.536586,14038.258974,9242.960422,16319.388606,18093.983006,16394.289302,7578.001330,8321.956792,0.000000,-844.239990,-536.312012,1260.000000,-280.000000,1680.000000
-547.550684,5726.271060,1527.607623,-7286.825155,9587.758432,6164.409955,2780.959342,-3659.785230,-4829.697887,14189.937912,9394.304084,16444.267803,18032.873336,16202.421928,7688.910686,8388.117956,-3.416000,-825.695984,-560.223999,140.000000,-1120.000000,-980.000000
-534.318451,5743.794828,1524.433675,-7234.790294,9592.720520,6159.738440,2792.001103,-3644.675451,-4843.868893,14146.754342,9350.651127,16413.735320,17984.995900,16150.141197,7653.550226,8357.451362,-2.928000,-827.160034,-555.343994,280.000000,-1400.000000,-1260.000000
-522.472027,5755.529494,1522.578481,-7170.484325,9597.950828,6157.905597,2804.875708,-3631.957308,-4866.220637,14091.634940,9292.469536,16371.937558,17923.930934,16087.288092,7606.991542,8319.989839,-2.440000,-824.720032,-556.807983,560.000000,-1260.000000,-1540.000000
-516.794684,5754.233093,1524.187806,-7125.110284,9603.225840,6162.219484,2816.610374,-3626.950518,-4883.006797,14056.207425,9253.309280,16339.773397,17884.055422,16048.016077,7575.587341,8295.626437,-0.976000,-827.648010,-557.296021,840.000000,-1260.000000,-1820.000000
-519.521596,5744.979470,1528.702859,-7125.937298,9606.645656,6164.678176,2818.398514,-3636.092381,-4883.722053,14056.430943,9251.387030,16338.588755,17884.122477,16051.547653,7579.253027,8298.174536,0.488000,-828.135986,-559.247986,1260.000000,-1260.000000,-1960.000000
-527.098838,5731.121389,1536.771838,-7170.529028,9606.310380,6170.109650,2808.787263,-3654.197294,-4868.634626,14094.585370,9289.563810,16369.389459,17927.507213,16100.050938,7610.299600,8324.259022,-0.976000,-827.160034,-557.783997,1260.000000,-1400.000000,-2100.000000
-536.486570,5717.196252,1542.069202,-7233.180968,9602.220011,6175.183496,2796.985542,-3665.328463,-4850.261492,14148.900109,9347.477179,16411.388387,17989.578007,16164.692183,7653.058488,8361.362918,-0.488000,-827.160034,-556.807983,1400.000000,-1260.000000,-2240.000000
-544.086164,5711.138929,1539.789324,-7284.858201,9595.425081,6174.356481,2786.323760,-3667.407175,-4832.089523,14192.933046,9394.482898,16446.637088,18039.869432,16214.134242,7689.760052,8392.096566,1.464000,-830.575989,-556.320007,1400.000000,-1120.000000,-2380.000000
-538.922911,5723.097113,1536.861245,-7286.109899,9599.247229,6173.305949,2789.274191,-3657.103021,-4827.954451,14196.621084,9398.193288,16455.644841,18043.825691,16216.123547,7697.404349,8393.772947,5.856000,-828.135986,-558.272034,1400.000000,-1120.000000,-2240.000000
-528.752867,5738.408057,1530.580405,-7243.283956,9603.047026,6168.589731,2800.293601,-3641.121524,-4841.991346,14159.763057,9360.262377,16431.370846,18002.743185,16171.732983,7669.866999,8368.806048,2.440000,-828.624023,-558.272034,1400.000000,-1120.000000,-2380.000000
-521.287384,5747.795790,1525.350097,-7184.744738,9604.544592,6165.192266,2812.341191,-3625.542358,-4860.967977,14108.264638,9306.439377,16390.869485,17946.975582,16109.751595,7627.912775,8337.267737,6.832000,-829.112000,-557.783997,1260.000000,-700.000000,-2380.000000
-518.381657,5750.232130,1522.869053,-7136.174397,9605.326904,6163.448830,2820.700743,-3619.753256,-4876.077756,14063.628204,9260.350080,16355.173749,17899.500477,16059.080191,7589.177202,8310.289182,3.416000,-828.135986,-557.296021,1260.000000,-560.000000,-2240.000000
-518.940451,5744.174808,1526.512388,-7125.423208,9606.176270,6165.348728,2822.131255,-3627.956346,-4875.384852,14055.425114,9251.230568,16345.406037,17887.788163,16050.072438,7578.224847,8304.589487,6.832000,-831.064026,-557.296021,980.000000,-700.000000,-2240.000000
-526.316527,5734.720020,1535.453085,-7156.425077,9606.913877,6168.433269,2815.738656,-3645.100134,-4860.990329,14083.409498,9278.119716,16363.510950,17916.800727,16084.561179,7600.576592,8322.292068,4.880000,-826.671997,-555.832031,980.000000,-420.000000,-1960.000000
-537.291233,5725.086418,1542.739754,-7215.567793,9605.103386,6173.507115,2801.992333,-3661.729832,-4837.051611,14133.589164,9331.048647,16402.961779,17974.490580,16146.609622,7642.441409,8355.104429,4.392000,-829.112000,-557.296021,700.000000,-280.000000,-1820.000000
-544.264977,5719.163206,1543.276196,-7267.759117,9602.443528,6175.295255,2790.458833,-3669.240018,-4817.605593,14176.996252,9376.355633,16438.523404,18023.843232,16198.286855,7680.372319,8382.507668,3.416000,-827.648010,-560.712036,560.000000,-280.000000,-1680.000000
-544.197922,5721.174863,1535.833065,-7286.668692,9597.347331,6171.048423,2783.798013,-3667.183658,-4809.022523,14191.167258,9392.046558,16452.493245,18041.523462,16213.150765,7689.871811,8390.017854,2.440000,-826.671997,-557.783997,420.000000,0.000000,-1540.000000
-539.548759,5731.724886,1527.182940,-7264.249893,9593.838107,6162.465353,2785.876725,-3658.332367,-4815.437474,14170.424839,9373.628720,16437.562279,18019.216421,16184.540532,7672.079822,8373.477563,1.464000,-829.600037,-558.272034,420.000000,140.000000,-1400.000000
-530.652765,5746.097058,1519.672754,-7203.229630,9597.414386,6155.893940,2798.460758,-3640.674489,-4838.280957,14115.417196,9320.342162,16395.630407,17957.883234,16121.754482,7630.125598,8336.396019,2.440000,-828.135986,-556.320007,560.000000,0.000000,-980.000000
-525.623623,5754.143686,1519.203367,-7140.890615,9603.516412,6156.542141,2814.285793,-3625.944689,-4864.812477,14059.135504,9263.278158,16353.542072,17898.449945,16061.605938,7586.003254,8302.108443,1.464000,-828.135986,-555.832031,280.000000,140.000000,-1120.000000
-524.483684,5752.064973,1524.232510,-7116.728379,9606.220973,6161.772449,2819.359639,-3624.223605,-4874.893114,14037.789588,9242.401629,16338.164072,17877.595768,16041.019981,7566.557236,8289.211486,2.440000,-826.184021,-556.807983,560.000000,140.000000,-1120.000000
-530.451599,5742.252558,1528.546396,-7139.303641,9603.628171,6167.963882,2813.414075,-3634.930090,-4865.415974,14055.581576,9259.545417,16351.463360,17899.433422,16064.779885,7580.884705,8300.923801,1.952000,-831.064026,-552.416016,420.000000,280.000000,-1120.000000
-544.220274,5725.712267,1530.647460,-7195.272409,9597.839069,6170.936664,2801.366484,-3651.917416,-4849.121553,14102.028501,9305.254734,16383.068726,17950.551862,16120.458081,7621.140196,8330.830435,1.952000,-828.624023,-555.832031,560.000000,140.000000,-1120.000000
-550.814039,5718.425598,1534.626071,-7250.324756,9596.117985,6173.171839,2793.208098,-3661.841591,-4832.670669,14150.442380,9354.942662,16418.272724,18002.296150,16177.097401,7665.620168,8362.860484,1.464000,-829.112000,-556.320007,140.000000,0.000000,-980.000000
-557.318396,5713.955249,1530.155722,-7283.315931,9590.597104,6169.215580,2786.323760,-3663.607378,-4827.663878,14175.699851,9383.396433,16438.903384,18030.571107,16205.148841,7689.290665,8380.875990,4.392000,-828.624023,-557.783997,420.000000,-140.000000,-1120.000000
-558.659501,5719.297316,1523.137274,-7273.659977,9589.099537,6162.845333,2787.173127,-3654.689032,-4835.598747,14165.574511,9376.467392,16433.762483,18020.445767,16191.022538,7681.512258,8374.773964,3.416000,-826.184021,-557.783997,420.000000,-280.000000,-1260.000000
-548.422402,5734.518854,1517.996373,-7223.212090,9593.368720,6157.883246,2797.879612,-3638.573425,-4852.541370,14123.419121,9332.970897,16403.632331,17974.043545,16139.546471,7645.928281,8346.655470,2.928000,-830.088013,-557.296021,560.000000,-420.000000,-1400.000000
-539.347594,5743.191331,1514.129521,-7164.672871,9594.396900,6153.345842,2804.048694,-3627.263442,-4873.172030,14073.731193,9281.517182,16365.522607,17919.415882,16079.643795,7596.352112,8312.479652,3.904000,-826.671997,-554.856018,560.000000,-280.000000,-1540.000000
-535.368983,5742.677241,1515.917661,-7126.540795,9596.363854,6154.418725,2809.122540,-3624.491826,-4890.092300,14039.309506,9245.933204,16339.482825,17882.759021,16042.159920,7566.289016,8290.686702,2.440000,-826.671997,-556.807983,840.000000,-700.000000,-1680.000000
-537.023012,5736.552863,1522.891405,-7130.318240,9598.710787,6159.492571,2808.072008,-3633.119599,-4889.868783,14041.209405,9247.341364,16340.533357,17886.491762,16049.468940,7569.552370,8293.078338,5.368000,-827.648010,-556.320007,1120.000000,-560.000000,-1960.000000
-544.622605,5726.114598,1530.848626,-7170.864304,9600.543630,6165.304025,2800.852394,-3648.564654,-4877.843544,14074.871132,9280.913684,16364.472075,17924.109748,16094.999444,7601.694179,8315.541841,2.928000,-827.648010,-556.320007,1120.000000,-560.000000,-2100.000000
-557.184286,5712.949421,1534.715478,-7229.872910,9599.113119,6170.176705,2790.950571,-3660.478134,-4862.443192,14123.262659,9329.349915,16399.184334,17978.245673,16155.215043,7646.107095,8351.550502,3.416000,-828.624023,-556.320007,1540.000000,-560.000000,-2380.000000
-563.286312,5710.714246,1534.313146,-7273.995253,9599.046063,6169.573208,2782.412205,-3664.523800,-4849.166256,14160.925348,9366.900845,16429.470948,18019.194069,16197.839820,7676.885447,8378.663168,1.952000,-826.184021,-560.712036,1680.000000,-560.000000,-2380.000000
-559.955902,5715.519871,1527.205292,-7280.678425,9596.721482,6164.119382,2779.975865,-3659.405250,-4845.858198,14168.413182,9376.735613,16439.395122,18027.866546,16200.879657,7680.394671,8383.759366,3.416000,-826.671997,-557.783997,1960.000000,-560.000000,-2520.000000
-551.708108,5721.711304,1516.521158,-7247.933119,9591.982912,6156.475086,2782.859240,-3650.643367,-4854.329509,14140.339391,9351.455790,16417.825689,17998.339891,16161.495884,7651.024479,8364.290996,2.440000,-825.695984,-555.343994,2100.000000,-840.000000,-2660.000000
-542.186265,5731.501368,1512.296678,-7187.963389,9597.660255,6153.345842,2798.058426,-3638.774590,-4876.748309,14089.511524,9299.130356,16377.972529,17943.600469,16101.526153,7611.528946,8330.830435,3.904000,-827.648010,-556.320007,2240.000000,-1120.000000,-2660.000000
-535.994832,5736.776380,1511.044980,-7137.359039,9602.398825,6152.652937,2809.726037,-3634.147779,-4896.909582,14043.176358,9254.136295,16343.886118,17895.320701,16052.419371,7577.598998,8301.840222,4.392000,-827.160034,-553.880005,2520.000000,-980.000000,-2800.000000
-536.195998,5733.893005,1516.275289,-7124.707952,9604.946924,6156.430382,2814.576365,-3639.221625,-4900.977600,14030.838195,9243.072181,16334.856014,17882.423744,16042.942231,7569.775888,8297.615742,4.880000,-827.648010,-558.760010,2660.000000,-1120.000000,-2520.000000
-538.721745,5725.131121,1528.591100,-7158.414383,9608.076168,6165.348728,2811.134197,-3651.269215,-4882.269190,14064.522274,9274.923417,16361.275776,17917.381873,16082.504819,7594.765138,8322.269717,8.784000,-827.160034,-556.320007,2940.000000,-1120.000000,-2940.000000
-542.745059,5716.570403,1538.850551,-7217.333581,9608.970238,6173.015377,2802.439368,-3662.735660,-4855.268282,14117.875888,9329.126397,16404.079366,17976.301071,16148.442465,7641.145008,8359.261854,5.368000,-828.135986,-554.856018,3080.000000,-1260.000000,-2800.000000
-552.132792,5707.875575,1536.883597,-7276.677463,9601.817680,6172.769507,2789.788281,-3669.307073,-4833.497683,14168.457886,9384.134040,16442.367904,18031.711046,16205.081785,7682.383976,8392.811822,6.344000,-826.184021,-553.392029,2940.000000,-1260.000000,-2800.000000
-557.564265,5705.707455,1527.607623,-7301.957286,9594.933342,6167.203923,2785.005007,-3666.513105,-4827.507416,14185.333453,9405.681122,16458.058829,18052.341706,16223.521975,7698.410177,8405.954648,6.832000,-827.648010,-556.807983,3360.000000,-1260.000000,-2660.000000
-553.138620,5712.390627,1519.940975,-7281.840716,9590.440642,6160.453696,2786.010836,-3658.086498,-4835.308175,14166.110953,9388.045596,16445.810073,18033.365075,16198.644483,7682.138107,8391.358959,10.248000,-825.695984,-555.343994,3080.000000,-1260.000000,-2800.000000
-544.488495,5721.711304,1512.699010,-7229.269413,9588.876020,6153.412897,2792.358731,-3648.072916,-4854.329509,14119.619324,9341.397505,16413.243581,17983.543036,16142.251032,7641.726153,8358.948929,5.856000,-827.160034,-555.343994,3360.000000,-1120.000000,-2660.000000
-534.363155,5733.065991,1512.676658,-7168.495019,9596.967351,6153.636414,2806.999124,-3638.886349,-4875.675425,14071.048983,9288.803850,16375.759706,17927.104882,16083.600054,7600.710702,8325.220147,9.272000,-824.720032,-553.392029,3500.000000,-1120.000000,-2380.000000
-531.792704,5733.244805,1517.526986,-7137.157874,9605.036331,6158.330281,2816.252746,-3640.383916,-4887.812422,14044.606870,9255.812675,16353.519720,17895.499515,16055.839188,7581.510554,8307.539917,9.760000,-823.255981,-557.296021,3500.000000,-700.000000,-2520.000000
-539.906387,5721.420732,1522.354963,-7154.078144,9604.075206,6163.247664,2813.458778,-3650.911588,-4886.694835,14053.502864,9264.932187,16358.325345,17910.944570,16076.268682,7593.535792,8317.307629,8.296000,-821.791992,-556.807983,3780.000000,-560.000000,-2240.000000
-549.204713,5707.406188,1528.501693,-7206.045950,9601.325941,6167.695662,2804.451025,-3664.456745,-4872.345015,14096.284103,9311.088539,16389.953064,17961.705382,16131.946877,7633.299545,8347.191912,9.760000,-820.815979,-555.832031,3780.000000,-140.000000,-2100.000000
-551.573998,5701.997066,1534.469609,-7264.384003,9599.426043,6171.674272,2794.616258,-3672.950408,-4847.176951,14149.481255,9366.677328,16431.236736,18019.283476,16191.402518,7676.147840,8380.518363,8.784000,-824.720032,-557.783997,3920.000000,-140.000000,-1960.000000
-551.909274,5705.059255,1533.754353,-7297.911620,9596.609723,6169.886132,2787.441348,-3672.838649,-4829.586128,14178.896150,9398.662674,16458.148236,18051.402933,16221.242097,7698.566639,8397.930372,10.248000,-824.720032,-559.247986,3920.000000,140.000000,-1820.000000
-550.232893,5712.904717,1525.685373,-7290.356730,9593.636941,6162.308891,2786.971961,-3665.149649,-4830.614308,14174.001118,9393.007683,16455.175454,18043.065732,16207.763995,7692.486965,8392.476546,10.248000,-822.768005,-557.783997,3780.000000,700.000000,-1680.000000
-544.823771,5722.761836,1515.850605,-7242.725163,9591.334711,6153.301138,2794.213926,-3651.537436,-4847.646337,14133.477406,9349.913520,16423.547736,17995.411813,16154.410381,7657.461781,8363.575740,8.784000,-823.744019,-561.687988,4060.000000,1120.000000,-1540.000000
-539.526408,5731.188444,1509.458007,-7179.805002,9593.346368,6150.663632,2806.127406,-3638.528721,-4869.305178,14078.514466,9293.587124,16380.677090,17933.542184,16089.858543,7610.903097,8327.544728,9.272000,-823.744019,-559.247986,3920.000000,1540.000000,-1400.000000
-532.262091,5735.591738,1513.213100,-7136.420266,9598.755491,6153.256435,2816.677429,-3634.773628,-4880.101070,14043.466931,9256.684393,16353.407962,17894.270169,16050.810045,7579.901228,8303.427196,7.320000,-824.231995,-559.736023,4060.000000,1960.000000,-1540.000000
-530.272785,5731.926052,1521.796169,-7133.983926,9602.465880,6161.615987,2819.180825,-3639.869826,-4874.557838,14045.009201,9255.812675,16352.513892,17895.566570,16054.207510,7578.426013,8302.019036,4.880000,-823.744019,-561.687988,4200.000000,2100.000000,-1400.000000
-536.575977,5723.365333,1531.608585,-7172.875961,9604.298723,6169.148525,2815.604546,-3652.900893,-4858.576341,14080.146143,9290.346121,16378.106639,17935.017399,16096.899342,7611.864223,8324.303725,4.880000,-825.695984,-562.664001,4200.000000,2380.000000,-1260.000000
-547.371870,5713.083531,1536.771838,-7232.957451,9600.811851,6173.462412,2804.696894,-3668.368300,-4840.136151,14130.929307,9341.777485,16417.088081,17993.355452,16159.014840,7657.975871,8360.871179,4.880000,-828.624023,-559.247986,4200.000000,2800.000000,-1400.000000
-558.435983,5705.975676,1533.687298,-7284.232352,9591.535877,6170.780202,2791.375255,-3675.789079,-4823.841730,14172.190627,9382.949398,16449.520463,18039.377694,16208.099271,7692.442261,8391.202496,0.488000,-828.624023,-560.712036,4340.000000,2940.000000,-1120.000000
-564.180382,5704.679275,1524.590138,-7296.905791,9583.623360,6164.119382,2785.139118,-3671.430489,-4822.858253,14179.007909,9392.650055,16457.880015,18048.430151,16213.329579,7698.566639,8396.298694,0.000000,-828.624023,-555.343994,3920.000000,2660.000000,-840.000000
-563.241609,5709.663714,1514.129521,-7265.836867,9580.874095,6156.899769,2788.558935,-3661.483963,-4837.968032,14150.420028,9362.229331,16435.036532,18016.757729,16174.482247,7672.504505,8377.031490,-1.464000,-826.671997,-558.272034,3920.000000,2380.000000,-840.000000
-555.485553,5718.984392,1509.100379,-7209.733988,9585.187982,6153.479952,2799.399531,-3647.603529,-4856.721146,14104.241324,9313.323714,16397.373843,17961.727734,16117.306485,7630.952612,8345.873159,0.000000,-827.648010,-555.832031,3500.000000,2520.000000,-700.000000
-548.176533,5725.332287,1511.380257,-7156.514484,9592.564057,6155.022222,2811.000086,-3639.623957,-4874.401376,14061.281271,9266.519161,16360.851092,17912.486841,16067.640909,7595.279228,8316.234746,-2.928000,-825.695984,-560.712036,3220.000000,2100.000000,-700.000000
-545.002585,5724.527624,1518.935146,-7135.481493,9597.727310,6160.945435,2819.091418,-3642.686146,-4880.995140,14046.730285,9247.944861,16343.796711,17894.203114,16053.872234,7583.589266,8305.975295,-4.392000,-825.695984,-558.760010,2940.000000,1820.000000,-560.000000
-548.243588,5715.586926,1527.026478,-7164.427002,9595.782709,6165.616949,2812.050618,-3657.348890,-4867.449983,14073.977062,9275.213990,16360.113485,17922.254553,16086.438726,7600.353074,8320.749798,-2.440000,-825.208008,-556.320007,2800.000000,980.000000,-700.000000
-559.374757,5704.120482,1532.614414,-7226.475445,9590.999435,6169.304987,2797.678446,-3673.106870,-4841.544311,14127.330676,9331.987421,16398.558485,17981.553731,16150.096494,7641.301470,8355.260891,1.952000,-828.135986,-553.880005,2660.000000,560.000000,-700.000000
-566.214391,5702.444101,1533.709649,-7285.081719,9586.842011,6169.684967,2785.206173,-3682.606361,-4814.610459,14176.146886,9387.486802,16437.763445,18036.740188,16207.495774,7680.148802,8387.581514,1.952000,-826.671997,-556.807983,2660.000000,0.000000,-700.000000
-570.684739,5701.259458,1525.305393,-7306.405283,9581.969331,6162.733574,2780.020568,-3683.388672,-4806.474424,14190.407299,9407.312799,16450.772160,18052.811092,16222.337332,7693.783366,8395.404624,0.488000,-829.600037,-557.296021,2660.000000,-700.000000,-840.000000
-566.974350,5705.282772,1514.777722,-7282.824192,9579.845915,6154.798705,2783.641551,-3673.665663,-4814.163424,14166.781505,9387.710319,16433.695428,18026.972476,16192.296588,7676.505467,8379.333720,2.928000,-825.695984,-559.736023,2800.000000,-840.000000,-980.000000
-556.200809,5715.341057,1507.982791,-7227.458921,9581.119964,6150.149542,2793.208098,-3658.779402,-4834.481160,14120.178118,9338.536482,16397.485602,17973.685917,16133.131520,7636.987583,8349.427086,4.392000,-826.184021,-558.272034,2940.000000,-1120.000000,-1400.000000
-544.868475,5724.080589,1507.222832,-7167.869171,9585.053871,6149.456638,2805.479205,-3648.162323,-4854.418916,14071.965405,9283.618246,16356.961889,17917.940666,16074.145266,7595.927429,8318.000533,2.928000,-829.600037,-561.687988,3080.000000,-1260.000000,-1540.000000
-542.365079,5724.907604,1509.815634,-7136.554377,9589.099537,6152.407068,2813.570537,-3646.932977,-4867.002948,14044.316297,9251.543492,16332.576136,17889.017509,16046.473807,7575.676748,8301.057911,2.928000,-831.064026,-558.272034,3220.000000,-1260.000000,-1820.000000
-547.416573,5718.962040,1517.594042,-7149.205464,9591.066491,6158.039708,2810.798920,-3654.689032,-4860.610349,14056.989736,9261.646481,16339.661639,17903.724957,16064.064630,7586.092661,8307.785786,2.928000,-829.112000,-560.223999,3360.000000,-1120.000000,-2380.000000
-551.484591,5715.542223,1529.328707,-7195.183002,9597.324979,6166.913350,2807.736731,-3664.389689,-4838.571529,14101.223838,9305.277086,16373.725697,17951.110655,16120.167508,7625.990525,8338.497083,2.440000,-828.624023,-554.856018,3500.000000,-980.000000,-2800.000000
-556.625492,5711.228336,1535.967175,-7255.085678,9597.973180,6171.517810,2797.298467,-3675.789079,-4811.123587,14155.315060,9360.485895,16416.752805,18008.398176,16183.177076,7668.794116,8376.942083,4.392000,-829.112000,-558.272034,3500.000000,-980.000000,-3080.000000
-567.443736,5701.572383,1529.686335,-7301.242030,9589.255999,6167.986234,2784.602676,-3676.683149,-4791.945790,14191.480183,9398.327398,16447.821730,18048.944241,16223.320809,7694.900953,8406.513441,2.440000,-828.624023,-555.832031,2940.000000,-700.000000,-3500.000000
-567.779013,5705.506290,1523.673716,-7294.782376,9586.886714,6162.130077,2788.335417,-3666.222533,-4794.315075,14186.004005,9390.504288,16446.212405,18041.478758,16214.246001,7691.324674,8405.507613,6.344000,-830.575989,-561.200012,2520.000000,-700.000000,-3780.000000
-562.951036,5714.245822,1513.794245,-7246.189683,9584.383319,6154.083449,2797.276115,-3654.264349,-4813.872852,14143.714505,9346.896034,16413.578858,17994.003653,16161.428828,7655.338365,8375.265703,8.784000,-830.088013,-553.880005,2100.000000,-700.000000,-4060.000000
-552.132792,5726.360467,1511.067332,-7182.330749,9589.725386,6153.144676,2813.414075,-3641.300337,-4838.660936,14088.550399,9291.307246,16369.992956,17934.436254,16097.413432,7613.406493,8341.581624,7.320000,-830.088013,-553.880005,1960.000000,-560.000000,-4060.000000
-549.987024,5727.634517,1511.000277,-7140.510635,9592.474650,6153.681118,2821.505406,-3638.618128,-4860.520942,14047.758466,9249.777704,16336.890022,17892.370271,16055.213339,7585.332702,8318.715789,10.736000,-826.671997,-554.856018,2100.000000,-280.000000,-4060.000000
-553.496248,5721.621897,1515.470626,-7141.024726,9592.228781,6155.871589,2820.186653,-3646.821218,-4864.097221,14046.640879,9249.822408,16334.677200,17891.118573,16057.135589,7584.438632,8318.022885,11.712000,-826.184021,-554.367981,2240.000000,-280.000000,-4060.000000
-560.000606,5713.396455,1523.271385,-7183.470688,9592.228781,6162.107725,2810.955383,-3662.646253,-4846.349936,14083.454202,9287.909780,16363.935633,17930.748216,16101.235581,7612.132443,8342.252176,9.760000,-823.255981,-554.856018,2240.000000,-700.000000,-3920.000000
-567.756661,5704.969848,1528.881672,-7244.870930,9589.747738,6166.734536,2797.410226,-3678.136012,-4820.399561,14136.092560,9341.553967,16405.532230,17989.779173,16162.904044,7651.426810,8378.193781,11.224000,-821.791992,-556.320007,2240.000000,-1120.000000,-3640.000000
-571.042367,5703.628743,1530.446295,-7292.502498,9586.372624,6168.969711,2788.849507,-3682.315789,-4801.758206,14179.052613,9386.100994,16438.881032,18038.573031,16210.714425,7683.479212,8407.742787,10.248000,-822.768005,-554.367981,1820.000000,-1540.000000,-3080.000000
-565.052100,5713.083531,1527.719382,-7297.017550,9586.730252,6167.047461,2792.001103,-3673.330387,-4799.634790,14187.568627,9394.125270,16445.519500,18046.329087,16216.190602,7692.218744,8412.727226,9.272000,-821.791992,-553.880005,1400.000000,-1260.000000,-2240.000000
-557.698376,5727.321592,1519.762161,-7255.108029,9588.808964,6161.683042,2802.752292,-3659.114678,-4818.231442,14149.727124,9355.881435,16417.825689,18006.073595,16171.777686,7668.190619,8388.967322,9.760000,-824.231995,-556.320007,1120.000000,-1120.000000,-1680.000000
-551.641053,5737.424581,1513.838948,-7196.702921,9590.105366,6156.765658,2812.050618,-3649.637538,-4839.756172,14097.714615,9302.661932,16379.380689,17948.987239,16110.600962,7624.962345,8355.015022,5.368000,-826.184021,-559.736023,840.000000,-140.000000,-560.000000
-547.394222,5741.783171,1512.833120,-7147.506731,9592.429947,6155.201036,2820.946612,-3644.921320,-4857.771678,14054.128713,9256.773800,16345.137816,17901.310969,16061.270662,7589.132498,8327.611783,2.440000,-828.135986,-557.783997,840.000000,140.000000,0.000000
-548.690623,5739.011555,1515.872957,-7135.839121,9594.396900,6158.665557,2822.153607,-3645.949500,-4861.012681,14044.964498,9245.732039,16337.091188,17889.308082,16053.246385,7580.348263,8321.599164,3.416000,-829.112000,-556.807983,1120.000000,1400.000000,700.000000
-554.189152,5726.360467,1522.667888,-7167.623301,9595.045101,6165.013452,2814.889290,-3655.448992,-4847.467524,14074.357042,9275.079879,16359.353526,17919.997027,16090.149115,7603.571725,8339.838188,2.440000,-828.135986,-556.807983,1260.000000,2100.000000,1400.000000
-563.375719,5711.720075,1528.926376,-7228.822378,9592.251133,6169.014414,2801.098263,-3671.363434,-4826.456884,14126.101330,9330.802778,16399.966645,17979.519722,16153.248090,7646.867054,8373.097583,3.416000,-829.600037,-556.320007,1400.000000,2800.000000,1820.000000
-568.270751,5705.394531,1531.295661,-7288.702701,9589.948903,6172.858914,2788.268362,-3678.895972,-4804.887450,14179.231427,9387.687968,16442.032628,18039.780025,16213.016655,7688.620113,8408.770968,4.392000,-827.648010,-560.223999,1820.000000,3360.000000,1960.000000
-568.784841,5707.942630,1526.780609,-7311.009742,9587.333749,6169.439098,2783.708606,-3675.342044,-4797.444319,14199.057424,9409.011532,16457.276518,18061.282404,16233.580260,7702.165270,8421.980849,0.488000,-829.112000,-557.296021,2100.000000,3780.000000,2100.000000
-561.833449,5719.006743,1518.756332,-7285.461698,9589.233647,6164.074679,2789.654170,-3664.702614,-4806.072093,14176.660976,9387.196229,16443.150216,18035.488491,16203.919495,7684.373282,8405.284095,-0.488000,-828.624023,-555.832031,2240.000000,3920.000000,1960.000000
-549.160010,5732.775418,1513.280155,-7226.229575,9593.324017,6160.476048,2801.075912,-3648.855227,-4826.903919,14128.045932,9334.222595,16406.225134,17981.263158,16141.044037,7642.039078,8368.515476,0.488000,-827.160034,-556.807983,2660.000000,4200.000000,1820.000000
-538.498227,5741.157322,1511.022629,-7166.148086,9597.548496,6159.939606,2813.883461,-3637.053506,-4848.361593,14077.665100,9279.796097,16366.237863,17925.786129,16081.230769,7599.615467,8334.272603,1.464000,-828.624023,-555.832031,2800.000000,3920.000000,1820.000000
-535.950129,5741.671412,1516.252937,-7135.705010,9603.851688,6165.035804,2823.673525,-3634.281890,-4860.185666,14052.809960,9252.526969,16344.735485,17897.868800,16054.453379,7580.236504,8320.727446,0.976000,-826.184021,-553.880005,2940.000000,3500.000000,1260.000000
-541.448658,5735.435275,1526.065353,-7149.049002,9607.427967,6169.819077,2822.086551,-3643.267291,-4857.078774,14064.745792,9265.826257,16352.670354,17910.944570,16071.328947,7590.674769,8330.293993,2.928000,-827.160034,-554.856018,3080.000000,3220.000000,980.000000
-551.998681,5723.342982,1532.994393,-7199.541593,9606.936229,6173.864743,2812.251784,-3659.114678,-4840.851407,14106.498850,9309.278048,16385.214494,17958.710248,16124.637857,7627.286926,8360.290034,0.976000,-825.208008,-555.343994,3500.000000,2800.000000,420.000000
-559.531219,5713.619973,1538.314109,-7258.661957,9605.013979,6177.150449,2802.417016,-3668.837687,-4820.399561,14156.834979,9361.692889,16425.045303,18014.567258,16187.066279,7671.632787,8396.723377,3.416000,-826.671997,-557.296021,3360.000000,2660.000000,0.000000
-568.091937,5706.579173,1531.899158,-7301.733768,9596.609723,6171.674272,2790.570592,-3673.755070,-4805.200375,14190.273188,9398.863840,16452.180320,18051.447636,16224.505451,7697.404349,8419.410398,5.856000,-822.768005,-555.832031,3780.000000,2240.000000,-420.000000
-570.997664,5708.099092,1519.337478,-7300.884402,9589.345406,6161.772449,2786.212002,-3671.855172,-4803.926325,14183.925293,9396.427500,16450.682753,18046.194976,16213.374283,7693.068110,8414.493014,4.880000,-825.695984,-555.832031,3920.000000,1680.000000,-700.000000
-563.532181,5720.794883,1509.770931,-7250.347108,9592.251133,6155.849237,2798.952496,-3657.035966,-4820.488968,14136.159615,9351.545197,16417.490413,17996.194124,16158.299584,7659.674604,8384.228752,5.856000,-824.231995,-562.176025,3920.000000,1400.000000,-1120.000000
-553.451544,5730.562595,1508.340419,-7189.192735,9597.839069,6153.457600,2812.788226,-3641.233282,-4840.180855,14085.555266,9298.124528,16379.380689,17939.733617,16099.179220,7616.535737,8350.254101,2.928000,-821.304016,-553.880005,3780.000000,1260.000000,-1400.000000
-551.015204,5730.897871,1511.067332,-7150.255996,9599.537802,6156.028051,2817.638554,-3638.774590,-4853.323681,14053.502864,9262.495847,16353.095037,17904.082585,16062.276490,7584.416280,8329.422275,5.856000,-823.744019,-557.296021,4060.000000,700.000000,-1680.000000
-551.573998,5726.092246,1519.136312,-7150.323051,9601.884735,6161.593635,2817.169168,-3645.278948,-4855.044765,14055.223948,9263.009937,16352.670354,17906.518925,16067.082115,7582.806955,8331.031600,6.344000,-821.791992,-560.712036,3780.000000,560.000000,-1960.000000
-557.720728,5714.357580,1527.719382,-7195.071244,9598.621380,6166.555723,2808.317877,-3659.449954,-4836.604576,14095.971179,9304.807699,16382.487581,17950.864786,16116.233601,7613.250031,8357.898397,7.320000,-824.720032,-556.807983,3360.000000,0.000000,-2240.000000
-564.627417,5702.354694,1532.457952,-7260.695965,9592.988741,6170.333167,2794.884478,-3670.715233,-4809.782482,14153.191644,9363.637491,16427.325180,18014.008464,16183.646462,7658.467610,8395.494031,8.784000,-823.255981,-560.223999,3080.000000,0.000000,-2660.000000
-571.087071,5698.778415,1530.200425,-7308.998085,9587.758432,6168.902656,2783.887420,-3676.347873,-4791.789328,14194.810593,9405.926991,16459.087009,18059.606023,16230.182794,7692.866944,8419.857433,11.712000,-823.744019,-560.712036,3360.000000,-420.000000,-2800.000000
-570.774146,5704.232240,1523.070219,-7315.033056,9587.758432,6164.722879,2782.456909,-3671.810469,-4790.805851,14198.811555,9409.995009,16462.864454,18063.942261,16231.993286,7696.800851,8419.812729,8.296000,-822.768005,-562.176025,2800.000000,-420.000000,-3080.000000
-566.370853,5713.843490,1513.168396,-7280.052576,9587.981950,6158.576150,2788.000141,-3660.075803,-4807.904936,14166.557988,9377.450869,16439.059846,18028.492395,16190.396689,7670.112869,8397.081005,6.832000,-826.671997,-559.247986,2800.000000,-560.000000,-3220.000000
-558.592446,5725.578156,1506.462873,-7217.691209,9592.273485,6154.195208,2800.897098,-3645.122486,-4831.262509,14111.282123,9320.096293,16395.697462,17967.740353,16126.716569,7626.035228,8359.708888,8.296000,-824.231995,-563.640015,2520.000000,-840.000000,-3360.000000
-554.680890,5731.389610,1506.440521,-7164.024671,9596.386206,6152.854103,2812.296487,-3635.600643,-4850.552064,14065.103419,9271.481248,16356.447799,17916.688969,16074.212322,7588.640760,8327.075342,10.248000,-827.648010,-559.247986,2660.000000,-840.000000,-3500.000000
-553.295082,5730.629650,1511.849643,-7148.780781,9597.816717,6155.737478,2816.565671,-3639.266329,-4853.636605,14054.687507,9260.215969,16343.126159,17903.389681,16062.187083,7578.001330,8319.341638,7.320000,-826.184021,-557.296021,2800.000000,-420.000000,-3500.000000
-556.938417,5723.678258,1520.477417,-7176.966331,9598.867249,6161.437173,2812.385894,-3653.660852,-4843.265396,14082.515428,9287.887429,16361.722810,17931.821100,16094.127726,7600.442481,8336.172502,8.784000,-826.184021,-560.223999,2940.000000,0.000000,-3640.000000
-564.180382,5713.932897,1528.747562,-7236.757247,9598.196697,6167.695662,2801.232374,-3668.703576,-4821.584203,14137.008981,9345.152598,16403.833497,17988.348661,16158.657212,7645.145970,8370.996519,6.832000,-827.160034,-557.783997,2800.000000,-140.000000,-3500.000000
-570.952960,5706.400359,1530.826274,-7296.481108,9592.944037,6170.333167,2787.731920,-3677.107832,-4798.986590,14189.468526,9403.133023,16444.178396,18044.719761,16218.269315,7685.960255,8403.607715,9.272000,-827.160034,-560.223999,2800.000000,140.000000,-3220.000000
-571.377644,5705.886269,1525.819483,-7322.140911,9588.026653,6168.209752,2780.959342,-3674.112698,-4788.704787,14210.657979,9426.200023,16463.467951,18068.680831,16240.464597,7702.925229,8415.901174,11.224000,-826.184021,-559.736023,2800.000000,420.000000,-3220.000000
-567.779013,5715.475168,1519.672754,-7297.509288,9590.194773,6163.024147,2787.486051,-3660.142858,-4800.014770,14188.842677,9404.809404,16451.688582,18047.312563,16216.101195,7687.971912,8400.791395,9.760000,-828.624023,-560.223999,2660.000000,420.000000,-2800.000000
-563.643940,5725.019363,1512.676658,-7242.188721,9594.575714,6159.403164,2798.796034,-3644.608396,-4824.735799,14137.299554,9356.149656,16416.350474,17994.182467,16157.807846,7648.342269,8368.537828,12.688000,-824.720032,-558.272034,2380.000000,420.000000,-2520.000000
-555.217332,5733.736543,1511.044980,-7182.151935,9600.297761,6158.486743,2812.274136,-3634.483055,-4844.517093,14085.465859,9304.584182,16377.704308,17938.303106,16099.670958,7605.873955,8335.278432,10.736000,-825.695984,-556.807983,2100.000000,560.000000,-2240.000000
-549.539989,5735.636441,1516.834082,-7148.043173,9606.533898,6163.225313,2821.393647,-3632.203177,-4856.095297,14057.906158,9274.565789,16354.659659,17908.061195,16073.608824,7583.969245,8318.984010,13.664001,-825.208008,-559.247986,1680.000000,560.000000,-1820.000000
-552.021033,5727.433351,1525.238338,-7157.520313,9607.651485,6168.947359,2821.997144,-3641.121524,-4857.861085,14065.058716,9282.299493,16357.744200,17917.583039,16087.019871,7593.021702,8325.510719,9.272000,-825.695984,-558.760010,1400.000000,420.000000,-1540.000000
-557.653672,5717.129197,1533.106152,-7206.828261,9605.595124,6173.641226,2812.028266,-3654.353756,-4841.209035,14109.449280,9326.466540,16389.863657,17965.438123,16138.093607,7629.991487,8354.210359,12.688000,-822.768005,-557.296021,1260.000000,560.000000,-1120.000000
-566.549667,5711.407150,1536.011879,-7263.221712,9601.929438,6176.591656,2800.785339,-3664.434393,-4821.964183,14157.147903,9373.986348,16427.951029,18017.204764,16193.771803,7672.549209,8386.732148,12.688000,-823.255981,-558.272034,980.000000,560.000000,-700.000000
-575.937399,5709.283734,1529.753391,-7303.477204,9595.022749,6172.300121,2790.011798,-3665.440221,-4810.855366,14188.015662,9406.329323,16455.264861,18052.185244,16229.244021,7699.594819,8408.033360,10.736000,-826.184021,-556.320007,560.000000,420.000000,-420.000000
-574.372777,5716.995086,1521.215024,-7297.822213,9592.161726,6164.275845,2789.832984,-3659.002919,-4815.415122,14182.539485,9399.646151,16453.387314,18046.217328,16219.319847,7692.017578,8403.048921,12.688000,-824.720032,-556.320007,420.000000,140.000000,0.000000
-567.197867,5729.713229,1512.944879,-7250.615329,9592.117023,6156.810362,2797.678446,-3647.804695,-4831.687192,14142.485159,9356.194360,16422.787776,18000.016272,16167.977890,7655.070145,8374.796316,15.128000,-822.768005,-555.832031,280.000000,140.000000,280.000000
-559.710033,5740.956156,1507.312239,-7189.840935,9595.358025,6151.602406,2809.390761,-3636.718230,-4852.608425,14090.495001,9299.957371,16381.638215,17938.526623,16103.783679,7611.081911,8338.564138,12.200000,-822.768005,-561.200012,420.000000,140.000000,560.000000
-552.535123,5746.588796,1509.793283,-7145.003336,9600.878906,6152.183551,2820.007839,-3631.689087,-4868.232294,14052.318222,9259.523065,16351.642174,17895.164239,16061.605938,7582.382272,8313.865461,11.224000,-822.768005,-558.760010,140.000000,0.000000,700.000000
-554.882056,5737.648098,1515.090646,-7144.131618,9602.845860,6156.765658,2821.080723,-3636.427657,-4869.372233,14050.060695,9258.226664,16349.608165,17895.879495,16063.058801,7583.343397,8315.720655,10.248000,-822.280029,-559.736023,280.000000,280.000000,980.000000
-568.002530,5718.447950,1519.873919,-7188.857459,9598.911953,6161.593635,2810.061313,-3651.090402,-4855.514152,14082.783649,9293.117737,16374.932691,17935.553841,16106.175316,7613.093568,8343.079191,7.808000,-822.768005,-556.320007,280.000000,140.000000,980.000000
-573.568114,5708.277906,1525.841835,-7252.962262,9596.587371,6165.840467,2796.940839,-3664.434393,-4828.580299,14140.071170,9352.238101,16422.296038,17997.088194,16171.800038,7657.908816,8380.987749,7.808000,-820.328003,-560.223999,700.000000,560.000000,1120.000000
-574.193963,5708.009685,1526.311222,-7301.063216,9594.821584,6164.074679,2788.536583,-3668.949445,-4807.793177,14185.422860,9399.333227,16459.288175,18042.372828,16220.348027,7693.135165,8407.988657,8.296000,-824.231995,-555.343994,700.000000,560.000000,980.000000
-573.568114,5710.155453,1519.672754,-7311.076797,9592.094671,6157.033879,2784.982656,-3664.657910,-4802.965200,14193.044805,9408.586849,16468.385335,18050.531215,16226.070073,7700.153613,8412.369598,6.832000,-823.255981,-557.783997,840.000000,700.000000,980.000000
-564.180382,5721.823063,1513.056637,-7274.174067,9594.240438,6151.669461,2790.972923,-3652.364451,-4813.559927,14161.931176,9377.808497,16445.899480,18018.389406,16185.568712,7673.778555,8390.733110,3.416000,-822.280029,-556.320007,980.000000,840.000000,840.000000
-553.116268,5735.703496,1509.189786,-7210.538651,9601.772976,6148.674327,2804.205156,-3637.791114,-4835.039954,14107.102347,9322.085598,16404.124070,17960.207815,16122.805014,7628.225699,8353.919787,3.416000,-823.255981,-558.760010,1400.000000,1120.000000,700.000000
-546.813076,5742.364316,1509.033323,-7152.737040,9608.076168,6148.271996,2817.839720,-3628.179863,-4858.509285,14056.453294,9270.676586,16362.885101,17905.669559,16068.423220,7588.305484,8320.660391,2.928000,-821.791992,-558.272034,1680.000000,1260.000000,700.000000
-546.142524,5739.883273,1514.621260,-7137.448446,9610.221936,6153.748173,2823.606470,-3629.498616,-4864.723070,14043.668097,9258.561940,16350.882214,17891.856181,16056.621499,7579.633007,8314.558365,3.416000,-823.744019,-559.736023,1820.000000,1260.000000,280.000000
-555.440850,5724.706438,1519.292774,-7171.981892,9609.216107,6159.738440,2817.303278,-3642.663794,-4852.474314,14072.568902,9288.066243,16370.663508,17922.478071,16093.390118,7604.711664,8335.814874,1.464000,-823.255981,-559.736023,2240.000000,1400.000000,140.000000
-566.259094,5709.373141,1524.970117,-7233.069209,9604.298723,6161.951263,2800.204194,-3663.294454,-4831.575433,14126.503661,9341.196339,16408.214439,17978.826818,16155.371506,7646.576482,8368.582531,-3.416000,-822.768005,-560.223999,2660.000000,1400.000000,140.000000
-572.674045,5701.237106,1528.278175,-7292.614256,9600.275409,6163.493534,2786.502574,-3673.777422,-4806.273258,14179.700813,9394.304084,16449.967498,18035.868470,16214.648332,7687.971912,8401.841927,0.488000,-821.791992,-559.247986,2800.000000,1540.000000,-140.000000
-572.137603,5705.461586,1525.484207,-7314.183690,9599.224877,6161.258359,2783.149813,-3671.162268,-4796.907878,14200.756157,9416.141738,16469.055887,18056.789703,16234.899012,7705.607439,8412.123729,1.464000,-824.231995,-559.736023,2800.000000,1260.000000,-280.000000
-566.683777,5716.279830,1519.046905,-7292.256629,9602.264715,6155.581016,2790.123557,-3661.886294,-4805.669761,14181.824229,9397.053349,16458.371753,18034.706179,16210.468556,7693.850421,8400.009084,0.488000,-822.280029,-559.736023,3080.000000,1120.000000,-280.000000
-562.839277,5721.018400,1509.301544,-7238.433628,9601.705921,6146.483856,2798.125481,-3649.972814,-4832.357744,14128.560022,9346.448999,16418.697407,17979.765592,16149.291831,7653.818447,8367.822572,2.440000,-822.280029,-558.272034,3360.000000,980.000000,-560.000000
-550.724632,5732.820121,1509.748579,-7171.713671,9608.925534,6147.154408,2812.609412,-3635.645346,-4857.414050,14071.697184,9288.692092,16375.357375,17918.477108,16084.181200,7608.265592,8327.723542,0.976000,-823.744019,-555.832031,3500.000000,840.000000,-420.000000
-544.488495,5736.284642,1514.464797,-7137.694316,9615.005209,6151.021260,2818.979659,-3635.354773,-4870.311006,14041.879957,9255.924434,16352.491540,17887.810515,16055.347449,7582.650493,8305.707074,0.488000,-824.231995,-558.272034,3780.000000,700.000000,-560.000000
-545.069640,5729.668525,1522.109094,-7154.569883,9613.373532,6155.625720,2814.732828,-3647.335308,-4861.996157,14056.945033,9270.184847,16362.058087,17904.373158,16074.391136,7589.735995,8314.267792,2.928000,-825.208008,-558.760010,3780.000000,420.000000,-560.000000
-553.518600,5715.586926,1530.245129,-7211.388017,9608.009113,6162.130077,2804.451025,-3660.478134,-4836.962204,14107.772900,9325.125435,16398.782003,17960.476036,16134.316162,7629.656211,8350.231749,1.952000,-827.648010,-556.807983,3920.000000,420.000000,-700.000000
-569.857725,5701.460624,1530.111018,-7274.151716,9602.778805,6165.102859,2793.878650,-3670.245847,-4818.857291,14156.276185,9376.422689,16435.550622,18017.808261,16196.409308,7677.019558,8387.313293,2.440000,-827.160034,-556.807983,4060.000000,280.000000,-980.000000
-578.932533,5696.789109,1525.327745,-7312.864937,9597.615552,6162.130077,2786.591981,-3672.212800,-4810.006000,14187.859200,9410.307933,16459.914024,18052.498168,16231.345085,7707.037950,8409.575630,1.464000,-827.160034,-556.807983,3780.000000,0.000000,-1120.000000
-572.249362,5707.048560,1519.538643,-7305.131233,9597.973180,6156.408031,2787.463699,-3664.479096,-4812.889375,14185.869895,9407.916296,16459.087009,18044.608002,16220.750358,7701.092386,8402.266610,3.904000,-827.648010,-562.176025,3640.000000,-280.000000,-1120.000000
-564.739175,5716.726865,1511.112036,-7263.244064,9598.464918,6149.657804,2791.442310,-3653.414983,-4826.211015,14150.732952,9372.645244,16432.309619,18004.799545,16173.856398,7667.385956,8376.427993,4.392000,-829.600037,-560.712036,3220.000000,-420.000000,-1260.000000
-558.950074,5726.561633,1504.898251,-7206.962372,9599.515450,6144.986289,2799.488938,-3643.982547,-4843.712430,14100.419176,9321.437397,16393.931674,17951.155359,16114.020778,7624.604717,8344.956737,5.368000,-830.088013,-558.760010,2800.000000,-420.000000,-1400.000000
-553.920931,5731.233148,1507.289887,-7163.309415,9603.136433,6147.467333,2808.899022,-3641.702669,-4856.631739,14061.393030,9280.421946,16362.393363,17909.961094,16071.328947,7595.189821,8321.442702,7.320000,-831.552002,-557.783997,2660.000000,-700.000000,-1400.000000
-553.116268,5728.908566,1514.956536,-7156.626243,9609.014941,6152.630586,2813.548185,-3648.229378,-4856.050593,14056.654460,9271.414193,16357.073648,17902.696777,16070.591339,7595.659208,8318.380513,7.320000,-829.600037,-562.176025,2380.000000,-700.000000,-1540.000000
-560.425289,5719.319668,1522.891405,-7193.350159,9610.266639,6159.090240,2807.960249,-3661.685128,-4842.706602,14088.058661,9302.147842,16381.325290,17938.571327,16112.299694,7622.838929,8341.112237,5.856000,-830.088013,-558.760010,1960.000000,-700.000000,-1680.000000
-570.371815,5707.227374,1528.233472,-7253.230483,9605.393959,6162.465353,2794.571554,-3675.677320,-4821.807721,14140.428798,9356.864912,16421.290209,17996.417641,16172.180017,7661.619206,8375.198647,6.832000,-829.600037,-560.223999,1820.000000,-700.000000,-1400.000000
-578.887830,5700.834775,1527.764085,-7301.867879,9599.917781,6161.146600,2783.328627,-3680.974684,-4806.496776,14185.154639,9402.909506,16453.052038,18041.791682,16220.191565,7693.761014,8404.501784,6.832000,-828.135986,-559.247986,1400.000000,-700.000000,-1540.000000
-580.787728,5703.561688,1520.522120,-7311.054446,9595.916819,6153.904635,2778.321836,-3678.001902,-4804.909802,14193.782412,9410.889078,16460.226948,18047.200805,16223.991361,7697.046721,8407.675732,6.832000,-829.112000,-558.272034,980.000000,-700.000000,-1540.000000
-574.037501,5714.849319,1512.296678,-7276.856277,9593.525182,6145.120400,2784.759138,-3667.630692,-4815.660991,14162.489970,9378.657863,16439.998620,18012.689711,16184.473477,7670.962235,8388.386177,7.320000,-828.135986,-557.296021,840.000000,-700.000000,-1400.000000
-564.739175,5727.254537,1507.915736,-7211.455072,9599.090767,6143.354612,2803.154624,-3649.682242,-4840.985518,14106.722368,9320.744493,16397.351491,17950.820083,16121.374502,7632.137255,8356.557293,5.368000,-829.600037,-555.343994,700.000000,-420.000000,-1120.000000
-557.877190,5730.629650,1507.982791,-7156.134505,9603.427005,6145.053344,2815.626897,-3639.288680,-4862.242027,14059.090800,9270.430716,16360.113485,17899.411070,16069.294938,7594.519269,8327.209452,5.368000,-826.184021,-557.296021,140.000000,-280.000000,-840.000000
-554.636187,5729.132084,1515.112998,-7136.956708,9606.288029,6149.546045,2819.918432,-3644.608396,-4865.505381,14045.076256,9254.359812,16346.322459,17884.591864,16054.743952,7578.068385,8315.944173,7.808000,-827.648010,-559.736023,0.000000,-280.000000,-560.000000
-563.040443,5716.928031,1520.499768,-7166.371604,9604.566944,6154.686946,2813.548185,-3657.058317,-4855.022413,14070.244321,9278.007958,16362.460418,17913.649131,16086.215208,7595.256876,8334.898452,7.320000,-826.671997,-557.296021,-140.000000,-280.000000,-420.000000
-574.573943,5701.393569,1525.953594,-7228.665916,9600.364816,6157.704432,2800.494766,-3670.849344,-4833.296518,14121.273353,9328.120569,16402.335930,17972.098943,16148.062485,7639.200406,8371.197685,4.880000,-827.160034,-557.296021,-420.000000,-280.000000,0.000000
-582.128833,5696.252667,1527.428809,-7289.261495,9595.939171,6158.218522,2788.693045,-3679.387710,-4809.626020,14173.375270,9381.831811,16445.944184,18028.693560,16209.082748,7684.127412,8406.222869,7.320000,-826.184021,-558.760010,-700.000000,-140.000000,140.000000
-583.984027,5696.811461,1522.734943,-7313.580193,9590.150069,6153.926987,2781.518135,-3679.857097,-4801.042950,14195.056462,9404.697645,16464.406725,18052.118188,16230.383960,7700.757110,8418.941011,8.296000,-827.648010,-558.272034,-840.000000,-140.000000,140.000000
-581.279466,5701.326513,1511.626126,-7296.928143,9584.673892,6147.489685,2779.618237,-3671.296379,-4809.246040,14178.583226,9388.760851,16452.068562,18033.633296,16206.333483,7682.428680,8406.021703,7.808000,-828.624023,-558.760010,-980.000000,-280.000000,280.000000
-576.339731,5707.830871,1500.584364,-7242.412238,9582.818697,6141.834693,2787.351941,-3658.086498,-4831.933061,14127.621249,9337.575357,16411.522497,17979.095039,16146.028476,7638.686316,8371.421203,10.248000,-828.135986,-557.296021,-1120.000000,-140.000000,420.000000
-566.370853,5714.849319,1498.729169,-7180.184982,9587.132584,6140.650051,2799.913621,-3649.235207,-4854.776544,14074.312338,9283.148859,16368.629500,17919.706454,16086.483429,7592.462908,8336.396019,8.784000,-830.088013,-557.783997,-1260.000000,-280.000000,420.000000
-560.849972,5717.822101,1505.479396,-7150.390106,9594.262790,6145.567434,2810.374237,-3649.034041,-4863.113745,14052.385277,9258.226664,16351.284546,17894.091355,16062.701173,7573.463926,8324.102560,10.248000,-830.088013,-559.247986,-1260.000000,-280.000000,560.000000
-562.325187,5713.575269,1514.509501,-7164.069374,9596.967351,6151.378888,2810.038961,-3658.913512,-4856.296463,14065.729268,9271.905931,16360.873444,17908.530582,16082.616577,7585.980902,8336.373667,5.856000,-828.624023,-557.783997,-1120.000000,-280.000000,560.000000
-565.879114,5708.054389,1524.031344,-7211.097444,9597.772014,6159.403164,2805.099226,-3671.095213,-4837.968032,14107.482327,9315.782406,16391.741203,17955.692763,16134.494976,7627.510444,8367.934330,8.296000,-829.112000,-558.760010,-1120.000000,-140.000000,840.000000
-569.544800,5704.880441,1530.267481,-7269.569608,9596.565020,6163.582941,2794.839775,-3680.147669,-4816.108026,14160.098333,9370.499476,16431.326143,18014.343740,16193.749451,7671.431621,8403.272438,7.808000,-831.552002,-555.343994,-1120.000000,-280.000000,700.000000
-575.266847,5702.242935,1526.154760,-7304.863012,9592.117023,6159.157295,2785.228525,-3683.209858,-4806.764997,14189.535581,9399.377930,16453.834349,18046.105569,16222.806719,7694.520974,8419.142177,7.320000,-827.160034,-557.783997,-980.000000,-420.000000,980.000000
-578.329036,5703.338170,1515.783550,-7302.024341,9587.736081,6152.407068,2782.188688,-3677.487812,-4813.738741,14182.763002,9392.605352,16449.274594,18041.679924,16213.508393,7687.301360,8413.554241,5.856000,-827.160034,-557.783997,-980.000000,-140.000000,980.000000
-574.529239,5709.842528,1504.853547,-7258.103163,9586.082052,6143.645184,2787.888382,-3667.004844,-4832.737724,14141.591089,9351.835770,16418.652704,17998.272836,16164.289852,7652.812618,8385.100470,6.344000,-829.112000,-559.247986,-980.000000,-420.000000,980.000000
-565.789707,5718.604412,1500.964344,-7198.088729,9589.524220,6142.885225,2800.360656,-3656.343061,-4854.843599,14090.383242,9300.069129,16377.793715,17942.237013,16104.610694,7609.740807,8351.662260,7.320000,-827.160034,-559.247986,-560.000000,-560.000000,1400.000000
-559.553571,5723.857072,1504.495919,-7154.145200,9595.290970,6147.623795,2810.933031,-3651.895064,-4868.634626,14055.358059,9263.099344,16348.334116,17903.367329,16065.383382,7580.594132,8327.142397,6.344000,-830.088013,-558.760010,-700.000000,-420.000000,1400.000000
-557.452507,5722.426560,1512.430789,-7150.904197,9599.560153,6153.658766,2812.832929,-3657.840628,-4864.544256,14057.660289,9262.540551,16346.635383,17902.562666,16065.673955,7580.057690,8326.829472,6.832000,-829.600037,-559.736023,-840.000000,-280.000000,1260.000000
-559.285350,5720.392551,1522.891405,-7186.957560,9603.896392,6160.654862,2808.787263,-3670.290550,-4847.914558,14091.411423,9294.324731,16370.328232,17937.878422,16107.494069,7610.433711,8350.119990,6.344000,-829.600037,-556.807983,-840.000000,0.000000,1400.000000
-567.331978,5714.469339,1531.273309,-7246.167331,9604.410482,6165.840467,2797.700798,-3683.433376,-4827.172140,14142.194586,9346.538406,16410.337855,17994.785964,16170.950672,7654.667813,8382.641778,6.832000,-830.088013,-558.760010,-420.000000,280.000000,1400.000000
-577.479670,5706.154490,1528.412286,-7298.470414,9597.526145,6162.934740,2782.143984,-3693.715178,-4809.223689,14185.400508,9390.481936,16442.904346,18042.261069,16220.459786,7687.658988,8407.116938,6.344000,-828.135986,-555.832031,-280.000000,140.000000,1400.000000
-577.412615,5708.032037,1521.572652,-7312.797882,9591.893505,6158.374984,2775.751385,-3688.037835,-4801.534689,14198.498630,9404.563535,16453.141445,18055.023915,16229.176966,7694.565677,8412.391950,7.808000,-826.671997,-557.783997,-280.000000,280.000000,1400.000000
-571.467050,5716.324534,1512.520196,-7279.046748,9591.602932,6153.234083,2784.043882,-3671.139916,-4815.705695,14166.893264,9374.209866,16432.063750,18020.468118,16190.419041,7672.549209,8392.431842,6.344000,-825.695984,-556.807983,0.000000,420.000000,1400.000000
-562.392242,5726.539281,1507.647515,-7219.971087,9596.185040,6151.848275,2799.511290,-3653.705556,-4838.526826,14114.679589,9322.376170,16393.283474,17965.236958,16130.739883,7632.986621,8360.021813,6.832000,-829.600037,-561.200012,560.000000,420.000000,1400.000000
-550.523466,5738.341002,1510.732056,-7162.057717,9602.443528,6155.424554,2812.318839,-3644.295471,-4853.547198,14068.769106,9276.599798,16356.738371,17914.789070,16077.721545,7595.547449,8325.443664,8.784000,-827.160034,-557.783997,700.000000,700.000000,1400.000000
-548.712975,5737.916319,1516.163530,-7145.897406,9603.471709,6160.386641,2814.129330,-3646.821218,-4854.485971,14056.810922,9265.625091,16344.757836,17901.802707,16064.176388,7581.689367,8315.541841,6.344000,-828.135986,-559.736023,980.000000,700.000000,1400.000000
-557.810135,5724.773493,1522.064390,-7175.066432,9602.868212,6165.572246,2808.697857,-3658.689995,-4846.774619,14080.503771,9289.943789,16359.331174,17929.831794,16095.267665,7601.627124,8335.323135,5.856000,-827.648010,-558.760010,1400.000000,840.000000,1400.000000
-563.755699,5714.067008,1530.066315,-7228.352991,9602.979970,6169.215580,2801.344133,-3674.827954,-4828.043858,14126.838938,9337.798874,16393.305825,17982.157228,16150.454122,7642.061429,8368.202551,6.344000,-824.720032,-560.223999,1680.000000,1120.000000,1400.000000
-572.517582,5705.126310,1531.340364,-7283.964131,9597.928476,6169.684967,2791.084682,-3682.539306,-4809.514261,14174.939892,9387.263285,16428.934506,18034.236793,16205.014730,7685.110889,8399.964380,5.856000,-825.695984,-559.736023,1540.000000,980.000000,1260.000000
-575.088033,5706.445063,1527.071181,-7306.986428,9594.061624,6166.265150,2786.346112,-3680.304132,-4802.898145,14195.235276,9405.614067,16445.318335,18054.532177,16224.997190,7703.014636,8410.380293,7.320000,-825.695984,-557.783997,1960.000000,980.000000,1400.000000
-572.674045,5714.581098,1518.443408,-7290.021454,9591.357063,6160.274882,2789.497708,-3666.289588,-4805.334485,14180.751345,9389.923142,16435.841195,18036.494319,16203.539515,7691.101157,8399.092662,8.296000,-827.160034,-560.712036,2100.000000,700.000000,1260.000000
-566.147335,5725.287584,1511.782588,-7235.997288,9592.273485,6155.089278,2801.813519,-3649.078745,-4823.998192,14130.974010,9339.877586,16400.167811,17983.878313,16146.542567,7654.198427,8368.895455,8.296000,-826.671997,-561.200012,2100.000000,840.000000,1260.000000
-554.457373,5735.502331,1509.770931,-7174.999377,9597.459089,6151.624757,2814.509310,-3637.053506,-4845.455867,14078.469763,9285.674606,16359.778209,17926.747254,16085.812877,7612.557127,8333.892624,8.296000,-826.671997,-560.223999,1960.000000,560.000000,1120.000000
-551.059908,5736.083476,1511.000277,-7146.791476,9600.610685,6152.183551,2819.292583,-3638.059335,-4856.341166,14054.642803,9258.785457,16337.739389,17900.416899,16058.633156,7592.507612,8317.486443,6.832000,-827.160034,-557.783997,2240.000000,560.000000,1120.000000
-555.016167,5728.752104,1516.677620,-7161.230703,9602.041197,6158.352632,2815.671601,-3649.369317,-4850.306195,14066.846856,9268.888446,16344.802540,17914.118518,16076.380441,7600.442481,8327.455321,6.832000,-826.184021,-556.320007,2240.000000,420.000000,1120.000000
-565.163859,5715.430464,1523.003164,-7211.767997,9600.677741,6161.772449,2802.081740,-3666.200181,-4833.095352,14109.784557,9310.283877,16377.637253,17958.956118,16130.181090,7632.874862,8353.785676,8.784000,-827.648010,-559.736023,2240.000000,140.000000,840.000000
-575.937399,5703.762854,1527.317050,-7272.743556,9596.632075,6164.186438,2788.670693,-3681.175850,-4814.945735,14161.819418,9365.090354,16419.546773,18016.154232,16191.871904,7676.885447,8387.961493,7.808000,-827.160034,-559.247986,2660.000000,0.000000,840.000000
-580.318341,5702.131176,1524.187806,-7308.104015,9591.088842,6160.878379,2781.004045,-3684.103928,-4802.585221,14191.211962,9398.975599,16444.357210,18050.464159,16223.857251,7702.277029,8408.770968,4.880000,-828.624023,-557.783997,2800.000000,140.000000,700.000000
-578.038463,5708.948458,1517.571690,-7300.370312,9588.116060,6156.810362,2783.149813,-3676.124355,-4807.033218,14182.517133,9392.962979,16439.126902,18041.769331,16212.055530,7694.610380,8404.121805,4.392000,-826.184021,-557.296021,2940.000000,-280.000000,700.000000
-569.209524,5722.225395,1510.955573,-7252.604634,9589.412461,6153.234083,2792.157566,-3660.031099,-4824.467578,14141.188758,9352.886302,16410.203744,17997.199952,16163.842817,7657.573540,8377.500877,6.344000,-827.160034,-560.712036,3360.000000,-280.000000,560.000000
-557.318396,5735.547034,1507.848681,-7190.824412,9594.262790,6150.820094,2805.456854,-3646.038907,-4844.450038,14089.131545,9301.209068,16372.719869,17939.063065,16102.107299,7613.808824,8343.190949,8.784000,-826.184021,-557.783997,3360.000000,-280.000000,700.000000
-547.617739,5740.106790,1512.430789,-7147.931415,9600.565982,6154.306967,2816.431560,-3640.853303,-4855.782372,14055.693335,9266.563865,16346.881252,17902.137983,16062.477656,7583.522211,8318.715789,6.832000,-828.135986,-556.807983,3360.000000,-140.000000,560.000000
-544.913178,5734.451799,1520.097437,-7146.098572,9602.331770,6159.783144,2817.191519,-3645.211893,-4856.363518,14055.536873,9267.234417,16346.411866,17901.288617,16066.188045,7583.008120,8319.743969,6.344000,-827.160034,-556.320007,3360.000000,-140.000000,420.000000
-551.708108,5722.694781,1528.501693,-7186.376415,9601.080072,6166.935702,2809.122540,-3656.723041,-4843.958300,14090.070318,9302.974856,16373.636290,17941.052370,16110.980941,7613.361789,8344.934385,7.320000,-826.671997,-556.807983,3500.000000,-280.000000,420.000000
-563.710995,5708.099092,1532.413248,-7251.419991,9594.285142,6169.752022,2792.939877,-3669.195315,-4824.825206,14144.250947,9358.027203,16415.366997,18003.033758,16175.778648,7656.746525,8380.987749,6.832000,-827.648010,-557.296021,3640.000000,0.000000,420.000000
-569.500097,5704.858089,1532.837931,-7300.683236,9590.619456,6166.488667,2781.853411,-3676.571390,-4807.010866,14187.009834,9400.272000,16448.648745,18048.452502,16223.298457,7691.011750,8406.804014,3.904000,-825.208008,-560.712036,3920.000000,140.000000,560.000000
-568.024882,5714.849319,1529.887501,-7306.673504,9593.324017,6163.337071,2785.228525,-3671.206972,-4803.971029,14192.307197,9405.681122,16456.114227,18053.861624,16228.238193,7701.941753,8411.341418,4.880000,-825.208008,-557.783997,4060.000000,420.000000,560.000000
-563.688643,5723.477092,1519.672754,-7271.916541,9592.876982,6156.855065,2792.828118,-3659.159381,-4821.874776,14160.679479,9372.421726,16432.331971,18018.076482,16190.441393,7676.483116,8392.029511,3.904000,-826.184021,-555.832031,4480.000000,280.000000,560.000000
-555.798478,5732.663659,1511.357905,-7212.773825,9593.726348,6150.842446,2801.925278,-3645.010727,-4845.299404,14110.164536,9320.208051,16391.808259,17961.593623,16127.342418,7631.064371,8357.920749,6.344000,-824.720032,-556.807983,4480.000000,700.000000,700.000000
-546.187228,5744.979470,1511.424960,-7158.570845,9598.889601,6150.574225,2813.905813,-3634.505407,-4860.096259,14066.399821,9274.521086,16357.006592,17911.995102,16072.714755,7594.206344,8328.707019,8.296000,-824.720032,-561.200012,4480.000000,700.000000,700.000000
-544.063812,5745.985299,1516.543510,-7136.040287,9603.471709,6154.463429,2820.991316,-3636.070029,-4869.774564,14046.707934,9254.203350,16339.281659,17889.621006,16053.559310,7580.929408,8316.435911,7.808000,-825.695984,-555.832031,5040.000000,840.000000,560.000000
-546.813076,5737.581043,1525.528911,-7156.402726,9605.595124,6159.380813,2818.264403,-3650.732774,-4865.572437,14065.796324,9272.196504,16351.820988,17908.083547,16078.593263,7597.961437,8328.416446,5.368000,-823.744019,-560.223999,5180.000000,980.000000,700.000000
-554.435021,5727.701572,1534.000222,-7213.198508,9602.868212,6164.432307,2806.462682,-3665.395518,-4847.221654,14114.098443,9323.270240,16390.243636,17962.398286,16139.837043,7639.870958,8362.815781,6.832000,-823.744019,-556.807983,5320.000000,980.000000,840.000000
-560.827620,5723.499444,1537.509446,-7269.860181,9599.582505,6166.131039,2795.331513,-3672.861001,-4829.072038,14162.020583,9375.349805,16429.448596,18018.702330,16196.275198,7680.797002,8396.857488,7.320000,-824.231995,-561.687988,5320.000000,1120.000000,840.000000
-568.762489,5720.683124,1529.284004,-7295.519983,9593.681645,6160.140772,2789.274191,-3671.318730,-4824.892262,14179.365537,9396.516907,16446.301811,18040.919964,16216.883506,7698.231363,8410.268534,3.416000,-824.231995,-560.223999,5460.000000,1260.000000,700.000000
-568.114289,5722.046581,1519.583347,-7280.633721,9589.144241,6155.156333,2791.397606,-3658.354718,-4831.821302,14164.345165,9383.061157,16434.611849,18025.184336,16197.124564,7685.356758,8402.199555,8.296000,-824.720032,-559.247986,5320.000000,1120.000000,700.000000
-558.592446,5731.210796,1510.285021,-7231.392828,9585.813831,6147.981423,2796.247935,-3643.669622,-4844.315928,14122.078016,9341.822188,16403.341759,17979.027984,16143.659192,7644.318955,8371.577665,4.880000,-824.231995,-554.856018,5320.000000,980.000000,840.000000
-548.556512,5740.822046,1507.379294,-7173.658272,9590.105366,6144.852179,2807.244993,-3632.694916,-4861.213846,14072.591254,9292.983626,16366.863712,17925.763777,16085.790525,7604.264629,8338.899414,5.368000,-825.208008,-558.760010,5040.000000,980.000000,840.000000
-543.192094,5742.677241,1510.977925,-7140.980022,9596.520316,6148.495513,2816.744485,-3630.571500,-4873.283788,14042.058771,9260.998280,16342.545014,17893.621968,16054.431028,7585.645626,8321.621516,5.368000,-826.184021,-559.736023,5040.000000,560.000000,840.000000
-546.813076,5735.770552,1517.772855,-7152.491170,9598.979008,6153.926987,2816.073932,-3640.361564,-4871.249780,14051.334745,9269.402536,16347.641211,17904.596675,16069.138476,7597.045016,8327.432970,6.832000,-824.231995,-561.687988,5040.000000,700.000000,980.000000
-556.401975,5724.192348,1525.148931,-7203.922534,9598.710787,6160.006661,2807.870842,-3657.818277,-4853.994233,14095.680606,9313.055493,16381.325290,17951.870615,16123.229697,7636.451141,8356.266720,5.368000,-825.208008,-556.320007,4900.000000,560.000000,980.000000
-567.153164,5714.826967,1528.993431,-7263.959320,9596.587371,6163.448830,2797.276115,-3670.469364,-4835.464637,14147.268432,9367.481991,16421.536079,18007.213534,16184.026442,7680.349968,8390.531944,4.880000,-825.695984,-562.176025,4480.000000,280.000000,840.000000
-571.221181,5709.239031,1528.099361,-7306.807614,9591.781746,6164.812286,2786.502574,-3672.972759,-4820.265451,14186.540447,9408.139814,16452.895576,18050.575918,16226.450053,7707.105006,8415.632953,5.368000,-823.744019,-561.687988,4340.000000,140.000000,700.000000
-567.644902,5713.575269,1521.684411,-7306.338228,9587.669025,6158.397336,2784.021531,-3666.624864,-4820.712485,14186.696909,9405.122328,16454.862530,18051.313526,16221.577373,7702.187622,8411.140252,3.904000,-827.648010,-558.272034,4060.000000,0.000000,700.000000
-562.839277,5723.588851,1510.508539,-7260.539503,9586.394976,6150.037783,2792.246973,-3653.012652,-4839.644413,14143.200415,9362.095220,16423.257163,18004.643083,16170.213064,7669.934055,8382.932351,3.904000,-825.695984,-558.272034,3640.000000,-140.000000,700.000000
-557.899542,5730.026153,1503.110111,-7202.290857,9588.406633,6145.478028,2802.841699,-3640.450971,-4856.028242,14091.724347,9311.245002,16382.889912,17946.819120,16109.684540,7627.085760,8350.567025,5.856000,-827.160034,-560.712036,3220.000000,-140.000000,420.000000
-551.238722,5734.407095,1505.792320,-7157.833237,9594.285142,6146.573263,2810.798920,-3632.940785,-4865.863009,14055.156893,9272.487077,16353.497369,17904.596675,16068.244406,7594.809841,8326.293031,5.368000,-827.160034,-560.223999,2940.000000,0.000000,420.000000
-549.450582,5733.065991,1514.777722,-7149.294871,9600.208354,6152.049440,2813.995220,-3636.628823,-4869.640454,14048.071390,9263.702841,16346.590679,17896.773564,16065.450438,7591.233562,8321.532109,4.392000,-824.231995,-556.320007,2800.000000,-140.000000,280.000000
-553.675062,5720.951345,1522.712591,-7187.248133,9600.700092,6159.492571,2805.300391,-3650.866884,-4857.346995,14081.196675,9297.521031,16369.769438,17934.816233,16108.008159,7618.748560,8343.302708,4.392000,-823.744019,-559.247986,2800.000000,-420.000000,140.000000
-563.219257,5705.394531,1526.288870,-7254.571587,9595.581543,6160.744269,2787.351941,-3669.530591,-4835.889320,14138.104217,9355.724973,16413.422395,17998.876333,16176.695070,7662.893255,8380.473659,6.344000,-826.184021,-558.272034,2240.000000,-560.000000,140.000000
-569.120117,5698.979580,1525.640670,-7305.578268,9592.251133,6159.447868,2776.444289,-3678.404233,-4822.701791,14181.958339,9399.824965,16447.218233,18047.871357,16226.517108,7699.103081,8407.631029,4.880000,-825.208008,-561.687988,2100.000000,-560.000000,-140.000000
-565.543838,5707.070912,1524.187806,-7311.188556,9593.882810,6156.653900,2778.388891,-3674.984416,-4825.607517,14187.523924,9405.591715,16453.566128,18052.565223,16232.149748,7704.869831,8411.430825,3.904000,-824.231995,-560.712036,1960.000000,-840.000000,-280.000000
-556.849010,5721.778360,1516.655268,-7278.443250,9594.061624,6152.027089,2785.317932,-3662.668605,-4838.012736,14159.383078,9378.479049,16434.723608,18021.742168,16198.040986,7679.947636,8394.041168,3.416000,-825.208008,-562.176025,1820.000000,-560.000000,-280.000000
-547.997719,5734.094171,1510.262669,-7222.943869,9593.838107,6146.260339,2793.856298,-3650.084573,-4853.435439,14112.734987,9330.378095,16397.329139,17968.477961,16138.942973,7638.239281,8360.737069,3.904000,-824.720032,-561.200012,1680.000000,-980.000000,-420.000000
-541.627472,5738.050430,1508.049847,-7166.840990,9596.274447,6143.935757,2804.272211,-3644.764858,-4869.886323,14063.315280,9278.745565,16356.738371,17912.553896,16081.498990,7600.554240,8327.052990,3.904000,-825.208008,-561.200012,1820.000000,-840.000000,-420.000000
-539.526408,5736.932842,1512.699010,-7143.550473,9600.007188,6147.646147,2809.927202,-3647.871750,-4876.681254,14042.237585,9258.561940,16336.845319,17890.291559,16062.432952,7584.885667,8313.641943,6.344000,-826.184021,-562.664001,1820.000000,-980.000000,-700.000000
-546.723669,5724.505272,1518.957498,-7169.031461,9600.476575,6154.150504,2803.825176,-3658.958216,-4869.640454,14063.002355,9280.131373,16347.976488,17915.839602,16092.607807,7602.409435,8327.880004,4.392000,-824.231995,-557.783997,1680.000000,-980.000000,-700.000000
-557.720728,5712.077703,1522.891405,-7226.833073,9597.302627,6157.033879,2790.458833,-3674.827954,-4852.519018,14111.952676,9328.969935,16383.873389,17969.483789,16150.789398,7642.173188,8360.781772,3.416000,-826.671997,-561.200012,1540.000000,-1120.000000,-840.000000
-565.655597,5706.310952,1523.830178,-7285.349940,9592.988741,6156.072754,2776.265475,-3687.099062,-4835.934023,14159.807761,9378.859029,16423.950067,18022.390368,16204.567695,7679.679415,8390.844869,2.440000,-826.184021,-561.687988,1540.000000,-1260.000000,-700.000000
-569.455393,5702.488804,1519.538643,-7313.043751,9588.183116,6152.831751,2770.834001,-3686.227344,-4829.206148,14180.661938,9404.205907,16445.631259,18046.887880,16228.238193,7697.963142,8406.245220,4.392000,-825.208008,-559.736023,1400.000000,-1120.000000,-700.000000
-567.801364,5705.573345,1510.150911,-7300.504422,9582.751642,6148.517865,2770.297560,-3674.783251,-4835.844616,14169.798990,9394.594657,16437.472872,18035.130863,16212.591971,7685.222648,8401.081967,1.464000,-827.648010,-558.760010,1400.000000,-980.000000,-700.000000
-559.285350,5716.480996,1501.120806,-7247.888416,9582.505772,6142.438190,2778.411243,-3662.378032,-4855.514152,14126.391903,9348.348897,16402.335930,17986.269949,16155.751485,7644.453066,8369.700118,0.000000,-825.695984,-556.807983,1260.000000,-1120.000000,-560.000000
-545.784896,5732.306031,1502.238393,-7178.776822,9591.893505,6141.901748,2797.052598,-3650.777477,-4882.112727,14070.378431,9288.379167,16360.269947,17924.065044,16090.998482,7600.733054,8330.673972,2.440000,-824.720032,-560.712036,1260.000000,-980.000000,-420.000000
-541.068678,5737.402229,1508.921565,-7139.862435,9600.118947,6148.719030,2810.396589,-3647.201198,-4898.653018,14037.700181,9253.331632,16336.241822,17889.419841,16058.521397,7580.504725,8312.189080,3.416000,-825.695984,-559.247986,840.000000,-980.000000,-420.000000
-543.393259,5731.970755,1517.951669,-7150.725383,9604.075206,6156.542141,2811.313011,-3651.649195,-4890.539335,14050.597137,9263.769896,16344.959002,17902.026224,16074.927577,7588.573705,8321.710923,3.416000,-827.160034,-557.783997,980.000000,-1120.000000,-280.000000
-552.825696,5719.878461,1524.925414,-7200.748587,9601.683569,6160.565455,2801.724112,-3664.501448,-4869.707509,14095.702958,9308.920420,16377.771363,17949.322516,16126.604811,7620.670810,8349.270624,2.928000,-826.671997,-557.296021,980.000000,-1120.000000,-140.000000
-556.424326,5716.838624,1533.732001,-7256.963224,9601.728273,6165.371080,2792.314028,-3670.849344,-4845.411163,14149.056572,9362.117572,16419.703236,18007.593513,16186.351023,7660.859246,8380.875990,2.440000,-824.720032,-560.712036,980.000000,-1120.000000,0.000000
-563.375719,5713.195290,1532.569710,-7302.001989,9597.637903,6164.432307,2782.635722,-3672.749242,-4828.982631,14186.272226,9403.580058,16452.381486,18052.006430,16230.294553,7692.151689,8407.429863,6.344000,-826.184021,-557.783997,1120.000000,-1120.000000,140.000000
-566.594370,5713.016476,1524.746600,-7311.523832,9590.664159,6157.503266,2776.131365,-3665.864905,-4823.707619,14193.961226,9415.135910,16459.355230,18059.248395,16234.206108,7694.275104,8413.107206,6.832000,-823.255981,-559.736023,980.000000,-980.000000,280.000000
-562.615760,5718.537357,1512.475492,-7275.939855,9585.053871,6148.249644,2778.880629,-3652.498561,-4832.983593,14162.869950,9384.983407,16433.315448,18023.060921,16191.290759,7665.441354,8392.834174,5.368000,-825.695984,-555.343994,1120.000000,-1260.000000,280.000000
-553.250379,5730.763761,1505.993486,-7215.836014,9586.193810,6143.175798,2791.039978,-3638.327555,-4849.099201,14112.377359,9331.696848,16392.791735,17964.901682,16128.169433,7625.699952,8358.568950,7.808000,-824.720032,-557.296021,1260.000000,-1120.000000,420.000000
-546.030765,5741.425543,1509.323896,-7164.315243,9594.910991,6146.081525,2805.434502,-3634.416000,-4863.381966,14067.405649,9285.026405,16356.850130,17916.264286,16079.397926,7597.179126,8329.489330,9.272000,-823.744019,-556.807983,1400.000000,-980.000000,560.000000
-545.114344,5738.788037,1515.470626,-7156.335671,9599.314284,6151.244778,2807.624973,-3642.596739,-4865.863009,14060.655422,9276.353929,16349.496406,17909.178783,16075.821647,7593.736958,8326.449493,6.344000,-826.671997,-560.223999,1820.000000,-1120.000000,560.000000
-552.959806,5726.159302,1523.629013,-7194.445395,9599.314284,6158.330281,2800.852394,-3659.092326,-4857.302291,14093.870115,9306.171156,16372.831627,17944.047504,16116.121842,7623.196557,8348.957699,8.784000,-829.112000,-557.783997,1820.000000,-980.000000,560.000000
-564.739175,5714.201118,1529.485170,-7255.264491,9597.146165,6163.649996,2788.290714,-3674.783251,-4842.997175,14147.469598,9358.206017,16412.461270,18002.676130,16178.796134,7668.905874,8382.306502,7.320000,-826.184021,-559.247986,1960.000000,-840.000000,280.000000
-572.696396,5706.690932,1529.105190,-7308.193422,9594.955694,6164.074679,2777.047786,-3679.857097,-4828.557948,14194.430613,9406.306971,16448.514634,18054.800398,16232.306210,7705.316866,8412.950744,7.808000,-825.208008,-555.832031,2380.000000,-840.000000,280.000000
-570.058891,5708.501423,1524.232510,-7322.342077,9592.854630,6160.498400,2774.209115,-3672.771594,-4821.494796,14208.288694,9421.148529,16460.361059,18070.446619,16243.102103,7713.095273,8421.265593,6.832000,-826.184021,-555.343994,2660.000000,-840.000000,280.000000
-560.961731,5716.749217,1517.236414,-7290.401434,9592.340540,6153.479952,2779.886458,-3661.752184,-4830.882529,14182.003043,9393.499421,16441.630297,18039.623563,16207.763995,7688.374244,8402.177203,7.808000,-825.695984,-555.343994,2660.000000,-560.000000,140.000000
-551.953978,5725.779322,1512.341382,-7231.795160,9596.475613,6149.322528,2793.744539,-3646.843570,-4851.580244,14130.325810,9341.218691,16402.805317,17981.263158,16150.163549,7646.844703,8371.242389,8.296000,-825.208008,-557.783997,2940.000000,-560.000000,140.000000
-540.420477,5735.167055,1512.497844,-7175.960502,9599.269581,6149.344879,2805.233336,-3636.829989,-4863.001986,14084.035347,9290.413176,16366.059049,17927.417806,16096.251142,7606.611563,8340.531092,6.832000,-828.624023,-558.272034,3080.000000,-560.000000,140.000000
-533.625547,5739.503293,1518.979850,-7154.033441,9602.152956,6153.457600,2809.591926,-3638.327555,-4862.286730,14068.590292,9273.425850,16353.944403,17909.201134,16076.849827,7588.931333,8326.874176,5.368000,-827.648010,-556.807983,3080.000000,-560.000000,280.000000
-539.146428,5732.104866,1526.378277,-7177.458069,9604.142261,6160.006661,2805.546261,-3652.632672,-4856.050593,14087.768088,9293.497717,16368.428334,17930.703513,16104.096604,7607.773853,8338.228862,8.296000,-827.648010,-555.832031,3080.000000,-840.000000,140.000000
-553.764469,5716.950383,1531.407420,-7233.695058,9601.527107,6166.131039,2796.449101,-3668.502410,-4846.349936,14130.191699,9339.609365,16401.665378,17981.933711,16163.775762,7652.097363,8372.270569,7.808000,-829.112000,-555.832031,3220.000000,-560.000000,140.000000
-563.465126,5706.825043,1532.301489,-7294.916486,9596.587371,6167.002757,2784.200345,-3677.465460,-4828.021506,14180.997214,9395.421671,16443.664306,18041.836386,16224.036065,7695.884430,8410.670866,3.904000,-827.160034,-557.783997,3080.000000,-560.000000,140.000000
-562.124021,5707.048560,1526.199463,-7324.309030,9589.993607,6161.347766,2773.873839,-3678.583047,-4809.044875,14207.193459,9423.003724,16467.938300,18070.558378,16246.544271,7711.754168,8425.847700,7.320000,-830.575989,-556.807983,3080.000000,-560.000000,140.000000
-560.469992,5712.077703,1514.733018,-7308.171071,9583.489249,6152.272958,2772.599789,-3670.357605,-4815.839805,14190.496706,9404.228259,16457.857663,18051.022953,16222.382036,7695.616209,8413.196613,6.832000,-829.112000,-557.783997,3080.000000,-420.000000,0.000000
-554.636187,5722.583022,1506.015838,-7256.158561,9583.578656,6145.120400,2780.579362,-3656.946559,-4837.029259,14142.529862,9354.249758,16423.123052,17998.429298,16164.982756,7657.305319,8382.217095,8.784000,-825.695984,-562.176025,3220.000000,-700.000000,0.000000
-548.400050,5732.753066,1502.126634,-7192.523145,9587.445508,6141.320603,2792.425787,-3647.737640,-4863.091393,14082.962463,9294.570600,16378.419564,17934.369199,16100.252104,7612.870051,8343.928557,9.272000,-826.671997,-558.272034,3080.000000,-420.000000,0.000000
-541.962748,5737.111656,1506.060541,-7152.558226,9593.614589,6144.740420,2801.120615,-3648.609358,-4877.195344,14048.652536,9261.221798,16352.402133,17898.628759,16065.763362,7585.533868,8320.414522,8.296000,-826.184021,-559.736023,3080.000000,-420.000000,140.000000
-543.639129,5727.165130,1512.877823,-7165.388127,9593.011092,6149.724859,2797.119653,-3658.913512,-4869.036957,14059.269614,9274.923417,16360.828741,17911.548068,16080.135534,7591.077100,8327.790597,5.856000,-827.160034,-561.200012,2800.000000,-420.000000,-140.000000
-554.993815,5711.049522,1516.252937,-7217.981782,9587.356101,6150.954205,2783.865068,-3674.313864,-4848.786276,14101.380301,9319.626906,16391.003596,17957.324440,16130.158738,7623.554185,8355.395002,7.808000,-829.600037,-558.272034,2940.000000,-280.000000,0.000000
-564.359196,5701.684141,1521.058562,-7274.308178,9586.864363,6153.636414,2777.047786,-3684.550963,-4831.307212,14149.525958,9366.811438,16428.085140,18009.314598,16190.061413,7672.057470,8389.459060,4.880000,-828.624023,-559.736023,2800.000000,-420.000000,-140.000000
-568.874248,5699.963057,1520.410361,-7310.652114,9583.779822,6150.328356,2769.135269,-3692.307018,-4818.812587,14181.645415,9397.187459,16452.426189,18042.529290,16224.550155,7699.013674,8406.669904,7.808000,-828.624023,-557.296021,2940.000000,-420.000000,0.000000
-565.387376,5705.975676,1513.302507,-7311.121501,9580.494115,6144.226330,2766.184839,-3689.468347,-4815.705695,14183.925293,9399.377930,16453.901405,18041.478758,16221.711483,7695.929133,8403.540659,2.928000,-826.184021,-561.200012,2660.000000,-420.000000,0.000000
-556.938417,5717.822101,1506.328762,-7267.356785,9579.912970,6139.018373,2773.717376,-3673.419794,-4830.971936,14146.709638,9363.503380,16426.095835,18001.715005,16175.175151,7661.976834,8377.411470,0.488000,-825.695984,-556.807983,2800.000000,-420.000000,0.000000
-542.387431,5730.808464,1505.501748,-7204.235459,9585.523258,6138.817208,2788.268362,-3656.208951,-4849.635643,14095.390033,9309.903897,16387.717889,17944.561594,16112.724377,7617.720380,8340.441685,3.904000,-825.695984,-560.712036,2660.000000,-280.000000,0.000000
-530.965690,5739.391534,1511.112036,-7152.804095,9596.743834,6143.846350,2804.294563,-3645.435410,-4865.326567,14057.280309,9267.614397,16355.509026,17900.126326,16068.087944,7587.165545,8313.038446,2.440000,-823.744019,-561.200012,2660.000000,-420.000000,0.000000
-530.608062,5737.581043,1520.410361,-7144.399839,9602.443528,6149.501342,2810.262479,-3648.654061,-4868.321701,14054.665155,9262.741716,16349.205834,17895.208942,16065.986880,7586.025606,8309.640981,1.952000,-827.160034,-559.736023,2800.000000,-420.000000,140.000000
-534.877245,5730.294374,1530.669812,-7180.408499,9602.868212,6154.306967,2804.227508,-3663.942655,-4851.602596,14089.131545,9297.185754,16374.530360,17931.374065,16106.711758,7612.758292,8329.534033,6.344000,-825.695984,-558.760010,2660.000000,-560.000000,140.000000
-538.274710,5728.170959,1542.695051,-7233.449189,9605.125738,6160.431345,2799.108958,-3679.030082,-4828.267375,14140.071170,9348.728877,16414.942314,17985.420583,16165.318032,7657.014746,8362.033470,3.904000,-827.160034,-560.712036,2660.000000,-280.000000,140.000000
-539.012318,5731.434313,1546.874827,-7277.660939,9606.131566,6163.359423,2795.957362,-3684.394501,-4810.743607,14182.919464,9391.443061,16449.162835,18030.392293,16212.904896,7694.923305,8389.012025,2.440000,-824.231995,-557.783997,2520.000000,-420.000000,-140.000000
-534.609024,5739.056258,1543.410306,-7283.584152,9606.243325,6159.850199,2797.700798,-3676.839611,-4807.480253,14192.374252,9398.260343,16457.589442,18036.941354,16217.174079,7704.109872,8392.498898,4.392000,-825.208008,-558.272034,2660.000000,-420.000000,-140.000000
-521.242681,5756.870598,1541.309242,-7244.692116,9612.993552,6157.212693,2811.022438,-3657.415945,-4819.058456,14162.758191,9364.956244,16440.915041,18000.955045,16179.533741,7683.658026,8372.248217,4.880000,-828.135986,-556.807983,2380.000000,-280.000000,-140.000000
-503.696561,5778.060052,1538.984661,-7177.301607,9622.694209,6155.782182,2829.999069,-3638.953404,-4841.186683,14108.286990,9305.679417,16402.917076,17938.124292,16114.512517,7639.915662,8335.211377,5.368000,-829.112000,-556.807983,2800.000000,-420.000000,0.000000
-497.303962,5784.475003,1538.381164,-7123.232737,9628.483311,6156.966824,2842.448991,-3629.252747,-4859.090431,14062.845893,9259.098382,16367.198988,17888.302253,16063.975223,7602.521193,8308.009304,8.296000,-823.255981,-555.832031,2520.000000,-280.000000,-140.000000
-497.549832,5780.719910,1543.812638,-7105.328990,9631.769017,6161.906560,2845.980566,-3632.404343,-4863.516076,14048.697239,9243.832140,16352.491540,17872.074887,16050.050086,7589.937161,8300.454414,7.808000,-826.671997,-559.247986,2800.000000,-280.000000,-420.000000
-507.250489,5766.660662,1547.478324,-7131.860510,9629.332677,6164.633473,2840.146761,-3643.490808,-4856.385870,14069.730231,9264.082821,16365.276738,17895.253646,16077.721545,7610.076083,8316.458263,8.296000,-827.648010,-556.320007,2940.000000,-140.000000,-420.000000
-525.131884,5744.979470,1547.992414,-7196.546459,9616.458072,6163.337071,2819.985487,-3664.032062,-4836.224596,14119.865193,9315.603592,16403.297055,17952.541167,16136.953668,7648.521083,8350.343508,6.832000,-828.624023,-559.247986,3080.000000,140.000000,-560.000000
-538.721745,5733.535377,1547.031289,-7259.198398,9609.305514,6163.225313,2806.976772,-3675.118527,-4820.466616,14168.726107,9367.951377,16443.843120,18010.722758,16196.610474,7693.269276,8386.620389,6.344000,-827.160034,-557.783997,3220.000000,0.000000,-560.000000
-550.657576,5727.075723,1537.375335,-7290.177916,9603.181136,6160.900731,2800.025380,-3675.252637,-4824.311116,14189.580284,9391.331302,16461.925681,18037.701313,16221.040931,7714.302267,8404.032398,8.296000,-829.112000,-558.760010,3360.000000,0.000000,-420.000000
-552.959806,5727.612165,1524.187806,-7280.432556,9594.575714,6152.675289,2793.878650,-3668.189486,-4833.296518,14176.325700,9377.473221,16451.353306,18026.033703,16202.399576,7696.443224,8395.359921,4.392000,-826.184021,-555.343994,3500.000000,280.000000,-280.000000
-544.108515,5736.776380,1515.872957,-7231.012849,9593.681645,6148.093182,2798.550165,-3651.917416,-4847.556930,14133.767978,9334.334354,16417.892744,17979.296205,16149.828273,7654.578406,8367.330833,6.344000,-826.184021,-553.880005,3780.000000,280.000000,-280.000000
-535.793666,5744.621842,1514.062466,-7171.534857,9596.654427,6147.936719,2811.469473,-3638.841646,-4866.488858,14082.806001,9282.478307,16377.659604,17923.215678,16092.294883,7612.311257,8334.473769,5.368000,-827.648010,-555.832031,3920.000000,420.000000,0.000000
-531.882111,5748.332232,1518.935146,-7138.789551,9600.476575,6150.820094,2820.007839,-3636.047678,-4875.831887,14057.727344,9255.656213,16355.620784,17895.432460,16063.416429,7591.345321,8315.340676,6.832000,-826.671997,-553.880005,4200.000000,140.000000,0.000000
-539.749925,5739.547996,1524.433675,-7152.491170,9599.023712,6153.949339,2814.732828,-3648.944634,-4871.383890,14068.009146,9267.279120,16362.683935,17908.329416,16077.676842,7600.733054,8320.794501,5.368000,-827.648010,-554.367981,4200.000000,280.000000,140.000000
-548.668271,5728.595642,1530.938033,-7202.112043,9597.190869,6158.822019,2804.339266,-3667.518934,-4853.211922,14109.829260,9311.401464,16395.473945,17954.709286,16129.756407,7636.741714,8348.935348,4.392000,-827.648010,-558.760010,4200.000000,280.000000,280.000000
-562.392242,5713.307048,1533.083800,-7269.390794,9590.708863,6161.794801,2788.178955,-3682.204030,-4830.659012,14166.043897,9371.728822,16438.277535,18018.545868,16197.146916,7682.160459,8388.408528,4.392000,-826.671997,-555.343994,4200.000000,0.000000,420.000000
-570.729443,5704.366351,1528.948728,-7312.976696,9584.584485,6159.649034,2776.913676,-3687.389635,-4817.292668,14200.979674,9408.788015,16465.546663,18058.957822,16235.994248,7710.323657,8414.224793,4.392000,-826.184021,-552.416016,4200.000000,-140.000000,420.000000
-568.382510,5705.908621,1522.287908,-7312.261440,9580.360005,6153.278786,2773.560914,-3685.422681,-4818.454959,14201.024377,9409.167994,16465.300794,18055.806226,16229.981629,7703.908706,8410.804976,5.856000,-828.624023,-553.880005,4060.000000,-140.000000,280.000000
-557.363100,5719.990220,1516.208233,-7265.546294,9583.690415,6147.757905,2783.283923,-3671.877524,-4836.269300,14163.808723,9370.812401,16436.109416,18010.834516,16181.411288,7671.409270,8383.178220,2.440000,-830.575989,-553.392029,4200.000000,-420.000000,420.000000
-547.461277,5733.915357,1510.843815,-7200.189793,9590.552400,6144.248682,2797.343170,-3657.572407,-4861.191495,14107.907010,9311.468519,16391.450631,17948.987239,16115.786566,7629.857377,8348.264795,6.344000,-831.064026,-553.880005,4340.000000,-560.000000,280.000000
-544.734364,5735.658793,1508.049847,-7154.748697,9593.055796,6142.661708,2806.172109,-3652.319747,-4880.324588,14065.058716,9266.206237,16356.201930,17902.763832,16069.473752,7595.972132,8323.655525,6.344000,-829.600037,-554.367981,4060.000000,-560.000000,280.000000
-540.778105,5735.032944,1517.124655,-7146.389144,9597.928476,6147.534388,2809.346057,-3659.248788,-4880.883381,14061.080105,9259.299548,16350.658697,17893.398451,16066.009231,7588.998388,8321.576812,5.368000,-828.135986,-555.343994,4340.000000,-560.000000,280.000000
-543.661480,5725.846377,1530.736867,-7183.515392,9600.253058,6155.648071,2802.886403,-3673.531553,-4861.750288,14097.960484,9294.637656,16376.921997,17930.323533,16109.259857,7615.708723,8344.554406,6.832000,-830.575989,-552.903992,4760.000000,-840.000000,0.000000
-554.502076,5711.943592,1536.056582,-7250.324756,9596.185040,6160.766621,2787.508403,-3687.724911,-4835.107009,14153.772790,9355.166180,16420.127919,17994.607150,16177.566788,7661.015709,8383.692310,6.344000,-831.552002,-550.952026,4900.000000,-560.000000,140.000000
-559.106536,5707.763816,1537.554149,-7307.277001,9593.994569,6162.286539,2775.371406,-3690.988265,-4808.664895,14203.818346,9410.039712,16459.198768,18051.626450,16234.340219,7698.566639,8417.465796,4.392000,-833.504028,-553.880005,5040.000000,-560.000000,140.000000
-560.045309,5709.931935,1531.027440,-7324.219623,9590.775918,6157.793839,2770.141097,-3684.349797,-4798.964238,14220.246878,9424.456587,16472.520408,18067.429133,16248.041838,7708.468462,8424.417189,4.880000,-828.135986,-558.272034,5180.000000,-560.000000,0.000000
-554.904408,5720.571365,1523.629013,-7288.881515,9593.391072,6154.217560,2779.171202,-3668.033024,-4815.951564,14190.988444,9391.174840,16450.168663,18034.415607,16208.903934,7689.469479,8402.601886,5.856000,-832.528015,-555.832031,5460.000000,-420.000000,-140.000000
-552.110440,5728.953270,1513.794245,-7229.895262,9594.888639,6149.501342,2790.481185,-3653.236169,-4847.355765,14138.439493,9334.289650,16407.543887,17975.675222,16146.140235,7650.510389,8369.118973,3.904000,-831.552002,-558.272034,5600.000000,-420.000000,0.000000
-547.684794,5733.691839,1509.390951,-7176.563999,9594.955694,6144.002812,2798.572516,-3648.251730,-4869.931027,14090.271484,9285.205219,16367.936595,17922.969809,16089.590322,7611.439539,8336.328964,4.880000,-831.064026,-559.736023,5740.000000,0.000000,-140.000000
-544.264977,5733.825950,1514.978887,-7150.457162,9598.934305,6147.266167,2804.741598,-3653.303224,-4878.223524,14066.757449,9263.032289,16348.647040,17899.008739,16067.439743,7596.307408,8318.894603,5.856000,-831.064026,-562.664001,6020.000000,140.000000,-140.000000
-544.063812,5730.272023,1527.920547,-7167.332729,9605.393959,6156.095106,2804.942763,-3661.461611,-4866.690024,14083.856533,9282.143030,16363.823874,17919.818213,16093.434822,7613.562955,8330.741028,4.392000,-829.600037,-557.783997,6020.000000,700.000000,-140.000000
-550.232893,5720.996049,1536.503617,-7220.261660,9607.070340,6162.778278,2797.857260,-3673.486849,-4848.428649,14130.817548,9329.640487,16402.827669,17972.478923,16151.549357,7654.936034,8362.726374,3.904000,-828.135986,-558.272034,5880.000000,1120.000000,-140.000000
-560.313530,5713.977601,1537.330632,-7277.191553,9605.282200,6164.052327,2786.010836,-3681.354664,-4835.531692,14177.912674,9378.434346,16439.328067,18024.625543,16207.272256,7695.996189,8395.136403,2.440000,-827.160034,-562.176025,5880.000000,1260.000000,-140.000000
-567.667254,5710.826005,1531.116847,-7308.931030,9598.554325,6160.163124,2778.634760,-3681.533477,-4826.278070,14202.834869,9406.038750,16460.182245,18052.475816,16235.815434,7717.252698,8411.654343,2.440000,-828.135986,-559.247986,5460.000000,1540.000000,140.000000
-567.935475,5711.608316,1518.979850,-7302.225507,9587.959598,6151.445943,2772.286865,-3677.465460,-4823.931137,14195.123517,9401.724863,16453.364963,18043.065732,16219.386902,7702.992285,8404.054749,2.440000,-825.208008,-559.247986,5460.000000,1680.000000,-140.000000
-560.894675,5721.443083,1510.754408,-7250.056535,9585.389147,6145.299214,2779.685292,-3665.507277,-4838.571529,14151.358801,9358.809514,16415.545811,17994.070708,16160.870035,7662.155648,8373.365804,4.392000,-827.648010,-557.296021,5180.000000,1820.000000,0.000000
-549.160010,5734.429447,1510.463835,-7187.851630,9590.887677,6145.634490,2797.209060,-3650.486904,-4857.145829,14101.246190,9305.545307,16376.072630,17935.956172,16102.487278,7622.593060,8341.849845,1.952000,-827.160034,-558.272034,5040.000000,1540.000000,0.000000
-541.314547,5737.134008,1513.727190,-7151.865322,9597.369682,6147.646147,2807.513214,-3650.732774,-4869.305178,14072.457143,9270.922455,16353.296203,17899.813402,16070.591339,7600.397778,8320.906260,1.952000,-824.231995,-556.320007,4900.000000,1400.000000,0.000000
-543.415611,5728.930918,1520.276251,-7158.235569,9599.403691,6152.787048,2807.289697,-3661.238094,-4869.640454,14078.313300,9275.303397,16356.961889,17905.267227,16080.157886,7603.683484,8322.649696,3.904000,-827.160034,-556.320007,4620.000000,840.000000,0.000000
-548.198885,5720.057275,1529.820446,-7201.285029,9601.594162,6158.442039,2800.606525,-3674.470326,-4856.117649,14116.400673,9313.167252,16385.639177,17948.495501,16129.577593,7637.568729,8346.163731,2.440000,-825.695984,-554.856018,4620.000000,840.000000,0.000000
-556.714899,5707.607354,1533.933167,-7261.813553,9596.654427,6159.894903,2787.866031,-3689.133071,-4839.197378,14167.340299,9366.565569,16425.246468,18004.263104,16190.128468,7679.746470,8378.394947,2.928000,-824.720032,-549.976013,4480.000000,420.000000,-420.000000
-561.788745,5703.919316,1532.636766,-7301.242030,9593.458127,6158.084411,2780.221734,-3692.195260,-4829.004983,14199.258590,9400.987256,16453.633184,18040.897613,16227.724102,7707.507337,8401.216078,5.856000,-826.671997,-552.416016,4340.000000,-280.000000,-560.000000
-556.826658,5712.614144,1529.552225,-7299.297428,9594.888639,6154.619891,2782.523964,-3680.818222,-4828.625003,14198.699796,9403.580058,16456.158931,18041.165834,16224.997190,7708.759035,8403.384197,6.344000,-824.231995,-553.880005,4060.000000,-560.000000,-700.000000
-542.387431,5729.154435,1525.841835,-7253.699869,9598.867249,6150.864798,2792.537545,-3663.607378,-4843.980651,14163.764019,9367.705508,16430.342666,18000.351548,16179.511390,7677.019558,8379.400775,5.856000,-824.720032,-551.440002,3640.000000,-1400.000000,-980.000000
-534.743134,5739.078610,1519.829216,-7194.490098,9599.381339,6146.640318,2801.165319,-3654.174942,-4867.718204,14114.925458,9316.229441,16391.562389,17943.823987,16116.345360,7629.499749,8344.085019,8.296000,-822.768005,-550.952026,3360.000000,-2100.000000,-1260.000000
-534.094934,5738.497464,1517.616393,-7152.580577,9599.649560,6145.656841,2807.468511,-3654.420811,-4885.420786,14076.480457,9277.315054,16361.007555,17901.266265,16071.932444,7594.675731,8318.067589,4.880000,-825.208008,-552.416016,2800.000000,-2800.000000,-1400.000000
-538.297062,5729.445008,1520.902100,-7148.981947,9600.476575,6149.724859,2809.010781,-3660.858114,-4888.080643,14071.943053,9272.487077,16355.866653,17895.611274,16069.339641,7593.222868,8317.821719,8.296000,-826.184021,-550.463989,2240.000000,-3220.000000,-1820.000000
-544.488495,5719.856110,1527.629975,-7188.186906,9600.007188,6153.547007,2803.109920,-3675.386748,-4869.014605,14106.007112,9306.104100,16379.335985,17930.390588,16110.735072,7623.375371,8342.766266,6.832000,-828.135986,-551.440002,1540.000000,-3780.000000,-2100.000000
-556.267864,5706.042732,1530.625109,-7252.090544,9594.240438,6156.788010,2789.296542,-3689.378940,-4844.964128,14160.210092,9361.603482,16419.680884,17988.348661,16174.571654,7667.788287,8381.993578,4.880000,-829.600037,-550.952026,1540.000000,-4340.000000,-2100.000000
-562.973388,5699.247801,1530.289832,-7306.517042,9589.457165,6156.855065,2778.120670,-3696.732664,-4823.774674,14206.858183,9412.297238,16459.243472,18039.444749,16226.450053,7706.367398,8415.968229,7.808000,-829.112000,-549.000000,1680.000000,-4620.000000,-2240.000000
-560.849972,5705.729807,1527.831140,-7319.771626,9587.758432,6155.357499,2776.645455,-3694.877469,-4817.739703,14218.794014,9428.256384,16474.017975,18052.967555,16238.408236,7715.621020,8424.640706,5.856000,-835.455994,-546.559998,1540.000000,-4480.000000,-2240.000000
-552.557475,5718.358543,1521.572652,-7288.322722,9590.038310,6150.887150,2786.748443,-3679.812393,-4828.334430,14192.530715,9403.714169,16456.270690,18026.659551,16207.048739,7694.230401,8407.295752,5.368000,-832.040039,-547.536011,2100.000000,-4620.000000,-2100.000000
-543.572073,5728.103903,1512.810768,-7230.208186,9591.133546,6144.986289,2797.633743,-3664.099117,-4845.902901,14141.456978,9351.701659,16416.261067,17971.517798,16147.079008,7650.711554,8374.773964,6.832000,-833.504028,-550.952026,2660.000000,-4200.000000,-1820.000000
-535.860722,5736.754028,1511.201443,-7170.976063,9596.408557,6143.846350,2808.697857,-3655.381936,-4866.891189,14090.271484,9297.521031,16374.642119,17913.403262,16088.539790,7607.952667,8342.296880,7.808000,-835.455994,-549.976013,3220.000000,-3920.000000,-1680.000000
-535.346631,5738.497464,1517.772855,-7143.394010,9602.041197,6148.763734,2815.112807,-3656.007785,-4877.083585,14067.830332,9273.984644,16355.352563,17886.938797,16064.913996,7587.612580,8326.516548,5.856000,-834.968018,-549.976013,3780.000000,-3500.000000,-1260.000000
-539.593463,5731.858996,1526.914719,-7162.303586,9603.784633,6155.625720,2812.452950,-3665.149649,-4870.981559,14086.069356,9291.195487,16367.489561,17907.345940,16088.696252,7601.001275,8335.390191,7.320000,-837.895996,-547.048035,4480.000000,-3080.000000,-700.000000
-545.248454,5725.488749,1537.420039,-7213.332619,9605.393959,6163.515885,2806.350923,-3678.448937,-4849.926215,14132.113949,9338.715296,16403.788794,17960.207815,16144.530910,7640.563862,8362.480505,7.320000,-839.848022,-548.023987,5180.000000,-2240.000000,-420.000000
-549.450582,5724.259403,1542.806809,-7268.340262,9606.578601,6167.762717,2798.483109,-3689.267181,-4824.311116,14181.265435,9387.576209,16446.011239,18016.891839,16202.757204,7685.222648,8392.990636,7.808000,-839.359985,-549.976013,5740.000000,-1820.000000,-140.000000
-551.395184,5726.896909,1539.252882,-7295.922315,9604.343427,6163.918217,2795.487976,-3688.730739,-4811.235346,14203.974808,9411.134948,16468.631204,18044.138616,16228.104082,7707.753206,8407.876898,8.296000,-840.824036,-545.583984,6300.000000,-980.000000,280.000000
-553.183324,5728.640345,1527.831140,-7285.238181,9597.906124,6154.798705,2796.225583,-3678.270123,-4818.052628,14190.049671,9398.014474,16460.875149,18031.286363,16210.647370,7697.180831,8402.512479,10.248000,-840.335999,-547.536011,6440.000000,-840.000000,560.000000
-547.774201,5736.865787,1518.644574,-7234.633831,9596.386206,6149.277824,2804.831005,-3661.908646,-4841.298442,14143.423932,9351.142866,16426.341704,17980.167923,16155.080933,7658.087630,8375.288054,5.856000,-838.872009,-549.487976,7140.000000,-420.000000,840.000000
-539.928739,5744.510084,1515.135350,-7175.535819,9597.682607,6147.422629,2815.336325,-3652.386803,-4860.520942,14092.819583,9299.800909,16386.600302,17924.221507,16094.351243,7613.205327,8340.620499,8.784000,-835.944031,-551.440002,7140.000000,-420.000000,980.000000
-531.837408,5749.606281,1519.650402,-7137.336688,9606.310380,6152.943510,2827.607432,-3647.178846,-4869.595751,14061.191864,9267.837914,16361.566348,17889.844524,16061.382420,7588.551353,8321.666219,5.856000,-833.992004,-549.000000,7420.000000,-140.000000,1120.000000
-533.558492,5744.331270,1528.434638,-7138.923662,9614.513470,6161.057193,2834.849398,-3649.056393,-4873.261437,14061.281271,9269.067260,16361.365183,17894.314873,16070.323118,7595.681560,8327.567080,3.416000,-833.015991,-551.927979,7420.000000,-280.000000,1120.000000
-541.582768,5734.116523,1538.738792,-7186.823450,9616.122796,6167.695662,2829.261461,-3660.835762,-4856.654090,14104.196620,9313.368417,16392.948197,17941.879385,16123.721436,7632.249013,8357.429011,7.808000,-827.648010,-552.416016,7000.000000,-280.000000,1120.000000
-549.763507,5723.030057,1542.784458,-7254.795105,9610.668970,6169.103821,2812.274136,-3673.285684,-4829.228500,14163.115819,9374.098107,16438.165777,18005.715967,16191.737794,7677.041909,8394.510555,4.392000,-826.671997,-552.903992,7140.000000,0.000000,1400.000000
-554.166800,5718.783226,1540.146952,-7301.398492,9604.209316,6165.281673,2797.991371,-3677.018425,-4812.352933,14204.712415,9415.202965,16470.039364,18047.401970,16234.943716,7704.623962,8419.030418,6.832000,-824.231995,-553.880005,6440.000000,-140.000000,1400.000000
-553.876228,5719.900813,1532.234434,-7304.483033,9599.940133,6159.045536,2794.482147,-3670.469364,-4813.090541,14207.618142,9416.879346,16473.325071,18048.988944,16234.742550,7703.282857,8418.538680,9.760000,-820.328003,-553.880005,6160.000000,-140.000000,1540.000000
-548.601216,5727.723924,1523.047867,-7261.567683,9600.811851,6150.417763,2802.595830,-3658.891160,-4836.604576,14167.049726,9374.075755,16446.100646,18005.403042,16188.630901,7672.750374,8391.470717,5.856000,-815.447998,-553.392029,5880.000000,140.000000,1400.000000
-539.928739,5736.441104,1517.884614,-7201.150918,9603.449357,6146.237987,2815.761008,-3646.217721,-4862.085564,14114.232554,9319.872775,16406.068671,17949.031943,16126.940087,7628.896252,8356.892569,6.344000,-817.888000,-557.783997,5460.000000,-140.000000,1680.000000
-532.619719,5744.644194,1521.147969,-7149.674851,9611.518337,6149.903673,2830.446104,-3640.249805,-4878.178820,14071.272501,9274.632844,16371.378764,17902.875591,16079.062650,7595.972132,8329.914013,6.832000,-813.984009,-559.247986,4760.000000,-140.000000,1680.000000
-529.982213,5746.722906,1528.613452,-7135.705010,9618.156805,6154.441077,2837.308089,-3645.234244,-4877.418861,14060.163684,9263.166399,16362.952156,17893.040823,16070.233711,7590.495955,8324.907222,1.464000,-813.984009,-558.760010,4340.000000,-280.000000,1820.000000
-536.866550,5736.418752,1536.190693,-7171.534857,9617.665066,6159.492571,2829.842607,-3661.662777,-4863.650186,14090.182077,9293.251847,16385.236846,17925.383797,16106.577648,7613.808824,8345.224958,0.976000,-814.471985,-557.783997,3500.000000,-420.000000,1960.000000
-541.783934,5727.835682,1545.466667,-7228.464750,9619.475558,6166.622778,2818.979659,-3675.543210,-4845.858198,14141.680496,9342.783313,16424.151233,17980.234978,16166.390916,7656.590063,8379.914865,-1.464000,-812.031982,-557.783997,3080.000000,-140.000000,1960.000000
-547.371870,5722.203043,1545.287853,-7282.734785,9616.189851,6167.203923,2805.121577,-3683.053396,-4830.837826,14188.060366,9394.058215,16460.450466,18032.247488,16218.895163,7694.766843,8413.286020,-2.928000,-815.447998,-558.760010,3080.000000,0.000000,2100.000000
-549.271768,5721.711304,1535.095457,-7304.572440,9608.366741,6160.073717,2796.203231,-3680.438242,-4823.931137,14205.293561,9415.985276,16474.599120,18049.793607,16235.234289,7707.462634,8426.026514,-1.952000,-819.840027,-561.200012,2800.000000,700.000000,1960.000000
-543.303852,5730.674354,1526.288870,-7276.096317,9607.807947,6153.949339,2800.226545,-3667.787155,-4832.290689,14180.773697,9390.392529,16455.734248,18023.195031,16203.494811,7685.043834,8408.815671,-4.392000,-822.280029,-563.151978,2520.000000,980.000000,1960.000000
-533.200864,5743.727773,1520.879748,-7217.959430,9610.378398,6148.964900,2810.284830,-3654.443163,-4849.970919,14132.806853,9338.067095,16418.205669,17966.868635,16142.452197,7642.620223,8374.885723,-2.928000,-824.231995,-562.664001,2660.000000,1120.000000,1960.000000
-522.494378,5756.132991,1520.991507,-7161.722441,9617.195680,6148.584920,2824.165264,-3643.602567,-4867.092355,14086.136411,9287.887429,16380.073593,17912.620951,16088.651548,7604.957533,8345.426124,-5.368000,-829.112000,-563.151978,2520.000000,1680.000000,1400.000000
-519.476893,5755.685956,1527.227643,-7138.566034,9622.068360,6154.977519,2831.429581,-3641.188579,-4874.759003,14066.444524,9266.139181,16362.661584,17892.772602,16070.747801,7590.831231,8333.155016,-2.440000,-830.088013,-564.127991,2660.000000,1680.000000,1120.000000
-527.456466,5741.492598,1533.396725,-7162.817676,9619.475558,6161.638339,2824.947575,-3650.911588,-4867.919370,14085.152934,9286.054586,16374.798581,17916.085472,16099.581552,7607.036246,8347.370726,-3.416000,-831.064026,-562.664001,3080.000000,2100.000000,280.000000
-538.855855,5727.925089,1538.716440,-7221.960392,9614.200546,6166.175743,2812.162377,-3668.792983,-4848.898035,14135.556118,9338.670592,16412.684788,17972.389516,16159.886558,7648.386973,8381.635950,-1.952000,-832.040039,-559.247986,3080.000000,2100.000000,-140.000000
-545.628434,5721.688953,1542.918568,-7281.125460,9611.563040,6168.433269,2801.992333,-3680.974684,-4827.127436,14190.161430,9395.131099,16453.767294,18030.504052,16219.118681,7693.604552,8416.459968,0.000000,-834.968018,-559.736023,3360.000000,2100.000000,-840.000000
-548.020071,5722.024229,1539.766972,-7313.311972,9609.149052,6165.147563,2792.694007,-3681.511126,-4811.168291,14219.755139,9426.267079,16476.119039,18060.500093,16248.064190,7714.257564,8432.664982,-3.904000,-834.479980,-556.807983,3500.000000,1680.000000,-1680.000000
-542.186265,5732.574252,1533.799056,-7299.878573,9607.472671,6160.163124,2791.196441,-3672.123393,-4807.212032,14209.763910,9413.884212,16471.179303,18047.312563,16231.926230,7698.343122,8419.477453,-1.464000,-834.968018,-558.760010,3640.000000,1260.000000,-2240.000000
-532.843236,5747.393459,1527.272347,-7249.184817,9609.439624,6154.172856,2802.193499,-3656.097192,-4821.360686,14166.513284,9367.861970,16441.205614,17998.429298,16178.147933,7660.881598,8388.207363,4.392000,-833.992004,-558.272034,3500.000000,560.000000,-2800.000000
-525.511864,5756.423564,1524.366620,-7189.684473,9612.680627,6152.183551,2817.370333,-3643.490808,-4844.271224,14115.774824,9315.044798,16400.771308,17943.041675,16119.742825,7622.011914,8356.579644,2.928000,-834.479980,-556.320007,3780.000000,-280.000000,-3360.000000
-524.684849,5755.753011,1525.998297,-7149.183112,9618.290915,6153.904635,2828.725020,-3642.753201,-4863.851352,14078.313300,9275.817487,16370.082363,17903.322626,16082.281301,7595.726263,8333.579699,5.856000,-834.479980,-557.783997,3500.000000,-840.000000,-3920.000000
-526.920024,5748.086363,1533.732001,-7153.206426,9620.168462,6158.889074,2828.881482,-3650.866884,-4860.297425,14083.968292,9280.489001,16373.502180,17909.357597,16090.059708,7599.749577,8335.054914,7.808000,-833.992004,-555.832031,3220.000000,-1680.000000,-4060.000000
-535.525445,5733.915357,1540.102248,-7204.682494,9614.692284,6165.438135,2815.492787,-3665.887256,-4834.905843,14128.224746,9328.724066,16408.750881,17961.168940,16141.491072,7632.897214,8364.648624,8.784000,-831.064026,-553.392029,2940.000000,-2660.000000,-4340.000000
-546.388393,5723.700610,1542.650347,-7265.836867,9608.813776,6167.874475,2802.931106,-3679.365358,-4814.096369,14178.158543,9382.144735,16448.514634,18018.992903,16200.633788,7676.483116,8399.696159,12.200000,-831.552002,-553.880005,2940.000000,-3360.000000,-4340.000000
-552.088088,5721.912470,1540.325766,-7303.678370,9607.182098,6165.840467,2798.214888,-3680.929980,-4803.971029,14209.830965,9416.186442,16474.800286,18054.353363,16237.380056,7708.557869,8422.316125,10.736000,-828.624023,-559.247986,2800.000000,-4060.000000,-4340.000000
-552.021033,5725.868729,1533.866112,-7302.829004,9605.170441,6161.504228,2797.276115,-3672.548076,-4805.893279,14205.606485,9414.532413,16475.470838,18052.609927,16233.356742,7708.021427,8421.533814,13.664001,-827.160034,-555.832031,2520.000000,-4340.000000,-4200.000000
-545.516675,5735.927014,1524.478379,-7258.371384,9604.835165,6154.284615,2805.881537,-3658.891160,-4821.986535,14164.211054,9373.740479,16444.960707,18006.632388,16185.032271,7676.304302,8396.522212,13.664001,-828.135986,-556.320007,2380.000000,-4620.000000,-3920.000000
-537.201826,5743.839531,1519.069257,-7197.529936,9606.869174,6152.183551,2816.655078,-3643.490808,-4840.918462,14112.019731,9319.895127,16401.955950,17949.031943,16121.843889,7632.740752,8364.872141,14.640000,-826.671997,-557.783997,2240.000000,-4900.000000,-3640.000000
-525.064829,5753.786058,1524.433675,-7146.009165,9615.005209,6156.340975,2829.842607,-3635.600643,-4851.781410,14074.424097,9275.839838,16368.920072,17902.428556,16074.525246,7597.089719,8339.279394,15.616000,-822.768005,-559.247986,2100.000000,-4620.000000,-3360.000000
-522.092047,5754.322500,1533.866112,-7130.742923,9621.308401,6162.733574,2836.704592,-3639.534550,-4855.268282,14063.918777,9262.361737,16358.973546,17891.029166,16067.104467,7588.037263,8333.512644,14.152000,-823.744019,-557.783997,1960.000000,-4340.000000,-2660.000000
-530.138675,5742.900758,1542.069202,-7165.790458,9623.163596,6169.819077,2832.435409,-3651.068050,-4843.667727,14093.400728,9292.804813,16380.967662,17925.964943,16108.321084,7613.764121,8356.222016,16.592001,-826.671997,-557.783997,1820.000000,-4060.000000,-2380.000000
-542.789762,5728.662697,1547.344213,-7230.163482,9620.928421,6173.775336,2818.599679,-3667.876562,-4823.260584,14146.173197,9349.377078,16422.072521,17984.973548,16173.856398,7659.339328,8392.990636,17.080000,-826.671997,-558.272034,1820.000000,-3640.000000,-1820.000000
-550.009376,5720.549014,1545.712536,-7287.451003,9614.602877,6170.377871,2801.522947,-3679.119489,-4802.317000,14194.743537,9397.813308,16461.500998,18036.226098,16226.181832,7696.778500,8419.522157,16.592001,-827.160034,-555.832031,1680.000000,-3220.000000,-1260.000000
-547.327166,5727.925089,1542.337423,-7300.884402,9613.351180,6166.600426,2798.863089,-3674.984416,-4791.699921,14210.523869,9411.827852,16474.241492,18048.832482,16236.664800,7707.619096,8426.786474,13.664001,-826.671997,-557.783997,1680.000000,-2800.000000,-840.000000
-539.861684,5743.660717,1536.257748,-7266.038032,9618.246212,6162.912388,2810.508348,-3656.767745,-4803.859270,14181.935988,9381.720052,16454.191977,18015.640141,16202.265466,7688.173078,8408.927430,18.056000,-826.184021,-556.807983,1400.000000,-2100.000000,-280.000000
-530.496303,5756.714136,1530.625109,-7207.409407,9619.766130,6157.704432,2820.790150,-3641.836779,-4826.188663,14131.130473,9329.640487,16416.328122,17959.760780,16142.005162,7645.771819,8373.544618,12.688000,-827.648010,-555.343994,1820.000000,-1680.000000,280.000000
-525.265995,5760.513933,1527.719382,-7154.815752,9620.324924,6154.351670,2828.792075,-3636.606471,-4843.690079,14082.806001,9282.567714,16380.140648,17910.050501,16086.975168,7605.002237,8341.291051,12.200000,-830.088013,-558.760010,1680.000000,-1120.000000,840.000000
-522.695544,5759.351642,1532.413248,-7129.580632,9623.454168,6158.486743,2835.363488,-3638.998108,-4851.133210,14063.047059,9261.914702,16361.096962,17887.788163,16063.170560,7589.266609,8326.315382,11.224000,-828.624023,-559.247986,1540.000000,-560.000000,1260.000000
-526.987079,5749.248654,1539.275234,-7149.294871,9624.147072,6163.627644,2832.055429,-3650.755125,-4842.304271,14082.314263,9278.700862,16371.624633,17906.340111,16085.656415,7602.968228,8337.223034,11.224000,-824.720032,-556.320007,1120.000000,-280.000000,1820.000000
-536.553626,5735.927014,1546.606606,-7208.661104,9621.822491,6170.400223,2819.180825,-3667.496582,-4816.823282,14136.003153,9333.127360,16411.455442,17964.588757,16149.314183,7643.715458,8373.946950,11.224000,-825.208008,-557.783997,1680.000000,420.000000,2380.000000
-542.298024,5733.155398,1553.379184,-7268.541428,9621.241346,6173.976502,2807.312048,-3678.583047,-4789.934133,14190.183781,9388.358520,16455.018992,18024.290267,16213.418986,7687.077843,8412.056674,10.736000,-827.160034,-555.343994,1400.000000,840.000000,2660.000000
-547.058946,5734.317688,1549.042946,-7296.704626,9620.324924,6170.668444,2799.980676,-3679.298303,-4780.591104,14212.222601,9413.191308,16475.537893,18050.687677,16238.587050,7704.713369,8427.077046,10.248000,-826.184021,-556.807983,1680.000000,980.000000,2940.000000
-554.077393,5731.970755,1535.028402,-7286.311065,9613.485290,6162.845333,2796.739673,-3673.576256,-4795.119738,14194.408261,9398.863840,16463.602062,18036.650781,16218.381073,7690.475308,8417.354037,9.760000,-828.135986,-554.367981,2240.000000,1540.000000,3220.000000
-551.953978,5734.921185,1522.220853,-7239.640622,9608.210279,6153.390545,2802.215851,-3662.378032,-4816.532709,14151.001173,9354.316813,16428.040436,17987.454592,16163.976927,7654.421944,8388.520287,5.856000,-827.160034,-552.903992,2660.000000,1680.000000,3220.000000
-537.380640,5750.902683,1519.471588,-7178.530953,9610.490156,6147.690850,2813.905813,-3652.409154,-4826.926270,14102.430833,9300.583220,16389.841305,17929.094187,16101.369691,7612.355961,8352.489275,5.856000,-828.135986,-548.023987,3220.000000,1820.000000,3360.000000
-531.323317,5759.821029,1523.472550,-7131.905214,9618.715598,6149.501342,2828.702668,-3649.346965,-4843.086582,14061.840065,9257.667870,16357.230110,17884.770678,16058.320231,7584.304522,8325.309554,4.392000,-825.695984,-555.832031,3780.000000,1960.000000,3220.000000
-534.229044,5752.623767,1531.742696,-7136.956708,9620.771959,6156.340975,2828.032115,-3657.371242,-4841.700773,14065.393992,9262.406440,16359.085305,17890.895056,16069.965490,7585.489164,8329.109350,5.368000,-828.135986,-553.392029,4340.000000,2100.000000,2940.000000
-541.605120,5739.771514,1541.622167,-7188.075148,9619.721427,6164.722879,2817.951479,-3669.865867,-4821.025410,14111.952676,9312.407292,16394.356357,17943.578117,16127.655343,7620.894327,8360.401793,3.904000,-829.600037,-548.512024,4620.000000,2240.000000,2940.000000
-554.837353,5725.444046,1545.064335,-7254.415125,9613.395883,6167.718013,2805.099226,-3680.304132,-4800.908840,14168.524941,9371.170029,16437.137596,18005.939484,16194.867038,7668.570598,8401.283133,3.904000,-826.671997,-549.000000,4900.000000,2240.000000,2660.000000
-562.772222,5719.610240,1541.756277,-7298.917448,9608.232630,6164.968749,2794.482147,-3683.835707,-4791.163479,14203.639532,9408.855070,16466.932472,18046.932584,16235.368399,7698.812508,8425.244203,3.416000,-830.088013,-550.463989,5040.000000,1960.000000,2380.000000
-556.916065,5731.568424,1538.984661,-7296.481108,9611.227764,6161.839504,2796.717321,-3674.447974,-4787.989532,14204.891229,9408.095110,16469.748791,18046.664363,16231.143919,7699.438357,8423.210194,0.976000,-830.088013,-550.952026,5460.000000,1820.000000,1960.000000
-545.203751,5746.924072,1532.234434,-7251.375288,9616.569831,6157.816190,2805.993295,-3659.919341,-4798.517203,14169.776639,9369.158372,16443.194919,18004.352510,16183.691166,7667.609473,8397.796261,4.880000,-829.112000,-552.416016,5460.000000,1540.000000,1540.000000
-533.379678,5757.876427,1527.473513,-7187.851630,9622.805968,6154.776353,2820.410171,-3644.809561,-4823.685267,14115.864231,9313.480176,16402.134764,17943.533414,16118.759348,7624.716476,8362.636967,4.392000,-831.552002,-553.392029,5460.000000,1400.000000,1120.000000
-525.802437,5762.547942,1528.077010,-7136.554377,9628.148035,6155.156333,2832.614223,-3639.199273,-4845.277053,14070.825466,9267.524990,16367.713078,17895.655977,16070.323118,7591.635894,8334.630231,3.416000,-830.088013,-556.807983,5320.000000,840.000000,560.000000
-525.735381,5760.268064,1534.626071,-7122.517481,9632.394866,6159.403164,2837.732773,-3641.568558,-4852.206093,14057.995565,9257.354946,16356.693668,17882.826076,16061.918862,7585.019777,8328.394095,2.928000,-825.695984,-554.856018,5180.000000,280.000000,-280.000000
-528.082315,5754.903645,1545.712536,-7148.445505,9636.909918,6167.673310,2836.704592,-3652.185637,-4843.935948,14081.777821,9282.478307,16373.636290,17910.698701,16096.117031,7609.606696,8342.945080,-1.464000,-829.600037,-559.736023,5040.000000,-140.000000,-840.000000
-534.072582,5746.141761,1553.066260,-7204.995418,9634.965317,6172.747156,2825.059333,-3667.340120,-4823.662916,14131.957487,9333.887319,16412.081291,17965.393420,16155.796189,7650.264519,8372.069403,-0.488000,-828.135986,-556.807983,4620.000000,-560.000000,-1400.000000
-541.426306,5738.430409,1551.278120,-7262.171181,9627.522186,6170.154353,2809.033133,-3674.537381,-4803.054607,14180.930159,9382.658825,16452.873224,18018.277647,16210.781480,7684.350930,8403.250087,-0.488000,-831.552002,-558.272034,4620.000000,-840.000000,-1820.000000
-541.560416,5739.816217,1547.098344,-7280.030224,9622.940078,6164.946397,2803.400493,-3669.262370,-4794.493889,14198.811555,9400.674331,16467.312451,18034.594421,16225.913611,7692.486965,8413.263668,-2.928000,-826.671997,-557.296021,3920.000000,-1400.000000,-2100.000000
-536.799495,5748.511046,1540.236359,-7251.956433,9621.822491,6160.878379,2810.485996,-3655.203123,-4803.747511,14173.442325,9378.590808,16451.286251,18008.867563,16195.492887,7671.744546,8397.997427,-1.464000,-827.160034,-559.736023,3500.000000,-1540.000000,-2660.000000
-529.758695,5759.128125,1530.066315,-7193.327808,9621.688380,6155.335147,2821.147778,-3643.759029,-4821.472445,14119.552269,9324.834862,16410.606076,17950.998896,16131.455139,7628.538624,8362.145229,-3.416000,-825.695984,-555.343994,3220.000000,-1960.000000,-2520.000000
-519.655707,5771.198067,1529.149893,-7130.631164,9628.773883,6154.016394,2833.977679,-3632.896082,-4841.544311,14068.903216,9270.788344,16368.897720,17892.817306,16071.060726,7585.399757,8325.667182,-1.952000,-826.671997,-560.223999,2800.000000,-2100.000000,-2800.000000
-520.236852,5768.515857,1532.077972,-7107.608868,9630.025581,6156.989176,2836.816351,-3634.684221,-4853.949529,14049.412495,9248.213082,16350.524587,17870.063230,16048.753685,7568.054803,8310.982086,-2.440000,-829.112000,-557.296021,2520.000000,-2380.000000,-2800.000000
-529.334012,5755.395383,1536.883597,-7126.563147,9629.198567,6163.471182,2833.441238,-3646.620053,-4851.624948,14064.589329,9263.658138,16357.990069,17886.692928,16069.987842,7583.812783,8318.492272,-1.464000,-828.135986,-554.856018,1820.000000,-2240.000000,-2520.000000
-535.838370,5745.024174,1547.992414,-7180.833182,9627.812758,6168.992063,2823.114732,-3663.763841,-4831.128398,14113.494946,9313.770749,16394.557523,17940.717094,16129.197613,7623.911813,8347.236615,-1.952000,-828.135986,-550.463989,1540.000000,-2520.000000,-2380.000000
-543.102687,5739.749162,1553.557998,-7240.937023,9627.455131,6171.741327,2811.268307,-3677.130184,-4808.776654,14165.932139,9368.979558,16439.596288,17999.792755,16192.855381,7666.178962,8382.150040,-1.464000,-826.671997,-553.392029,1680.000000,-2240.000000,-2240.000000
-547.662443,5740.375011,1550.048774,-7272.274169,9624.750569,6170.154353,2804.719246,-3677.912495,-4796.974933,14192.195438,9397.679198,16463.579710,18028.313581,16220.996227,7689.000093,8401.730168,-0.976000,-827.648010,-551.440002,1400.000000,-2240.000000,-1960.000000
-540.107553,5751.774401,1544.639652,-7258.729012,9623.856500,6165.505191,2805.725074,-3670.804640,-4797.176098,14182.025395,9387.084471,16458.304698,18016.087176,16203.740681,7677.533648,8392.968284,3.416000,-828.624023,-554.856018,1120.000000,-1960.000000,-1820.000000
-529.065791,5764.023157,1536.458914,-7207.588221,9625.890508,6159.671385,2814.285793,-3658.622939,-4813.984610,14138.350086,9339.497607,16425.000599,17967.718001,16150.074142,7638.932185,8362.212284,5.856000,-827.160034,-554.856018,1260.000000,-1820.000000,-1540.000000
-521.309736,5773.433241,1531.183902,-7146.031516,9627.321020,6155.558664,2824.567595,-3649.682242,-4835.911672,14084.683548,9283.439432,16379.604206,17907.502402,16084.561179,7594.675731,8326.248327,8.296000,-828.624023,-553.880005,1260.000000,-1960.000000,-1400.000000
-521.354439,5771.980378,1532.480303,-7108.100606,9629.466788,6157.726783,2833.061258,-3651.023346,-4854.351861,14050.217158,9248.280138,16349.608165,17870.733782,16046.116179,7569.664129,8302.533126,7.320000,-828.135986,-553.880005,840.000000,-1960.000000,-980.000000
-523.455503,5765.252503,1540.683394,-7110.514594,9634.227709,6166.421612,2836.168150,-3658.086498,-4856.072945,14053.972251,9251.901120,16351.262194,17875.002965,16055.548615,7575.430879,8305.416501,10.248000,-829.112000,-549.976013,980.000000,-2100.000000,-700.000000
-528.596405,5755.976529,1554.183847,-7154.033441,9637.602822,6177.150449,2833.731810,-3666.401346,-4841.097276,14094.093632,9293.318903,16383.426354,17919.684102,16106.801165,7611.327781,8335.501949,12.200000,-831.064026,-554.367981,840.000000,-2100.000000,-700.000000
-539.951091,5744.577139,1558.944769,-7215.411331,9633.601860,6180.547915,2820.544281,-3675.945541,-4820.243099,14148.050743,9348.728877,16424.017122,17978.804467,16169.676622,7654.287833,8371.398851,10.248000,-829.112000,-552.416016,980.000000,-2100.000000,-420.000000
-546.209579,5743.347793,1556.419022,-7258.773715,9629.355029,6176.926932,2808.653153,-3680.214725,-4805.669761,14184.908770,9385.430442,16454.169626,18018.165889,16210.848535,7684.887372,8393.728244,10.248000,-830.088013,-554.367981,1120.000000,-1820.000000,-140.000000
-547.818905,5745.761781,1549.557036,-7267.066213,9625.085846,6170.109650,2805.970944,-3677.174887,-4805.423892,14190.139078,9389.990197,16460.025783,18026.458386,16214.871849,7688.933037,8398.399758,13.176001,-829.112000,-551.440002,1400.000000,-1680.000000,0.000000
-540.308719,5755.149514,1539.834027,-7231.750456,9623.275354,6161.571284,2813.257612,-3664.747317,-4816.443302,14159.584243,9360.307081,16436.645858,17992.416679,16173.364660,7662.893255,8378.685520,11.712000,-831.064026,-550.463989,1680.000000,-1260.000000,0.000000
-530.719820,5767.577084,1532.457952,-7169.120868,9624.504700,6155.960996,2825.238147,-3651.358622,-4836.693983,14105.694187,9304.651237,16393.954026,17931.038789,16106.421185,7621.363714,8340.799313,12.688000,-829.600037,-554.856018,2520.000000,-1260.000000,0.000000
-520.058038,5775.668416,1535.430734,-7119.499996,9628.282145,6158.598502,2835.944633,-3640.450971,-4848.562759,14066.422172,9262.428792,16361.387534,17886.625872,16059.638984,7587.165545,8315.161862,14.640000,-829.600037,-551.927979,2660.000000,-980.000000,140.000000
-520.862701,5767.845305,1539.565806,-7113.867356,9627.186910,6163.538237,2836.883406,-3643.043774,-4852.094335,14059.314318,9255.767972,16353.162092,17881.552026,16056.889720,7579.722414,8313.261964,10.736000,-830.088013,-552.416016,3080.000000,-840.000000,280.000000
-530.384544,5749.472171,1544.036155,-7150.747734,9622.560098,6168.254455,2826.847473,-3654.309053,-4841.745477,14086.136411,9287.038062,16371.043488,17915.280809,16093.390118,7603.772891,8333.579699,6.344000,-827.160034,-550.463989,3500.000000,-420.000000,280.000000
-542.230969,5734.585909,1548.931187,-7211.499776,9619.632020,6170.109650,2812.654115,-3671.206972,-4822.254756,14133.991496,9340.078752,16408.147384,17972.210702,16155.572671,7645.548301,8366.168543,9.760000,-828.135986,-550.952026,3920.000000,-280.000000,560.000000
-546.634262,5734.429447,1553.490943,-7261.947663,9621.911898,6171.920141,2804.540432,-3678.180716,-4804.574526,14175.789258,9384.335206,16444.357210,18021.697464,16209.529782,7686.004959,8394.979941,7.320000,-829.600037,-552.416016,4200.000000,0.000000,560.000000
-550.322300,5736.016421,1547.612434,-7282.935951,9617.530956,6166.019281,2798.728978,-3676.571390,-4799.053645,14192.083680,9400.048482,16458.997602,18040.115302,16224.863079,7699.594819,8404.211212,7.808000,-826.184021,-553.392029,4900.000000,140.000000,560.000000
-547.371870,5743.280738,1535.967175,-7256.091506,9614.312305,6157.324452,2802.439368,-3666.222533,-4810.810663,14167.608520,9373.494610,16440.110378,18012.287380,16192.073070,7679.858229,8386.285113,5.368000,-827.648010,-553.392029,5040.000000,420.000000,700.000000
-534.586672,5760.089250,1531.496827,-7193.148994,9620.928421,6155.245740,2818.398514,-3645.927149,-4830.077866,14116.311266,9317.279973,16400.860715,17954.619879,16129.331723,7638.954537,8351.081115,6.344000,-827.160034,-554.367981,5460.000000,700.000000,560.000000
-520.549777,5775.310788,1532.346193,-7130.362943,9629.489139,6155.871589,2834.894101,-3633.209006,-4845.433515,14066.243358,9261.400612,16362.326308,17894.896018,16069.429048,7598.095548,8317.933478,4.880000,-824.720032,-552.903992,5880.000000,840.000000,420.000000
-515.408875,5780.719910,1540.973966,-7101.350379,9639.145093,6160.833676,2844.751220,-3632.292584,-4855.156524,14044.897442,9236.701934,16344.109636,17870.510265,16047.367876,7579.007158,8305.036522,4.880000,-827.648010,-552.903992,6160.000000,840.000000,280.000000
-520.616832,5770.527514,1548.506504,-7125.780836,9637.669878,6167.226275,2837.352793,-3640.652137,-4845.657032,14067.092725,9258.830161,16357.788903,17894.583093,16074.301729,7590.607714,8318.604030,2.928000,-828.135986,-553.392029,6300.000000,700.000000,140.000000
-534.184341,5751.193255,1552.529818,-7187.583409,9629.265622,6171.048423,2821.259537,-3657.013614,-4825.205186,14117.674722,9312.966086,16395.809221,17951.624745,16135.031418,7629.142121,8353.204531,4.392000,-826.671997,-553.880005,6440.000000,560.000000,140.000000
-549.718803,5736.396400,1551.434583,-7249.229520,9622.828319,6172.657749,2810.038961,-3669.240018,-4809.201337,14166.267415,9363.726898,16433.337800,18008.576990,16196.051681,7676.594874,8390.397834,3.904000,-826.671997,-554.367981,6580.000000,840.000000,-140.000000
-556.491382,5734.965889,1547.411269,-7278.443250,9619.587316,6171.048423,2806.999124,-3669.687053,-4802.249944,14189.312063,9387.419747,16453.476721,18036.091988,16223.924306,7704.243982,8408.323933,5.856000,-827.160034,-557.296021,6580.000000,420.000000,-420.000000
-552.289254,5744.711249,1541.286891,-7268.541428,9618.737950,6167.874475,2810.374237,-3659.539361,-4803.546346,14181.712470,9380.825982,16451.845044,18027.553621,16211.653198,7698.477232,8404.524136,4.392000,-825.208008,-552.416016,6580.000000,280.000000,-560.000000
-543.974405,5758.457572,1532.770876,-7217.825320,9621.040180,6161.817153,2819.583156,-3647.469419,-4823.662916,14135.399656,9336.234252,16419.971457,17978.357432,16157.830198,7661.574502,8374.192819,5.368000,-827.160034,-554.856018,6440.000000,-140.000000,-700.000000
-540.152257,5760.670395,1525.595966,-7155.151028,9621.889546,6158.531446,2829.037944,-3638.059335,-4853.100163,14074.602911,9277.583275,16373.166904,17917.113652,16092.540752,7614.054693,8334.607879,6.832000,-827.160034,-556.807983,6300.000000,-420.000000,-840.000000
-529.937509,5764.805468,1530.379239,-7118.963554,9625.175253,6160.230179,2833.955328,-3634.885387,-4855.044765,14048.160797,9246.357888,16351.284546,17885.418878,16057.672031,7584.483336,8313.686647,6.344000,-830.575989,-554.367981,6580.000000,-700.000000,-1120.000000
