0.709885,1.36463,1.83502,3.66818,1.8639,-0.0776686,2.48837,-0.564343,1.61235,0.816507,2.10297,2.45946,0.55722,-0.369706,2.33171,2.0591,60.512,-710.528,-699.304,-9660,3080,-4340
-2.99418,-1.92652,-1.213,-0.530141,-1.11726,-2.85004,-1.58293,-2.04082,-3.83025,-1.17419,-1.1237,-1.54702,-0.780892,-1.52331,-4.22726,-1.32358,58.56,-711.016,-695.4,-9240,2800,-4480
-6.60225,-3.69467,-3.12989,-2.58007,-1.83243,-2.16594,-3.01284,-0.364878,-4.03944,-4.32402,-2.30052,-3.52104,-0.750641,-0.317964,-5.29728,-3.24848,61.976,-710.04,-696.864,-9100,2520,-4480
-9.30246,-2.35136,-4.28228,-1.91321,-1.77533,-3.4807,-1.70551,0.283486,-5.46285,-6.8684,-3.46814,-3.21661,-1.25022,-0.488192,-6.99371,-2.21384,62.464,-711.016,-695.4,-8960,2240,-4480
-1.75231,1.09875,-1.70406,-0.722176,-0.0688973,-0.75345,0.329897,4.40456,0.865307,-2.48401,-2.29347,0.145144,0.387734,-0.00061549,-0.503249,1.29533,62.952,-713.944,-693.936,-8820,1680,-4480
0.752742,-0.785263,-0.704621,-1.41972,-1.07061,0.328299,-0.837314,2.64394,1.98115,-0.366729,-2.54759,-0.646927,-0.820557,-0.949876,1.33126,0.511424,64.904,-712.48,-691.984,-8820,1120,-4620
1.73675,-1.95288,-1.30312,-2.86986,-1.80245,-0.0281486,-2.15617,0.37173,1.37484,1.15856,-2.21018,-1.35744,-0.8098,-1.33168,0.469125,-1.34942,64.416,-711.016,-692.472,-8960,700,-4900
-0.539304,-5.2292,-4.25006,-6.59344,-6.38218,-0.964845,-11.108,-1.01802,-1.72495,-2.5508,-2.505,-5.51684,-1.9601,-2.29799,-8.13477,-3.82921,64.904,-711.504,-689.544,-8960,700,-4900
-2.19616,-5.36056,-5.49343,-7.40319,-8.00653,-0.580566,-11.1766,-1.25361,-4.44219,-4.68369,-2.69503,-6.94222,-2.86065,-2.97847,-8.66582,-6.01602,61.976,-710.528,-693.936,-9380,840,-5320
0.750365,-1.22087,-2.4131,-2.22585,-3.03522,0.476857,-1.39218,-3.07912,-1.56668,-0.441034,-1.11212,-2.33819,-1.48095,-2.0479,-1.45157,-5.9117,64.416,-709.064,-688.568,-10780,1260,-5180
2.21139,-1.69825,-0.944983,-1.58384,-2.03096,0.0880233,0.644835,-7.30046,0.73615,0.847297,0.0998108,-1.91607,-0.812085,-2.18724,0.333319,-3.81926,63.928,-705.648,-695.888,-11480,1120,-5040
0.399996,-0.852109,-2.94759,-1.96024,-0.857457,-1.37859,2.09849,-7.35003,-3.79999,0.501725,-1.10812,-1.35646,0.0474461,-1.45752,-3.12813,-1.81282,61.976,-703.696,-691.496,-11900,1260,-5040
0.0789236,0.98849,0.0485963,3.69378,2.18469,0.703507,4.0277,1.31297,0.200697,0.698405,0.0844479,1.66253,0.93722,4.3811,3.01939,2.74848,63.928,-701.256,-691.984,-13160,1120,-4760
1.23948,5.03187,3.24506,7.93457,5.82447,2.79855,8.28459,4.39355,-1.20812,2.37345,0.142317,5.29006,2.02563,4.63449,4.52398,6.41444,65.88,-697.84,-696.376,-13860,1540,-4480
2.81107,5.00991,4.94288,7.19032,6.21215,3.93951,6.83512,5.74056,1.7268,3.82749,1.31465,5.76754,1.60455,4.17119,6.93523,8.56185,65.392,-694.424,-692.472,-14560,2380,-4200
2.93243,3.36901,3.16487,5.12205,4.6789,1.59731,4.99683,3.63278,0.726984,2.69407,0.0873472,4.60952,-0.206682,2.12536,4.86451,7.5848,63.44,-691.984,-689.544,-15820,2940,-3920
5.47666,5.7227,4.68515,7.00246,5.52616,1.87755,5.75906,3.76622,4.09554,5.99715,3.87623,6.49578,3.13274,3.63152,6.08889,6.98551,63.928,-691.984,-692.472,-16940,3360,-3920
8.119,8.92769,7.63221,10.1455,7.8145,1.62656,7.59134,3.84574,7.54491,8.31112,8.22977,8.65385,5.41236,6.0741,8.67666,5.20999,62.464,-691.984,-691.984,-18200,4340,-3360
5.85307,7.8014,5.75272,7.86212,7.168,1.97847,5.95307,3.47588,6.59535,6.0958,7.78249,6.67216,4.51269,4.96472,7.21178,2.88288,61.976,-690.032,-693.936,-18760,4480,-3220
-1.90933,-1.98943,-0.406208,-2.52509,-0.488327,0.406059,-0.697212,1.03601,0.184706,0.573515,4.79658,-1.14797,1.4373,-1.24282,-1.22582,-1.55404,58.072,-685.152,-696.376,-19880,4900,-3080
-10.8837,-8.77913,-3.59584,-8.93163,-4.78224,-1.70021,-6.62919,-0.281873,-3.14186,-7.68916,1.18288,-6.53582,-1.26185,-3.60937,-4.65077,-3.84593,59.048,-685.64,-693.936,-20860,5180,-2940
-8.55936,-4.50233,-3.61817,-8.27962,-4.70622,-2.9,-7.52099,-2.9817,-4.17636,-7.90717,-4.33171,-5.73667,-2.36998,-5.29607,-6.21976,-6.8167,59.048,-685.152,-697.352,-21700,5460,-2800
-2.11089,-0.85854,-0.533682,-3.73808,-1.17863,-0.769001,-4.57053,-2.77968,1.57005,-3.66787,-4.33725,-1.44965,-1.48411,-1.39733,0.218292,-2.69364,61,-682.712,-696.376,-22540,5740,-2660
1.95015,1.96219,0.74988,0.254446,1.95607,0.293197,0.887395,-1.30252,3.05996,0.0581336,-3.28561,1.01827,-0.760059,-0.199545,3.35207,1.52316,60.024,-681.736,-701.256,-23380,5600,-2660
-2.27726,-3.49448,-1.33771,-2.61359,-0.848107,-0.586971,-0.877542,-0.307812,-0.213666,-1.87406,-3.02776,-2.777,-2.59927,-0.607974,2.99735,0.181601,57.584,-681.736,-698.816,-24080,5880,-2940
-4.68061,-5.61993,-3.34234,-5.25335,-4.60648,-2.2915,-4.22454,-3.84271,-3.36188,-3.49328,-2.66844,-5.4731,-3.59859,-3.60958,-2.43236,-3.21846,58.56,-685.64,-702.232,-24920,5880,-3500
-1.44167,-3.91014,-1.66832,-4.91106,-4.62563,-1.81162,-3.26847,-5.04774,-1.81396,-1.27408,-1.20554,-3.75049,-2.18924,-4.71218,-6.79972,-3.31715,60.024,-685.64,-704.672,-25480,5880,-3780
2.03864,0.0515423,-0.176411,-0.641897,-0.978914,-0.00115361,-0.765298,-1.915,1.90765,0.258905,-0.108226,-0.594913,-0.41437,-2.60284,-3.39437,-0.417504,61.488,-688.568,-709.064,-26460,6020,-4620
-0.438833,-1.56856,-1.68682,-2.88665,-3.11563,-1.56185,-3.1629,-4.1072,-3.57236,-2.51698,-3.47923,-2.17735,-2.11806,-3.97174,-8.12779,-3.34308,59.048,-690.52,-711.504,-27160,6440,-5460
-1.02958,-1.79528,-0.0347809,-2.36986,-2.32841,0.483083,-1.38825,-0.89546,-2.94289,-0.885991,-2.06305,-0.82744,-0.730039,-0.993197,-4.08967,-0.33803,63.928,-691.984,-711.016,-27580,6860,-6440
-3.13173,-3.5279,-0.9121,-1.42579,-3.61928,-0.486809,-0.123817,2.15578,-6.4415,-1.64081,-1.78684,-2.37818,-0.936926,1.48778,-3.40902,-0.660812,65.392,-691.984,-711.504,-28000,6300,-7700
-2.85889,-2.00659,-1.65516,-0.716573,-2.52343,-0.829164,-1.00583,0.0890722,-6.03316,-1.2104,-1.19024,-2.48332,-0.610513,0.770838,-2.29059,-3.57474,68.808,-697.352,-714.432,-27860,6160,-8400
0.870314,0.637013,1.47249,3.70737,1.95968,0.319941,1.89715,2.08646,-0.62538,3.00271,3.03415,0.640615,1.48935,2.50248,2.20016,-1.36617,68.32,-693.448,-715.408,-28280,5880,-9380
5.36732,3.53589,3.50027,5.46833,2.43275,1.23231,2.1396,2.15296,2.49745,5.96064,4.54533,3.23113,3.59691,2.46152,2.23421,-0.438646,69.784,-694.912,-713.944,-28000,5880,-10080
7.34943,5.56721,2.51816,6.18185,2.99996,-0.316514,1.05925,2.06806,3.11662,4.4721,2.14601,3.90109,2.66431,1.65135,2.0882,-0.770166,72.712,-692.472,-714.92,-27860,5600,-11340
3.5978,1.11988,-0.662442,2.54825,-0.244842,-1.54158,-1.0452,2.47098,1.8862,0.49292,-0.128358,0.949431,-0.936934,0.712546,1.27308,-1.88209,73.688,-694.424,-712.968,-28140,5460,-12180
4.71839,4.06381,0.159673,3.21039,1.32855,-0.728505,2.81172,1.03293,2.18347,1.51221,-0.350949,2.916,-0.43504,0.959851,0.383538,1.24016,76.128,-692.472,-716.872,-27860,5040,-12740
7.96566,6.05435,2.8349,6.14915,5.25388,3.20125,7.15197,5.33227,7.46635,4.2306,3.64372,5.33118,2.86518,5.44357,9.77653,6.89105,75.64,-693.936,-714.432,-28000,4760,-13580
5.16249,5.43057,0.29743,2.23907,3.32103,2.17028,4.74974,1.52099,4.27844,3.57506,1.50742,4.11307,1.70015,2.19875,6.33442,5.11644,76.616,-692.96,-717.848,-28140,4760,-14140
1.9131,3.00092,1.42229,-0.0134995,3.20978,2.51316,2.54186,3.14727,5.07268,2.64355,1.64806,3.17557,2.07388,2.01018,5.88499,4.23127,80.032,-688.568,-717.36,-28280,4900,-14840
-2.4259,0.66835,-0.657177,-0.900159,2.29311,0.758617,1.54099,1.41082,-0.69691,-0.75296,1.86652,1.08843,1.64282,1.71963,1.6886,3.18051,80.52,-689.544,-720.776,-28420,5180,-15260
-8.14847,0.778255,-3.67401,0.851463,1.94408,-1.48929,0.0301523,0.178389,-2.57664,-7.0491,-2.07883,-0.800019,-0.805161,0.662122,0.542228,1.81954,81.008,-690.52,-722.728,-28700,5180,-15680
-5.21454,1.6057,-3.85568,2.31096,1.69097,0.00811066,0.215789,1.41006,0.173059,-5.02521,-3.23898,0.849507,-1.57179,-0.154346,1.5064,3.22701,81.008,-689.544,-722.728,-28840,5040,-15820
-2.26578,-1.1383,-1.7973,-1.31497,-0.949592,0.679624,-0.341072,0.615475,1.80644,-3.4176,-3.01541,-0.986103,-1.74913,-0.630017,-0.551913,1.07186,82.96,-685.64,-721.752,-29260,5180,-16100
-2.12611,-4.7519,-1.55845,-5.59169,-3.32562,-0.122874,-3.10842,-2.58679,-0.58515,-2.26992,-2.32912,-3.94648,-2.25671,-4.02571,-3.79013,-3.52347,81.496,-681.736,-723.216,-28840,5600,-16100
-5.1725,-10.6466,-2.42868,-11.0569,-7.17908,-1.53915,-7.86596,-4.73933,-5.79237,-2.92752,-3.05277,-7.26102,-3.23125,-5.31629,-8.47707,-7.05025,83.448,-682.224,-721.752,-28280,5600,-15960
-5.69114,-8.11324,-2.69199,-9.12381,-6.83333,-1.66815,-8.46376,-6.60513,-7.9388,-3.04268,-2.34907,-6.5224,-1.83098,-7.07481,-10.026,-7.8092,83.936,-680.76,-719.8,-28700,5880,-16100
-2.66627,-5.05292,0.76588,-2.91801,-3.67942,0.62732,-4.52951,-1.7453,-0.890533,-1.02746,2.41229,-2.52654,-0.152879,-2.64712,-3.36941,-0.351704,84.912,-679.296,-720.776,-28280,5880,-15960
-2.3094,-2.82809,0.122678,-0.6232,-1.87961,0.187905,-0.896232,-1.99133,-2.73306,-0.523151,1.427,-1.01696,0.775617,-1.83527,-3.37725,-0.245219,87.84,-680.272,-721.752,-28280,6020,-15540
-3.77403,-3.71986,0.286086,-1.26345,-1.7016,-1.37481,-2.57129,-4.15361,-3.48744,-1.0137,0.912838,-1.73747,0.564611,-0.313849,-1.89001,-1.03746,88.816,-682.224,-720.776,-28560,6440,-15400
1.05003,1.47345,3.28035,2.22011,0.383246,-0.643895,-0.44365,-3.80399,1.88447,2.36006,2.09568,1.25137,0.675233,1.80913,-0.321976,0.0984336,85.888,-682.224,-724.68,-28420,6860,-15120
4.11087,4.1627,4.31378,4.02469,2.04229,0.500095,2.07643,-4.00741,4.25977,5.22297,3.46814,4.13947,1.46241,3.36418,2.12912,1.48158,89.304,-682.712,-722.728,-28420,7000,-14980
7.41242,6.32671,5.93732,5.94369,4.32156,0.705245,5.46935,0.536619,8.20517,7.00756,4.36217,6.03955,2.26185,6.28023,7.94332,3.84465,87.84,-681.248,-722.728,-28140,7000,-14140
3.30861,2.64672,1.60234,2.19849,1.60311,-0.943226,3.47309,1.57241,1.668,2.7997,0.0347017,1.63207,-0.387236,2.64133,1.83002,0.35193,86.864,-671.488,-712.968,-28280,6720,-13860
-3.42111,-4.99207,-2.39936,-4.30101,-3.531,-1.79069,-0.736762,1.97682,-4.46871,-1.26889,-2.5827,-4.76954,-2.78273,-1.48687,-3.01947,-2.18186,85.888,-670.024,-714.92,-29400,6160,-13720
-1.62678,-1.9414,-0.492107,1.18279,1.32715,-0.774552,2.63548,2.22254,-3.64585,-0.600929,-1.49165,-1.45729,-1.59805,0.199061,0.463501,0.901798,86.864,-673.928,-714.432,-30660,6860,-13440
3.0978,5.53928,1.81014,7.97743,6.46116,2.33882,6.53762,3.496,0.935041,0.774138,0.56188,3.38179,2.51047,1.63382,5.39906,3.55269,87.352,-675.88,-716.384,-31780,7000,-13440
8.33102,10.1365,3.43055,10.7485,8.75496,4.0508,8.53938,5.54571,4.06326,3.10909,2.03737,6.85109,3.70845,3.36971,7.38443,6.83876,84.424,-674.904,-720.776,-32760,7420,-13020
2.8155,4.02842,-0.133567,2.82167,3.90163,1.47225,3.8857,3.91238,-1.60924,0.599862,0.127966,2.07098,2.27611,0.336825,1.12679,4.34317,86.376,-674.904,-723.704,-33180,7000,-12740
-1.6582,-2.15924,-3.72177,-4.61458,-3.13466,-1.47334,-3.27565,2.12901,-5.001,-1.91354,-2.48422,-2.43799,0.471094,-3.10997,-6.63842,-1.7454,88.328,-672.952,-729.56,-33180,6440,-12180
-1.97399,-6.60474,-3.30758,-9.53054,-6.74341,-2.2479,-9.18337,1.76437,-3.08621,-3.03871,-2.81619,-4.4227,-1.40776,-4.80999,-9.55808,-7.16691,86.864,-666.608,-734.44,-32900,5880,-11340
0.26092,-2.2922,-3.66036,-6.04491,-4.99227,-3.20419,-5.95746,-1.00628,-2.95112,-1.25477,-2.73591,-3.2915,-2.56219,-5.24963,-7.44856,-6.76492,88.816,-660.752,-737.368,-32200,5600,-10640
1.7097,0.107423,-1.62885,1.58474,1.09712,0.42971,2.11383,1.4706,0.449923,-0.343215,-2.418,-0.856239,-2.06022,1.12155,7.07459,2.0908,88.816,-658.312,-740.296,-30520,5040,-9660
1.59079,3.5408,-0.608587,5.0895,4.42431,1.69076,6.24236,1.35196,-0.611425,0.514132,-0.885324,1.37886,-0.213737,2.3471,6.92138,2.98783,84.912,-656.848,-743.224,-29120,4340,-8680
3.61523,7.70748,3.04226,5.00293,4.42843,2.86538,2.00454,3.08471,8.5399,3.10506,2.41549,5.47836,1.95445,4.11414,6.74265,1.45436,81.984,-656.848,-747.128,-27300,3500,-7840
-0.360212,3.003,0.984662,-1.54802,-2.56746,1.1868,-7.35517,1.17109,5.21237,1.12003,1.67906,2.01504,0.784682,-0.201008,-2.34671,-2.41756,79.056,-655.872,-738.344,-26600,2520,-6720
-3.18797,-1.46055,0.518544,-3.75182,-3.59905,0.608492,-3.36737,-1.67669,2.31954,-1.55892,1.01155,-1.87689,-1.0762,-0.759443,-0.201667,-4.81756,74.176,-658.312,-735.904,-26180,1540,-6300
-3.75883,-5.30878,-0.711121,-7.19794,-5.16425,-3.4459,-2.71396,-9.17451,0.549588,-3.12858,-0.635382,-4.70409,-2.70124,-3.08062,-0.0206792,-8.16609,69.296,-659.288,-731.512,-26740,560,-5880
-4.50525,-5.18198,-1.01805,-3.96174,-3.18202,-5.24632,1.30363,-8.82527,-2.55806,-4.45873,-1.62214,-2.97489,-2.44251,-0.668619,3.01368,-1.2145,67.344,-666.608,-724.68,-27860,140,-6020
-2.44107,-1.1529,0.506345,1.31921,1.80071,-1.23889,3.43009,-1.98935,-0.737098,-1.48134,-1.80595,1.31943,-0.178176,1.5475,5.89592,5.70438,64.416,-666.608,-725.168,-28980,-280,-6020
-2.03653,0.76397,1.44073,2.27452,1.41927,2.67161,-3.47985,4.04922,4.32544,-0.966412,2.63652,2.85134,0.950571,1.87655,0.335446,5.01717,64.416,-673.44,-726.144,-29960,-560,-6300
-4.71734,3.1306,1.03294,3.10907,2.64475,3.30551,0.466775,2.29469,0.783707,-2.17098,2.235,1.92357,1.74199,0.653603,-1.69188,1.05819,64.904,-678.32,-728.584,-30940,-560,-6440
-7.38392,-3.32752,-0.612548,1.52174,1.16079,1.30592,0.857294,-1.03396,-5.55695,-3.28742,-1.51705,-2.2161,0.226567,1.03731,-0.633061,0.389065,65.88,-680.76,-732.488,-30800,-840,-6440
-1.31932,-2.04767,0.769189,0.825447,0.732697,-0.11207,0.774702,-5.07204,-3.64167,1.58198,-0.0844817,-0.898592,1.03744,-1.40905,-4.26641,-0.122823,65.392,-681.736,-737.856,-30100,-1120,-6020
5.98986,0.345585,3.80482,0.490121,0.0649071,1.35955,-1.58624,-1.7705,4.25343,7.60758,4.092,2.49357,4.18572,1.49356,-4.01919,-0.249275,67.344,-684.176,-746.64,-28840,-1260,-5880
2.64606,-4.64002,-0.558188,-3.6582,-2.27439,0.740879,-1.15062,2.9107,-0.679016,3.80009,1.63726,-1.73113,1.43898,1.00974,-5.09275,0.776443,66.856,-682.224,-744.2,-27580,-1260,-5740
0.890343,-1.69121,-3.18298,-0.151585,0.725262,1.00732,3.3499,5.62676,-0.832436,0.0169474,-1.82076,-1.56004,-1.49265,0.823427,-0.359356,3.37983,62.464,-683.2,-747.128,-25340,-1540,-5320
7.17235,7.03611,0.675974,7.80765,5.06255,2.6343,6.86026,7.0033,8.30165,2.32788,-0.206632,4.29896,0.292408,4.02299,8.00809,6.63693,60.024,-678.808,-748.104,-23800,-1540,-5180
7.42925,5.47603,0.826733,3.87981,1.66224,-0.682801,2.25269,0.217922,2.55538,2.30146,1.30159,3.18135,0.620187,-0.0758747,0.091795,1.20496,60.024,-679.296,-741.76,-22400,-2380,-4760
4.21558,-1.53306,-1.3779,-4.07638,-4.00246,-3.28192,-3.82052,-1.08285,-0.18759,0.068408,0.511377,-1.12864,-0.632577,-4.0748,-6.68384,-5.43505,57.096,-681.248,-739.808,-20860,-2660,-5180
4.71234,-0.679953,-2.3276,-2.75547,-3.11879,-3.448,-3.21327,-2.44544,2.46347,0.307654,0.2686,-1.3225,-1.69677,-3.99939,-4.22065,-4.48157,55.144,-680.76,-737.368,-21280,-1820,-5740
1.3404,-1.07734,-2.23623,-2.12306,-2.73978,-1.42285,-2.14824,-3.17714,-0.772164,-1.90271,0.324999,-1.51632,-2.76927,-2.97278,-2.04612,-2.84159,57.096,-681.248,-732,-21840,-1820,-6020
-3.97385,-5.77048,-4.83322,-6.92281,-6.19136,-2.22578,-6.12402,-2.99822,-7.27125,-4.7117,-1.06899,-4.74733,-3.76016,-4.78398,-6.94208,-4.43106,56.608,-678.808,-732.488,-22120,-1260,-6720
2.76947,1.48204,0.461935,-1.10058,-1.0657,-1.36091,-2.63177,0.289211,-0.380199,0.592326,0.616747,1.44992,0.375839,-0.807211,-2.00728,-2.09966,56.608,-687.104,-731.024,-22400,-980,-7140
2.82467,3.94436,1.97323,4.09318,3.23698,0.301752,1.17231,1.69656,-0.338163,3.26236,0.206926,3.18452,0.754488,1.8208,1.4189,-0.822138,60.512,-685.64,-732,-22960,-420,-7980
-4.08754,-0.498908,-0.276735,2.47729,2.67225,0.862751,1.00458,0.561578,-6.60588,0.377082,-0.336512,-0.993427,0.148861,1.05493,3.40259,0.0613962,61.976,-689.056,-732,-22960,140,-8540
-1.16163,4.93779,2.60864,5.019,4.7545,0.408538,5.62935,-0.616758,-4.32346,1.02518,-0.42291,1.96441,1.54569,0.815801,6.01392,1.31638,61.976,-689.056,-731.512,-23100,980,-8820
-5.35708,1.908,2.03957,5.16779,4.44895,2.48485,5.60461,1.49414,-6.06203,-3.64268,-3.0886,0.984894,-0.322093,3.75306,9.55596,4.88349,63.928,-688.08,-734.928,-22680,1400,-9380
-15.557,-6.58698,-2.59646,-1.80657,-0.904399,0.898637,2.23677,-0.0496881,-19.1007,-9.78228,-7.02229,-5.35159,-2.30485,0.514136,-0.781106,3.14572,64.416,-685.64,-733.464,-21840,1960,-9660
-17.5816,-13.6889,-3.74525,-8.46791,-4.81025,-0.188051,-1.08435,3.43403,-16.456,-9.30932,-4.96428,-10.3143,-1.56821,1.01761,0.192611,0.754502,62.464,-688.08,-731.024,-21560,2240,-9800
-0.830129,-3.34084,1.47396,-2.8913,-0.17539,0.101391,3.33591,3.7917,4.29456,1.16765,1.05199,-2.52053,2.04767,2.53535,3.79787,2.36029,65.392,-686.128,-729.072,-20860,2240,-9660
12.1035,10.8342,7.35175,4.97605,4.76053,1.89391,4.0649,2.29558,24.5009,8.40529,6.58644,8.33335,4.87628,4.19549,6.48425,3.14229,69.296,-684.664,-732.488,-20300,2100,-9940
7.21874,9.00512,5.26866,3.27043,2.57376,0.600025,-0.940484,-1.19693,16.9709,4.49567,5.41068,7.30447,4.07451,1.21687,0.711779,-0.191732,71.248,-683.2,-729.072,-20440,2800,-10640
0.504744,1.03576,1.70061,-1.6931,-1.43469,-0.811283,-4.47356,-2.79093,2.79829,0.807844,0.528881,1.22654,0.559589,-0.312914,-4.33299,-1.53633,73.2,-683.2,-728.584,-20860,3500,-10920
0.800485,1.74524,1.16367,-0.0516975,0.145548,1.58716,-1.53222,-0.842226,0.0335061,1.67111,-2.24688,2.17004,-0.903361,0.406259,-2.36914,1.675,76.128,-684.664,-728.584,-21560,4340,-11340
-0.220011,0.758069,-0.230343,5.03077,3.20964,1.66336,2.88098,0.809882,-0.942657,1.28142,-1.85129,1.31275,-1.28132,1.25657,2.41403,5.11559,81.496,-679.784,-730.048,-22120,4900,-11760
1.83615,-0.981395,-1.46134,0.793661,0.0398366,-1.94104,-0.691271,-3.92314,0.814137,2.35331,-0.659479,-0.733057,-2.05828,-3.14184,-2.18088,-1.61818,82.472,-681.248,-730.048,-23100,5600,-11900
3.09626,-6.36498,-3.43477,-8.42811,-8.21302,-3.03459,-11.1614,-6.22885,4.17066,1.06565,0.637655,-3.93855,-1.94362,-5.33803,-10.9672,-6.70716,87.352,-680.76,-730.536,-23240,5040,-11480
-0.191382,-7.04756,-7.41098,-11.026,-10.8664,-4.00055,-12.4112,-7.71009,0.435053,-1.52397,-1.70861,-5.21606,-1.95077,-7.21465,-13.3336,-8.34527,91.744,-677.832,-733.952,-23800,5740,-11620
1.61178,-3.16091,-3.72367,-5.60465,-3.98247,-1.02613,-6.34576,-3.6313,3.17479,0.915106,0.775917,-0.822738,-0.270449,-2.59094,-4.81288,-4.9485,91.256,-678.808,-732.976,-24360,6860,-11900
-2.09711,-2.04685,-1.11019,-0.71356,1.22114,1.53182,0.835468,1.00567,-3.86567,-1.56201,0.679905,-0.765923,0.211246,-0.00513591,1.42864,-0.336,94.672,-680.272,-735.904,-24220,7280,-11620
0.290577,5.68286,2.98955,7.16047,6.35976,2.02069,7.92936,3.27451,-0.875658,-0.124223,1.29637,4.12085,1.61813,1.11815,10.121,3.28433,95.648,-676.368,-736.88,-24640,7980,-11480
-1.29054,3.31915,1.60291,5.3786,4.05952,0.977817,4.58475,4.10764,0.049012,-0.885786,0.844436,1.63993,0.82681,1.1994,9.22032,2.53113,97.112,-678.32,-735.416,-24640,8260,-10920
-1.04486,1.69631,0.538851,3.20121,3.55011,0.244402,6.28277,4.52057,-0.22986,-0.344192,0.0512272,0.420685,-0.248179,2.20698,5.0306,3.14015,100.528,-678.808,-738.344,-24640,8820,-10640
9.74986,8.73428,5.73061,9.511,7.44162,3.43741,11.3014,8.51897,13.2055,6.61906,3.3635,6.1834,3.39974,7.13141,11.795,8.03849,99.064,-679.296,-734.44,-24500,8960,-10220
12.2524,10.793,5.53641,12.7114,9.28945,4.2585,12.4783,7.22723,12.2291,7.19895,2.85879,8.03831,3.62312,7.48273,11.8907,8.73818,99.552,-676.856,-736.88,-24780,9240,-9800
4.33817,1.99031,1.12208,1.72937,1.98445,2.877,4.82592,3.3461,1.71661,1.31299,1.40422,0.773504,0.113364,2.38614,2.26851,1.23881,101.016,-678.32,-737.856,-24780,9240,-8960
0.124675,-5.33848,-2.3213,-11.724,-10.4922,-1.56943,-13.4678,-4.76316,-2.17026,-1.99809,1.72004,-5.37192,-2.03051,-5.8992,-17.6415,-11.3299,100.04,-677.344,-733.464,-24920,9520,-8400
-8.2134,-9.70363,-6.83558,-13.1257,-11.4288,-2.91486,-13.8567,-5.96374,-10.7575,-6.82521,-2.03991,-9.06393,-3.26647,-7.8447,-15.8908,-9.60288,99.552,-674.904,-734.928,-24920,9240,-7840
-14.1373,-8.54294,-7.40929,-4.5083,-4.98939,-1.5154,-4.802,-2.32635,-19.2029,-10.6876,-5.56784,-8.31674,-4.05785,-5.35809,-6.39381,-2.70846,98.088,-676.856,-735.904,-25200,9380,-6860
-8.11107,-4.68021,-2.35212,1.03925,-0.584472,-1.32947,-1.79406,-0.665363,-11.679,-7.02201,-1.96686,-2.95441,-2.45298,-2.40564,-1.7448,-0.885519,100.528,-673.928,-737.856,-25340,9380,-6300
3.08085,4.58734,2.30931,3.23423,0.731027,-2.70117,-0.711164,-3.8852,0.52242,1.34123,1.53509,3.5359,-0.0642519,-1.84434,-3.23072,-0.128543,96.624,-670.512,-738.344,-25620,9800,-5600
3.28385,3.01317,3.08856,2.99969,3.0488,-0.291179,2.52096,-0.88762,3.72643,3.777,2.72382,3.13611,0.558634,3.35553,5.44912,3.46396,98.088,-674.904,-739.808,-25900,9940,-4900
1.33525,-0.558056,-0.439914,0.203945,0.891096,-1.48481,3.32191,-2.80425,-1.01248,2.39415,0.852773,-0.439282,-0.939654,1.95523,3.11557,1.05078,95.648,-667.584,-740.784,-25900,10220,-4480
7.10126,1.55706,2.86557,-0.101602,-0.104844,-1.14087,1.50164,-2.25585,7.79401,6.20971,4.01069,1.08399,1.9244,1.9495,1.93843,-0.865873,92.232,-669.048,-737.856,-26040,10220,-3780
1.30278,0.807102,0.446832,-0.589271,0.168213,-1.74006,2.93808,-0.816734,0.289538,0.859837,-0.634379,-0.245634,0.646322,1.54715,0.62435,-0.783381,91.256,-664.656,-735.904,-26180,9940,-3220
1.05423,5.5518,3.68625,7.14756,6.07347,0.936298,7.00934,3.3459,0.721008,0.0246676,-2.49861,5.23661,1.77094,5.39073,7.78297,3.85926,87.84,-663.192,-738.832,-26320,8960,-2380
-0.742612,4.93197,5.46586,8.00996,8.66683,2.04415,5.95433,7.48558,-1.47682,0.536189,-2.25631,6.46267,3.4716,6.18026,9.196,6.55769,86.376,-663.192,-734.928,-26600,7560,-1540
-4.07379,4.51659,3.61943,3.84767,5.58929,2.43286,-2.47556,8.35527,-5.51363,-1.91319,-3.54187,4.88391,2.57975,5.59826,0.590105,3.80161,88.328,-662.704,-734.44,-27160,6580,-980
-19.7813,-12.2119,-6.62438,-6.95948,-2.98336,-0.0686368,-4.31282,3.83171,-22.0093,-13.1373,-8.70501,-8.96382,-2.4509,-2.25219,-4.94267,-4.5934,87.84,-664.168,-739.32,-27440,6580,-700
-12.5328,-13.463,-6.87975,-9.57789,-7.7028,-2.55026,-6.02336,-4.64391,-10.6212,-9.75533,-6.92663,-9.21986,-4.36859,-6.2692,-6.90872,-8.46531,85.4,-665.144,-740.784,-27160,7420,-560
0.856692,-6.90447,-3.77488,-11.6511,-10.5144,-4.36018,-10.3818,-8.83641,3.08265,0.397365,-1.66498,-5.43265,-2.29073,-9.48523,-12.6345,-8.43603,88.328,-665.632,-745.176,-26320,7700,-560
4.75153,-5.07558,-2.58858,-10.9357,-9.35693,-2.52901,-9.07077,-4.19096,10.0053,3.11596,1.45437,-3.46829,-1.11227,-6.38278,-7.89641,-3.61765,83.936,-666.12,-746.152,-26460,8680,-700
9.48377,4.69396,2.47303,1.08416,2.60001,2.93789,2.61502,-1.05384,12.8212,8.9611,4.14039,5.33859,3.83177,1.73148,3.40877,3.78605,82.96,-662.704,-748.104,-26320,8960,-560
-0.304655,-2.83102,-1.92123,-1.09931,0.23071,3.27281,1.74816,1.24896,1.43392,1.93543,2.55418,-1.01088,0.787476,2.11919,4.5756,4.81503,84.424,-662.704,-749.568,-25900,8820,-280
3.3401,-3.87518,-3.50512,-5.72744,-6.40848,0.951269,-3.75813,-0.677218,4.04776,2.55428,3.10985,-3.64032,-0.858306,-1.60054,-4.07611,0.897973,82.472,-663.68,-749.568,-25340,8960,0
14.99,8.96772,3.96239,5.36603,1.45542,1.29859,3.34365,-0.965163,17.5989,9.79078,6.68763,5.70563,2.62453,0.815602,1.1585,4.32584,77.104,-661.728,-744.2,-24780,8820,0
13.4383,13.4923,8.1879,14.1512,8.69278,3.7476,9.54965,1.9884,17.5483,8.98363,6.02413,9.83951,2.29434,5.24222,12.6454,6.76235,79.056,-659.776,-746.152,-24360,8820,140
5.18409,10.1199,2.3677,12.5264,7.59278,2.13105,10.0011,1.32286,5.50057,3.85925,1.83795,5.24113,-0.493127,3.0061,10.3396,4.27135,74.664,-658.312,-747.616,-23940,8680,0
0.942363,6.3037,0.659864,6.22209,4.57163,1.4839,6.84751,2.82094,3.74248,-1.56018,1.73245,2.51248,-0.142737,2.71498,9.29068,3.66457,74.664,-659.288,-747.616,-23100,8400,280
-8.92983,6.58934,1.41923,9.45944,8.93768,1.2872,10.2219,3.91119,-6.80146,-6.74118,0.567438,3.73647,0.741524,5.937,11.2865,6.84494,79.544,-653.432,-745.176,-22820,8260,0
-11.0561,2.66873,-0.346025,5.04678,5.30753,0.290565,3.77347,2.99532,-10.8008,-7.78762,-3.83708,0.144317,-0.740025,3.31441,5.62276,3.2786,72.224,-654.896,-740.784,-22680,8820,-560
-8.3012,-9.26019,-3.77478,-9.34769,-6.81542,-3.40531,-9.14595,-3.13428,-11.45,-6.41175,-4.11897,-6.76796,-2.08451,-5.11507,-9.143,-6.37962,72.712,-652.456,-745.664,-22400,8400,-420
5.98845,-0.523927,3.10521,-3.55037,-2.72143,-1.13185,-4.7376,-2.51615,3.77132,5.10975,2.22483,1.26609,1.6214,-2.83098,-4.44815,-3.99803,75.152,-652.456,-748.104,-22120,8540,-840
2.49919,-3.9877,0.641334,-5.17845,-3.16494,-0.924011,-4.44317,-2.02702,-2.59369,2.05319,0.406786,-1.48991,1.03881,-3.63459,-8.17333,-4.46442,73.2,-651.968,-749.08,-21980,9240,-1400
-3.43183,-5.09323,-3.1686,-4.88249,-3.90394,-0.973687,-7.69999,-3.15026,-6.54197,-2.11802,-0.894328,-3.42855,-0.290373,-4.53551,-13.3824,-4.75656,74.176,-652.456,-749.568,-21700,9380,-1680
-3.63519,-4.61429,-3.13471,-6.12437,-5.83397,-2.19166,-9.38945,-5.17542,-8.04434,-1.94388,-2.78744,-4.75855,-1.57958,-6.27584,-17.0536,-8.46856,75.64,-653.432,-748.104,-21140,9660,-2100
-7.3206,-6.92489,-2.25646,-3.67001,-1.69154,-0.0714236,-1.26714,1.31558,-7.84951,-4.60238,-2.6158,-5.03219,-2.0709,-0.446933,-4.04359,-2.25056,75.64,-649.528,-746.64,-20860,9800,-2520
-1.02049,2.51952,0.747418,5.19389,6.69379,0.376692,6.86124,2.38303,-1.78555,0.351958,-1.4581,2.4531,-0.351159,2.40543,2.45483,1.85866,73.688,-651.968,-752.008,-20580,10080,-2940
3.60359,1.96099,1.43025,1.65681,3.01938,-1.12625,-0.387269,-0.430558,6.44718,3.51583,3.2288,2.56203,0.753107,1.25724,0.157751,-1.29854,76.128,-649.528,-747.616,-20160,10500,-3500
2.42223,3.58045,2.34533,5.63222,3.88526,-0.531354,2.07411,-0.019331,2.91048,3.29466,2.09765,3.16274,1.09553,2.27418,1.94157,2.03354,76.616,-649.04,-748.592,-20300,10780,-4060
3.65351,1.48497,2.11016,3.46609,1.75884,-0.935603,0.755821,-0.425737,2.99406,2.67057,0.506381,1.81066,0.546028,1.95195,2.91199,1.83665,81.496,-648.552,-747.128,-20300,11200,-4900
7.03978,-0.372704,2.45171,-2.54572,-3.01821,-1.24256,-3.2437,-1.13064,7.67378,4.14965,2.27127,0.711317,-0.258136,0.540893,0.520942,-1.50579,78.08,-645.624,-746.152,-20160,11480,-5320
7.0202,2.11271,1.73823,-1.83727,-3.97585,-0.479132,-0.918811,2.50212,7.8666,3.05611,-0.581747,0.609541,-0.852182,0.352409,3.01879,-1.34345,80.032,-648.064,-749.568,-20020,11480,-5460
4.1235,2.6507,-1.30198,-2.29299,-3.62642,1.34552,0.700324,5.5323,5.23278,0.0939778,-2.13685,-0.393911,-0.392568,0.509095,5.7296,-0.177289,80.52,-646.6,-746.152,-19740,11340,-5740
-3.23497,-5.83336,-3.17949,-6.0327,-5.7093,-0.036871,-0.556949,4.82123,-3.50169,-4.97333,-3.69321,-4.53125,-1.45101,0.0209876,3.87322,-0.881822,84.424,-644.648,-749.568,-19320,11060,-5740
-6.23512,-3.33962,-2.80231,1.8515,1.15911,0.125486,7.7646,3.082,-8.35459,-6.74962,-7.4195,-2.89689,-1.78895,1.36956,11.4664,3.87308,84.912,-643.672,-752.496,-19180,11060,-5740
-10.1148,-10.1159,-4.7775,-5.90752,-4.18386,-0.816397,0.654176,0.131688,-10.4902,-9.05089,-5.21301,-8.02712,-2.84494,-0.0151583,2.08971,2.95771,89.792,-643.184,-748.592,-19180,11200,-5600
-3.8245,-7.5336,-3.26909,-14.123,-9.88715,-2.5767,-9.22649,-5.28808,-4.25721,-3.71923,0.534474,-7.01061,-0.779114,-4.94812,-14.6619,-3.80497,93.696,-641.232,-748.592,-19320,11060,-5460
0.450399,6.65475,4.45194,7.77554,6.54241,4.78687,6.24561,2.6326,3.25153,-0.340781,2.063,5.67629,1.64455,4.46719,5.29478,7.4985,93.208,-639.768,-753.472,-19460,11340,-5460
-2.21749,1.9965,1.9872,7.65678,7.35847,6.56564,8.43492,5.0754,-2.62438,-1.11757,0.582405,3.25512,0.965435,4.61954,6.91357,8.36653,97.112,-643.184,-751.032,-19320,11620,-5180
-2.52831,-2.81477,-3.49045,-3.29751,-1.33481,2.14867,-3.29002,-1.56647,-4.20533,0.623319,3.34477,-1.67313,-0.14075,-2.33272,-5.67413,-1.53006,96.624,-639.768,-753.472,-19180,11900,-4900
2.83988,0.973917,-0.739809,-2.03932,-1.72964,-0.437176,-6.12505,-5.55568,3.49232,4.36788,7.14435,1.54382,2.05396,-3.02715,-4.94594,-4.09544,96.136,-640.256,-751.52,-18620,11900,-4620
2.39888,6.24932,-0.768869,6.3158,3.36247,-3.06052,-0.988284,-8.42422,0.628307,2.99369,3.36961,3.93913,1.06821,-2.49359,0.328365,-3.41298,96.624,-640.256,-752.984,-17780,11900,-4200
4.44458,17.554,6.57248,17.0553,13.438,-0.0764974,6.08225,-3.49153,10.4594,5.00744,4.55994,13.5936,2.81295,4.99424,11.3947,0.775333,85.4,-638.792,-748.104,-16800,11900,-2940
-7.1852,-0.346578,0.124547,-0.89155,0.231868,-2.70017,-4.44335,-4.14722,-6.57756,-1.62465,-0.0417862,1.41332,0.671566,-1.71312,-4.99443,-6.66499,93.208,-658.312,-735.904,-12320,10360,1400
1.41055,-8.19558,-4.27772,-15.6918,-13.1309,-6.21957,-16.2203,-6.8414,3.75625,0.350573,-1.80578,-6.68257,-1.48594,-8.61387,-16.7058,-13.0148,164.456,-654.408,-770.552,-2800,5880,5320
8.06781,-1.87292,0.112808,-7.22838,-4.66919,-3.45367,-5.78488,-1.69772,10.0106,4.85177,-1.10432,-2.12082,0.210888,-3.97296,-5.27779,-5.79193,76.128,-614.88,-752.008,-9940,20720,-5180
-7.28524,-13.5406,-6.81808,-11.8423,-8.04677,-1.92601,-4.5301,0.819319,-12.4696,-2.94789,-3.02857,-11.3701,-2.66861,-5.21481,-6.18732,-3.42543,99.552,-631.96,-755.424,-17080,13720,-2240
-7.84132,-2.18265,-2.32713,6.08121,4.94466,3.08815,6.62417,4.71274,-12.5143,-3.76225,-3.40714,-0.82879,-1.25615,2.86324,5.9987,5.75002,100.04,-638.304,-749.568,-20720,13720,-1260
-3.07397,-0.821832,-0.427142,8.05345,6.13775,4.65368,11.3032,7.71009,-4.38136,-2.34378,-2.9274,0.725549,-1.14154,6.04017,10.2155,9.87733,101.016,-639.28,-749.568,-18760,14280,140
0.213376,8.54812,4.28177,12.96,9.83191,4.90652,13.2994,8.35336,-0.78302,0.33703,-2.44526,5.84072,1.45876,7.53051,9.10963,10.1832,105.896,-638.792,-758.84,-16800,14280,140
-4.10486,1.04768,4.16396,5.52269,4.8358,2.70705,3.94021,6.9797,-3.20657,-2.34285,-2.8105,1.48713,0.951643,3.95586,3.73092,7.16641,102.968,-635.376,-757.376,-19180,15400,-1400
10.0368,-2.68947,0.189979,-13.8107,-11.0415,-4.52101,-13.8968,-4.4522,11.6942,4.83376,2.29404,-1.99235,-0.573097,-6.76892,-21.9617,-6.74641,102.48,-635.376,-755.912,-21280,14140,-840
11.6241,2.49116,3.19306,-5.04697,-5.13862,-1.18493,-7.22333,-3.48445,15.6403,7.88488,7.71329,2.22718,1.6236,-2.30997,-9.23931,-6.09715,102.48,-636.84,-756.4,-21280,13160,280
3.6042,1.36425,2.94815,2.64743,1.63953,1.0942,4.8212,-0.87717,3.40546,3.7318,4.25969,0.518089,1.35887,1.15684,3.06732,0.644276,101.504,-639.28,-755.424,-21000,13300,980
6.16004,9.1267,5.84175,13.7864,10.1648,4.38123,13.4486,3.60815,6.97083,3.41197,2.80422,7.17713,3.23651,7.20812,15.5861,7.50157,101.016,-634.888,-751.032,-19880,12880,1960
9.9197,21.3389,11.2396,24.0527,17.8092,4.92991,18.1436,4.47965,12.5023,4.46782,4.05927,16.4394,4.88548,11.4106,23.534,10.7324,100.04,-636.352,-752.984,-19600,12460,2800
-7.58586,6.32339,3.37772,13.3977,10.6567,2.12554,13.8448,4.8761,-9.94183,-5.45176,-1.48397,5.06855,1.08526,7.28324,16.4972,9.76576,101.016,-639.28,-752.496,-19600,12320,3220
-5.0574,-4.72102,-0.604215,-0.385353,0.947252,0.0398527,4.6543,2.83909,-7.49494,-3.6476,-1.96914,-3.13479,-0.0204165,1.08727,6.43774,4.53821,99.064,-639.768,-751.52,-19740,12040,3920
15.4494,6.26781,5.47259,-1.00525,0.341767,-1.15043,-2.7951,0.0143292,17.5661,9.15935,5.36629,6.00722,3.29765,1.37906,-2.25111,0.301545,98.088,-637.816,-754.936,-19600,11620,4340
17.4191,-0.637604,0.352138,-13.4294,-9.51475,-2.46129,-9.71858,-3.28993,18.4912,10.574,6.11597,-1.96692,1.91086,-5.89394,-13.8077,-5.38805,98.576,-641.232,-755.424,-19040,11620,4620
11.2776,8.92653,2.06087,5.42712,3.3856,1.28385,3.26399,3.3326,14.0883,4.84547,0.614355,5.19554,0.412755,1.46678,5.09287,5.37501,95.16,-639.28,-752.008,-18760,11060,4900
7.35285,3.30583,-1.49871,-2.64712,-2.52348,-0.0115965,-5.06624,-0.958019,7.41824,3.36441,-0.14617,2.27582,0.271367,-2.08657,-3.98762,-0.238993,93.208,-641.232,-756.888,-18900,10920,5180
-2.29854,-9.4131,-4.62894,-11.1694,-7.83333,-2.6646,-10.6196,-5.56845,-2.97976,-0.476935,-0.183572,-5.96452,-1.64826,-5.00362,-5.4284,-5.42915,95.16,-639.28,-755.424,-19040,11060,5320
-17.9808,-16.8365,-9.53629,-12.8582,-8.63701,-5.00049,-10.947,-5.76428,-22.5379,-9.6431,-6.18133,-12.5456,-5.12829,-7.75466,-7.07626,-8.14095,93.696,-638.792,-759.328,-18760,11200,5460
-20.8011,-11.6669,-8.87213,-4.69038,-4.12914,-2.83102,-1.54697,-1.89187,-25.1137,-13.8546,-10.738,-10.9373,-5.99106,-5.34547,0.733884,-5.27611,94.184,-641.72,-760.792,-18760,11480,5180
-17.1756,-9.02335,-6.85718,-2.23501,-1.72927,-0.625988,1.81274,0.860013,-16.6816,-13.6606,-10.4868,-7.61291,-5.81303,-1.246,5.38604,-1.60292,96.136,-640.256,-763.72,-18620,11620,5180
-6.92727,-13.7642,-9.78612,-25.6884,-18.4038,-4.81266,-19.8279,-8.74973,-6.03,-7.20354,-7.16023,-11.065,-5.46626,-9.94661,-28.3322,-13.482,93.696,-639.28,-760.792,-18340,11900,5180
-23.0262,-27.6878,-18.0972,-36.027,-29.7763,-6.18578,-29.8827,-9.07611,-24.0942,-17.2461,-10.4584,-23.9883,-8.7687,-15.7645,-37.3546,-18.7239,97.112,-638.304,-761.768,-18060,12040,5180
-29.1077,-24.4889,-15.5285,-20.4975,-20.1752,-4.24696,-22.5008,-5.40132,-33.4102,-19.459,-11.5067,-21.7968,-8.80751,-12.1264,-25.5373,-14.3552,96.624,-636.352,-765.184,-17640,12460,5180
-11.5124,-2.5939,-1.31968,6.88572,2.80706,1.79632,0.994486,0.549255,-10.6063,-5.60876,-3.90363,-1.13764,-1.87242,1.01405,3.07282,-2.61829,98.576,-638.304,-762.744,-16380,12460,5180
-12.2788,2.50735,1.43822,14.5138,9.97086,2.27368,8.66579,-0.603995,-14.7754,-4.64727,-1.02661,3.78388,0.295514,6.33942,9.12539,1.33741,100.04,-636.84,-765.184,-15400,12460,5320
-2.49336,12.8819,6.29442,20.2351,14.3277,2.21441,13.2863,-0.607124,-2.93342,0.22881,1.9232,11.3259,3.1327,9.00128,17.1709,7.73369,101.016,-631.472,-763.232,-14280,12460,5320
4.0223,-0.0168507,1.06434,5.98046,4.64438,-1.03045,8.24829,0.955981,4.05969,3.74436,3.17034,1.54286,0.906038,3.35421,11.637,4.1986,100.528,-634.888,-764.208,-13720,11900,5320
28.929,14.5545,8.55543,4.33179,1.22062,-2.8652,-2.59474,-1.52972,37.5768,19.311,13.7156,9.52681,4.29978,1.03631,-0.861766,-5.10152,95.648,-631.472,-765.184,-13160,11760,5740
19.9949,16.5847,7.75672,11.0578,8.13247,-1.02329,6.20264,-0.270845,26.3411,14.35,12.2811,9.72767,5.41186,2.31723,5.18061,-0.7586,101.016,-632.936,-767.136,-12460,11200,6160
0.00291346,9.15969,5.77894,21.7511,18.5685,5.61985,21.086,8.54268,1.97873,1.45391,5.60188,6.31601,4.71702,10.0967,24.5792,13.3113,98.088,-630.496,-763.232,-12880,11200,6300
11.9372,16.1305,9.95004,17.777,17.3508,5.03502,16.661,4.27748,10.4508,8.60241,7.58113,12.4413,7.70361,7.6229,12.8324,10.1236,98.088,-634.888,-762.256,-13720,10920,6440
10.3052,9.42387,9.13236,8.4224,11.7717,6.73928,15.939,9.81856,7.94413,9.21252,8.37692,9.1804,7.60105,9.02601,13.628,14.8018,99.552,-634.4,-763.72,-14280,10360,6720
24.1288,11.0785,11.1931,0.389743,5.11396,4.6738,7.65068,7.35195,21.8701,16.9746,10.1412,12.0986,8.05252,5.25352,-0.22372,10.4633,99.064,-635.376,-765.184,-14840,10220,6720
20.7997,1.14947,5.17715,-12.4823,-6.25931,0.604495,-6.87176,1.49826,21.0405,13.833,7.40227,4.14601,3.70426,-2.51289,-15.5459,-2.07689,96.136,-630.496,-762.744,-15680,9940,6860
23.3125,15.4386,9.14028,3.81947,2.63631,2.22461,-1.00727,1.0281,27.7198,14.6739,7.14107,13.1279,3.92505,2.19192,-2.98275,1.54229,97.112,-635.864,-762.256,-15960,9240,7700
8.71252,7.948,6.56034,5.39851,3.70707,2.25505,3.04321,2.53811,6.7246,6.21469,2.49449,8.58746,1.43256,3.89876,5.16065,6.48824,93.696,-636.352,-764.208,-15820,9100,7700
5.16146,6.94947,5.62236,3.98133,2.26364,3.57403,6.44667,5.00493,5.82373,3.22114,0.172816,7.05222,0.570875,2.10514,9.25904,6.991,98.088,-639.768,-764.208,-16100,9380,7840
7.90198,11.8839,5.53116,11.4181,8.02139,3.48739,8.71638,4.1584,11.9032,3.20845,-0.67949,11.0279,-1.04675,3.62063,12.0773,7.29728,91.744,-641.72,-763.232,-16240,9100,8260
-2.25964,0.696678,-1.20799,0.182438,-1.29446,0.288046,-4.36237,-1.5791,-3.27183,-2.77346,-2.64518,1.00466,-2.83874,-1.614,-2.68528,-2.03103,90.28,-647.088,-765.184,-16380,8820,8260
-17.9046,-16.3964,-8.00533,-9.30005,-7.37994,-1.49502,-9.99974,-3.05215,-21.7762,-13.7082,-8.06436,-13.1347,-4.88164,-3.45888,-6.69472,-4.93102,89.792,-648.064,-764.696,-16380,8820,8120
-30.5099,-23.5073,-13.8943,-7.00586,-6.92609,-2.43264,-1.76272,-0.322414,-36.9148,-22.0741,-14.1631,-20.8915,-7.1066,-4.52627,2.66185,-1.54993,91.744,-650.504,-766.648,-16520,8820,7980
-20.6534,-11.3578,-9.19325,0.147473,-2.00624,-2.14849,-1.43,0.0253552,-21.4913,-15.0857,-9.02517,-10.9312,-3.32196,-1.28784,4.80075,-1.38426,88.328,-651.48,-765.672,-17080,8960,7700
-10.8746,-6.36745,-6.44891,-5.41791,-4.85499,-3.16082,-3.42135,-3.11437,-7.87904,-9.09155,-6.65354,-6.74767,-2.68327,-3.09851,-0.856511,-3.14854,85.4,-652.456,-771.04,-17500,8540,7420
-16.0015,-14.076,-9.1622,-13.7404,-10.6958,-5.4026,-9.2009,-6.92297,-17.7408,-11.5345,-8.33347,-13.028,-4.79025,-7.6752,-9.98033,-8.05836,86.864,-650.016,-772.016,-18060,8820,7140
-6.60136,-16.2669,-8.18629,-20.1294,-14.6382,-6.04281,-17.434,-8.53238,-6.10778,-5.11854,-3.14943,-13.5633,-5.20766,-9.31478,-15.291,-12.7215,86.376,-650.992,-769.088,-18620,9100,7140
-0.299661,0.0122737,-2.3875,-3.63616,-5.05137,-2.66083,-6.27571,-5.05899,-0.9134,-0.422509,-2.52577,-1.59444,-2.86315,-4.49586,-7.88096,-6.30402,88.328,-649.04,-773.48,-18900,9380,6720
-7.75409,-3.39544,-4.31367,-0.329064,-3.49803,-0.618374,-1.23792,-0.175301,-9.29833,-3.63364,-2.80957,-3.35805,-1.89122,-1.32771,-1.31633,-2.1145,87.352,-650.504,-773.48,-18620,9660,6580
-2.77848,-8.67231,-6.36552,-8.96663,-9.27564,-3.06318,-8.64054,-3.24836,-6.90406,-0.874482,-1.36048,-6.00198,-1.4527,-4.69535,-13.7578,-7.28738,87.352,-647.576,-770.552,-18900,10080,6300
-2.96627,-7.3515,-3.26502,-7.99105,-5.66379,-0.796419,-7.20544,-1.81589,-4.96295,0.205679,1.22546,-4.38218,0.376223,-1.81781,-10.8807,-3.57237,90.768,-647.088,-771.528,-18900,10220,6160
-0.517682,6.62431,3.39469,11.1184,10.3295,2.62975,12.2816,3.47012,2.25824,0.720175,0.136916,5.30967,2.48114,6.81,13.1517,7.65764,87.352,-645.624,-774.944,-19320,10220,6020
-9.5045,-3.8737,-2.10754,3.77255,4.7343,0.390455,10.7741,5.27336,-9.69569,-5.67433,-4.18139,-3.48252,0.105674,3.93777,9.98992,4.42432,90.28,-642.696,-770.064,-19600,9940,6160
12.491,-0.62192,0.149888,-12.8851,-8.62778,-4.63938,-11.9628,-2.72142,15.4398,8.31961,4.74075,0.145818,1.43711,-4.30127,-16.1134,-11.1771,89.792,-641.232,-769.088,-20020,9520,6020
18.7635,12.4169,5.16295,-1.12403,-0.911664,-2.19281,-13.2293,-6.93066,22.7081,11.9639,5.46871,10.8664,2.81743,-0.926484,-16.1751,-9.29596,91.744,-639.28,-772.504,-20720,9380,5880
17.6839,15.947,5.31948,5.04212,4.03704,-1.43893,-4.21401,-7.86243,18.6312,10.2548,4.60714,10.585,1.78205,-0.674958,-7.69252,-5.36186,90.768,-639.768,-770.064,-21420,9660,5880
7.51213,15.3708,7.73971,21.4082,15.8133,3.06531,15.1586,2.2105,8.27123,3.87883,2.61958,10.1957,1.67675,6.81604,22.9229,8.91111,94.184,-638.304,-772.016,-21700,9800,5600
11.2673,15.2376,8.09469,18.2311,12.5401,5.67569,16.6852,4.35741,10.4398,7.3011,5.04021,10.2263,3.44162,6.8968,20.753,10.7897,85.888,-635.376,-748.592,-22400,9800,5040
12.2061,14.3213,10.1044,16.3246,13.4093,7.87597,16.8575,7.86152,15.5574,8.6392,7.88459,11.67,5.94326,9.54573,23.0117,12.2815,89.304,-630.008,-750.544,-24500,8540,4200
-8.87051,-7.35437,0.832257,-3.77977,-1.30657,2.04332,1.14287,2.55952,-11.3498,-2.50243,3.26548,-5.50384,2.42171,-0.816344,-0.00156591,1.59371,93.696,-631.472,-764.696,-26740,8820,3360
-28.0342,-16.1382,-5.55136,-3.85573,-1.39666,1.37952,4.40475,6.60216,-34.2677,-14.421,-3.94559,-13.245,-1.87924,-1.44958,1.5752,4.73261,94.672,-635.376,-772.992,-28840,9380,2800
-19.1818,-11.3167,-7.04405,-5.36073,-3.79772,0.129617,1.50454,4.18629,-20.7892,-11.1742,-4.58285,-11.0451,-3.87129,-4.86011,-4.62759,3.21109,92.72,-635.376,-776.408,-29260,9520,2240
11.6016,-0.223418,-1.88022,-21.68,-16.1439,-4.22876,-20.1117,-6.19009,19.1333,5.53693,3.97264,-1.14562,-1.67462,-10.2483,-31.7799,-12.2447,91.256,-634.4,-776.408,-29400,9100,1820
-0.768555,-4.34545,-2.61166,-10.4588,-8.60254,-3.05961,-7.66983,-1.53975,5.84813,-1.23909,-0.330597,-2.94634,-2.10146,-4.2749,-10.9965,-3.8345,90.28,-631.96,-774.944,-29960,9380,1120
5.97929,-1.74194,0.917318,-5.60064,-6.84474,-2.50781,-7.0507,-0.893706,9.63394,3.62154,2.03492,0.251707,1.08679,-1.21337,-7.66527,-2.84003,88.816,-630.984,-777.872,-30940,9520,700
5.54998,2.76978,4.66002,1.16118,1.60299,2.05723,0.0777259,1.09845,8.5236,2.93094,0.490375,5.85177,2.41014,4.66051,-1.13735,3.05542,89.304,-629.52,-780.312,-31920,9940,-280
0.188937,7.31841,7.73252,15.344,13.0493,4.7055,9.44706,3.51211,1.47109,0.506984,-0.5963,10.4092,1.75711,11.9587,14.2144,10.0537,86.864,-629.52,-781.288,-32340,9940,-1120
-6.70386,-6.35666,-0.0949753,4.61372,5.82164,3.19189,9.38346,4.08721,-11.4314,-4.16221,-1.27599,-1.54424,0.191978,5.75718,15.215,6.9085,88.816,-629.032,-777.872,-32620,10780,-1960
7.42575,-4.97802,-1.77122,-1.92159,0.205081,0.0464741,5.7333,2.97579,7.05029,3.35409,4.77353,-1.84375,0.375979,-0.379052,15.0572,2.89669,88.328,-626.104,-778.36,-32900,10360,-2660
23.9623,10.781,4.82928,-3.29699,-0.874777,-1.63818,-7.99333,-3.27277,25.2869,12.7523,5.50188,10.8818,3.00218,-1.50583,-7.13878,-4.83581,88.328,-621.712,-779.824,-33040,10360,-3080
2.96916,8.0469,1.71707,11.3712,8.92691,-0.187421,0.337797,0.127209,-2.40057,-0.334963,-4.66817,7.22994,-1.07666,2.4427,1.40446,0.971915,88.328,-620.736,-778.848,-33880,10080,-3500
-3.88478,7.85159,-0.361947,20.1957,14.0996,-1.01405,13.0778,4.40497,-8.00373,-5.07177,-6.39236,4.33612,-3.32093,4.23185,25.1885,7.61271,89.304,-621.712,-774.456,-34440,9940,-3920
3.90201,10.5914,-1.02485,17.7434,9.35812,-3.26754,12.4611,-1.77724,1.92812,0.992056,-2.50598,3.94362,-3.15985,1.02112,20.1393,5.01832,94.184,-616.344,-771.04,-35000,9380,-4200
3.70195,14.536,0.978516,19.9429,8.78994,-1.33998,12.5254,0.371892,5.92599,2.57347,0.037724,5.17479,-1.19415,2.53635,21.8157,5.16765,90.768,-618.296,-771.04,-35280,8680,-4620
1.00776,-8.28639,-3.86335,-12.6418,-9.64442,-2.90988,-0.406022,-3.05647,0.0137954,1.69928,0.646196,-7.83762,-1.40097,-6.83201,-3.74966,-4.04236,94.672,-612.928,-772.504,-35560,8120,-4900
-7.64836,-13.077,-2.51864,-18.0612,-12.2076,1.47866,-12.8137,-5.15237,-14.5141,-2.17369,0.0208402,-8.62302,0.940451,-6.48761,-23.5608,-9.22405,91.256,-614.392,-768.6,-35280,6860,-5040
-20.6687,-17.6673,-5.25765,-15.531,-9.98267,1.57621,-16.0852,-6.23743,-31.6713,-10.2376,-5.54016,-11.6413,-0.105563,-4.99455,-28.5555,-10.3835,94.672,-617.32,-777.384,-34160,5460,-4760
-5.47568,-12.5599,-1.50559,-15.3307,-7.85891,0.418933,-13.5457,-5.16625,-7.4319,-1.03766,-0.21226,-6.19669,0.944816,-3.2416,-21.0752,-9.02005,94.184,-610,-772.016,-33880,4200,-4900
-8.00208,-21.2749,-8.26142,-38.3767,-25.6119,-4.4695,-26.2661,-8.252,-0.771858,-4.99038,0.0147833,-16.4465,-3.30776,-12.7976,-34.8832,-17.802,99.064,-609.024,-774.456,-34020,1680,-4900
-9.72808,-4.03629,-6.20264,-10.3031,-7.18679,-0.813327,-5.48429,-0.0872659,-4.1188,-7.77737,-4.37383,-6.25389,-3.74148,-2.48979,-8.25225,-1.983,98.576,-604.144,-772.992,-33740,560,-4900
-19.3896,-4.79419,-6.39595,6.58886,1.88146,0.718473,3.52839,2.58222,-27.3707,-11.3304,-7.79697,-6.64418,-2.20216,2.10273,1.06948,3.92836,100.528,-598.288,-772.016,-33600,-280,-4760
-12.8678,-18.0178,-8.73482,-13.4429,-12.2352,-2.0841,-5.28018,-1.05896,-18.6747,-5.48247,-1.38902,-16.059,-2.4214,-4.07104,-5.8982,-2.4562,101.504,-595.848,-772.016,-32480,-1260,-4480
17.0249,18.0697,7.36161,11.9829,6.90899,4.78887,8.89544,5.26345,20.2459,11.9855,3.43038,10.203,4.65472,4.35035,7.48132,6.81795,106.872,-593.408,-771.528,-30800,-2380,-3920
6.28054,0.0692141,2.33141,1.13797,-0.157421,4.84008,0.936166,7.95129,9.56162,5.43094,4.56207,-0.454311,3.39141,1.931,1.58032,2.57312,103.944,-589.016,-769.576,-29540,-3640,-3220
12.7103,12.0213,3.64975,4.15171,-0.319868,0.620479,-4.1179,-0.183718,17.8485,6.9116,6.96092,7.58114,3.54946,-0.58691,-5.56497,-5.10196,107.36,-589.992,-771.528,-29540,-3780,-3220
13.5018,21.2801,10.8162,22.7267,16.0453,3.03536,12.4997,1.9313,19.8871,5.51487,4.40575,17.6769,4.61087,8.80014,15.4308,7.40678,105.408,-583.648,-768.112,-30240,-4340,-2800
13.1527,20.4845,13.0777,32.5322,26.2498,6.51831,27.4932,6.86274,17.1723,4.73581,1.71106,18.6864,4.497,15.7445,35.6259,18.1495,105.408,-583.16,-768.6,-29260,-5740,-1820
14.4499,15.4547,8.09208,25.8651,19.9224,4.55123,24.9253,6.78135,19.7923,5.74726,1.49735,13.4874,2.71195,11.0413,31.6601,16.2143,105.408,-585.6,-775.432,-28140,-7140,-980
-5.81866,-0.51256,0.254169,10.778,9.5527,2.37172,17.6029,8.69585,-5.05993,-4.76836,-3.39511,0.135487,-1.40313,5.37731,21.1985,13.0069,104.92,-585.6,-779.336,-27720,-8680,-280
-12.8345,-2.68336,-0.8476,4.52586,5.19151,-0.0750369,3.90871,6.63661,-15.5397,-10.0712,-7.70327,-0.234399,-2.77483,3.19422,3.93547,5.26804,104.432,-584.624,-779.336,-28000,-9380,280
7.23923,-3.98445,-0.453757,-20.6435,-13.9834,-5.23734,-25.5104,-6.82273,7.08852,2.37941,0.965425,-1.61042,-1.30437,-8.63994,-29.6158,-15.292,105.896,-584.136,-778.848,-26180,-11620,840
-6.892,-5.7247,-6.25037,-14.4623,-15.6364,-5.46842,-24.3285,-9.24184,-7.87886,-7.56983,-1.25563,-8.13839,-4.67738,-10.8359,-23.5899,-16.5241,102.968,-582.184,-781.288,-23660,-13160,1260
-5.3038,13.1855,-0.149068,20.2066,12.2362,2.19942,9.1552,1.07577,-3.88373,-5.69922,-3.49151,7.36456,-0.511344,3.72202,15.0235,6.14483,100.04,-580.72,-788.12,-19740,-16380,2520
-3.46095,-19.5368,-5.4633,-27.0437,-18.3892,-4.0223,-21.6288,-7.34606,-0.169162,1.63304,2.22245,-10.552,-2.22609,-9.06515,-26.8091,-10.5185,106.872,-578.768,-790.56,-18340,-18060,3500
5.20881,-22.0045,-6.26252,-40.0809,-28.7304,-10.6212,-33.0495,-14.0082,9.57849,8.39054,6.63036,-12.423,-2.65231,-16.8831,-39.6556,-20.813,103.944,-578.28,-791.048,-17220,-18760,3500
5.78317,3.51652,5.47653,9.46609,10.5101,-3.11891,10.9933,-3.80783,5.3458,9.77321,2.51013,10.0373,2.25825,2.97766,16.3043,1.40193,111.752,-580.232,-792.512,-14420,-21280,3780
-11.7124,-5.87745,-1.86164,14.6617,13.2414,-1.6217,25.036,2.2721,-14.4731,-2.09814,-5.51468,1.81847,-2.7627,5.18273,34.8244,10.6674,110.776,-573.888,-792.512,-15680,-20300,2800
12.3214,-9.41155,-6.93551,-27.9062,-20.2206,-12.5024,-12.0663,-12.7644,15.2672,8.55413,1.7434,-7.56175,-4.55081,-14.7473,-14.6108,-14.9898,107.36,-571.448,-792.512,-16940,-19460,1540
0.768436,-22.3231,-8.02937,-35.9062,-21.778,-9.55686,-11.4985,-7.76341,-2.27661,0.296768,1.87239,-17.894,-3.12267,-10.1354,-12.4167,-11.8679,111.752,-570.472,-790.072,-17360,-19740,700
3.04139,24.4943,9.37375,28.148,26.9973,5.82242,32.1933,11.0018,-2.87615,1.6536,0.372682,13.3444,5.866,16.3448,36.8063,18.303,102.48,-569.496,-787.632,-16380,-20580,700
1.74528,25.4963,12.0908,25.3348,25.2716,8.19316,22.6315,11.0906,-3.39941,2.80987,7.1321,14.4835,8.95131,15.7748,24.7936,14.9293,108.824,-568.032,-789.096,-15680,-21840,840
4.06843,18.7206,7.58294,13.5202,10.7728,5.08357,4.56716,5.27417,0.453029,3.49754,10.0603,7.99713,5.93641,7.39659,7.56125,5.07004,101.504,-566.568,-784.216,-16100,-21980,700
-9.51947,-1.35086,-2.52544,-2.6033,-3.4107,1.32599,-10.4035,0.505199,-17.1126,-4.70098,3.37208,-6.72509,0.126863,-1.33157,-8.04137,-3.72168,102.968,-568.032,-783.24,-15400,-24080,980
-5.82052,-2.07866,-2.58795,-6.62482,-6.33505,-0.488059,-11.1947,-1.20931,-10.3138,-4.07664,-3.37753,-5.58936,-2.78715,-3.12283,-13.3228,-4.58171,98.576,-568.52,-775.432,-13580,-26320,1540
-1.15255,-5.36745,-2.54092,-13.1471,-11.5575,-0.163914,-15.3292,2.1869,-2.88342,-2.14046,-2.6616,-6.21136,-1.48549,-4.15534,-21.8643,-2.71193,100.528,-563.152,-782.752,-11900,-28140,2380
-10.3725,-9.20105,-7.96599,-20.2123,-18.6356,-0.866782,-23.7882,4.88317,-11.6035,-6.92713,-1.67147,-13.2851,-1.36228,-6.8659,-36.6765,-5.74745,99.552,-562.664,-780.312,-11480,-29260,2520
-2.96572,9.3635,0.0134335,15.5241,5.78394,3.84814,1.25965,6.72467,1.56843,-1.01477,-0.701247,4.27756,0.60429,4.73919,0.0746005,1.84481,96.624,-563.64,-783.24,-11620,-30240,2100
-3.97252,3.83712,-4.50406,17.09,7.17379,2.28487,10.8962,-3.81576,-1.36705,-4.27152,-9.31822,3.78089,-4.91844,-0.161145,12.8115,-1.3916,95.16,-562.664,-782.752,-11620,-32060,2800
3.63416,8.14538,0.264877,24.7769,13.7747,7.54995,21.7683,1.34566,13.139,-1.27692,-10.3328,9.67646,-4.4886,6.19095,30.0175,10.5374,92.232,-558.76,-782.752,-10780,-34300,2940
5.18444,8.49706,4.23866,22.622,15.9557,11.9051,25.4577,10.0225,13.5236,1.69325,-6.16669,9.32339,0.854237,9.64467,26.2373,18.9484,98.576,-566.08,-783.728,-9940,-37380,4200
7.67714,6.38951,4.69505,6.57319,0.321739,8.33975,-0.407283,4.10817,15.3371,6.10454,3.51679,3.9859,6.13119,2.8192,-4.547,2.31522,103.944,-577.304,-788.12,-10920,-38640,4060
-0.248221,-18.2891,-3.4695,-19.1361,-23.4843,0.591278,-24.0303,-7.90267,-0.223715,3.26273,8.74177,-13.1558,5.13863,-9.61711,-31.7005,-14.6274,100.528,-579.744,-790.072,-12880,-37940,2800
3.97979,-11.2997,-0.087247,-15.4651,-23.3539,-4.24995,-24.9253,-13.8607,5.47397,5.23163,8.6911,-8.0565,5.0635,-12.4403,-30.5438,-18.1648,100.528,-587.064,-794.464,-17080,-36120,1820
-11.7826,-26.1456,-2.37796,-4.21546,-2.64054,-1.33953,1.18494,-6.9374,-18.0248,-10.3713,-7.70268,-7.21134,-2.94356,-2.52258,1.71586,-1.2299,100.528,-589.992,-787.144,-19600,-35420,1260
-19.7246,-29.5512,-9.8273,1.35182,5.40093,-2.33415,6.95861,-0.6388,-31.413,-22.257,-21.228,-8.33716,-13.8238,-2.43272,7.02422,7.38269,97.112,-589.992,-784.216,-22960,-35140,840
-1.02877,-9.75325,-1.84107,5.47218,8.26343,2.6594,1.21169,5.70099,-8.72809,-9.568,-9.51622,2.70982,-3.95361,0.387985,-2.01053,5.64236,97.6,-587.064,-779.824,-25480,-35560,140
-2.52643,-20.9607,-1.10849,-21.9576,-7.3168,4.49909,-12.4489,4.78245,-2.47531,-7.81953,-0.629472,-6.95702,2.33119,-0.640145,-21.7592,-2.58439,102.48,-586.088,-778.36,-27440,-36120,-140
0.341523,-8.23328,-0.859064,-27.2397,-14.0713,-0.538362,-21.2715,-5.08675,5.86289,-3.82539,5.24729,-8.43816,4.72375,-4.89011,-28.1744,-11.1501,91.256,-582.184,-772.992,-30100,-36820,-420
9.69019,13.0055,5.4719,4.72791,8.31605,-3.67914,6.3259,-4.25849,14.5323,1.17608,5.51757,6.68954,2.8519,4.82748,13.7419,-0.292894,98.576,-592.432,-767.136,-29540,-40600,1120
2.756,9.15041,1.9018,12.9421,13.581,-10.2477,18.3074,-3.34523,-1.21438,3.77704,3.34631,7.13248,-1.09574,3.13477,29.5884,5.49403,101.504,-598.776,-767.624,-24640,-45780,3080
-8.40316,-10.5288,-11.5885,-15.7017,-8.74203,-13.5356,-1.62041,-2.67697,-15.8124,0.717923,-3.62187,-11.3795,-7.63652,-8.99722,0.689845,-3.82505,107.36,-599.264,-761.768,-24080,-49700,4200
14.8226,16.1787,3.39272,1.79484,1.06674,-3.93273,1.31613,4.87757,16.3505,15.3021,10.5755,6.88207,4.14189,1.14427,9.20962,0.118882,113.704,-606.584,-768.112,-23520,-51100,5180
28.2082,43.7458,22.0401,33.4907,29.0086,8.11593,29.4529,12.5909,29.7572,26.1895,16.6014,30.7165,15.4134,20.1,40.4071,17.8913,111.752,-603.168,-771.528,-25620,-53620,5180
8.46487,15.0713,14.9093,12.3944,17.787,4.61055,23.4741,7.22307,7.7908,17.2079,15.1436,12.9414,12.5399,14.6283,32.157,14.5683,124.928,-614.392,-784.704,-28280,-55440,4900
27.6446,31.284,14.248,15.4379,15.2768,-13.6617,15.4244,-4.26521,31.3697,23.97,10.1959,23.967,-0.421971,2.4015,18.3249,5.09449,121.024,-614.88,-784.704,-34020,-52780,2660
23.6648,39.3792,-0.598696,28.0222,20.1401,-16.6469,26.1614,8.88968,36.8888,3.58961,-26.1669,25.0633,-29.1936,-0.967895,26.218,15.9081,122,-617.808,-787.632,-38640,-51660,1400
4.5372,14.9476,-14.6619,-1.57874,-9.48294,-5.19871,-5.78176,7.39961,22.1982,-11.2296,-18.9418,-0.803359,-23.1089,-10.4619,-10.6039,-0.547588,121.024,-618.784,-780.8,-39200,-49840,560
-5.89301,11.4606,-4.63555,-2.46214,-14.955,10.4096,-20.4301,-1.46275,10.1569,-3.75661,12.8632,-7.50387,6.35334,-4.6527,-18.2464,-14.7908,122,-622.688,-780.8,-36120,-49980,1260
-35.6745,-11.619,-3.7228,-1.79181,-5.95505,17.2509,-4.17829,-2.03204,-35.8124,-15.4734,8.98075,-18.1345,13.301,5.17985,-0.258981,-7.97195,124.44,-622.2,-777.384,-33880,-50120,1820
-37.6767,-37.2604,-0.780542,-26.769,-13.8295,11.5461,-15.3493,-13.125,-51.9119,-10.6095,11.9429,-23.2524,13.3355,1.82917,-20.69,-13.4729,125.416,-622.2,-782.264,-32620,-50680,2240
-16.8027,-31.359,3.02381,-37.3426,-20.8281,4.87073,-31.4885,-19.3771,-30.9537,2.25665,11.8208,-15.7087,10.919,-5.72772,-45.5343,-21.5273,123.464,-617.808,-773.48,-36260,-48580,1540
-6.39691,-12.6145,2.32869,-12.5468,-7.4979,0.262804,-14.0395,-5.95888,-11.5188,0.44221,-0.617677,-4.9593,-0.350702,-1.01253,-16.3309,-7.01711,126.392,-617.32,-765.672,-36540,-49840,2800
-20.3109,-18.3889,-10.8129,-13.1718,-10.3929,-4.25393,-1.93969,0.771262,-27.2303,-12.2523,-11.3809,-15.6733,-9.20359,-5.14372,-6.23987,-0.0749358,123.952,-612.928,-759.816,-35280,-49700,3220
-8.36089,-20.4403,-8.41797,-30.1069,-25.2256,-6.1502,-22.7729,-6.07187,-11.918,-4.06201,1.95674,-20.2137,-0.693778,-12.4178,-30.0478,-14.8878,128.344,-616.344,-766.648,-37660,-48860,3920
-12.0178,-28.9695,-9.27757,-31.6437,-27.113,-6.5738,-30.9271,-18.433,-26.7874,-6.21971,0.253539,-24.4135,2.87335,-16.0232,-35.2347,-24.7195,127.368,-615.368,-760.304,-42700,-47880,4480
-24.4405,-28.443,-14.5168,-19.8733,-15.256,-6.71972,-9.13037,-3.51544,-36.5014,-23.2659,-25.0247,-22.6571,-8.88868,-8.2321,-11.7174,-5.06796,122.976,-619.272,-762.256,-43960,-48020,4620
12.86,11.683,8.78693,22.7209,20.311,-1.93744,20.8677,9.97713,9.21731,2.71911,-6.57499,14.3814,0.919584,11.965,20.6543,19.2302,122.488,-617.808,-767.136,-46620,-46340,4900
37.3217,41.116,20.1809,46.7797,36.3092,-0.59078,29.7512,10.1133,40.4403,22.1656,5.88251,37.6289,6.16327,17.6501,32.3275,22.9185,121.512,-618.784,-772.504,-51520,-45500,5740
34.1423,38.2675,7.09794,44.5298,28.8888,-2.38836,30.9704,14.3993,44.4624,14.0453,-1.92497,30.3461,-3.98643,8.68044,41.6871,23.9341,122.488,-621.712,-783.728,-54600,-44100,5460
21.6251,19.0324,-4.29197,20.8557,7.76476,-6.62218,13.6586,7.27417,29.0073,8.10624,2.42225,11.7844,-5.29354,-2.84194,17.19,12.3115,121.024,-619.76,-786.656,-59360,-40740,5040
8.38204,7.84999,-6.35607,7.14996,-0.281633,-6.02439,-6.75116,6.15361,13.5002,3.07343,1.95142,2.49203,-4.97255,-6.56473,-13.8647,5.12232,120.048,-618.784,-796.904,-62860,-36960,4340
4.02344,-2.68009,-11.6297,-1.9135,-4.69,1.98255,-17.3771,6.75034,12.6024,-5.83582,-19.8638,-0.910834,-15.6337,-5.62584,-17.7462,-2.56217,123.464,-610.976,-796.904,-65240,-34860,4480
12.2281,9.76478,-2.44656,15.9837,13.2373,11.1495,15.6393,13.0778,18.841,-1.74733,-28.0847,12.9597,-13.9944,7.96098,18.4937,10.656,121.024,-616.344,-795.44,-64960,-34020,4760
-2.94075,12.6325,-2.02728,26.3384,22.629,20.5023,33.1368,16.0842,4.8402,-14.4707,-28.9911,11.568,-8.73538,16.3186,38.9153,22.3858,122.488,-619.76,-809.104,-64260,-33880,5040
-23.6902,-5.7137,-9.85739,-1.26952,-2.61399,14.2427,0.327601,-6.99798,-12.0312,-24.1199,-9.97066,-10.3139,3.19818,-1.39281,3.92829,-0.263972,114.192,-619.76,-813.008,-66360,-32620,5040
-26.478,-21.9498,-0.440817,-11.4036,-6.5803,11.5422,-3.22584,-15.1932,-27.4816,-11.4183,21.0284,-16.0434,21.615,-1.93181,3.29001,-4.97406,113.704,-630.496,-819.84,-66500,-32340,6720
-12.6265,-34.4271,14.5697,-27.1304,-10.9373,15.9763,-14.2602,-7.36361,-28.4228,9.6809,37.4396,-13.3592,33.3682,6.3333,-15.1398,-7.99349,102.968,-620.248,-823.256,-66780,-30800,7560
4.91785,-23.7517,23.745,-25.7538,-9.69891,12.6323,-19.7638,-0.311864,-18.0608,25.707,44.5514,-3.57746,34.3875,6.9591,-29.7246,-9.64462,99.552,-619.272,-826.672,-67060,-28000,9380
-5.61563,-16.0475,11.6749,-14.9128,-7.31552,8.78409,-15.9355,11.7505,-16.9846,7.6166,24.4169,-4.2634,12.836,4.06224,-18.9037,-4.30928,92.232,-620.248,-824.232,-67900,-26320,10360
-31.2509,-25.6822,-11.8543,-13.9362,-13.2511,-5.14847,-14.2054,-1.10999,-40.7497,-17.7813,2.86692,-20.3917,-7.10104,-10.4541,-10.3161,-10.7811,85.4,-622.2,-823.744,-70560,-23660,10500
-20.2332,-2.2434,-16.8652,-1.23891,-15.2117,-30.02,-21.033,-26.4346,-18.9744,-15.1242,-0.34286,-11.6389,-14.6124,-26.9231,-4.58936,-29.505,81.984,-619.272,-815.936,-74900,-20020,10780
37.8815,42.2413,0.104125,28.476,11.2002,-36.8066,9.00072,-23.472,50.4674,16.5129,0.424535,24.2451,-18.2335,-17.9744,21.1339,-13.2623,91.256,-617.32,-814.96,-76300,-18340,10500
67.4066,53.7177,17.1207,40.5909,33.7438,-12.4183,47.6063,11.5188,74.693,38.4332,2.43885,41.8728,-10.9912,7.13508,50.8124,22.5506,78.568,-612.928,-816.912,-80640,-14000,7140
62.3987,50.9203,23.7573,33.699,29.0248,7.04287,40.2636,28.9445,70.3469,39.4911,18.9739,39.278,7.96811,16.6112,34.6547,28.502,27.816,-607.072,-798.856,-85540,-11480,5040
16.7939,7.4745,3.22858,-2.97938,1.49986,6.04393,9.68054,19.7758,23.4336,7.48215,9.92953,0.450361,4.12969,5.40311,-3.65476,12.2811,70.272,-629.52,-809.104,-85120,-13440,8260
-14.1103,-29.0776,-14.4602,-49.3552,-34.7383,-0.311299,-47.5333,-5.60401,-11.9776,-13.7535,-6.8653,-27.4749,-4.0141,-13.5587,-69.7818,-25.7515,59.048,-624.64,-806.664,-88620,-3360,4200
-16.9924,-26.0941,-9.87261,-36.4697,-25.24,2.65575,-36.6231,-8.19863,-12.6635,-15.323,-17.1265,-20.3059,-5.74454,-4.13772,-40.1857,-21.8893,51.728,-610.976,-811.056,-90720,2940,1540
-25.4479,-12.423,-5.09138,-7.06749,-4.24816,4.54905,-1.93624,-5.23229,-24.8665,-18.3318,-17.8512,-12.151,-2.02275,5.66078,3.74327,-7.15086,48.8,-603.656,-808.128,-95760,7840,-1400
-17.9407,-8.91335,2.80538,3.95939,5.83888,7.03323,14.6426,-3.70426,-16.7747,-7.87914,-5.48939,-3.92415,5.38579,14.6117,21.1609,3.47092,45.872,-597.312,-803.736,-99260,10500,-3080
-15.911,-11.2329,3.65801,0.55423,5.04245,-0.748493,18.2892,-0.556646,-18.9396,-2.65421,-10.1302,-2.7571,-2.38877,11.3309,14.016,9.46664,42.944,-594.872,-796.416,-102900,12460,-4620
-10.4178,4.80612,1.32996,5.26424,4.64925,-11.8124,7.18226,-3.23719,-8.73502,-3.97974,-21.5814,3.68752,-13.5289,3.52255,2.69973,4.97285,47.336,-597.8,-798.368,-105420,14000,-5740
-13.858,8.62714,-7.87427,8.27116,5.02029,-13.3162,5.07246,-2.17014,-8.84272,-16.938,-34.9942,1.27723,-22.1535,-0.302752,5.87037,6.07462,55.144,-596.336,-793,-107660,15120,-6020
-28.6548,-0.019801,-15.8467,1.42342,-2.58904,-10.101,0.801654,0.232814,-23.0502,-28.6158,-35.3633,-9.62008,-20.3209,-3.60818,4.37581,2.64426,58.072,-604.144,-792.512,-109200,17360,-7000
-35.0984,-11.5274,-14.2435,-5.10857,-5.49319,-5.61021,1.23465,1.08859,-32.0581,-24.2642,-21.3979,-16.0495,-9.91898,-1.36393,4.12992,3.90216,56.608,-609.512,-794.952,-111440,18620,-7980
-25.0564,-15.4045,-6.63915,-11.4995,-6.44914,-3.51516,-1.00855,-5.77609,-28.8351,-10.2625,-4.67918,-12.1324,3.25196,-2.51676,-4.02743,0.165879,61.976,-618.784,-801.784,-114100,17780,-7420
0.723449,-3.83383,3.19383,-14.9994,-9.80323,-7.33317,-14.2166,-12.5924,-2.16311,10.5539,13.8666,0.106085,11.973,-7.99531,-24.2229,-10.4432,63.44,-622.688,-805.688,-115640,17640,-6860
25.6325,19.622,16.5706,11.4994,8.52391,-12.3364,3.29027,-7.29721,23.5564,29.8251,28.9866,20.7957,15.4026,0.48923,-2.65293,2.39643,61,-629.52,-812.52,-116760,16800,-6020
37.2352,30.5091,20.0589,24.4933,19.0024,-5.62435,15.0837,-1.14177,31.812,35.3558,29.8411,29.6197,14.9339,3.76622,13.4577,6.91118,65.88,-640.744,-821.792,-117040,16800,-6020
16.4651,8.83598,4.18298,0.658592,-7.59167,-0.0270831,-25.1322,-15.1661,12.159,18.0214,21.4964,7.91688,8.41634,-11.2721,-24.0079,-21.1723,64.416,-647.576,-825.696,-115080,16380,-4340
-20.4011,-16.4841,-14.3781,-10.7166,-17.033,8.40975,-25.1517,-7.66645,-25.1482,-15.0388,-3.02124,-16.4899,-3.09321,-12.4062,-21.79,-15.829,64.904,-648.064,-828.624,-115080,16380,-4340
-12.0812,-26.0479,-12.2693,-20.2998,-14.8899,16.4727,-17.9504,7.88362,-17.4123,-11.6596,-9.01925,-17.4001,-6.56546,-3.87349,-21.971,-1.43706,59.048,-644.16,-831.064,-112560,15120,-3220
12.2659,-11.9327,-1.33805,-6.13185,-2.03472,18.8016,-0.162026,14.1407,11.391,2.95926,0.41014,-2.27331,0.0783773,3.68875,-0.474173,7.94096,60.512,-638.304,-833.016,-110600,13300,-1680
3.49197,-0.238714,-0.791214,14.3004,12.3207,15.7623,20.1293,12.0177,0.745511,-4.739,5.22172,2.88847,3.80688,3.95449,23.8403,12.3949,58.56,-630.984,-823.256,-108920,12180,0
-2.42717,3.89571,2.89613,19.8891,12.5048,13.6642,18.4463,5.54439,-4.06144,-4.27017,10.9262,2.3243,7.49759,5.40434,33.4722,13.0877,60.512,-632.448,-817.888,-105840,12040,1820
11.3345,6.31028,4.7465,8.49767,2.61058,8.68616,0.988774,-3.06817,6.89379,4.23659,15.1263,2.13537,7.69949,-0.126689,12.1024,0.464543,55.632,-630.008,-811.056,-105000,12320,2940
3.95062,-7.83653,-0.592204,-15.6215,-12.9381,2.44656,-20.4681,-8.82807,1.98719,0.59582,10.8734,-8.56078,3.82944,-8.19646,-12.707,-13.7429,50.752,-621.224,-814.96,-104860,14420,4340
-2.24426,-10.2351,-4.17763,-16.6793,-8.73099,6.57069,-9.4203,3.37541,-1.05808,-5.84602,0.722901,-9.76275,-0.20235,-3.10593,-9.76423,-0.394794,48.312,-622.688,-808.128,-105560,16240,6020
18.3405,11.3028,7.38003,12.1455,13.666,13.5575,14.1068,16.3608,20.2551,9.20915,2.4182,11.9311,2.84332,13.0733,15.5697,15.888,47.824,-624.152,-809.592,-107520,17360,7140
11.4698,6.79981,2.49479,10.5121,11.7368,10.8887,16.693,18.8159,14.1155,2.1103,-5.17331,7.21705,-0.779965,11.3102,16.7964,17.3175,45.872,-622.2,-815.448,-110040,19180,7700
10.7721,6.98509,2.45938,7.74034,8.77069,0.974664,13.7323,10.762,13.1985,3.81143,2.49369,4.66015,1.35373,5.19858,12.7211,9.51599,47.824,-619.272,-823.744,-112420,20300,7560
15.7607,18.6017,7.75185,17.4331,13.7026,-5.18727,17.8283,4.52876,18.5513,11.1933,8.76782,12.6577,3.69437,2.79731,16.8666,7.91678,48.8,-611.464,-825.696,-113820,21980,7980
6.50537,7.68868,-0.158414,3.88784,-0.742519,-9.73984,-5.84735,-8.51604,12.2101,2.70919,1.65207,3.71304,-4.12023,-8.48949,-5.6435,-10.3882,53.192,-602.192,-828.624,-115080,24780,7560
-4.87123,-3.19684,-5.25262,-5.27778,-4.67341,-9.94997,-7.51438,-15.3906,-6.08203,-5.41214,-7.40401,-3.90477,-5.26544,-9.25753,-8.60896,-15.9811,59.048,-591.944,-833.016,-115640,26180,7560
-8.36315,-2.2626,-6.22079,-7.16947,-7.59963,-3.02916,-7.33669,-4.76505,-4.32234,-10.7904,-9.4664,-8.08584,-3.20531,-1.32857,-4.14811,-9.44564,62.464,-580.72,-833.016,-116480,27300,7000
5.29471,8.86687,6.41236,5.30268,3.6489,-1.01956,-1.66577,4.80228,6.0238,4.78313,6.03545,5.20366,6.12846,10.778,-1.49186,-0.148712,65.88,-566.568,-828.624,-116620,28000,6300
16.0914,15.8454,20.4358,20.0433,24.89,2.60923,21.4863,21.7346,14.9758,19.2004,13.6651,21.3496,11.3707,23.839,19.0815,23.514,68.808,-555.344,-833.016,-116340,27300,5600
6.88101,9.6161,3.9703,4.55391,6.88289,-5.40132,4.8272,7.02893,8.38,6.05875,-2.4989,7.32577,-2.18949,3.80525,-3.22679,5.6287,75.152,-544.12,-830.088,-116340,26740,4060
-9.52251,-5.76135,-12.5582,-10.9353,-10.5344,-14.7708,-9.08212,-13.4028,-7.5462,-11.6527,-19.3475,-8.65285,-13.4321,-13.4184,-14.3743,-11.8118,78.568,-534.36,-826.184,-117040,26040,2940
-16.1656,-8.41006,-12.9014,-4.4656,-7.7719,-11.7829,-2.58843,-14.6889,-10.5992,-15.8104,-23.7327,-10.1691,-12.5577,-11.3557,3.71915,-7.92351,77.104,-521.184,-826.672,-118300,25060,840
-9.27897,-4.19914,-2.96254,-0.0094368,0.533862,-2.65261,2.5213,-5.83881,-6.81691,-5.74827,-9.31926,-3.67049,-0.897458,-0.434313,5.55509,1.7622,81.496,-515.328,-821.792,-120120,24220,-1120
8.55531,8.96289,11.7375,9.41383,9.47314,2.90802,9.15507,5.06215,9.29716,12.2491,5.84185,10.0185,9.05534,8.17387,11.0232,9.47301,81.984,-513.376,-822.768,-123060,23100,-3920
0.650389,-0.960153,8.36025,3.56675,3.63097,-2.82678,4.69533,4.61462,-2.93403,8.27193,9.33552,4.05131,5.13128,3.68405,5.50938,4.7392,85.888,-508.496,-831.064,-125300,22820,-6440
-13.8951,-9.73121,1.58916,-1.3203,-0.212836,-4.01868,2.97926,3.62629,-20.103,-1.54549,5.29824,-3.18861,1.13887,-1.18661,1.19666,0.585863,87.352,-498.736,-835.456,-126840,23240,-8400
-20.8943,-14.1238,-5.29528,-7.35415,-8.32671,-7.83291,-1.93289,-4.40101,-24.1356,-9.41564,-0.0387937,-9.95878,-3.42671,-7.55699,-1.4816,-7.94501,97.112,-486.048,-844.24,-128100,23520,-10500
-12.0225,-14.0621,-4.4946,-17.8079,-16.7573,-8.60819,-14.2076,-11.3523,-16.2803,-1.69093,3.45374,-11.1153,-2.1696,-10.6233,-19.5541,-15.5842,95.648,-483.608,-860.832,-128100,23380,-11340
-6.72287,-14.0977,-7.66799,-20.624,-16.8829,-2.47597,-17.3804,-7.14819,-10.4872,-2.04268,-2.02363,-11.2592,-3.98034,-8.28896,-27.0179,-13.9674,93.208,-466.528,-873.032,-125860,24080,-12320
-6.87946,-15.4359,-12.2374,-24.6076,-19.2388,-0.333835,-22.3873,-7.75627,-7.45896,-7.74786,-7.58827,-14.0971,-6.84483,-9.06218,-28.8552,-14.3958,110.288,-467.992,-885.72,-124740,19600,-11480
-6.0637,-13.1121,-13.9378,-20.9021,-17.3391,-1.17028,-16.7926,-9.53035,-8.67741,-9.75271,-10.2874,-13.0686,-8.44167,-9.58545,-23.9711,-13.5624,107.36,-466.528,-895.968,-122360,18760,-9800
-6.87297,-11.1032,-9.11314,-11.7887,-11.6152,-0.168119,-8.11828,-5.70642,-7.8339,-9.43986,-6.77015,-8.80557,-5.82793,-3.21759,-8.72888,-5.83963,97.6,-454.816,-902.312,-116340,22680,-9660
-3.27422,-2.78891,-2.37385,-0.537388,-3.01907,2.15664,-1.70129,-2.51666,-7.3105,-4.15733,-4.79789,-2.42477,-2.06624,0.578455,-5.58062,0.325261,100.528,-453.352,-906.216,-111860,23800,-9100
10.7448,6.66111,7.30673,7.67241,6.45866,7.60869,8.29615,5.53393,9.47678,6.14944,2.52861,6.96167,3.33591,7.37596,5.68315,10.2415,97.6,-456.28,-905.728,-105980,21140,-6720
18.6946,11.5027,10.4048,-1.72115,-0.459465,6.44332,-7.17471,-1.5386,18.6071,12.9575,9.31325,9.58446,6.36545,3.51689,-18.2648,0.319346,92.232,-456.28,-908.168,-101220,21000,-5040
15.5107,14.6645,10.3922,5.16797,4.88893,6.63216,-2.85686,-0.3397,17.1317,10.551,8.75526,11.6002,7.17009,5.61022,-8.41551,1.874,92.72,-462.136,-912.072,-94640,19320,-2800
12.8183,16.1888,11.1074,12.1963,9.89561,6.57477,5.33785,4.26083,15.19,8.42023,6.19232,14.7811,6.28096,7.63605,7.78396,8.55543,88.816,-465.552,-908.656,-88060,18060,-840
-1.87865,8.76695,4.03694,9.69782,7.6995,5.33696,6.13273,3.74483,2.13902,-0.580488,2.21116,7.5326,1.79309,4.06062,13.7428,7.75036,86.864,-467.016,-910.12,-83440,16660,840
-18.7589,0.83399,-4.20234,11.1128,8.93946,5.34216,15.4641,5.88108,-13.2853,-12.3255,-5.15892,-3.23826,-2.62301,2.25963,24.6151,11.684,78.08,-470.432,-909.144,-77560,15120,2660
-24.6031,-7.15702,-10.2185,10.0748,8.19226,3.45794,18.892,10.1252,-19.628,-18.8885,-11.5027,-8.27841,-6.08762,3.48941,30.8736,14.3789,77.104,-468.48,-912.56,-74060,13720,4200
-7.97255,8.63958,-1.09984,23.3026,17.044,5.71978,24.7906,10.3409,-6.60295,-4.59646,-6.67895,5.74429,0.590745,8.36328,34.4187,16.311,72.712,-469.456,-917.44,-68880,10500,6860
-3.13932,-2.33276,1.24795,5.24154,5.7317,2.90159,0.050496,2.85312,-2.80954,2.379,0.320681,2.11125,3.24271,4.08842,6.89432,3.25454,67.832,-474.336,-911.096,-64400,8260,9380
-1.95909,-11.5908,-3.0227,-13.5817,-10.9277,-5.18963,-20.2774,-4.69151,-3.89216,4.01313,4.08564,-5.83105,1.07442,-7.15967,-17.9857,-12.3796,62.952,-474.336,-909.144,-60340,8260,11340
3.61397,-4.81144,-0.432429,-8.87411,-6.10245,-5.51673,-9.36329,-1.05012,6.99454,6.22497,5.7865,-1.80201,-0.304704,-6.17164,-5.42346,-9.17701,60.512,-474.336,-905.728,-54740,9660,13160
2.67671,-3.75089,-1.07238,-2.41673,1.9429,-5.2364,6.15099,1.36774,6.09065,3.77404,3.08129,-2.16921,-2.25648,-4.48715,10.0191,0.124161,52.216,-479.216,-908.168,-51800,10360,14140
9.63082,8.03853,2.28143,13.3708,11.6146,-2.34976,19.9653,8.0807,14.9108,5.83792,2.88075,4.11498,-2.24688,0.70298,20.8497,10.0862,47.824,-483.608,-905.24,-47740,11340,14840
19.3347,24.0458,7.72948,24.6189,19.1744,1.65659,21.1778,12.2307,28.6093,6.17812,1.31774,15.2282,-0.318048,8.25515,24.158,14.4564,35.624,-491.904,-892.064,-43540,13300,15260
20.2612,21.3502,8.56584,14.6033,9.40533,-0.302513,0.870608,1.18374,24.2453,6.63591,2.65923,13.9439,0.657777,3.54275,-0.927388,0.233776,31.72,-493.368,-890.6,-40320,14420,15680
11.8804,6.63736,2.99033,-4.74699,-4.73333,-4.41274,-19.5013,-10.602,12.5895,3.23245,3.82085,4.07721,1.34254,-3.24868,-24.0432,-14.6261,26.84,-497.76,-887.672,-37940,14560,15960
11.7453,6.8638,6.10057,-2.24977,-1.77907,-3.2265,-15.3771,-11.5626,9.86427,6.29681,6.82617,6.18498,5.46608,1.15891,-18.2973,-10.3132,20.008,-496.784,-880.84,-37100,14700,15960
4.27026,4.07819,6.07514,-0.316797,1.31811,-1.13309,-4.94723,-5.59236,0.397238,2.59182,2.93586,3.32572,5.60038,2.6897,-4.86988,-2.06487,16.592,-501.176,-880.84,-36120,15680,15260
-12.5209,-16.4363,-3.51814,-15.4124,-11.2811,-4.90516,-11.2479,-2.73125,-17.2083,-9.09331,-2.12393,-12.4618,1.62972,-3.51817,-10.0351,-5.68302,13.664,-501.176,-885.232,-35700,15400,14280
-9.71799,-13.3046,-2.74986,-9.15047,-6.94145,-3.62688,-0.247968,-0.256658,-13.4873,-5.66394,-0.953904,-9.57218,2.14414,-2.58662,1.47393,-3.43226,14.64,-506.544,-884.256,-35700,15960,13300
-9.43131,-4.13474,-4.16668,1.03044,0.343966,-1.37723,9.76414,-1.58162,-12.2124,-8.30182,-7.40216,-5.46015,-1.09376,-1.61823,12.4039,1.57992,11.224,-509.472,-887.184,-35980,16660,12040
-5.47394,-3.48826,-2.98859,1.08881,-2.2559,-2.81661,4.35662,-5.16574,-9.98551,-3.2085,-2.74237,-5.15009,-0.749149,-3.62241,7.62154,-3.02032,10.248,-515.816,-880.352,-36120,17780,10640
0.662465,-2.44449,-4.78697,0.341852,-3.82609,-2.99194,1.20539,-7.80961,-6.48048,0.461041,-0.749063,-5.12972,-1.14844,-5.10432,1.63392,-6.47575,10.736,-517.768,-875.96,-36260,19180,8680
7.02966,-0.00905064,-0.750976,3.6076,1.01348,0.450966,3.54365,-1.51474,4.12813,3.25737,2.50906,-0.979225,0.336927,1.1757,5.32749,0.317796,13.664,-529.48,-879.376,-35980,19740,7000
6.78944,0.35496,-1.08183,-4.42114,-5.48504,-1.76701,-7.94065,-2.72734,3.92441,4.68543,2.67069,-0.696042,0.549803,-1.31677,-18.9112,-4.12152,15.616,-539.728,-886.696,-35840,20720,5180
6.43071,3.70084,-1.00783,-2.89074,-3.47144,2.90111,-3.97947,5.29991,6.00049,3.95912,1.80386,2.37662,1.29536,3.11957,-17.4812,2.63088,14.152,-547.048,-892.552,-35420,21420,2940
1.56337,4.30753,0.289639,1.55435,4.32556,7.37204,8.31402,10.4091,-2.50784,1.19578,-0.440608,4.58026,2.20073,7.90852,-5.57392,11.0539,17.568,-552.416,-898.408,-35840,22540,1400
-14.8456,-16.0775,-7.60038,-17.1635,-8.18442,4.5727,-2.74055,6.10437,-24.3582,-9.18408,-5.98508,-10.1921,-4.65804,-0.773627,-16.4537,2.09899,22.448,-557.296,-904.264,-35700,23800,-980
-17.5123,-23.1717,-8.84721,-23.2643,-14.3048,2.41174,-9.33216,2.9363,-28.0367,-12.2706,-8.35188,-16.081,-7.60861,-5.35079,-17.666,-3.35811,24.4,-562.664,-907.192,-33740,24360,-2520
-8.41696,-14.692,-3.11518,-14.2194,-9.71287,3.27058,-8.38305,-1.45378,-16.0591,-3.84219,-1.42691,-8.04291,-3.3337,-4.7725,-8.19578,-5.10491,25.864,-563.152,-921.832,-31500,24780,-3780
-3.67335,-8.62342,-0.883814,-7.7839,-3.97301,3.70914,-0.727427,-2.16469,-8.31625,1.71542,3.54712,-3.10642,-0.0368663,-4.06162,1.21902,-3.27547,35.624,-562.664,-929.152,-27580,24640,-5320
-5.32115,-13.5611,-4.95035,-10.9897,-6.12161,3.4944,-1.13205,-0.752721,-4.44186,-3.28433,-1.33349,-8.31822,-2.32008,-3.19396,2.56886,-1.87649,37.576,-561.688,-933.544,-24220,23940,-6160
2.14129,-8.21544,-4.84461,-10.1273,-5.55392,2.05352,-1.78512,-1.2993,3.11128,-1.31583,-2.32347,-4.91903,-3.13372,-5.01156,2.22997,-2.5816,40.992,-561.2,-941.84,-18340,22680,-7280
9.28887,2.78788,3.1475,3.98986,3.2383,3.60859,2.9316,3.1612,15.6998,4.50552,3.05871,4.68045,0.35525,0.887366,14.8431,1.38461,47.824,-556.32,-942.328,-12460,20020,-8400
19.3106,25.6596,13.1021,29.828,20.4316,6.69014,15.6662,4.98866,27.9409,13.6325,6.24605,20.8241,5.28289,8.70092,28.8237,8.61592,51.728,-553.88,-939.888,-7700,17920,-9100
17.713,28.3152,12.28,32.4211,20.6641,4.95119,10.7262,3.33212,29.6841,12.8924,6.39148,21.5391,4.69889,9.36855,24.4565,9.44802,53.68,-552.904,-935.984,0,15960,-10080
16.0158,24.3979,8.95115,21.6781,11.6468,2.47175,-2.5315,-1.58966,27.1568,12.2664,6.87201,17.8241,2.57163,4.10695,2.45959,1.10959,54.168,-549.488,-926.712,7560,16100,-10780
12.0411,17.1994,6.18953,8.93664,4.15346,0.852806,-11.7005,-4.17015,22.0047,9.30074,6.28488,11.4686,2.3524,-0.0715432,-13.2418,-5.38662,54.656,-543.632,-922.32,16800,14980,-12040
-4.89785,-0.717478,-3.35233,-2.67882,-4.58107,-1.06309,-8.87296,0.38362,5.96547,-3.9479,-0.415576,-2.57568,-2.77016,-3.55513,-8.15305,-2.80696,74.176,-537.288,-921.832,24220,12600,-12600
-6.1999,2.38625,-2.38508,3.09268,1.56744,-1.3239,6.03799,1.0431,3.02239,-3.38336,-2.90315,0.266736,-3.23023,-0.622025,6.03012,2.24645,75.152,-525.576,-924.76,29680,11200,-12740
0.0667965,15.6362,6.36157,16.2101,12.649,1.10952,17.6348,3.43802,10.0429,3.15432,-0.914577,9.56824,1.89997,7.67339,19.9657,8.86033,71.248,-506.544,-901.824,36400,13720,-15540
-13.0128,2.61748,2.57899,6.5861,7.98322,0.338452,13.7976,4.33487,-8.53351,-6.29618,-7.56339,2.58442,-0.529675,7.44356,12.3194,9.37962,86.376,-510.936,-901.336,37520,17640,-17640
-33.5179,-30.8562,-9.04905,-27.9233,-15.3722,-7.41394,-10.2362,-5.29795,-39.4094,-14.9918,-7.38855,-19.9679,-1.53107,-4.83303,-20.1099,-5.98247,91.256,-503.128,-894.992,42140,11900,-16940
-44.6684,-53.3138,-18.1745,-50.2411,-33.137,-13.0062,-25.0564,-9.76977,-55.3561,-22.2948,-7.37077,-35.0032,-5.01146,-14.2161,-40.8673,-14.9811,100.528,-498.736,-890.6,42840,12460,-18200
-30.6083,-36.5106,-10.651,-33.2008,-21.7132,-10.8452,-13.7932,-5.1884,-37.7994,-13.7952,-2.77065,-23.4221,-2.44098,-10.614,-21.8776,-8.25635,100.528,-493.368,-887.184,45500,11620,-18900
-0.697831,7.17209,4.03421,12.99,9.37893,-5.20844,14.5152,4.53548,0.493813,2.6141,3.33942,4.68262,2.60378,4.38225,20.2756,8.91945,101.504,-491.904,-878.4,48440,10220,-19460
15.3189,26.2347,5.73551,30.3683,19.0629,-3.16662,18.4112,7.88622,20.3649,3.94938,-0.898981,14.7302,-0.78092,8.49092,28.7259,13.5006,101.992,-498.248,-871.08,49980,9660,-19740
11.6453,13.0232,-2.69837,5.51331,-0.812075,-9.99828,-8.47087,-6.24472,9.18915,1.69747,-2.87606,3.65672,-4.11818,-5.19114,-10.382,-7.49701,105.896,-501.664,-864.248,52780,7700,-19600
11.5483,9.69472,1.71807,3.80704,1.54991,-6.1581,-5.63551,-4.77917,8.35406,4.94418,1.60176,6.19144,0.605047,-1.32349,-2.62629,-6.02968,108.336,-505.568,-852.536,57260,7280,-19460
14.3968,21.1916,8.68714,21.2816,17.4361,1.4255,14.7471,4.0027,10.4736,6.32596,1.39725,14.9426,5.42268,7.53765,18.9841,9.24665,108.824,-509.472,-847.168,60200,7280,-20020
7.91989,14.4044,3.91234,16.2203,12.6488,3.13524,10.0715,8.69389,7.9361,-1.039,-3.17486,8.7473,2.47414,6.84858,15.9672,9.60788,108.336,-511.912,-843.264,62020,5880,-21000
4.77576,13.0945,2.30521,16.9817,10.7397,4.50934,8.3127,11.0369,3.19737,-2.9501,-5.70376,6.30011,1.12578,6.44713,15.9009,10.9809,110.776,-519.72,-842.776,61460,5460,-21560
16.9084,17.417,7.57028,18.1605,8.34148,2.90071,4.56617,1.82048,15.2442,8.23138,3.25793,9.58178,5.25796,4.0609,13.6405,2.253,108.824,-523.136,-842.776,58520,5040,-22820
18.8689,13.6087,4.40957,8.61716,-1.33501,-3.16883,-10.2248,-11.8827,19.4268,7.77574,6.83522,5.47539,3.62369,-4.08447,-6.43834,-11.2371,109.312,-526.552,-848.632,51940,6020,-23940
9.86078,0.418167,-1.59674,-12.9244,-13.14,-3.28376,-21.7867,-13.7223,9.72561,2.10622,4.55773,-3.6487,0.397274,-8.11111,-30.9487,-13.9842,115.656,-541.192,-854.488,45220,7700,-23940
5.64502,-13.7018,-4.66554,-28.5756,-19.0191,0.21833,-19.1243,-8.51937,-0.244241,1.83497,1.30211,-11.5853,-0.871781,-7.84724,-32.8969,-11.2779,101.016,-541.68,-850.584,40740,8120,-23800
0.112124,-24.37,-5.90668,-28.9992,-16.1653,4.31437,-7.52424,0.845235,-9.92655,-1.15624,-2.28355,-16.4357,-2.77361,-3.80568,-15.1882,-1.10777,110.776,-558.272,-851.072,37380,8680,-24640
-3.24689,-27.5351,-6.00768,-27.3574,-13.5244,4.87052,-2.16551,2.88011,-19.1107,-0.973522,-2.90708,-16.834,-1.5818,-4.2925,-10.0815,-0.0146523,105.408,-560.224,-853.024,33880,8820,-22120
-10.3877,-28.2915,-6.04094,-21.2185,-10.8137,6.28604,-4.71347,3.20971,-24.0246,-5.55598,-2.25675,-15.0302,-0.580048,-1.63943,-8.34625,-1.14611,98.088,-559.248,-842.288,34720,13720,-23660
-16.2088,-30.9876,-8.65216,-23.5024,-15.6269,3.18714,-8.72055,-4.15539,-31.1186,-10.6483,-3.07084,-18.3015,-2.76616,-7.39728,-14.6497,-7.37098,100.04,-550.952,-841.8,29400,14140,-24780
-10.9979,-21.7361,-6.01491,-15.0198,-11.4202,2.34652,-5.86261,-4.86318,-18.8613,-8.57836,-1.53426,-11.7586,-2.98114,-5.48603,-8.57418,-6.36163,83.936,-579.256,-843.752,24360,14840,-24640
3.14132,-0.242453,1.8816,5.93712,3.53032,5.69794,6.53837,1.34897,0.830765,2.15945,4.78222,4.49457,1.25765,3.23552,9.30323,3.74471,79.544,-575.352,-824.232,21420,16380,-24220
2.12984,4.51434,-0.77196,12.1952,7.44837,5.23416,10.6282,2.92108,2.56302,0.941726,2.47601,4.88846,-0.924492,2.98648,13.8128,3.21477,75.64,-563.152,-821.792,21000,22820,-22680
6.20058,15.9794,2.2477,23.7933,14.3546,8.36296,17.096,7.29003,14.1683,1.83603,1.58151,10.7667,-1.33606,7.21145,22.3487,8.21164,78.08,-556.808,-816.912,18900,17220,-25200
10.9455,19.5466,7.02333,19.1284,13.294,6.76511,12.6674,6.96265,20.8009,8.13346,3.97828,13.7142,0.457589,7.26204,12.7793,7.35751,75.64,-549,-822.768,11200,15680,-26600
13.0415,12.908,8.36767,1.65275,4.24232,2.95131,-0.992415,4.54066,25.4969,14.1526,8.40733,12.2564,2.17842,3.20073,-4.82671,-0.276398,69.784,-555.832,-819.352,6160,18060,-28560
3.82669,11.9681,6.77963,7.36325,6.51898,0.30017,3.98519,2.35802,18.3242,10.3428,7.67706,11.3123,1.29905,3.46545,4.09242,1.95656,71.736,-551.44,-834.48,-560,19040,-30100
1.85663,28.4134,8.88824,35.1345,22.4124,1.38553,20.5328,2.31489,20.4941,8.62813,5.80772,20.1485,2.51233,6.86516,32.9113,9.24055,72.712,-541.68,-831.064,-6720,18200,-31640
13.8072,55.7747,19.5791,65.6126,42.5215,4.77149,30.9591,2.90514,36.538,14.4527,7.91689,38.5277,7.28389,16.3897,51.4137,15.8543,70.76,-530.944,-833.504,-11200,19740,-33180
1.31321,30.3187,10.2552,28.8371,19.6888,-1.28437,2.22648,-3.30695,15.2922,6.32649,0.992845,20.3815,3.22119,7.15793,6.94603,-0.0956556,74.176,-524.112,-833.992,-13580,17780,-33600
-17.0152,-9.90545,-5.95664,-17.7458,-9.54046,-5.90622,-14.445,-1.73278,-14.0167,-6.71057,-7.38801,-7.64563,-3.81006,-4.31877,-23.9069,-8.33859,81.496,-515.328,-846.68,-11200,13440,-33040
-20.7229,-15.1799,-9.34486,-17.533,-9.26297,-5.84652,-4.08857,2.93091,-18.2738,-11.2866,-9.7756,-11.9896,-4.92576,-2.84145,-4.85483,-3.11847,80.032,-497.76,-851.56,-6860,11340,-32760
-17.7001,-14.6984,-11.7531,-18.6396,-10.9951,-8.54003,-3.59838,0.10345,-20.0719,-13.2827,-10.7013,-14.5181,-5.80101,-7.39481,-6.47855,-5.64693,85.4,-482.632,-846.68,-2660,11340,-32760
-21.1757,-31.9935,-15.7574,-38.9029,-23.6546,-10.8218,-16.3461,-3.34063,-27.0793,-13.3967,-7.27577,-25.2112,-5.43067,-11.2625,-27.5969,-11.7239,100.528,-474.824,-855.464,1120,8960,-31780
-27.4087,-43.5661,-17.8661,-50.0351,-29.4143,-10.1096,-20.6754,-6.12617,-40.5292,-13.852,-7.83153,-30.9012,-4.53115,-13.2855,-39.725,-12.0396,99.552,-462.136,-854.488,5320,7420,-31500
-23.2535,-33.7042,-9.22324,-37.0914,-21.4724,-4.25605,-16.0497,-2.95527,-31.5385,-11.2513,-4.21633,-23.7849,-0.765349,-7.3953,-26.3635,-6.0734,104.92,-441.64,-860.832,9520,7000,-30380
-2.06728,-11.0298,-1.46733,-13.6223,-9.25203,-4.06403,-7.91767,-3.00708,-7.05065,-0.921055,0.103509,-8.97803,1.14339,-2.85472,-9.42131,-2.75629,108.336,-458.72,-870.104,12320,6160,-29540
21.0069,14.2828,7.47905,17.4399,10.9095,0.383304,11.2829,3.99898,18.6783,8.11607,2.81256,9.1392,4.34006,6.14812,20.4298,9.12529,116.144,-448.472,-871.568,15960,5880,-27720
29.5154,26.6985,11.9972,30.747,18.2499,2.88085,14.5198,4.24609,29.0238,10.9723,2.85359,17.9455,6.09641,9.91678,25.716,11.9904,118.096,-455.304,-875.472,18340,5460,-26740
21.2364,22.3215,8.52661,26.3188,14.0736,1.11768,9.26836,1.02936,23.0362,4.03124,-1.475,14.5663,1.59729,6.0746,15.8725,8.91571,122,-453.352,-879.376,19040,5600,-26460
13.2581,7.23575,8.1673,4.97487,1.59904,-1.74807,-2.44653,-4.12744,13.2874,6.24552,6.17648,6.16754,4.53319,-0.650375,-2.51774,1.07552,120.048,-447.984,-883.28,17920,6300,-26320
4.91044,-0.014302,7.34854,1.55255,0.0386415,0.289028,1.71942,-1.30956,7.58105,4.44705,9.62242,3.34029,6.09142,1.29743,3.34399,5.33606,140.544,-416.264,-859.368,15960,7420,-26320
-4.73308,-4.14023,1.04177,10.3322,3.27382,2.23058,10.3448,-0.286597,-9.23532,-5.37208,2.92058,-0.819967,1.14477,-1.50808,18.7278,6.89776,129.808,-481.168,-896.944,14560,9800,-25760
-6.40718,-5.37296,-3.18486,16.1657,5.54097,5.12986,12.542,3.00538,-13.7044,-12.6112,-4.26973,-1.6547,-2.20314,0.914845,28.6433,8.32283,132.736,-474.824,-883.768,13300,18480,-23660
-0.0826828,-7.37934,-7.30112,-2.05734,-7.62725,1.60734,-10.3411,-5.8285,-13.1397,-9.93092,-2.3896,-5.4379,-2.45919,-7.17245,-6.97404,-6.47259,138.592,-470.432,-883.28,19600,19320,-24920
-7.02033,-32.6954,-16.8994,-41.281,-31.3169,-2.53314,-38.4612,-10.0951,-25.778,-13.9718,-1.86864,-25.4305,-7.35292,-17.1059,-49.3899,-21.2702,142.496,-459.696,-886.208,22540,13720,-23940
-19.9598,-49.3829,-24.7699,-58.3138,-40.6842,-4.86757,-41.9917,-10.8311,-41.7571,-19.556,-8.9458,-38.2594,-12.9682,-21.1212,-59.7638,-24.9727,145.424,-458.232,-878.4,26320,15540,-22820
-11.4766,-20.9711,-12.7459,-23.5231,-19.0558,-1.25771,-23.4711,-12.1696,-24.8112,-7.10492,-4.71968,-18.0356,-6.75553,-11.2757,-28.8352,-19.449,143.96,-456.768,-873.032,30660,18060,-20160
5.65926,23.2287,5.80937,25.2858,13.4209,5.91715,1.68137,-5.35964,12.9795,7.57108,3.34064,13.4958,4.89528,6.74711,12.2527,-4.43069,151.28,-448.96,-863.76,35980,19320,-17640
8.06981,26.6597,4.59053,21.0202,8.36239,0.781574,-6.12205,-9.68107,23.4748,9.84527,3.708,13.8607,4.51624,1.38207,-1.39703,-10.0117,144.936,-443.592,-860.832,40180,21000,-16240
-5.22668,2.45289,-8.08585,-10.6376,-13.0152,-5.12532,-15.93,-8.41088,13.7451,-0.389304,-1.71981,-6.09333,-3.81798,-10.4372,-18.0284,-15.5262,149.816,-441.152,-854.488,42140,22120,-14560
6.77043,17.3341,0.977576,7.40697,7.5715,-0.23962,16.2355,8.06339,23.7158,5.0374,-5.25632,7.07152,-3.91148,4.61317,15.5202,8.90405,152.744,-443.592,-852.536,42700,23100,-13160
40.8812,69.574,33.9421,79.3995,70.2313,19.0971,85.9261,42.1762,57.0118,28.0669,-6.76286,55.8228,6.31274,45.3426,99.7286,59.5177,159.088,-448.96,-847.168,39900,24780,-11480
32.0917,52.6512,31.0811,64.9883,62.3385,16.6363,75.7494,41.4945,41.5993,23.0966,-6.17494,48.0306,6.58244,40.7665,88.1057,55.3548,161.528,-456.28,-842.776,38360,25760,-9660
14.5712,21.9363,14.8172,22.8952,27.7255,4.96775,35.575,25.0065,21.2997,13.3272,1.77097,23.7948,3.30642,18.8878,33.7029,30.4098,159.576,-461.648,-839.848,35420,26180,-7980
15.0563,5.00896,13.7956,-7.00327,4.76719,-2.47481,6.53553,12.8916,17.9762,21.2515,18.0394,12.9314,8.37207,6.25932,-8.14877,10.7393,160.064,-470.92,-836.432,32900,27160,-5880
7.32197,-15.8072,13.5892,-32.2764,-12.9216,-6.73229,-18.2619,-3.20648,1.58473,22.677,26.7411,1.36398,13.0135,-2.59465,-33.9196,-10.092,157.136,-476.288,-836.432,31780,26320,-3500
-6.39564,-10.2,6.97351,-12.4031,-5.75322,-5.412,-12.9234,-11.2154,-15.0305,11.7883,21.373,1.77939,10.0442,-5.36389,-17.5386,-14.6079,155.672,-480.68,-836.432,31220,24220,-1400
-22.0274,-2.39569,-6.46688,7.81786,-3.52831,-1.30106,-15.9156,-9.44699,-16.4577,-12.2953,1.27366,-4.42817,-0.866545,-6.38996,-4.73789,-17.2389,150.304,-472.872,-836.432,27580,23800,140
-22.8334,-3.16097,-10.8229,4.53834,-10.692,0.365982,-24.3951,-13.2099,-17.0306,-16.2556,-9.17403,-10.0367,-4.9437,-9.83599,-18.7458,-22.958,149.816,-475.8,-829.112,25900,23660,1120
-27.013,-33.3676,-17.2207,-37.0405,-33.1609,-1.81752,-40.8087,-13.5082,-25.9919,-17.4773,-6.79843,-29.1579,-6.16884,-16.2164,-48.6568,-26.6452,146.4,-473.848,-825.696,22680,22960,2660
-27.4148,-48.7349,-19.7162,-54.9858,-38.9237,-3.35893,-33.3138,-6.64606,-32.672,-19.8956,-6.5811,-37.1448,-6.53783,-14.1099,-46.1515,-17.0137,148.352,-465.064,-824.72,21560,22540,3500
-9.20663,-16.3488,-4.48,-18.2207,-11.6472,-2.25844,0.457465,-2.89075,-10.3735,-9.12415,-1.318,-10.9353,-1.72361,-1.53182,-4.37403,-2.97502,145.424,-457.256,-820.328,20160,21840,4340
-4.22535,-0.386124,-0.630112,2.77153,-0.263922,-6.5697,8.46425,-10.78,-2.88307,-6.68129,-0.46103,-0.231514,-3.27954,-3.37244,9.08592,-4.23709,143.472,-448.472,-815.936,17360,21420,5180
0.00641848,0.489145,-5.13248,4.66618,-3.06139,-10.5344,-0.830794,-15.5806,-3.05822,-2.739,0.00211848,-2.97221,-5.07515,-9.64264,-0.472061,-6.1636,150.792,-444.568,-824.232,15820,20580,6300
2.73876,-0.396341,-8.08189,-1.69436,-3.71341,-5.71038,-3.54914,-7.21251,0.0245302,-5.81077,-5.71608,-5.84972,-5.84063,-7.13048,-10.9517,-0.0867412,146.888,-426.512,-818.864,13160,18760,7840
4.04891,1.35823,-4.50555,2.76593,1.65079,0.284965,3.07977,-2.60022,0.506276,-4.51614,-7.10004,-3.34561,-3.6738,-2.28597,3.21463,4.11728,152.256,-421.632,-819.352,8680,18480,8120
3.00097,3.22493,-4.54978,8.97449,4.31568,3.44136,8.09683,-0.764447,-4.39509,-3.77589,-9.80446,-2.11941,-3.61221,-2.07534,11.2156,5.06239,154.208,-411.384,-823.256,6720,15120,10220
-11.5027,-28.6492,-19.4248,-29.5635,-23.8932,-1.11558,-20.0492,-6.32561,-20.4867,-15.355,-10.1994,-26.9302,-9.07847,-15.1313,-23.2909,-9.46853,149.816,-404.064,-832.04,5880,12040,12040
-16.4282,-36.953,-21.8524,-38.1575,-26.2853,-1.1499,-17.6304,-5.21212,-30.7456,-16.6538,-8.2699,-31.1481,-7.86882,-14.034,-28.098,-7.05193,149.328,-402.6,-833.016,4620,10780,12740
-11.2913,-25.668,-8.30988,-17.3452,-7.62298,5.3707,-0.688819,4.38865,-23.9785,-7.73143,-3.03206,-16.9884,0.478969,-0.0140076,-1.41852,4.61373,143.96,-395.28,-837.896,1680,10220,13580
11.9034,22.9028,15.1671,37.0323,28.0324,12.4284,26.7766,13.2532,5.35235,9.07982,4.06723,19.0971,11.1482,18.1317,43.8274,19.9259,139.08,-390.4,-844.24,700,9940,13720
30.6511,51.3875,25.9038,56.6869,39.1518,11.162,28.3427,11.0647,33.3559,18.9178,9.68577,38.6399,13.7493,22.4474,47.776,18.5835,138.592,-392.84,-853.024,700,8820,14700
2.16693,5.58886,-2.51314,-1.39802,-7.301,-8.35054,-17.15,-10.8739,8.34607,-3.14438,1.61215,-1.75229,-2.848,-8.55458,-9.84035,-16.2472,137.128,-397.232,-865.224,700,7980,15960
-40.2698,-45.3519,-35.5586,-45.0328,-42.9993,-23.9683,-41.5224,-24.4222,-46.0767,-33.3895,-16.4573,-45.1593,-20.1841,-34.7266,-45.316,-35.2461,130.784,-394.304,-875.472,1680,7140,16520
-40.1411,-49.498,-29.633,-48.7807,-38.8227,-15.5439,-32.5115,-11.9598,-48.8489,-28.1615,-18.9393,-42.5027,-16.6002,-25.8984,-38.1764,-23.0412,129.808,-401.624,-884.744,4900,5880,16660
19.4008,13.548,15.4324,5.11078,11.478,6.42257,12.9797,17.0041,22.5025,14.8572,-3.20962,16.8957,2.70715,14.5323,9.50729,15.5293,125.904,-406.992,-891.576,7980,3920,17640
79.0288,90.3456,55.307,78.363,67.1187,19.9499,54.5149,34.8301,94.8382,55.9851,16.3165,81.4599,19.6356,45.1594,62.0026,46.1112,123.464,-411.872,-899.384,13160,1120,18340
46.5355,67.9807,36.1601,71.2682,56.4212,17.2003,48.118,26.4851,59.3458,32.6219,11.2337,60.8859,13.1964,31.8385,57.8776,39.2495,121.512,-422.12,-902.8,19600,-1400,18480
-5.03562,6.925,3.71588,14.422,8.74719,6.08677,10.8257,3.03175,1.81866,-0.143469,8.80421,6.73854,7.11198,1.24635,17.8309,7.32005,119.56,-430.416,-905.728,24220,-3220,18900
-20.2644,-22.3765,-5.19353,-21.3841,-15.453,1.52856,-7.68492,-3.63579,-16.9315,-7.78578,10.5944,-17.0831,6.20308,-5.76516,-9.55959,-3.67615,116.632,-442.128,-901.336,30100,-5180,19180
30.8253,16.7321,29.4954,9.37764,19.174,13.4426,22.5217,18.0043,35.5116,34.8729,28.8843,25.1188,21.4212,27.175,17.0971,24.7834,111.752,-447.496,-900.36,34160,-6160,19040
92.1285,87.8039,69.7019,77.3306,73.9827,20.0472,67.2571,37.3049,99.9356,79.905,46.6433,87.0496,35.2992,55.5376,69.5734,55.1178,105.408,-458.72,-893.528,38360,-7420,18620
41.9149,41.7984,27.7119,32.7659,33.3201,-0.882195,28.0247,15.0682,53.9853,31.0783,16.6104,41.2143,6.06173,18.1611,29.6194,21.2927,102.48,-471.408,-887.184,41440,-8820,18060
-20.4918,-15.9745,-28.6201,-19.7915,-23.2308,-20.0715,-18.3276,-15.4174,-13.0413,-24.4112,-19.8692,-22.1212,-23.2004,-29.5147,-17.9301,-23.9234,101.016,-479.216,-878.4,43540,-8960,17780
-52.8436,-47.7138,-45.1924,-40.599,-44.8084,-14.7013,-38.4769,-25.0476,-48.6596,-43.9981,-24.7342,-52.4905,-21.5587,-36.1607,-34.1584,-38.8226,95.648,-490.928,-864.736,44940,-9100,17080
-53.7262,-48.5662,-30.7638,-44.6137,-40.007,-0.797593,-40.0865,-23.1088,-56.2527,-35.5969,-14.3714,-47.3067,-6.47152,-19.4929,-48.2324,-35.3634,96.624,-499.712,-854,44800,-8960,16100
-23.0934,-12.7673,-6.89351,-10.3851,-9.55081,7.39242,-16.9811,-7.4819,-25.767,-11.8087,-4.04188,-13.1332,3.28431,1.26902,-21.552,-16.0731,94.672,-510.448,-844.728,43260,-8960,14980
-24.4965,-17.6297,-10.9286,-11.7619,-7.83536,-4.18717,-15.1007,-10.39,-28.6598,-12.5594,-4.54944,-13.4053,-1.60055,-4.40614,-15.5991,-16.528,96.136,-518.256,-833.016,39760,-8680,13720
-32.5182,-30.1699,-23.5132,-22.0948,-20.8867,-13.4558,-19.8945,-12.3417,-37.5543,-22.3343,-13.0904,-25.3585,-10.8804,-17.4836,-21.2085,-20.635,90.768,-528.504,-821.792,36400,-8120,12600
-29.8162,-36.0794,-26.232,-36.7769,-36.4188,-13.9604,-36.8394,-15.4012,-36.3945,-21.701,-12.0608,-32.5328,-11.9777,-25.1138,-43.492,-28.4224,91.256,-540.216,-817.888,30940,-7980,11340
-28.6637,-38.0152,-24.2474,-38.3169,-37.2779,-11.4932,-39.0173,-19.6654,-35.8276,-24.288,-12.1595,-33.9239,-10.7476,-23.3032,-46.5768,-28.812,91.256,-542.168,-814.472,25900,-9380,10640
-25.5221,-31.3887,-21.9533,-30.4003,-26.6206,-7.9129,-23.7135,-14.1293,-31.8815,-24.9442,-17.7282,-28.2647,-10.8397,-18.0148,-35.8087,-17.1551,90.768,-548.512,-807.64,18480,-7840,8820
-21.1553,-31.1528,-17.9836,-33.6845,-24.1256,-6.94336,-19.8377,-11.8616,-26.4991,-20.8158,-14.6119,-25.5406,-9.82455,-14.9973,-29.1651,-10.6674,90.768,-547.048,-798.856,12740,-6440,6860
-7.99518,-15.9501,-8.09242,-20.3766,-12.799,-3.58482,-12.282,-10.756,-14.959,-8.16083,-8.7758,-13.3828,-4.57848,-9.24214,-16.6003,-7.41744,98.576,-543.632,-793.976,4760,-4620,5740
1.2965,-0.449949,-1.18951,0.0831311,1.4582,-0.660408,2.51057,-3.10335,0.492228,-3.47965,-7.37098,-2.48811,-2.13932,-2.05553,9.74282,2.36202,101.992,-546.072,-796.904,-2380,-3080,4340
7.44239,11.76,8.8108,16.2681,16.4285,5.6778,20.5213,10.0621,5.65597,2.96561,-2.21617,9.55985,3.77459,10.3494,27.363,16.6891,100.528,-544.608,-793,-7980,-1120,3220
16.2649,17.9151,27.3101,18.126,26.6363,11.7156,23.3949,16.7467,6.74352,20.0933,14.328,23.7415,14.0927,24.0183,22.0766,23.9015,103.944,-542.656,-792.024,-14840,840,2240
13.9532,8.70014,24.7122,4.42353,16.4203,4.2838,8.25508,7.40711,0.513728,20.0568,9.94131,19.5131,6.1149,15.2312,3.97343,12.0686,104.432,-543.144,-792.512,-19600,2240,1820
47.2602,49.8938,38.9123,46.5517,47.7981,18.2464,48.4775,33.8602,43.9789,36.2496,5.5976,49.3473,7.71787,36.7714,44.2094,44.9784,105.896,-543.144,-793,-25900,3080,1540
93.4262,104.006,59.5039,103.097,86.45,31.687,94.4265,57.2819,110.619,61.8108,28.4556,87.5559,23.5257,60.6151,105.02,78.5539,109.312,-546.56,-793.488,-31640,4340,1400
65.5052,77.1367,38.1471,83.0848,60.7217,16.8532,66.5934,31.9323,83.9701,44.9155,36.534,60.2478,21.7413,36.1821,83.1013,49.6143,117.12,-550.952,-796.416,-34860,4900,1540
18.9173,28.4854,2.18499,32.4289,9.29076,-2.45515,11.7269,-0.584863,36.7652,10.4377,18.0324,13.2313,4.54252,-5.77788,29.5917,0.204512,122.488,-555.832,-795.44,-38500,5180,2380
-9.71498,-8.66144,-15.6968,-11.9622,-27.958,-13.4287,-31.7325,-20.4897,0.357755,-6.92047,6.81376,-16.8586,-4.48438,-25.9776,-20.9353,-33.0858,125.904,-553.392,-808.128,-40040,4760,4060
-17.0198,-20.5655,-12.9902,-25.8713,-27.1279,-9.69558,-29.9466,-17.7753,-15.0553,-8.77523,2.9546,-20.0412,-3.68009,-16.2904,-32.2132,-26.9049,122,-549,-806.176,-41300,3920,5600
-26.7205,-37.1786,-20.6294,-39.8071,-33.1502,-13.3714,-31.9232,-19.2816,-32.4992,-18.3528,-5.13676,-29.7418,-10.7771,-24.0196,-42.7825,-29.2571,109.8,-539.24,-809.104,-40040,3360,8260
-41.6046,-55.353,-31.9969,-55.1066,-43.8412,-13.2945,-37.1515,-18.354,-48.2029,-30.003,-12.4034,-45.443,-15.4001,-30.4642,-48.9888,-30.5294,117.608,-537.288,-810.08,-37520,2240,11340
-28.7274,-32.3354,-22.809,-23.5167,-20.3368,-3.73232,-8.66235,-7.25594,-33.4947,-23.4002,-15.4372,-28.5751,-11.7038,-14.8751,-12.7949,-9.71911,135.664,-517.768,-836.432,-30240,-700,16520
-3.1344,5.63786,2.67957,21.9365,13.2583,9.73606,17.9695,4.98767,-2.03679,-4.03166,-3.16484,3.95906,2.09614,9.8823,29.4891,12.9316,109.8,-494.344,-815.448,-28840,700,13300
2.84774,5.83723,2.69114,8.31906,4.56635,5.29529,0.268623,-0.698653,2.09281,0.661447,0.325421,4.4163,3.10497,4.85534,3.9634,2.1012,108.336,-489.952,-812.52,-38640,5180,8820
-20.817,-35.1041,-17.7326,-41.1025,-28.7745,-8.1933,-30.5048,-5.88044,-23.2465,-16.1151,-7.6122,-26.7776,-9.13124,-15.3766,-36.2693,-18.9436,92.72,-470.432,-808.128,-39340,-1400,9520
-30.5917,-43.4969,-24.7652,-48.2635,-30.9786,-13.5264,-28.121,-10.027,-36.0461,-23.6902,-15.9662,-34.6608,-14.1262,-20.4778,-39.1971,-21.0018,98.576,-459.696,-803.736,-40320,-980,7700
-6.79377,-13.8852,-6.08326,-22.5536,-11.3938,-7.95606,-21.0019,-13.1303,-9.8993,-4.42556,-9.54724,-9.66726,-4.98541,-7.10868,-24.5317,-12.1871,89.792,-452.376,-808.128,-41860,-2660,6300
17.3991,17.386,10.9864,2.83478,8.30674,1.60124,-4.52921,-1.57504,20.9567,13.3147,-5.63583,15.3033,1.87389,8.9053,-5.79196,3.61129,90.768,-449.448,-824.232,-45080,-2100,4060
22.902,29.8677,18.8696,17.7177,21.7493,9.55126,16.0425,14.8419,26.1698,14.0093,-10.8759,28.1591,3.16312,20.0169,12.2016,18.5571,89.304,-450.912,-828.624,-49840,-2100,1540
12.1673,24.3771,18.1581,26.8221,28.1762,15.7976,34.3014,24.9917,11.3047,6.12899,-14.7395,25.1235,4.41367,24.1733,32.3908,29.3397,89.792,-447.496,-835.456,-52360,-2380,-840
5.4042,10.4718,8.74357,18.2628,17.0631,9.9474,18.7889,15.0444,3.48756,2.41616,-5.20974,11.8661,2.86413,15.4465,20.944,15.3474,89.304,-447.008,-841.312,-53900,-2940,-2520
17.9011,21.8298,13.2469,21.5561,15.5215,1.57448,0.400163,-3.22622,17.7439,15.4827,20.0671,18.6139,11.8806,8.91699,4.10816,-0.887928,88.816,-449.936,-849.12,-55160,-5460,-4340
-3.9132,1.54825,9.60241,6.9776,5.5471,-0.946667,-10.659,-13.2945,-11.4329,7.78448,24.6286,4.46388,14.2108,2.78877,-7.15211,-10.1069,95.16,-458.232,-867.664,-55020,-8260,-5180
-11.8095,-7.58863,3.17452,-5.17341,-4.23686,-1.62599,-6.85387,-14.2691,-24.0415,2.7154,19.2753,-4.30458,11.9526,-5.90713,-10.4747,-10.8773,103.944,-459.208,-884.256,-54040,-11200,-6020
0.889924,0.28939,-2.80738,-1.23592,-3.93024,-0.0825298,5.65387,-1.15626,3.99532,2.314,12.6919,-2.91983,4.94694,-6.24989,2.48938,1.08721,98.088,-447.496,-899.872,-53340,-9940,-7840
-3.5212,-1.40513,-11.9484,3.70623,-0.929704,1.4455,16.612,9.22882,4.98143,-8.35134,-5.30755,-7.14964,-5.45387,-4.57771,15.6656,10.8833,98.576,-445.544,-907.68,-51660,-8540,-9520
-15.4631,-7.11981,-14.4545,11.9743,2.17815,-2.22666,21.9152,5.99515,-15.1636,-14.4551,-10.2311,-11.3712,-7.41771,-5.40757,31.9898,12.9034,92.72,-447.984,-911.096,-47880,-9940,-10780
-9.29441,-4.97901,-8.29633,9.06561,0.600488,-3.14969,9.37499,1.19164,-12.607,-6.31252,-3.60767,-7.96806,-4.81378,-4.97898,21.8002,6.23751,86.864,-448.96,-910.608,-45640,-9100,-12880
11.8888,3.17593,-3.78508,-11.1818,-10.742,-6.33412,-17.5927,-7.19826,12.8629,6.97165,4.12683,-1.74918,-1.12662,-9.79661,-21.8727,-10.1573,81.008,-446.032,-909.144,-42140,-8960,-14560
-7.6978,-24.8976,-15.7121,-47.1608,-34.1887,-10.9865,-45.978,-16.2201,-7.27048,-10.2225,-5.85079,-23.4914,-8.07698,-21.5749,-56.3238,-29.4737,78.568,-444.568,-910.608,-36400,-11480,-15540
-20.4905,-26.7909,-12.2288,-32.7974,-21.72,-4.91671,-25.1797,-8.74504,-25.1698,-18.6628,-12.7141,-21.6765,-6.03181,-11.3058,-31.9573,-18.3154,81.984,-447.496,-907.192,-32480,-13300,-15820
-9.89961,-2.72524,3.39641,2.33085,4.04833,1.5384,3.91534,1.03172,-10.5128,-6.09977,-3.75603,-1.11749,2.89184,5.63319,7.12977,0.738699,77.592,-453.352,-901.336,-28280,-14140,-16380
7.39426,11.467,10.9356,15.2634,10.465,-0.664442,6.88589,0.246631,9.83234,8.02841,4.36267,10.6648,4.21178,7.71336,13.5187,1.98261,76.128,-465.064,-901.336,-26180,-14000,-17080
11.3207,6.47365,3.54265,4.01727,-0.645687,-4.026,-6.58765,-4.77539,15.8808,6.96805,-0.162839,6.53054,-2.92938,-0.273955,-1.49068,-8.79681,72.712,-465.064,-900.848,-24500,-12880,-18480
12.3583,13.2302,-0.753961,11.2773,4.75881,0.342722,3.70151,3.41241,18.1654,2.39521,-10.4927,9.84839,-7.69852,4.2583,6.9634,-0.931938,70.272,-477.752,-904.264,-23240,-13160,-19320
20.9405,34.4863,10.4677,39.6741,29.3426,10.6075,33.3025,17.4534,30.754,6.91804,-10.1312,26.2756,-1.55314,21.1912,42.5635,22.8783,69.296,-487.512,-910.12,-22260,-13440,-19880
15.026,31.0682,12.5938,37.8009,27.3555,10.1242,29.9348,11.4045,21.7174,6.2879,-2.2747,24.4242,3.6663,17.9056,36.5043,20.0521,71.248,-497.272,-915,-20580,-13580,-20440
17.3047,24.2486,20.0388,28.6731,20.7834,6.87263,18.6928,9.29216,20.6853,17.8666,17.318,23.3906,13.4128,16.3373,19.8529,16.6412,72.224,-504.592,-909.632,-18760,-13160,-21000
9.3457,7.64549,15.1013,8.81354,10.3293,1.89057,12.4884,9.15943,4.37917,17.3357,18.9044,11.7745,10.3418,7.86315,0.0342583,12.964,77.104,-510.448,-907.192,-15680,-13300,-21420
7.88239,-19.4862,2.07589,-25.351,-17.3674,-8.57199,-16.2941,-2.30583,1.79415,14.4783,22.584,-9.32155,3.90522,-10.7711,-25.7809,-9.19165,82.96,-513.864,-900.848,-12040,-13300,-21560
-9.48075,-34.5362,-15.8557,-39.944,-32.1735,-14.2353,-27.5285,-14.4923,-13.771,-3.04863,5.76222,-26.3492,-8.01397,-25.3865,-32.693,-22.5293,84.424,-519.72,-894.016,-9380,-14000,-21420
-28.6592,-33.0894,-20.9497,-30.0395,-24.8192,-7.35185,-13.8058,-10.4227,-30.2589,-18.2785,-10.9727,-28.2107,-11.605,-20.1769,-14.1299,-13.5204,85.888,-524.112,-884.744,-6300,-14700,-21140
-21.8897,-15.902,-11.4321,-9.61154,-7.17813,5.74712,0.396017,1.75701,-20.7208,-16.4462,-16.3598,-13.3459,-6.61629,-4.24506,-0.311206,1.43978,89.792,-523.136,-865.712,-5180,-15120,-21280
-12.3473,-1.51294,-2.37141,3.47927,6.5053,17.163,3.73032,10.7152,-7.3858,-12.0414,-17.0848,-0.526551,-1.32711,9.92833,1.71705,8.33592,93.696,-523.624,-865.224,-4480,-14420,-21420
-7.15762,6.85974,6.45322,6.73176,11.0291,17.6637,-2.49388,7.77912,-2.90906,-5.73863,-5.70543,5.58798,7.69636,14.6359,-4.79328,5.34574,91.744,-526.064,-848.144,-4620,-14560,-21700
-2.71486,6.76775,9.77679,5.28046,10.7194,9.91244,1.26262,4.6799,-0.935353,1.49759,4.30819,7.88151,10.3727,12.9363,-1.58784,6.34236,95.16,-526.064,-842.776,-5880,-14000,-21840
18.8262,20.4241,16.0747,17.3601,18.6183,1.02324,19.6909,5.31733,17.4909,18.6049,12.0516,19.3715,8.44189,11.2656,19.4203,14.948,102.968,-529.968,-836.432,-7980,-13580,-22120
8.55906,0.838971,0.859002,-3.4622,-1.87739,-8.37725,1.62009,-1.0251,5.61915,6.26233,2.9646,2.64575,-4.65117,-5.5969,0.485392,1.88203,103.456,-526.552,-827.16,-9100,-13300,-21980
-10.7919,-21.6083,-21.4406,-29.0234,-26.6942,-14.4819,-21.0459,-10.2911,-13.129,-14.6747,-10.9925,-22.6045,-16.5215,-24.1567,-26.5178,-16.8802,105.408,-522.648,-818.376,-11900,-12320,-22400
-15.8922,-23.6629,-23.4905,-27.098,-25.7265,-10.1594,-20.6571,-7.30893,-14.5851,-22.2646,-14.3007,-27.5069,-17.4146,-19.1961,-22.4638,-13.9357,110.288,-523.136,-820.816,-16100,-11480,-22960
-7.59671,-13.8635,-9.62142,-17.5852,-15.5037,-5.96105,-18.0122,-9.28063,-10.8904,-10.4163,-2.48498,-16.7655,-5.11074,-9.48555,-18.3692,-12.9421,112.728,-528.016,-818.376,-17920,-11480,-22960
1.73801,-0.116589,0.167218,-4.01181,-4.65195,-1.78466,-12.0177,-12.034,-4.67476,-0.333997,3.90854,-3.65573,3.50003,-1.89651,-10.3613,-11.1694,117.608,-522.648,-818.864,-20580,-10080,-22960
1.95462,0.576259,-2.25314,1.24867,-2.44233,-3.84393,-6.542,-9.09189,-3.55138,-0.472013,4.99231,-1.25767,2.17535,-1.71103,0.249534,-8.69413,120.048,-524.112,-815.448,-23100,-9800,-22820
-10.6563,-7.11457,-7.58622,-0.797363,-5.12367,-9.84024,-2.4218,-11.8234,-19.3505,-7.31803,1.4963,-6.16216,-2.62401,-7.92426,4.14832,-9.55691,127.368,-521.672,-823.744,-26180,-9800,-22540
1.78928,-1.00699,10.0475,0.127029,1.65008,-3.36659,-2.74777,-7.10575,-7.31429,10.7307,17.3714,7.21998,9.77698,1.97193,1.53082,-3.68344,129.808,-514.84,-829.112,-28560,-10220,-21980
24.0604,23.5336,22.8118,19.5218,18.8757,1.24998,11.8463,2.45508,21.7025,26.994,24.1405,26.1024,15.2845,12.7329,11.9322,8.1855,133.712,-506.544,-829.6,-30240,-10080,-21560
20.15,31.944,16.0381,31.6184,25.2284,3.58534,25.6731,8.48838,26.3745,16.3619,6.14751,25.9906,6.66047,14.5303,29.076,15.7891,136.152,-508.496,-833.992,-31360,-10640,-20860
11.9526,26.5439,9.0297,33.5033,25.4568,8.19942,32.9371,15.8625,18.1588,5.09812,-8.44083,19.6976,0.912933,15.9473,35.9073,21.3937,139.568,-504.592,-844.728,-31920,-11200,-20440
3.64208,13.2655,1.94388,21.0002,17.6512,9.53266,26.8228,16.6764,8.6263,-5.50782,-16.2319,8.95219,-3.6086,12.6,25.7925,17.0109,141.032,-500.2,-844.24,-32480,-11760,-19740
10.2601,13.949,4.77544,16.5737,13.2767,3.11848,16.0103,8.82315,16.0529,-0.00544823,-5.50788,9.39449,0.0337469,7.30839,19.0052,10.4569,144.936,-498.736,-849.608,-32480,-13440,-18760
-0.391006,-0.134403,-3.13024,1.71221,-0.579196,-3.31504,1.45137,-0.92622,6.9028,-3.75035,-1.19153,-2.3979,-1.72104,-3.46999,6.55717,-0.0534953,148.84,-502.152,-855.952,-31780,-14980,-17920
-3.98454,-6.57656,-2.35145,-9.86551,-8.29037,-2.98588,-8.17086,-8.8795,-2.49483,1.1691,-1.89022,-4.87067,-1.13058,-5.92928,-10.0101,-7.97654,156.648,-500.2,-855.952,-31080,-15960,-16940
2.00829,-6.49761,3.74333,-11.7018,-6.17666,4.20516,-10.7724,-0.413964,2.513,6.59207,-3.89699,-1.84377,0.799609,2.18719,-12.5112,-2.45319,150.304,-496.296,-858.392,-30240,-16520,-16240
0.867725,-3.06691,-4.23327,-6.73081,-5.11027,4.30771,-5.89931,4.29405,1.6557,-1.59707,-10.8097,-4.03086,-2.9557,0.555,-10.0093,0.680385,153.232,-496.296,-858.392,-29120,-17500,-15260
6.11075,8.56512,-1.07689,10.796,5.90166,5.41667,7.17468,8.85627,13.3133,0.574557,-2.21431,4.22701,-0.034305,5.6003,12.9871,9.19863,156.16,-496.784,-862.296,-26880,-18620,-14140
1.82062,0.300287,-1.20362,1.41219,0.973062,1.49329,1.57571,3.42276,5.38683,0.541815,4.51716,-0.00292778,1.05822,1.26761,2.94403,3.64737,156.16,-496.784,-861.808,-25760,-18480,-13160
-9.54309,-13.8167,-2.52427,-15.6762,-11.574,-2.64343,-18.1748,-5.95269,-8.34957,-2.56888,8.56392,-7.98488,3.15944,-6.06925,-19.2953,-9.5093,154.208,-492.88,-870.104,-23380,-19180,-12040
-18.4404,-21.7809,-3.84971,-21.0582,-15.0565,-0.646533,-25.2551,-7.93011,-26.1847,-6.04802,5.5504,-12.6116,4.78401,-8.2046,-29.7733,-14.5304,152.256,-491.904,-873.032,-21840,-19460,-10920
-20.0235,-23.6486,-8.87847,-19.3688,-16.0173,0.103559,-18.0529,-4.54096,-32.4117,-9.628,0.906024,-17.0025,0.0197659,-9.55112,-24.6106,-11.7007,154.696,-489.952,-873.032,-20300,-19880,-9800
-8.46929,-14.529,-6.95129,-10.1517,-9.25245,-0.876713,-5.55181,2.93213,-17.6222,-3.10578,1.34913,-11.3526,-1.91825,-6.92935,-9.40254,-1.97309,148.84,-486.536,-876.936,-18620,-19600,-8820
3.6562,0.152749,-1.75121,2.3857,0.050389,2.28848,1.99909,9.8473,1.41054,1.71349,-2.55306,0.498434,-2.86598,-0.740833,1.01499,4.45862,144.448,-481.656,-877.424,-17080,-19460,-7840
2.8788,0.740809,0.412171,-2.14505,-2.16813,3.34131,-4.36303,0.853327,1.95965,0.867765,-2.5533,0.0878728,-0.621207,-2.82989,-7.49833,-5.2301,142.496,-480.192,-876.936,-14420,-19320,-7140
5.47811,6.39267,6.02383,2.28906,4.8213,5.92502,-0.725047,-1.86868,8.02163,3.12967,-0.195514,6.06112,2.95963,3.59992,-3.62928,-0.955931,138.104,-474.336,-879.864,-12880,-18760,-6440
9.22644,14.0495,6.93372,9.34267,11.9005,5.56575,10.0703,1.68003,12.2898,4.93871,0.500334,11.1779,2.5537,6.15419,4.90487,7.01952,131.76,-469.456,-875.96,-13300,-17920,-5880
6.53742,9.34273,5.3826,10.22,11.9365,-1.52433,17.4113,3.59872,6.56281,5.03523,5.19056,7.04955,1.2029,4.83331,18.4098,11.481,129.808,-467.992,-879.376,-14000,-17640,-6160
4.18944,7.03951,2.45763,9.88608,9.24964,-5.17842,18.4769,1.96576,2.58449,3.11694,4.79489,5.2301,-1.77296,2.10626,22.342,10.5331,125.416,-466.04,-882.792,-14560,-17640,-6160
5.60077,5.32557,0.0815277,1.7204,-1.18488,-7.10972,3.09371,-6.03795,7.67781,1.71726,1.35898,2.68783,-4.02784,-3.64496,6.05167,-2.84809,121.024,-466.528,-880.352,-14420,-16940,-6720
-3.30608,-3.74799,-5.44513,-7.43707,-10.4057,-5.77954,-7.74701,-7.48848,3.3431,-6.3043,-4.34999,-6.59494,-6.99726,-7.53324,-2.89094,-8.43279,117.608,-463.6,-883.768,-14140,-15960,-7560
-23.0881,-26.7623,-19.3458,-27.4006,-25.5939,-10.5631,-20.4522,-14.866,-23.6275,-18.781,-9.74433,-26.2857,-12.3939,-18.9652,-22.5335,-18.6541,121.024,-467.016,-879.864,-13860,-15960,-8960
-35.0746,-31.721,-22.355,-26.4929,-22.8425,-8.64567,-16.7525,-10.4738,-34.4234,-24.1833,-11.6616,-29.3295,-11.8714,-15.4747,-16.507,-14.0064,112.24,-465.064,-881.816,-13860,-15820,-10360
-23.7629,-14.3551,-13.4419,-9.23462,-8.1099,-3.93881,-5.94101,-5.01269,-20.3666,-15.5517,-9.38195,-13.876,-6.84792,-5.83195,-5.73611,-4.76253,108.336,-457.744,-889.624,-13860,-16380,-10920
-11.4067,-2.52028,-3.68803,0.987287,0.461047,-1.73149,1.06407,-0.477116,-5.07379,-7.19223,-5.35361,-3.6086,-3.20075,1.17694,3.39392,0.515655,109.8,-466.528,-885.72,-12740,-17080,-11480
-10.9847,2.65789,-1.98324,11.9192,7.96584,-0.30488,14.57,8.35425,-4.98355,-9.54295,-8.63362,-0.59069,-2.86436,6.18088,16.6598,9.38324,108.824,-457.744,-889.624,-10920,-16940,-12180
-0.774212,4.74654,-0.0899039,6.27193,2.08183,-2.091,7.55735,5.20592,5.15153,-1.0547,-4.7921,1.6889,-1.30399,2.0973,8.35416,3.25406,106.872,-460.672,-887.672,-7840,-17640,-12880
5.4435,5.60678,5.00282,3.47542,1.30316,-2.48508,1.76776,-1.37459,8.63924,7.60164,3.33944,5.38633,2.9454,2.36194,2.05972,-1.12407,102.968,-464.576,-884.256,-2660,-18760,-13020
22.5278,24.1342,18.9988,20.4235,16.0198,2.2504,7.2487,0.790871,25.6988,19.4655,12.2572,23.6528,11.6784,12.1096,10.5661,5.02147,106.872,-467.016,-885.72,2520,-20440,-12460
31.3763,29.4885,24.2404,21.6044,18.9851,4.38109,7.16107,1.10762,27.3856,22.4219,13.5935,29.5548,14.8115,13.938,6.49703,5.85916,99.552,-467.992,-875.96,9520,-22400,-11620
27.5331,18.4263,22.9973,12.0039,14.318,6.8816,0.358252,-0.0621032,18.7812,19.9716,14.1458,23.1114,15.42,14.1624,1.90755,4.63474,110.288,-480.192,-874.984,16520,-26180,-9940
14.6363,5.27504,12.2668,1.43887,7.33106,4.52352,-3.48803,-2.5205,0.265949,11.4416,7.43982,10.49,10.1995,7.48268,-7.3245,1.91785,107.848,-471.408,-883.28,22400,-28000,-10080
15.8263,6.35349,7.02773,5.81014,9.30968,5.77325,2.64637,5.09017,6.46877,9.17964,5.06351,8.76369,6.05358,10.4404,1.3814,8.10851,115.168,-476.776,-890.112,20160,-27020,-9380
21.6348,10.3179,6.58727,6.71081,7.4649,3.99416,3.18883,5.62063,13.7729,13.2122,7.53076,10.6919,4.36944,7.76488,-2.53641,7.00925,95.16,-468.968,-888.16,20860,-26740,-9800
20.5473,9.0176,3.48638,2.73839,1.99673,2.67209,-0.960455,3.98939,14.4332,11.9705,8.00708,8.10273,3.55405,3.59482,-5.08117,3.70339,120.048,-472.384,-887.672,23100,-29680,-5880
20.1035,8.94924,3.67993,1.92112,2.32742,4.8357,0.913559,5.40179,17.6838,12.3102,8.81967,6.16231,4.03799,1.87921,-0.243844,4.05768,121.512,-483.608,-898.896,23520,-26740,-7000
9.13924,0.243488,-0.807071,-1.76849,-0.105056,4.04779,4.36697,6.92405,10.3326,5.63075,3.9814,-1.49968,0.993209,-0.947588,3.88945,3.62058,129.808,-487.024,-904.752,22260,-18620,-8960
1.76097,3.40071,-1.30617,6.47132,5.9703,6.82186,12.0546,10.8928,6.04173,0.183387,-0.389788,0.0447089,0.901331,1.33374,15.0864,7.21026,121.512,-487.024,-908.168,20020,-13720,-10220
-11.3608,-5.55556,-4.52651,2.00333,1.99992,5.47359,6.57626,4.91253,-7.14196,-7.91295,-3.63456,-5.85875,-1.26537,-1.21992,11.3474,1.10911,115.656,-492.392,-895.48,20300,-11060,-9660
-21.8026,-12.2154,-12.7347,-5.32215,-6.88502,0.130897,-1.8029,-2.73053,-13.6143,-15.2222,-9.2103,-14.1381,-6.88666,-9.22088,3.94074,-8.86637,115.168,-497.272,-890.112,23520,-11060,-7420
-24.2862,-17.7521,-19.2748,-13.5037,-16.9951,-6.02023,-10.4506,-5.22724,-9.9758,-20.5527,-14.3728,-21.8512,-14.2185,-16.4959,-5.28918,-13.5509,111.752,-502.152,-876.448,27440,-9660,-6300
-25.6407,-23.259,-20.1953,-23.7338,-23.9189,-9.26704,-18.6003,-10.0611,-19.1098,-21.1946,-15.7358,-23.8058,-14.777,-20.1177,-20.7029,-16.9038,109.8,-504.592,-870.104,31640,-8960,-4760
-25.7684,-25.7278,-15.2395,-22.9748,-21.2058,-8.04102,-16.7666,-9.29848,-25.4419,-17.4368,-11.1896,-21.248,-10.5868,-15.2735,-18.2284,-14.044,106.384,-507.032,-859.856,33740,-7980,-3500
-12.2622,-9.1893,-3.91841,-4.27944,-6.27941,-2.97068,-0.977234,-3.51614,-12.1771,-6.03916,-4.89799,-7.31379,-3.52306,-4.65254,-0.0205947,-1.95874,108.336,-508.008,-850.584,36400,-8260,-2240
-14.3414,-6.03069,-2.18666,-0.0827207,-1.10137,0.222909,3.07505,0.249404,-15.5881,-7.17998,-5.25778,-4.42269,-2.20113,-1.0212,1.74633,2.17926,110.288,-508.496,-846.192,38640,-8820,-1120
-18.6288,-10.6816,-5.39469,-2.70632,-3.55477,0.838294,-2.05786,-0.0176449,-18.4637,-11.7771,-7.19029,-8.11177,-4.77982,-1.47715,1.80859,0.334881,107.36,-508.008,-845.216,39340,-8820,-420
-9.12858,3.7009,-1.11719,9.27201,3.91763,0.819222,4.60162,1.01977,-10.2536,-5.52198,-5.20837,2.23745,-2.66576,1.81635,9.18873,4.29332,107.36,-508.496,-842.776,38920,-8680,840
5.36886,12.1527,5.35941,10.706,7.07303,1.1326,6.0961,5.15703,5.7851,4.42949,1.20866,9.88089,1.11716,5.34259,11.0295,7.76772,107.36,-507.52,-841.8,37800,-8820,1680
11.4839,6.44674,7.15737,-1.30301,1.58722,-1.35676,-4.34048,-1.59978,6.4388,11.0918,9.08768,8.30726,4.92709,2.10832,-8.28797,1.49564,111.752,-508.496,-834.48,35980,-9660,2660
17.4641,11.4528,13.6309,-0.727401,5.38192,2.1438,-5.82025,-3.84726,13.6585,18.0959,16.0886,14.2606,12.4025,7.16395,-10.1582,-0.863251,110.288,-504.592,-840.336,35700,-10080,3360
7.99052,4.11765,9.63331,-1.34914,5.40704,1.65167,-4.93762,-4.50593,3.12653,11.5478,11.8154,7.22788,10.8653,6.49305,-10.8604,-0.848571,110.776,-506.056,-832.04,34300,-9100,4060
-6.8382,-4.02986,-1.8596,0.282463,3.15292,-0.958884,4.32135,0.953061,-10.8239,-3.33989,-0.437561,-3.88804,0.0132372,3.02065,-2.48563,4.19381,109.8,-507.52,-833.016,33320,-9100,4340
-8.1783,-4.28172,-5.70398,2.97695,2.8532,-3.94057,11.0486,4.00187,-11.9447,-8.96711,-7.03695,-5.4156,-5.93219,2.24614,5.76536,5.8349,113.704,-510.448,-834.48,32480,-8820,4480
-3.2951,-10.0401,-4.29583,-6.35741,-4.02066,-7.28609,-0.480912,-2.94073,-8.99519,-3.94867,-0.545307,-7.72826,-4.20431,-1.42692,-3.70448,-3.31302,112.24,-515.328,-831.064,31640,-9100,4900
1.86296,-2.2641,-1.07773,-3.78949,-1.43165,-5.95621,0.504484,-3.66417,-0.889657,0.207979,1.4874,-3.11776,-1.66313,-1.50915,-4.44145,-2.55466,111.752,-509.472,-838.384,30800,-8820,4480
7.90062,6.07666,3.81626,5.29364,4.29728,-0.722794,6.63346,2.02866,12.6095,3.47225,1.61411,5.1858,0.769108,3.48237,6.11952,4.34598,113.216,-513.864,-832.04,29120,-7980,4480
19.9616,21.7648,9.42664,17.6182,11.0816,2.4439,14.2346,3.91615,23.8973,11.1768,3.27635,16.7914,3.05233,5.76118,15.5438,6.40365,113.704,-510.936,-834.968,27860,-8260,4340
16.2808,16.4281,7.43149,18.1069,11.19,2.82125,14.1618,6.07951,20.7197,8.68631,3.77797,13.0262,2.59949,6.70154,21.9121,7.54231,114.68,-512.4,-839.36,27720,-7280,3780
6.43718,8.30449,4.58806,12.2342,10.7163,2.05461,9.51835,2.26783,6.6448,1.94303,0.154374,8.38257,2.72684,5.25368,15.066,5.44103,111.752,-506.544,-842.288,26600,-6160,2660
14.6425,8.32401,9.517,-3.95955,0.298947,0.711323,-15.0394,-7.73008,16.9699,8.26999,4.66353,12.0511,6.23652,0.920838,-13.2538,-10.7905,108.824,-505.08,-839.36,24920,-4200,1820
13.1422,-2.56108,4.12878,-20.5149,-13.5692,-1.9651,-28.953,-11.8435,16.0879,7.25563,4.47852,1.04868,3.49783,-7.75457,-30.3193,-20.4632,109.8,-508.496,-843.264,24220,-4200,1120
-3.86129,-7.52955,-4.36234,-9.53447,-8.40159,-1.24916,-10.8493,-2.04017,-0.554023,-5.4102,-5.04668,-7.94619,-1.70181,-5.70929,-13.2736,-5.5398,106.872,-507.52,-841.312,22960,-3500,280
-7.17659,0.641593,-1.09086,8.00419,5.04265,4.81874,9.37201,7.88784,-3.16032,-7.14001,-7.1717,-2.02542,-1.16458,3.39725,9.60741,10.2505,107.848,-509.96,-840.824,22680,-3080,-560
-17.1702,-14.2709,-6.74271,-9.03855,-6.6524,0.922459,-0.515167,4.1498,-18.5936,-11.1173,-6.78458,-12.7802,-3.89579,-3.16604,-2.81292,1.25775,106.384,-507.52,-841.8,22120,-2520,-1540
-19.1832,-18.0734,-10.0528,-15.9109,-13.2089,-0.577174,-6.12811,0.0518538,-21.4479,-11.5838,-6.36753,-16.5342,-5.57091,-8.10131,-7.06102,-5.12969,106.384,-501.176,-844.728,22820,-2240,-2380
-19.209,-13.536,-9.71374,-4.96464,-7.01497,0.387195,1.58356,1.28059,-19.7301,-12.4398,-5.67174,-13.6492,-6.09837,-5.37529,7.42153,-0.409937,102.968,-496.784,-847.656,21420,-2660,-3080
-0.81617,0.466779,-3.328,2.01608,-3.0833,0.241036,-1.63083,-3.45878,-3.65313,2.3185,4.88096,-1.83881,0.0609142,-3.40534,4.15713,-3.44204,99.064,-491.904,-850.096,19320,-2240,-3920
15.92,10.7015,4.36024,6.6869,1.85067,2.52324,-3.39782,-2.23238,17.2146,14.3641,11.3446,8.35531,4.31735,1.5711,4.73605,-1.24644,98.576,-493.856,-849.608,18060,-1820,-4480
11.5178,12.7246,3.13999,13.0279,8.45517,2.72381,4.89399,3.48328,16.1652,8.90505,4.93805,8.99221,2.562,5.08105,10.2852,6.50334,95.16,-487.512,-849.608,16940,-840,-6020
14.2333,11.0016,1.4675,1.25526,-0.649242,-1.84332,-8.39772,-3.72811,18.6748,7.78392,3.84599,7.07332,-0.972854,-1.86363,-9.2453,-3.11971,92.72,-488.488,-846.68,16520,-1120,-6300
9.6416,-9.60659,-8.54793,-26.014,-20.8127,-6.77902,-22.1503,-7.14149,13.0809,3.25366,2.35809,-8.99859,-5.33723,-13.8025,-29.6229,-12.6722,95.648,-487.024,-849.12,16660,-980,-7140
-5.69129,-9.84361,-6.3645,-8.97571,-3.33288,0.0838098,4.45147,4.43944,-8.77858,-5.34544,-6.43281,-8.3003,-1.88475,-2.37561,-5.7098,5.08409,95.16,-493.856,-853.024,15400,0,-8820
-5.09865,8.68753,7.95203,18.5168,18.3092,8.06494,20.0974,11.1694,-7.64045,-0.693258,-4.10951,9.21448,5.91865,13.76,20.3428,15.624,90.768,-488.976,-852.048,14560,980,-9940
-3.14759,13.4753,11.6618,23.7494,21.1284,7.87994,20.9362,9.4492,-7.30899,1.85221,-0.37376,13.9976,7.73239,15.3305,22.797,12.237,89.304,-491.416,-854,14140,2380,-11620
-1.07053,7.68483,5.65048,12.2294,10.6641,3.64929,11.3021,6.864,1.63285,0.88443,0.144386,8.98737,4.06827,7.321,11.7798,5.65474,86.864,-496.296,-857.904,14000,3360,-12320
-5.04573,-5.65873,-3.52741,-0.570864,0.69417,-0.544677,4.66663,2.2426,-3.89655,-1.83706,-0.20919,-2.20116,-1.03054,0.595998,4.28544,2.45829,85.4,-495.808,-860.832,14140,4200,-13020
-18.4763,-19.0233,-9.29665,-7.25006,-3.92346,-2.89748,3.20379,-1.94408,-23.1131,-10.1568,-3.51924,-14.4155,-5.1546,-3.43844,1.9351,1.11479,84.912,-496.296,-860.344,14280,5740,-13860
-6.92808,-5.63841,-3.47222,-1.54368,-1.70246,-3.26347,2.02055,-4.60665,-9.53264,-3.86366,0.445922,-6.24272,-2.25422,-3.78347,1.12472,0.300072,86.864,-499.224,-860.344,15120,6300,-14000
2.59343,4.41952,5.74164,2.72901,0.915973,-0.635077,-0.841545,-6.2631,-0.0363028,3.29934,4.08007,3.92895,3.89488,0.52606,-0.472856,-1.6723,86.864,-499.712,-863.76,15120,6720,-14560
-8.96275,-4.68197,-0.969603,-4.9453,-5.66227,-0.875253,-4.0764,-6.97883,-15.1641,-4.87671,0.204312,-4.47455,1.58501,-4.3299,-7.3177,-3.8742,84.424,-498.736,-867.176,14980,7420,-14980
-6.33683,-4.61942,-6.98527,-1.51789,-4.70763,-1.88352,-2.1131,1.05109,-7.35317,-8.85119,-4.66494,-6.66135,-5.38784,-4.979,0.39742,0.969246,82.96,-498.736,-866.688,15960,7700,-14980
8.09475,7.56636,-1.43881,2.52934,2.38826,1.46901,-1.33681,3.40878,6.58795,-0.877203,-7.92673,4.31546,-4.04304,-0.629315,-4.13873,4.01211,85.4,-498.248,-865.224,16800,7840,-15120
7.41591,1.70842,4.01918,-3.87966,0.00967137,3.95798,-7.45951,1.57129,4.85228,5.83233,-1.69452,3.70205,1.8269,3.92282,-7.72743,0.868098,82.472,-501.176,-867.176,17360,8400,-15120
5.71025,5.27036,2.48587,6.33053,4.37282,2.61852,2.90548,3.31803,5.93561,4.16881,-0.401354,3.67144,0.560441,3.74401,2.70886,3.22535,86.376,-503.616,-863.272,17780,9100,-14840
14.4187,11.1753,6.92106,8.35773,6.13851,1.83969,3.58749,6.71448,18.243,8.83351,3.31003,8.62517,2.03625,4.42031,6.14796,3.35224,85.888,-505.08,-867.176,17920,8960,-14280
7.7984,0.973329,4.33027,-1.73075,-0.255644,-0.179268,-1.86793,3.39745,7.61063,6.33247,3.75031,2.58836,2.50774,1.38407,-0.100799,-1.43437,88.816,-510.936,-874.496,18200,8960,-13860
-3.9423,-3.77856,2.39243,-2.84339,-0.852956,-0.997462,-2.06324,-2.30879,-7.31815,0.358553,4.20521,0.482305,2.87597,1.15869,-1.30033,-4.52736,88.328,-502.152,-871.08,19180,9100,-12600
-1.43701,-6.68431,0.285433,-16.2898,-11.8996,-5.89298,-20.8881,-10.6194,-0.246357,0.767361,4.91544,-1.62012,1.18398,-6.289,-21.7047,-18.8052,91.256,-498.736,-863.76,19460,8400,-11760
-2.65123,-13.1514,-8.80789,-24.073,-19.4777,-8.94234,-23.0901,-12.4247,2.92833,-4.95911,0.0594083,-11.0825,-6.38178,-12.5788,-27.0604,-20.3959,95.648,-502.152,-863.272,19040,8260,-11060
0.765402,-8.22738,-10.2343,-12.099,-12.3417,-7.78203,-6.77959,-7.5909,5.20814,-4.10658,-0.384952,-10.3177,-8.396,-10.7985,-8.42149,-11.5052,101.016,-503.616,-870.592,19600,8400,-10640
-2.79118,-5.25611,-7.18287,0.168598,-2.94063,-3.5604,4.01309,-2.11861,-0.340006,-6.29108,-1.49127,-6.87137,-6.57187,-2.48628,7.97991,-4.08753,104.432,-501.176,-865.712,20160,8120,-10500
1.59479,9.02129,3.79106,12.7972,10.3385,2.02787,11.6857,1.37556,1.12284,0.229004,0.213441,6.04441,0.499893,6.68414,17.5381,4.37058,105.408,-499.224,-873.032,21840,7420,-9660
-0.649551,3.68768,9.38584,5.70702,8.53832,3.63255,4.66217,-0.874414,-2.95673,4.76866,5.58605,5.84822,6.54082,8.20436,7.93098,2.39208,102.968,-494.344,-875.96,22400,6300,-8820
-4.97368,-3.91138,7.44794,-5.85616,-1.33723,0.646435,-7.44698,-8.6513,-9.08819,5.1297,7.00011,1.45932,7.1054,2.30521,-11.307,-7.86986,105.896,-492.392,-872.056,23520,3920,-7420
-2.19568,2.7039,3.24591,2.53632,3.23474,0.239687,0.932831,-1.5375,-1.37305,1.252,1.04509,2.85455,2.07303,1.06228,-2.04836,1.45066,107.848,-490.928,-875.96,24640,1540,-6440
1.95187,6.49375,-1.13314,11.1947,8.39287,1.50339,11.0229,8.76441,7.56252,-2.69721,-4.09745,2.40694,-2.603,3.56953,13.8638,11.6257,111.752,-485.56,-875.472,25200,280,-5740
14.9038,18.3489,1.37562,14.7136,9.75828,-0.763781,10.4624,5.18869,20.9266,4.34907,-3.04372,10.3751,-1.23531,1.68398,11.0577,9.68173,110.776,-483.12,-876.448,25200,-1120,-5600
10.8973,12.2888,2.97903,8.13942,4.30509,0.175408,6.0298,3.3565,17.1223,5.44698,-2.05885,6.79321,1.27433,0.343892,7.6899,6.52855,110.776,-486.048,-877.912,25480,-1400,-4900
1.2631,7.60048,0.379797,8.918,4.81095,1.33408,10.8956,3.91032,4.30233,-1.11447,-4.77217,3.13792,-0.138962,0.936987,7.67463,10.632,109.8,-480.68,-883.768,26600,-2100,-4200
-3.12295,0.596314,-1.1701,5.38476,3.84485,2.84707,12.3609,7.03859,-2.99359,-3.71037,-4.44942,-1.16188,-0.386452,2.2833,10.0844,12.3415,113.704,-479.704,-884.744,28000,-3920,-3500
-9.49555,-8.59138,-3.06507,-5.69547,-3.76908,2.02246,1.9571,4.68072,-12.6867,-8.36134,-4.58226,-7.97238,-1.45369,-1.54437,-1.94997,4.85917,111.264,-476.776,-883.28,29400,-5180,-2940
-13.2537,-13.1832,-4.25422,-12.7891,-9.9764,-1.37448,-6.15956,1.16325,-14.386,-8.72342,-1.2422,-10.1492,-2.01308,-5.09527,-9.86674,-2.3102,110.776,-475.8,-884.256,30100,-7140,-2100
-11.9192,-15.0827,-4.18531,-13.5432,-10.13,-2.04079,-11.7538,-2.67426,-17.1521,-5.16713,-0.66529,-9.49871,-1.12559,-5.83929,-14.3264,-8.12089,110.776,-475.312,-882.304,31220,-7840,-1540
-10.3158,-12.5276,-1.74101,-9.26464,-5.93724,-1.15835,-11.4351,-4.69966,-15.7612,-3.0813,-0.999634,-6.36834,0.125124,-1.69225,-12.372,-7.21934,107.848,-478.24,-884.256,32060,-8260,-840
-8.15335,-3.199,-0.670555,8.60061,6.39466,2.7271,6.46413,1.36193,-13.8406,-1.42057,-1.04489,-0.602145,0.732534,3.35148,10.1553,2.50252,109.8,-476.776,-880.84,33180,-9100,-280
-5.00183,-3.84271,-4.26866,7.43682,5.50438,3.84923,6.57775,5.45287,-6.69548,-2.74997,0.791226,-1.44714,-0.494455,2.80119,13.7922,4.42932,104.92,-476.776,-881.328,34720,-9940,280
-0.11694,-8.96156,-8.66061,-11.1613,-8.31772,-0.166499,-8.6692,1.25532,-3.7105,-1.40659,0.608781,-6.8051,-1.50271,-4.14512,-12.1676,-4.27352,102.968,-476.288,-878.4,35980,-10640,980
8.30628,-2.2371,-2.48249,-12.2248,-10.0621,-0.265484,-17.1207,2.54636,11.027,4.56019,1.7639,-1.85672,-0.0890655,-2.59805,-15.2239,-5.9082,103.456,-483.12,-882.792,36540,-10500,1120
23.0544,20.3417,9.6618,7.29305,3.31108,0.778515,-4.27279,-2.34489,28.3826,16.4421,6.86785,15.4841,5.10219,2.33936,-1.37294,-5.38147,101.504,-483.608,-885.72,38080,-10360,1400
25.5162,32.439,15.4548,26.9158,19.4233,5.14779,11.9502,-3.2777,30.9091,17.9901,9.57049,25.1997,9.59374,10.9411,17.8629,3.13438,101.016,-489.952,-883.28,39060,-9660,1400
4.5661,12.3921,1.58537,11.4234,7.89525,0.655799,5.29527,-3.58178,8.68713,1.91325,-0.23231,6.99775,1.33004,4.73652,6.37372,3.35241,94.184,-492.392,-881.816,39340,-9380,700
-6.20725,-8.02563,-7.79218,-10.6344,-7.39909,-3.69793,-5.0874,-3.95302,-6.96099,-6.03183,-5.96489,-7.78141,-3.73755,-5.38978,-10.497,-1.53868,90.28,-492.392,-878.888,39760,-9380,840
-9.86814,-19.7893,-5.16046,-24.5398,-13.9693,-2.1285,-9.28727,-3.55838,-15.104,-3.27117,-1.45484,-11.7339,0.111075,-7.49847,-16.1223,-5.07209,87.352,-493.856,-878.4,39620,-9100,840
-13.9854,-21.1769,-6.55771,-15.8753,-9.55199,-0.554346,1.75431,1.57872,-19.9254,-6.86652,-3.15731,-14.9553,-2.71144,-4.80315,-2.09264,0.717746,91.744,-496.296,-872.544,39340,-8820,560
-2.70196,-0.457937,0.106784,7.3296,5.14267,2.64507,12.2827,7.29057,-5.58235,-2.14524,-2.46104,-1.17427,-0.788868,2.95279,15.8887,7.78758,95.16,-503.128,-869.616,38780,-8400,140
1.68525,5.58387,9.62812,12.3341,9.02433,5.517,6.17656,3.41939,-0.891977,2.92206,3.95119,7.20783,4.1695,7.13744,11.3997,5.03084,93.696,-508.008,-868.152,38360,-7980,-980
7.15458,11.9194,12.5823,12.9882,11.0035,5.34626,5.05931,1.67349,6.46395,6.60772,6.96062,11.2865,5.46315,8.16097,6.68645,4.78642,95.648,-512.4,-869.616,37660,-7140,-1960
8.724,19.5627,6.79101,19.7633,13.1721,1.94804,9.51311,5.0084,14.5855,2.0055,1.00578,12.9911,-1.11104,7.39598,13.6285,8.6211,94.672,-518.256,-865.712,36680,-6720,-2800
1.11033,7.78479,-4.32577,8.99146,3.27825,-3.71871,2.59053,-0.339302,4.73174,-4.87658,-4.83988,3.69026,-7.08589,-2.33349,6.00523,1.67306,92.72,-519.232,-866.2,35140,-6580,-3780
-2.44593,-5.85144,-9.24975,-11.1024,-9.76544,-4.77456,-6.0678,-5.36726,0.617294,-5.70741,-4.45334,-6.44148,-7.3643,-8.59434,-11.2761,-5.43684,97.6,-521.672,-862.296,34160,-6860,-4480
-6.93673,-13.3916,-12.0095,-16.23,-13.8473,-4.79959,-7.13569,-4.40848,-3.68665,-7.57603,-3.31715,-13.3165,-7.82586,-10.4449,-7.46688,-7.63057,98.576,-525.576,-856.928,32340,-6860,-5180
