5.70211,4.79381,-1.10499,6.64658,8.90405,0.308157,6.96002,1.02748,2.53926,3.64792,-1.73068,8.16471,3.06251,2.75391,10.5801,1.94984,-230.824,-822.28,-521.672,3220,-1260,-3360
2.52359,1.07535,-5.13453,2.06489,2.96084,1.09275,2.7095,0.633197,2.01085,3.02922,-2.23507,2.69548,2.14882,1.6109,6.31393,-2.25934,-229.848,-822.28,-522.648,2940,-1680,-3360
1.42017,3.70543,-2.78127,2.57922,1.554,3.66401,4.06748,2.85456,4.14451,3.52543,-1.09651,2.48405,1.449,1.94333,7.42789,1.34557,-228.872,-822.28,-523.624,2940,-980,-3220
-0.348296,5.00815,1.35548,3.82372,4.59253,3.08485,5.84511,5.64412,2.57615,4.14961,-1.91877,2.83094,1.79429,3.13903,7.3786,5.237,-228.872,-823.744,-523.136,2660,-140,-3500
-2.30313,-3.69636,0.355039,-0.777286,-2.56318,1.49744,2.15247,1.75465,0.339191,-1.07562,-1.33782,0.125736,-0.128492,2.08574,0.834012,0.730236,-230.336,-821.304,-523.136,2520,0,-3360
4.78962,1.48701,8.87623,2.15839,2.77036,1.79687,3.73766,4.73926,5.53549,5.94886,1.41083,4.66984,1.55293,4.23582,1.0638,4.37862,-227.408,-824.72,-522.16,3360,140,-2940
4.19949,-0.949526,4.3909,-1.45428,-4.11487,0.0859529,0.0666265,-0.782677,4.45031,2.84819,3.1665,-0.184479,-0.42745,2.99715,-3.7159,0.301025,-228.872,-821.304,-523.624,3920,700,-3080
2.95653,0.572727,3.63789,0.718974,-1.80261,2.07433,3.11794,0.215703,4.88403,3.35154,2.68217,0.0529178,0.764375,3.9837,-0.585618,1.88037,-231.8,-823.256,-524.112,4340,1260,-2800
4.15003,0.892553,5.04438,1.78161,0.877967,3.32716,2.68992,-0.703874,6.80977,3.70468,2.31701,-0.458901,1.86765,1.68018,-0.61508,1.28237,-230.336,-827.16,-524.112,4760,1260,-2520
2.94933,-0.220328,3.72521,-0.932831,-1.68314,0.991106,-3.09608,-3.20734,4.74081,-0.424377,1.0105,-2.39589,1.31249,-2.53696,-4.40171,-1.34768,-228.872,-819.84,-522.16,4760,1680,-2100
2.96621,5.27511,4.60465,1.06188,3.67507,-0.0582572,-3.41722,-0.674321,3.41054,0.149025,0.571687,0.272641,3.41934,0.00728782,-1.99779,0.949774,-227.896,-820.328,-521.672,5320,1260,-1540
1.78747,3.26201,-0.846732,-0.582242,2.92447,-0.24388,-5.04002,-3.92414,-1.95403,-2.91583,-0.156048,-2.27211,1.52453,0.387426,-1.10488,-1.80484,-226.92,-820.816,-522.648,5740,1820,-1120
-3.67662,0.570294,-5.76261,-2.19426,-0.334116,0.453083,-3.49897,-3.10347,-8.09583,-8.71625,-2.5325,-5.86149,-0.716937,-2.30245,-0.351055,-1.74832,-228.872,-820.816,-524.6,6300,1680,-700
-1.22787,1.64725,-4.34077,-0.762286,-0.16504,-0.318289,-2.18213,-0.960415,-3.88603,-2.66938,-1.15795,-4.16635,-1.75365,-0.377289,-1.45431,-0.537001,-228.384,-816.912,-522.16,5880,1960,0
0.377515,-1.05051,-4.54395,-0.724093,-1.96098,-1.74929,-4.45644,-0.340483,0.352434,-1.60288,-1.41841,-1.07624,-2.34976,-1.25085,-5.21526,-3.17419,-226.432,-818.376,-522.16,6020,1400,560
-4.24016,-5.68986,-3.6687,-4.23833,-3.87588,-4.19995,-9.19204,-2.11756,-3.86703,-2.85262,-1.96786,-1.84803,-2.95918,-3.0115,-11.3518,-8.60868,-226.92,-819.352,-522.648,6160,1400,840
-3.21152,-5.60189,0.0127065,-2.15927,-2.97601,-2.48343,-5.94159,-1.0368,-3.3796,-0.82489,0.877893,0.337291,-2.27667,-2.45983,-8.96686,-6.60436,-232.288,-816.912,-519.72,6160,1680,980
-2.0957,-3.9035,2.63828,1.14532,0.117287,-0.584664,1.26509,4.02145,-2.9759,-0.0115699,0.432729,2.39503,-1.30681,-0.805234,-1.86538,-2.65102,-230.336,-812.52,-518.744,6160,1540,1260
0.290516,-2.99755,2.89136,1.31953,2.76855,-0.931735,2.25152,4.2784,-1.49593,0.795185,0.371955,3.32897,-0.306026,-0.767229,-0.121363,-1.8084,-233.752,-819.84,-517.768,6440,700,1540
-1.27233,-7.25262,-4.24695,-3.37428,-4.26478,-2.3335,-2.74504,-1.4397,-1.7414,-1.38061,-0.277636,-0.608146,-0.834042,-3.13341,-2.61471,-4.97346,-234.728,-815.448,-520.208,6440,700,1400
2.87738,3.72783,0.396094,5.63676,5.75191,0.669322,5.63359,4.59333,3.39882,6.3173,0.577518,5.65443,2.11043,1.20258,8.24743,4.97448,-232.288,-815.448,-524.112,6300,420,1400
0.370729,-0.485598,-4.47741,2.26328,0.989575,0.349741,6.25861,2.63874,0.884008,0.724223,-0.526157,1.77443,0.274981,1.56347,8.36967,3.99179,-233.264,-816.424,-517.768,6160,-140,1540
-6.92206,-0.0237762,-5.57107,1.2791,1.06397,1.36031,8.27711,5.14801,-3.93115,-3.24953,2.12207,-1.90276,1.17286,-0.605936,10.8388,4.64381,-235.216,-816.912,-518.256,6160,-560,1400
-7.2803,3.77979,-4.52089,2.98847,1.58028,3.53122,8.86241,5.70384,-2.60576,-0.563499,5.96798,-2.44154,2.1859,-0.062002,11.5452,4.39725,-239.608,-815.448,-519.72,6160,-280,980
-5.77165,2.66497,-6.11745,-1.7111,-3.87368,1.15413,0.891311,-0.907378,-1.175,-1.55074,1.13152,-4.1633,-0.244241,-2.62869,3.9661,0.0544004,-237.168,-819.84,-520.696,6440,-840,840
-5.99147,-1.79096,-5.24156,-7.37407,-7.77855,-1.49946,-6.01013,-4.70625,-3.88478,-6.22459,-5.2115,-6.5799,-4.18564,-4.21931,-2.48103,-1.26515,-241.56,-813.008,-522.648,6020,-840,560
0.0715068,-0.464004,-0.767735,-9.43301,-7.1303,-2.65231,-8.20596,-4.27023,-2.24775,-2.19293,-7.80627,-5.7859,-5.01808,-3.29818,-7.549,-0.0539226,-241.072,-818.864,-518.744,6020,-1260,560
3.63162,2.19175,3.60218,-6.94425,-4.53816,-2.27829,-5.46787,0.217436,0.939016,0.641926,-5.86508,-2.12965,-3.76676,-2.52822,-6.94335,3.8656,-243.512,-816.912,-516.792,6160,-1820,280
7.59984,5.32099,8.15392,-3.4969,0.058525,-1.24749,-3.33433,2.28199,4.39798,4.46808,-0.238104,3.18822,-0.275833,1.56646,-6.22044,2.68796,-240.096,-814.96,-518.744,6720,-2520,420
7.87235,4.95132,6.67745,2.37192,3.79455,0.73748,0.163276,-2.01223,6.69712,3.15024,0.809902,7.16586,1.33547,5.43937,-1.05948,1.62964,-241.56,-815.448,-516.304,6720,-2800,0
10.5318,13.698,13.0473,12.8619,16.2382,4.22993,8.07378,1.43863,10.9821,10.0874,2.98189,15.4045,4.6505,9.45879,7.16028,7.35146,-243.512,-813.496,-517.28,7140,-3080,-420
3.93553,2.10645,5.40184,5.90684,6.66775,2.01984,3.00441,-6.23986,3.32062,2.31404,2.98247,6.17391,2.15599,3.4477,0.308724,-2.78724,-244.976,-815.936,-514.84,7560,-3080,-560
-2.69149,-7.09633,1.02503,-0.537971,0.594847,0.219997,-0.321802,-6.32142,-2.8577,-3.54644,0.796205,-2.55397,0.51017,-0.243564,-4.57074,-7.24777,-247.416,-815.936,-517.28,7420,-3500,-560
2.10498,-4.67041,1.7579,-1.03903,0.953504,-0.49619,0.192888,-3.30979,2.19989,1.60614,3.7772,-1.85351,2.21978,-0.891566,-7.11507,-4.32233,-243.024,-816.424,-517.768,7700,-3500,-980
0.810977,-9.18999,-1.60434,-4.94218,-6.23283,-1.65485,-3.02289,-5.10057,-0.748244,0.749075,4.30385,-5.43709,0.973273,-3.1452,-10.1315,-5.10374,-243.512,-817.888,-519.72,7560,-3220,-980
1.74495,-3.4597,3.63765,1.40329,0.479262,1.26398,2.17832,1.05403,0.946441,3.84549,3.21361,-0.849155,3.13362,-0.309776,-1.21956,0.44353,-241.072,-816.912,-519.72,7560,-2800,-1400
1.803,-0.168351,2.41638,7.05922,2.96723,1.06912,4.56793,0.651941,3.17543,2.53472,0.592084,1.72562,1.10605,2.16038,7.40658,1.08566,-241.56,-818.864,-515.816,7420,-1820,-1820
0.864454,1.44757,1.73798,8.15289,3.53254,1.03113,3.36388,2.36376,3.22409,1.71633,0.382297,2.0281,0.875248,1.93014,7.82133,2.23288,-243.024,-818.376,-518.256,7140,-1120,-2100
-3.39748,-4.28488,-2.94075,0.893099,-1.51544,-1.04677,-2.52986,3.12347,-3.46929,-2.40432,-0.846408,-3.54111,-0.789548,-0.122357,0.741741,0.111317,-242.536,-819.84,-518.744,7000,-840,-2520
-4.14613,-6.62771,-9.74735,-5.50767,-9.07247,-3.00686,-6.19267,-1.07968,-3.18772,-4.9247,-1.93413,-5.50371,-1.56639,-2.87412,-1.04234,-2.69638,-242.536,-820.816,-517.768,7280,-840,-2800
2.56036,4.99386,-2.89355,3.83179,-0.102116,-0.533799,3.53879,5.06843,3.06144,3.40537,-0.37858,2.62452,2.00751,0.710781,10.2133,6.64283,-241.072,-821.792,-518.256,7280,-560,-2940
-1.0681,2.93862,-5.85206,3.05833,-1.88556,-0.0924134,4.62097,5.17864,-2.07763,-2.01147,-2.56096,-0.43751,-0.136835,-0.213137,10.6392,6.20606,-240.096,-819.352,-521.184,7420,-560,-3220
-10.3504,-2.84702,-11.5978,-2.92392,-4.07482,-1.38719,-0.430971,3.75933,-9.17327,-9.49182,-5.96742,-6.41043,-3.93143,-1.1067,5.19302,2.61213,-240.584,-818.376,-522.16,7700,-840,-3360
-14.018,-0.352867,-9.19724,-2.22293,0.161744,-0.718631,-0.458767,4.29977,-11.5736,-10.5597,-2.25036,-4.50002,-2.80832,0.346437,3.38293,1.61791,-240.096,-817.888,-520.208,7560,-280,-3640
-11.8105,-3.79752,-8.52758,-6.74392,-3.59818,-1.13518,-4.09027,-4.32259,-9.73259,-9.38809,-1.64903,-4.72817,-2.72547,-1.02375,-3.53214,-4.93602,-242.048,-821.304,-516.304,7700,-700,-3640
-1.14811,3.36667,2.27634,-2.81866,4.59337,1.92959,-0.24224,-1.03604,-0.509499,1.45038,0.627175,2.51987,1.28471,1.70091,-2.55852,0.802327,-239.608,-824.232,-518.256,7700,-1260,-3640
3.89801,0.979813,2.59896,-2.18551,0.140771,2.83741,-0.103109,-3.43201,2.13979,2.05354,1.0602,1.99054,1.10139,0.806557,-3.45638,0.359875,-240.096,-822.768,-523.624,7700,-1120,-3640
5.64496,2.59835,5.73333,0.587557,-0.554734,2.37341,1.03981,-1.44742,1.94283,3.6427,-1.70256,2.96048,1.15903,0.789746,-2.05471,0.0330089,-238.632,-823.256,-522.16,7700,-1120,-3780
7.79777,0.2461,8.64619,-1.07331,-3.16266,0.189493,-3.66459,-1.90608,4.0868,5.49818,0.531541,1.74011,-0.494111,-0.666007,-8.9083,-3.27835,-237.656,-823.744,-520.208,7560,-980,-3920
4.74212,-0.426739,7.5024,-1.31693,-2.98539,-1.11405,-8.58808,-0.80564,3.5863,4.26264,0.49319,0.536644,-2.63135,-2.29634,-14.6767,-4.54123,-238.144,-823.744,-520.208,7700,-980,-4060
1.1548,-0.819353,4.19268,-1.43606,-1.47265,-1.68228,-7.41939,0.342285,1.1398,1.65729,-0.669819,0.516117,-1.63472,-1.87453,-9.61442,-5.8487,-236.68,-821.792,-518.256,7560,-840,-4340
5.10454,6.17615,6.18068,3.79527,5.06176,-0.416477,1.28419,-0.905131,6.08428,4.25916,0.714563,4.70424,0.923454,0.909112,2.4093,-3.77869,-234.728,-819.84,-517.28,7700,-1400,-4340
7.13848,11.0396,6.57843,7.46402,9.38378,1.38968,6.57482,-0.543474,9.28648,4.80825,4.68923,7.37245,3.40259,0.943753,8.76175,1.09848,-234.728,-820.816,-514.352,7700,-2520,-4060
5.36411,6.50877,6.39684,2.6003,6.19228,0.543259,3.89868,1.84946,4.94677,5.24387,5.03109,3.86835,3.13602,-0.844769,4.27446,1.1126,-235.216,-821.304,-519.232,7700,-3780,-3780
-1.16226,-5.1058,-3.26952,-8.0536,-6.33451,-1.76018,-1.9045,-1.98558,-1.09864,-3.54111,1.45449,-4.39328,-1.96478,-4.89194,-4.02639,-7.0421,-231.8,-824.72,-518.256,7840,-4200,-3640
-3.30213,-3.2157,-3.03643,-7.36661,-2.3939,-1.4872,-1.78042,1.67255,-4.01494,-3.00039,-1.64033,-4.89517,-4.21638,-3.74989,-3.63101,-4.12718,-229.36,-821.304,-517.768,7560,-4060,-3920
-1.86801,-3.66602,-3.73572,-4.64077,-0.944676,0.601758,-0.0295684,1.91617,-3.34111,-4.48305,-2.42454,-3.13067,-4.4817,-1.29579,-2.52571,-1.06492,-231.312,-824.232,-516.792,7420,-4060,-4200
3.32789,2.77274,0.954665,3.4426,4.79767,2.25127,7.43415,5.65175,3.13407,-0.049326,-1.70909,4.0974,-0.478622,3.77716,6.3586,7.26584,-230.336,-824.232,-516.304,7560,-4060,-4060
3.04616,-0.553726,0.410965,4.24981,2.35184,1.9323,5.90239,2.97994,0.940417,-0.729968,-1.80837,1.302,1.49359,3.69901,5.77051,8.86314,-231.312,-822.28,-516.304,7980,-4620,-3920
2.41474,-3.92907,-2.78583,2.24707,-0.0243759,1.07246,2.44966,-1.43959,-0.458749,-0.249251,0.524649,-1.94948,2.04709,1.64087,3.49129,7.23187,-229.36,-824.232,-513.864,7980,-4760,-3920
5.31323,3.70509,-0.368056,6.95485,5.07804,2.39411,6.08788,1.89995,3.08981,5.46289,2.76284,4.60826,5.48609,4.49403,8.2814,9.04315,-231.8,-825.696,-512.888,7420,-4760,-3640
-3.47906,-3.90849,-5.58507,2.68011,-2.05189,0.303292,1.69514,-2.47933,-4.1265,-2.69694,1.76749,-0.830013,2.46138,1.53631,3.07098,1.34455,-231.312,-827.648,-519.72,7840,-4480,-3640
-11.4186,-2.28538,-2.77258,3.04844,-0.814571,0.380882,1.10526,-0.458096,-7.88276,-3.99734,3.75881,-1.94091,3.86527,-1.12074,1.73276,0.266396,-229.36,-825.696,-515.328,7700,-4620,-3220
-11.4662,-4.82229,-2.73552,-1.18732,-2.30639,-1.12797,-4.05927,-1.55228,-8.03835,-2.35255,0.487314,-5.01273,2.54479,-2.65857,-3.55804,-2.80552,-232.776,-825.208,-518.256,7700,-4340,-3080
-9.51434,-8.94904,-5.23802,-6.83194,-5.5458,-3.60928,-8.9925,-3.82268,-5.78841,-5.7477,-2.23456,-5.65401,0.969705,-3.59227,-9.72239,-4.89794,-229.848,-828.136,-518.744,7700,-3780,-3080
-3.98452,-8.08748,-5.45492,-7.28623,-5.17356,-4.97649,-10.1562,-2.25061,-2.69951,-2.86612,-2.52559,-4.20304,-0.731462,-2.12179,-10.6504,-3.08453,-229.36,-829.112,-513.376,8120,-3500,-2800
-0.0911236,-3.45015,-3.11483,-4.81093,-3.47849,-3.89202,-5.73737,1.03986,-0.47917,1.12771,-2.81667,-3.29109,-2.41486,0.857618,-3.11222,-2.03089,-232.288,-830.576,-510.448,8120,-2940,-2800
3.70597,4.59156,0.0671149,1.14388,2.11156,0.0535395,2.34741,2.72169,3.3816,5.98798,0.695309,1.75728,-0.567151,2.80798,5.93257,-0.906897,-236.68,-827.648,-514.352,7980,-2100,-2800
2.41742,2.80088,-1.6318,-2.32657,-1.37255,-0.935326,-0.0817616,-3.64455,1.4939,5.92821,0.476264,0.221797,-3.41149,-2.00414,3.10379,-2.72071,-235.216,-828.624,-517.768,7980,-1400,-2800
4.72299,1.9476,0.19086,-1.85842,-3.41029,-1.1022,-0.525474,-6.54021,4.20931,4.05329,-0.0618336,3.69357,-3.15067,-1.82009,2.63155,-1.65014,-235.704,-825.696,-510.448,8120,-1260,-2660
9.55475,11.9535,8.31346,9.8421,9.08992,1.96607,7.53574,2.46623,9.15064,8.19841,-1.26722,10.6625,0.0439923,4.70613,8.03331,6.20184,-235.216,-829.6,-513.376,8540,-1820,-2240
2.81178,1.82722,1.71989,5.66043,1.44664,1.35526,4.02366,1.48446,1.90182,-1.81387,-3.2214,2.93914,-1.97055,3.41587,2.75643,0.0723095,-237.656,-828.136,-509.96,8400,-1120,-2240
3.59556,6.67692,5.5616,9.56742,5.16432,3.06992,5.89031,6.95595,5.01226,-0.310657,-2.59719,6.72362,0.395279,1.81872,7.02203,2.73225,-238.144,-829.112,-513.376,8260,-700,-2100
3.9175,8.31588,7.80821,9.00495,5.91783,4.28437,4.00081,4.64514,7.32402,1.03136,-1.69646,5.76179,0.942349,0.255108,6.6959,1.60073,-240.584,-827.648,-511.912,8120,-420,-2100
3.7249,4.30163,6.50453,4.88972,1.75856,4.37924,0.497353,-0.406162,6.47976,0.688309,3.51263,1.22725,0.798074,-0.0626669,1.94509,-1.4709,-242.048,-827.648,-515.816,8120,-420,-1680
4.53771,3.05912,3.09582,0.38204,0.165043,2.43283,-2.23564,-3.56545,6.91445,2.48934,4.30272,-0.697788,-0.246969,0.651299,-4.28149,-2.60703,-242.048,-826.672,-511.912,8120,-560,-1540
-2.81237,-2.87195,-1.53711,-5.31471,-3.50392,-1.81425,-6.95652,-6.13346,-0.528309,-3.57963,0.163072,-5.81118,-3.5912,-1.62187,-10.3471,-5.60386,-244,-828.136,-514.84,8400,-980,-1540
-15.3025,-9.51179,-5.17618,-8.34449,-6.51913,-3.39504,-6.55216,-5.86614,-12.0022,-11.7726,0.357348,-11.021,-4.91836,-2.06715,-10.5604,-6.866,-245.952,-824.72,-509.96,8260,-1120,-1260
-15.6187,-6.99168,-1.89349,-6.42906,-2.77528,-2.30198,-3.18593,-1.41243,-13.6755,-7.60428,2.03714,-7.50617,-2.00192,0.0492255,-5.11722,-3.26801,-243.512,-822.768,-508.984,9240,-4200,-700
-10.234,-10.6966,-6.85409,-8.21712,-8.86985,-3.08978,-4.56569,-4.15326,-9.65163,-9.45242,-0.191874,-5.33372,-1.80109,-3.14846,-5.50303,-4.35489,-244.976,-823.256,-506.544,10080,-4480,-420
4.86142,-0.756511,-1.84891,-0.625213,0.762557,-0.297978,2.5767,0.844578,0.450341,-1.55268,-0.284983,1.66438,1.45622,0.0712882,0.15993,2.61859,-244.488,-822.28,-507.032,10500,-5180,-280
6.03568,-2.68635,-7.30246,-5.25485,-3.39849,-0.768983,1.20718,0.746115,-0.72118,-1.07466,-2.9854,-2.51379,0.720874,-1.47595,-4.08837,0.00156072,-243.512,-825.696,-507.52,10220,-6020,-280
2.04306,-3.71139,-7.0042,-7.15246,-3.81212,-2.03633,-0.828173,1.575,-4.44886,1.14854,-5.18774,-4.23147,2.43228,-3.05375,-5.71518,-1.16398,-244,-823.744,-508.984,9940,-5460,-420
2.41418,1.02027,3.51201,-1.06034,1.56833,-1.65196,0.886033,2.15268,-2.48656,4.6054,-2.16925,-0.488085,4.23324,-2.04629,-0.696675,1.49482,-244,-824.232,-510.936,8960,-4060,-980
3.93205,2.999,8.75572,4.70316,4.95857,0.214625,4.654,4.29818,2.06541,3.90258,-0.0584948,2.90574,2.87415,1.04721,5.64011,4.38209,-242.536,-823.256,-513.376,8820,-3920,-1400
6.76502,6.3734,10.7646,6.86731,9.86134,2.23152,7.25898,9.94054,6.77221,7.74967,1.5394,6.37506,4.77742,2.78184,9.13386,9.18381,-241.072,-825.696,-511.424,9380,-4900,-1540
1.3577,-4.51767,0.0520105,-3.74459,-0.212606,0.505195,1.53445,3.08016,1.97813,1.22461,0.644819,-1.52149,0.214545,-1.99603,0.61068,2.32678,-242.536,-825.208,-512.888,9940,-4900,-1680
0.615023,-0.767228,1.47194,-3.10873,0.218358,1.35075,1.22073,1.24485,2.55352,0.829622,2.64021,1.38757,-0.628125,-2.03556,1.8512,3.71681,-241.56,-828.624,-512.4,9800,-5180,-2100
3.37699,3.85992,3.07936,-0.266861,1.31792,2.08403,-0.271716,-1.46475,5.77844,5.00325,3.37408,3.99835,-0.455506,-0.0428723,2.07394,2.00306,-241.072,-822.28,-513.864,9100,-6580,-1680
-0.0106826,0.669616,-1.33796,1.29838,-2.24908,1.62747,-2.45932,-1.19324,-0.136963,-1.14675,1.78844,2.43118,-0.16339,0.624622,1.20344,-0.446763,-236.68,-823.744,-511.424,8820,-7560,-1820
-3.22302,1.36301,-3.68834,3.36582,-0.622027,1.83202,-1.40588,0.648846,-5.48116,-3.2024,0.626475,3.03839,0.882285,2.43604,3.70407,2.3355,-238.632,-823.256,-515.816,8260,-7560,-1820
0.0850895,4.38529,-4.2814,5.07253,1.05554,1.44844,1.42431,0.384202,-1.81952,-0.386945,2.03912,4.97142,2.12704,3.46394,6.21458,4.2732,-237.656,-824.232,-511.424,7840,-7140,-2100
3.10025,3.30417,-1.62772,2.80174,0.0568569,1.39721,-0.713062,-0.10182,2.66675,4.84616,2.83306,5.94258,3.39911,4.19584,2.44919,4.63529,-235.216,-825.696,-513.376,7280,-7140,-2100
5.55975,7.04458,4.31038,5.24277,5.72856,3.99985,2.04297,3.24003,5.53462,8.91241,3.77356,7.07596,3.2472,5.13193,2.64228,5.70029,-236.192,-823.744,-512.4,6580,-6580,-2240
-1.23276,3.15823,-0.68111,3.15122,2.31621,0.842856,0.654345,-1.33402,-1.676,1.09983,-1.03834,0.418961,-1.61631,1.01901,0.953991,-0.0932636,-234.728,-823.256,-513.376,5880,-6720,-2240
-2.70852,5.6444,0.913624,5.75051,6.23487,-0.588461,3.25364,-0.0803473,-2.82375,0.510555,-4.22885,-2.30275,-3.29734,0.260566,4.19506,0.401584,-234.24,-828.136,-512.888,5180,-7280,-1960
-4.03142,-3.65053,-4.76275,-1.40584,-3.69153,-3.35311,-1.24451,-6.06792,-4.02104,-5.19438,-3.72868,-7.35513,-5.08223,-2.11585,-1.81558,-6.81469,-236.192,-820.816,-513.376,4620,-8400,-1120
0.0783814,1.63873,-0.964996,1.83309,-0.904516,-1.16135,1.73033,-3.78274,1.49253,-0.501608,-0.857484,-1.13742,-1.62777,-0.706707,0.383449,-3.70684,-238.144,-826.184,-514.352,2800,-9940,-420
1.56684,-2.22256,-1.88479,-0.187724,-3.69931,-2.76417,-2.57142,-5.43211,2.67074,-0.890941,0.331995,-3.19474,-2.67654,-1.86691,-3.34308,-6.36332,-239.12,-827.648,-510.448,1540,-11340,560
-2.94372,-7.82059,-2.07659,-6.31568,-5.85803,-5.38683,-8.84558,-7.35845,0.566186,-4.29115,1.88635,-7.39886,-2.1496,-4.09129,-10.3798,-12.3201,-238.144,-819.84,-511.424,840,-12320,1260
-8.76055,-7.27274,-0.949693,-7.43209,-2.31229,-4.53297,-5.78884,-2.40428,-3.12141,-5.37881,4.15125,-5.9459,0.371089,-3.06554,-9.79812,-8.79552,-234.24,-833.016,-508.008,1540,-13440,1820
-12.7003,-12.9601,-7.86001,-9.7664,-5.47805,-4.63637,-4.72278,-0.0281075,-9.26135,-11.0876,-3.04602,-8.88095,-3.0712,-2.52326,-8.63534,-6.89265,-233.264,-822.768,-507.52,3360,-12600,1540
-6.06507,-8.64741,-7.47633,-5.96308,-5.57155,-2.9861,-1.99424,2.17938,-3.20035,-10.0727,-6.01567,-6.0146,-3.55556,-1.85834,-4.56029,-4.66044,-229.36,-828.624,-508.984,4340,-13020,1260
3.80112,-1.33737,-0.975227,-0.933464,-1.37001,-1.92479,1.36424,2.82621,4.84052,-1.6601,-5.71537,-1.06429,-2.23467,-1.45182,-1.19968,-1.79457,-234.728,-837.408,-509.96,6860,-11900,420
9.24791,4.44504,3.81917,4.66573,0.40639,2.14067,4.33581,3.93193,10.5453,4.81997,-1.43278,3.84105,1.33596,1.48715,2.68005,0.334874,-232.776,-824.232,-506.544,6300,-11340,280
12.4805,11.192,10.5902,9.28646,7.71741,4.83888,5.53021,6.61188,13.154,12.9465,2.48691,8.74125,5.65356,5.08982,6.20234,3.12335,-234.24,-825.696,-511.912,6440,-11900,280
5.45927,3.50133,7.47116,2.54597,2.61183,3.58162,1.91337,2.23737,5.39736,6.55281,1.30875,2.89526,3.45786,1.69794,3.28615,1.45546,-232.288,-825.208,-512.4,5880,-11480,420
1.84597,4.50899,9.13071,1.86748,3.33053,4.9885,4.96668,1.56121,0.41226,5.82369,0.143332,4.43154,2.62573,1.559,5.68809,7.85894,-235.216,-829.6,-516.792,5320,-11480,560
1.71373,6.51719,6.49515,2.00135,4.32291,4.80276,5.39467,1.64885,-0.75604,4.32535,-0.208253,5.31461,2.20855,2.07853,6.16539,10.2488,-237.656,-828.624,-519.72,3920,-10500,980
0.0188386,3.3546,-0.277872,1.92483,2.54507,3.3988,3.81053,1.91967,-2.72793,0.358539,-0.101889,3.03167,1.78705,1.42721,4.74259,8.60326,-240.096,-828.624,-519.232,2660,-11200,1540
-0.969128,1.81182,-0.716385,2.83129,2.75539,2.78546,2.19048,5.20099,-4.55135,0.267491,0.0339553,3.23929,1.87141,0.47144,2.65912,7.94056,-240.096,-828.624,-513.376,1120,-11480,2380
-3.23187,-6.86061,-5.73026,-5.08249,-7.16983,-0.572376,-9.03674,1.04538,-6.51369,-3.73876,0.757405,-1.6915,-2.12198,-3.69051,-10.0363,1.44727,-237.656,-837.408,-522.648,1120,-12880,2940
2.70167,0.0601419,-2.06127,0.261929,-0.809963,-0.278618,-6.42446,2.53849,0.190016,1.05155,2.95851,4.11896,0.134717,-1.89492,-3.87333,4.22358,-240.584,-817.4,-507.52,1540,-12740,3360
1.47062,1.37255,-3.18657,2.71686,2.8183,-2.37587,-4.31776,-1.2496,1.62372,1.77435,4.99373,2.42709,-0.815738,-1.15332,2.91554,1.26727,-243.024,-834.48,-514.84,2660,-15400,4480
-8.7747,-2.43391,-4.10092,1.96601,1.89615,-3.037,-2.57717,-7.30836,-4.4134,-3.10149,6.66763,-3.03317,-1.53591,-2.48574,5.76337,-1.52728,-242.048,-832.04,-513.864,2800,-12180,3920
-12.086,-3.97698,-4.07039,-0.798428,-0.254608,-2.95824,-1.45996,-7.08015,-8.654,-5.27434,-0.67836,-5.85273,-2.90123,-1.24344,2.825,-3.63927,-239.608,-812.52,-507.032,2940,-12460,3780
-8.35328,-6.59153,-4.98053,-4.72162,-3.47203,-1.86317,-0.366044,-5.17622,-8.62304,-9.62471,-6.59632,-6.20658,-4.25153,-1.63984,-2.51154,-7.1649,-230.336,-830.088,-512.4,2800,-13300,3640
-3.64909,-5.84657,-0.160984,-6.79311,-4.75209,-0.627449,-0.232779,-3.92143,-7.41431,-5.5285,-4.75673,-3.15724,-2.56677,-2.69028,-6.16359,-6.50442,-236.68,-833.016,-508.984,5320,-11200,1540
1.71586,-1.54553,4.09867,-3.7401,-2.7711,0.443944,1.25959,-2.15403,-1.65688,1.08888,-1.42708,0.187086,-0.0727964,-0.420942,-4.03343,-4.82445,-241.072,-821.792,-507.52,7280,-8680,-140
4.63273,-0.734119,3.5459,0.123723,-0.987026,2.20749,4.58795,0.0555985,1.44705,2.61517,1.55285,1.19468,0.62572,3.08507,2.27575,-2.37868,-242.048,-821.304,-508.984,6860,-8120,-420
9.25489,5.95614,6.79584,3.55105,4.74419,1.11237,4.68013,3.86444,5.02715,6.30169,2.20424,5.89542,2.37363,4.59981,6.01354,1.8553,-243.512,-824.232,-510.448,4760,-8680,-700
5.83371,-0.997409,-1.34941,-4.34062,-3.6797,-3.41243,-2.79783,-3.89697,2.36202,0.734007,1.10455,0.542201,-0.461703,0.184884,-1.93107,-4.97194,-241.56,-822.28,-507.52,2660,-8540,-700
3.2802,1.64755,-0.583488,-2.80127,-0.851336,-1.53313,0.158243,-0.823793,2.10671,1.21844,-1.0462,-0.279397,0.726763,1.82248,-3.09813,-2.05593,-247.904,-822.768,-509.96,560,-8120,-700
-1.63212,-2.63969,-3.46516,-3.60585,-1.94192,-1.72503,1.47658,-0.238479,0.00114091,-4.45172,-3.22577,-4.32656,-0.102605,1.48717,-2.56163,-3.42652,-247.416,-824.72,-508.008,-1540,-9520,280
-1.64546,-2.85112,-2.27475,-3.22209,-0.849177,-1.15911,2.03304,0.453594,1.02715,-3.45508,-2.26558,-5.22473,-1.85866,-1.53166,-1.73166,-0.204582,-243.024,-818.376,-506.056,-2240,-11200,420
2.31663,4.64106,4.82849,2.58564,3.61522,1.12781,5.03291,2.24197,6.38598,1.50927,1.92726,0.52135,2.36365,0.719659,1.84453,4.48724,-240.096,-827.648,-507.032,-840,-13160,420
2.23455,4.60199,5.96101,2.93298,2.67632,-0.130139,2.09368,1.2476,5.58194,1.61372,1.67637,0.0399765,1.49627,-0.543384,1.34172,2.72223,-241.56,-825.696,-510.448,1400,-11900,-700
5.63294,7.28455,5.25007,5.78826,4.03689,0.81619,2.3112,4.55026,9.88492,2.93428,2.3782,3.0414,3.54246,0.210823,3.04215,6.86077,-245.952,-828.624,-506.544,4060,-11760,-980
6.56164,8.82944,1.61465,9.73012,7.0972,1.84092,3.79995,6.5777,11.5866,5.38229,0.820107,4.32507,4.49803,3.61556,6.57486,9.40055,-240.584,-824.232,-507.032,5040,-12740,-1120
0.689389,4.03265,-4.87286,7.00194,2.12047,1.06599,1.05556,3.27369,4.92468,0.405871,-2.14281,0.563774,1.74648,1.80554,4.86586,6.32557,-241.56,-828.136,-513.376,5460,-13020,-1680
-1.86827,5.13644,-2.77404,6.17686,2.54262,0.166141,-1.45053,3.63683,0.0950929,3.28812,-2.51616,1.1956,1.52774,2.62576,0.726156,6.27643,-245.952,-823.256,-509.472,5320,-10780,-2520
-0.247957,0.817117,-3.17128,3.03793,-2.49534,2.29308,-5.14518,0.243619,0.226086,3.20258,1.59662,2.55958,1.57828,1.23746,-5.50552,2.1905,-245.464,-826.672,-510.936,5740,-12040,-2240
0.258044,-0.952827,0.213423,1.03156,-1.07773,4.43722,-7.39246,2.80968,0.791493,4.88053,3.1467,4.31259,1.31251,-0.214609,-7.52408,1.91395,-243.024,-825.696,-516.304,5460,-12880,-1820
-3.26959,-7.26511,-3.1184,-2.32381,-2.75813,1.87516,-8.50704,1.00121,-4.15846,-0.675945,-0.466755,0.117422,-2.72901,-2.12053,-3.37411,-3.60984,-243.024,-819.352,-511.424,4620,-11340,-2240
-6.54866,-12.455,-11.7077,-7.08489,-8.32011,-1.60336,-7.19129,-7.15792,-8.09652,-5.76523,-2.112,-4.0577,-4.43086,-3.73089,-2.91437,-9.29475,-243.512,-826.672,-511.912,4760,-10780,-2660
-0.231741,-2.12494,-4.99775,-0.834747,0.671418,-0.663507,0.741578,-7.43114,-3.78894,0.967909,1.24194,0.778678,-0.046164,-0.798513,3.32653,-5.03205,-240.584,-826.184,-511.424,5180,-9940,-3080
-0.472427,-4.7558,-4.77889,-6.8895,-4.15036,-2.31072,-2.12674,-10.2637,-7.97529,-1.86147,1.16361,-2.41461,-1.43344,-4.11891,-1.95811,-9.76317,-242.048,-823.744,-512.888,6020,-9380,-3080
-0.84881,-0.852519,0.813088,-6.72028,-1.27099,-0.518246,-1.71468,-2.18335,-8.21856,-1.12617,0.423089,-2.35164,0.805594,-3.2325,-3.97016,-5.80561,-244.488,-825.696,-510.448,6580,-7980,-3360
-0.435642,-2.39174,2.0112,-5.78564,-0.628676,-0.109727,0.473579,2.77626,-6.89967,-0.405879,0.269683,-3.10318,0.8443,-1.58538,-3.30396,-4.82525,-243.512,-824.72,-514.352,6300,-8260,-3640
-9.01399,-8.25834,-1.95674,-9.47859,-4.88,-3.10568,-0.554672,2.37136,-13.0436,-7.06261,-2.70903,-8.39395,-4.41656,-4.26229,-3.96293,-6.49682,-244.976,-820.816,-515.328,5460,-7980,-3500
-14.9526,-5.1874,1.16484,-5.90621,-1.56079,-4.64328,2.58773,3.5687,-14.4122,-7.96717,1.51588,-8.5247,-3.30541,-2.31562,-0.471262,-3.78739,-244.488,-822.768,-514.352,4340,-7980,-3500
-17.0858,-8.31812,-2.07941,-5.36821,-4.69905,-4.10851,2.40544,1.7975,-13.3423,-10.1743,-1.10982,-9.90305,-5.74184,-2.58402,-1.32018,-3.9634,-244.488,-821.792,-513.864,3780,-7140,-3780
-3.01423,1.19982,6.59007,5.45081,3.12984,0.955327,6.88003,4.80822,2.72663,-2.48908,-2.24095,-1.2105,-3.4224,1.86407,6.26142,4.68661,-245.952,-822.768,-512.4,4200,-6860,-3780
9.63575,9.30585,13.5719,10.419,7.52873,2.18335,8.68506,4.5993,15.8758,3.61548,0.115956,6.07633,-0.55049,3.74857,8.38129,8.67965,-243.024,-818.376,-513.376,4760,-7700,-3640
13.9683,10.9686,11.4094,10.3471,6.60377,1.51719,8.04007,0.757793,20.2989,5.63061,0.560948,8.24723,1.32243,5.00171,8.54515,8.19476,-245.952,-822.28,-512.4,5180,-8120,-3640
11.3948,12.3221,9.80081,9.77248,8.38801,0.975705,4.54761,2.14403,15.7062,7.9512,-0.18332,7.47481,2.91607,4.81313,6.20856,8.07048,-245.952,-820.328,-513.376,5880,-7700,-3920
6.54078,4.60099,1.65013,3.80486,0.260668,0.447734,-1.49281,-1.2933,8.86718,0.96584,-0.440186,3.47192,-0.164708,2.18638,1.39656,2.27445,-245.952,-823.256,-511.912,6580,-7980,-4060
7.73875,8.12894,3.00075,6.32903,3.63429,1.9562,0.715681,2.32121,10.0078,4.442,1.73518,7.93874,1.74743,2.62008,5.01185,5.33436,-246.928,-826.672,-510.936,7840,-8540,-4200
9.37212,4.68039,0.301066,2.79343,0.00856739,1.69252,-1.42045,-1.41906,8.64951,6.40555,3.27797,7.54669,2.82156,1.42189,2.17158,1.66355,-244.488,-822.28,-516.792,8400,-9800,-4060
10.1314,7.76282,0.871503,5.09179,2.11064,2.68575,1.21955,-0.240801,8.63029,10.11,3.77427,10.6286,5.7768,3.39166,3.92031,5.12587,-246.928,-823.744,-518.256,8540,-9940,-4060
3.17181,0.699883,-4.70155,0.146973,-3.11769,-0.214267,-2.31323,-4.54462,1.70756,4.24921,0.201009,4.27164,2.59288,1.01011,-0.366211,0.607882,-245.952,-824.232,-513.376,7140,-8120,-4340
0.224728,-4.83632,-6.85619,-3.31531,-3.89295,1.06361,-4.33783,-5.85803,-2.44745,0.902297,-1.45604,-0.618826,0.585181,-0.528474,-3.92737,-3.14153,-249.368,-823.256,-512.4,6300,-7560,-4480
-7.3765,-7.50748,-7.25718,-5.664,-2.99973,2.51924,-5.06806,-3.34489,-10.1987,-4.60729,-4.62773,-3.60401,-1.29828,-2.98539,-5.7392,-1.57381,-245.464,-827.16,-512.4,5600,-7700,-4060
-6.16048,-4.53162,-3.81982,-2.54031,1.72675,2.16525,-0.316492,1.05792,-9.3443,-4.40122,-3.83644,-2.00576,-1.63995,-0.668523,-3.07306,1.28684,-245.952,-828.136,-513.376,5880,-8680,-3920
-12.852,-12.4471,-7.42836,-9.73477,-6.36237,-1.5893,-4.15473,-3.18692,-15.524,-10.8651,0.251393,-7.31499,-2.3865,-3.52592,-9.12758,-4.66131,-244.488,-822.28,-508.496,6020,-8400,-4060
-13.7214,-11.8097,-2.9081,-11.8161,-6.29263,-5.03994,-7.94289,-5.39317,-15.0474,-5.97692,1.92699,-8.1681,-1.18886,-5.62694,-12.8487,-7.85826,-242.536,-823.256,-506.056,7140,-9380,-3920
-5.85376,-7.56328,-2.53029,-9.1908,-5.8597,-4.82647,-7.21056,-5.49046,-5.56722,-4.42337,-0.908443,-6.45998,-2.16567,-5.66073,-11.5276,-9.38258,-242.048,-825.696,-506.056,7000,-9100,-4200
1.84695,2.13592,-0.202871,-3.86859,-0.204802,-2.23043,-1.83541,-1.38555,3.37128,-0.44704,-1.15691,-1.45142,0.13147,-3.59968,-5.44144,-4.24263,-244.488,-831.552,-508.496,7140,-7980,-4620
4.86169,2.43231,-1.59023,-2.65807,2.07924,0.237802,1.6796,2.39684,3.28891,0.701165,-2.45927,-0.621312,2.24086,-0.974494,-1.42686,0.218157,-245.952,-824.232,-504.592,6440,-7840,-4900
0.875431,-0.127459,-4.89942,-2.90842,0.715496,0.165008,2.30055,1.51621,-0.887759,-1.64994,-3.96836,-1.33954,0.171548,0.754076,1.74128,1.19524,-243.512,-830.088,-509.472,6300,-8540,-5180
-2.45302,2.42743,-1.4934,1.79938,4.96583,1.01177,4.18237,5.89994,-2.36711,-0.37372,-3.21118,0.176961,0.124108,3.4353,5.96303,4.23353,-244,-826.672,-509.96,6020,-7700,-5320
-2.30041,-0.313625,-1.29514,2.22323,1.6681,1.37423,4.20485,2.02327,-3.30432,-1.75652,-0.577688,-1.86323,0.728363,3.19328,5.06384,1.20554,-244,-829.112,-506.544,6020,-8120,-5040
1.52198,5.78625,1.90857,9.29842,6.94357,3.35138,10.0334,6.49414,2.02246,2.46314,1.30535,1.65487,3.72196,4.12561,12.1078,6.66341,-242.048,-829.6,-509.96,6580,-8120,-5180
1.9443,0.486971,0.000386259,6.68494,2.33238,0.489059,6.15412,4.54883,0.71033,1.41881,0.704716,-1.90268,1.77749,2.05601,6.68002,3.79384,-242.536,-830.088,-511.424,7000,-8120,-5460
5.36026,3.67742,5.82316,9.41782,3.7138,0.633787,4.70451,2.99072,4.68259,4.73797,4.84785,1.27491,4.92047,2.04026,8.10162,5.62532,-244.488,-829.112,-508.008,7140,-8400,-5320
-1.61292,-1.19286,5.2117,6.05944,1.55787,0.102148,0.956632,3.07676,-2.48582,-0.901762,0.0587937,-1.12366,2.33793,2.03379,6.38514,5.72354,-244,-830.088,-508.008,7000,-8960,-5180
-6.23566,-5.43523,1.51598,-0.8066,-5.63177,-2.56474,-5.43003,-0.754887,-5.62523,-6.15803,-1.44721,-5.49616,-3.32373,-1.29812,-1.47523,-1.08307,-244.488,-826.672,-508.984,6580,-9800,-4900
-1.34362,-3.4146,1.37235,-3.68233,-7.6701,-2.88209,-12.0353,-1.60967,1.05459,-1.809,3.18923,-4.57399,-4.85492,-1.81223,-9.45001,-5.62044,-242.536,-825.208,-507.52,5880,-11060,-4060
0.0152557,-2.49887,2.47805,-5.27025,-6.51857,-3.24621,-15.7785,0.380865,1.44315,2.60655,4.30555,-3.70911,-5.93251,-2.76704,-14.7222,-11.0601,-239.608,-831.064,-509.96,4900,-11480,-3780
1.35564,-2.89151,0.288396,-4.6806,-8.38905,-2.24424,-11.6122,-2.4849,3.73711,3.51998,7.28349,-2.69905,-6.27525,-4.06716,-7.89734,-17.7765,-239.608,-825.696,-508.496,4060,-10500,-4060
8.7413,9.22104,7.63361,6.31802,4.85513,1.51982,3.31839,-0.733647,11.4321,11.6524,8.43255,6.6799,-1.71944,0.0829253,7.53919,-10.089,-242.048,-829.112,-508.496,2800,-10360,-4200
9.06857,8.97044,2.38095,8.28359,6.88237,2.07782,9.51509,-6.28144,11.4294,5.39672,5.58024,7.50034,-0.923645,2.24141,13.0103,-2.44214,-239.12,-827.16,-509.472,2240,-9800,-4200
8.67959,12.0635,1.20578,10.724,11.3873,5.74107,14.778,-0.264675,10.236,5.45073,4.22915,10.5901,2.82088,6.77204,14.6922,9.58348,-241.56,-830.576,-507.032,2380,-8540,-4900
9.34336,9.40524,-0.875455,5.27588,7.88739,5.49286,10.054,2.43937,9.11288,5.37922,3.01766,9.19424,4.26202,6.30684,7.17894,8.43203,-243.512,-830.088,-508.008,2800,-8120,-5040
5.53961,6.50627,-2.11318,1.59427,4.07565,3.25341,4.95192,1.65606,6.30468,3.30758,-0.651779,6.30223,3.90842,2.96034,1.99691,7.55865,-245.464,-827.16,-502.64,2940,-8260,-4900
-2.77287,0.677486,-0.853712,-2.97247,0.962741,1.6325,0.659195,3.38502,-3.56208,0.00848691,-5.11378,1.39142,1.68084,-0.655452,-4.35484,7.22905,-244.488,-824.232,-506.056,3500,-10220,-4480
-0.821656,-3.7264,0.179882,-8.32901,-4.46306,-0.26237,-3.52156,1.54686,-3.36594,-2.45569,-3.9148,0.690917,-0.228366,-3.45635,-10.9703,4.08017,-244.488,-823.744,-503.616,3920,-12040,-4060
3.10966,-1.91613,2.00917,-4.4699,-2.89446,-1.46095,-2.7897,0.190295,2.31369,1.05259,-1.82484,3.7413,2.70035,-2.39285,-6.8563,6.4182,-258.64,-814.96,-490.928,5040,-15120,-2660
-9.01936,-6.06086,-2.07346,-5.39417,-5.36607,-4.66438,-4.07909,-3.75497,-7.05842,-6.13344,-3.88534,-3.62222,0.493694,-2.92463,-6.83761,6.12867,-255.712,-819.352,-488.488,7140,-23380,1120
-18.9887,-12.3284,-6.66182,-9.47912,-11.1478,-5.5761,-4.13112,-5.63527,-15.8238,-14.2358,-7.48893,-11.2697,-1.35351,-5.91081,-7.76981,2.20252,-262.056,-807.64,-482.144,10220,-29820,4060
-13.8477,-6.88583,-2.57917,-5.16012,-4.04333,-3.96327,0.271316,-0.70248,-12.5946,-11.6514,-13.2987,-7.26189,-1.33363,-3.66129,-2.76981,3.11836,-247.904,-812.032,-478.728,12880,-39200,8400
-10.4491,-7.93754,-6.10196,-5.19366,-5.84574,-3.06915,-0.680925,-0.61703,-10.0007,-14.6196,-15.6219,-5.44105,-3.93148,-4.05167,-2.14146,-1.66842,-243.512,-836.432,-491.904,14560,-39060,8960
0.569444,-0.753134,-1.57452,-0.342661,-0.468814,-0.422417,1.21693,1.25364,-0.281679,-3.29858,-8.1164,1.62024,-1.69201,-1.05077,0.507583,-2.61624,-246.928,-836.92,-495.808,17500,-32060,6440
3.27433,1.94669,1.62476,3.47073,2.12753,1.45493,2.06401,-0.284493,1.35367,1.13218,-2.37538,3.61064,-0.515752,0.473939,1.7244,-1.49283,-246.928,-836.92,-501.176,20160,-30240,4900
6.28722,3.71668,5.70673,8.25685,4.48089,2.59526,4.23107,-1.87087,2.89882,5.35244,3.07026,4.51116,1.7281,3.43525,7.0437,-1.32876,-244.488,-833.504,-508.008,23520,-29960,4060
6.26186,6.2215,11.0717,9.4919,9.59094,2.85801,6.39056,0.995701,2.01512,9.32012,6.42566,4.18744,3.26298,5.94951,10.1203,1.57694,-241.072,-833.016,-509.96,24640,-28980,3360
0.0592146,-6.69895,2.56684,-4.56063,-0.626126,-1.73034,-3.46518,-4.5121,-4.81401,2.77377,3.81441,-5.44138,-1.38587,-0.255252,-1.88536,-7.65252,-234.728,-837.896,-517.768,23800,-26320,2380
1.76135,-3.74676,2.84345,-4.74791,1.32553,0.293829,-4.18791,-2.52635,-0.784893,4.30753,4.08213,-2.40609,-1.08814,-1.63429,-3.21745,-7.11139,-245.952,-842.288,-517.28,23800,-26320,2380
1.3524,-3.67908,1.23541,-4.69839,-0.551527,0.844376,-4.78178,-2.09033,0.518389,3.50424,3.12109,-4.09126,-1.80672,-2.56661,-2.86412,-7.82322,-246.928,-843.752,-513.864,20160,-21420,0
0.648435,-0.208293,-1.19091,0.443309,2.39785,2.14364,0.693488,0.382917,2.77975,1.32701,3.82895,-2.41008,-0.193457,-0.719384,4.21089,-4.08866,-242.048,-837.896,-515.328,20160,-21420,0
-1.68654,-0.554447,-5.01419,1.2834,3.74375,1.79094,1.94858,1.90957,-0.960841,0.812906,2.64701,-1.96273,0.276801,2.99533,4.5371,-2.82927,-245.464,-834.968,-513.376,19040,-25900,980
-1.69109,-0.401615,-7.57661,-1.62901,1.20223,1.08326,-3.05028,1.17673,-2.32751,-1.05542,2.65893,-2.92129,-1.03463,2.58955,0.568332,-5.84878,-248.88,-834.968,-508.496,19040,-28560,1960
-0.757359,3.70075,-6.17951,0.411596,0.995881,1.83135,-4.13522,3.24899,0.477549,-1.66607,3.97176,-0.260772,-1.00871,2.49496,1.31877,-1.92639,-249.368,-832.528,-501.176,17500,-31080,2940
-1.43441,3.95579,-6.87155,0.58208,-3.25758,-0.836479,-5.8266,3.43746,-0.134846,-2.96166,3.82369,-0.300157,-0.973155,1.39945,-3.34452,-1.04968,-247.416,-833.504,-500.688,15120,-36260,4760
-1.79805,1.30076,-7.56862,-2.2655,-7.55274,-1.96579,-9.30216,0.647104,0.684412,-3.83946,2.85874,-1.35335,0.815119,-1.63512,-9.16809,-3.76474,-246.44,-830.088,-496.784,14560,-41580,6860
3.79756,7.83063,-0.00984519,1.34686,-2.09122,-1.05678,-4.28062,4.69265,6.45031,2.29173,2.10482,2.76457,4.07989,-0.349218,-5.36485,0.857782,-251.808,-827.648,-494.832,14560,-44520,8120
3.95709,1.46416,-3.54306,-1.03864,-5.23662,-0.598114,-2.21993,1.1029,4.30152,-1.23954,0.485776,1.28874,2.33526,-0.130979,-3.40136,1.91277,-251.32,-824.72,-489.464,15120,-47880,9380
7.05416,3.47891,3.03449,1.20722,-0.0742229,1.79818,2.13877,2.77872,5.87597,5.81837,1.71552,6.59236,2.80606,1.53065,-0.669615,8.4344,-252.296,-823.256,-487.512,15400,-51100,10780
7.49984,2.46173,5.72114,2.24318,0.0324601,0.934186,4.69023,1.88059,6.22981,9.26767,2.15936,6.5511,1.38605,0.919962,0.483502,10.5164,-250.832,-815.448,-490.44,15680,-56140,12320
2.06397,-2.04408,5.39952,5.11031,1.44299,-0.817192,6.91424,0.627728,3.77069,2.8794,2.34705,3.17107,-0.0429165,-0.776392,3.4905,9.67006,-252.296,-814.472,-487.024,14980,-59220,13720
-12.141,-13.062,-2.42177,-2.1384,-4.2663,-5.12583,-0.138874,-5.31591,-9.50015,-8.17773,1.89129,-7.43131,-2.71466,-6.71178,-3.39673,-0.0490561,-249.368,-814.96,-489.952,13720,-61320,14840
-13.9084,-13.5465,-7.12658,-5.95865,-5.94833,-6.74799,-3.40811,-8.35798,-11.2815,-9.09104,-3.68595,-13.9096,-3.3138,-9.50594,-7.26391,-5.74325,-251.32,-816.424,-488.488,12320,-63140,15680
-4.49252,-3.45442,-1.12011,-0.0160856,0.074601,-2.91908,2.43625,-2.5334,-2.90481,-5.81896,-6.74813,-8.24874,-2.94295,-5.10212,-0.51995,-1.47956,-248.88,-817.4,-488.976,11200,-63560,16100
3.48714,2.56673,3.36224,2.66554,2.97735,-1.47497,4.99339,0.707298,2.33782,1.19213,-7.79085,-1.37196,-4.0065,0.735583,4.29846,-0.483141,-253.272,-818.864,-491.904,10220,-63420,16520
5.18258,5.9198,5.13909,4.30529,3.54477,0.808656,4.73936,0.187636,5.4623,1.99608,-4.74656,4.95821,-2.24996,3.44971,6.48657,0.864683,-250.832,-818.864,-495.32,9100,-62720,16660
8.14983,11.5443,9.02393,7.49848,10.144,3.68822,7.2779,5.14303,7.99474,6.47481,0.472917,12.1997,2.48104,7.13046,9.46058,5.6088,-252.296,-817.888,-496.784,7840,-62580,16800
1.24894,3.23765,3.25058,3.63891,4.65725,3.6619,4.76662,3.32204,1.16401,-1.42207,0.0988488,6.879,1.35548,5.23569,8.6813,1.72229,-252.296,-823.744,-498.248,5600,-61040,16520
2.37137,8.3445,9.02094,8.92804,10.8961,6.13366,8.72712,6.39866,1.15734,3.51336,2.04321,9.21382,4.02094,7.10745,13.8651,5.77119,-253.76,-825.208,-498.736,4480,-60200,16660
6.92211,9.6302,9.24115,9.52527,7.91979,6.60546,10.507,5.0582,7.76924,7.1767,4.45265,9.81706,3.84289,7.86933,15.1184,5.46591,-254.736,-829.6,-499.712,2800,-59500,16940
3.20192,2.98604,4.52843,1.35895,-0.233527,2.61702,4.47047,-2.20578,3.94906,3.33071,1.49605,5.19787,-0.127623,4.42538,5.81795,0.64963,-254.248,-828.624,-500.688,2380,-58940,16660
2.94762,6.05052,5.9745,1.2711,3.3686,1.74449,4.22935,-0.813502,1.55569,4.99197,1.20479,4.58867,2.21158,2.61666,1.87344,3.51572,-255.224,-828.136,-500.2,2100,-57120,16380
0.791925,-2.74739,-2.63957,-6.43579,-4.14974,-0.340491,-5.62398,-4.71449,-2.48315,-0.112281,2.09142,-3.12156,2.5757,-2.41529,-12.0084,-0.724147,-258.152,-830.576,-497.76,2660,-56700,16240
2.79084,0.473138,-2.21805,-4.83453,-0.467817,0.811617,-7.82539,0.11514,-1.21733,1.69304,2.59347,-1.41781,5.69036,-2.68581,-10.791,1.02391,-256.2,-827.648,-498.248,2940,-55860,16100
-0.674331,-2.63169,-5.49729,-5.9118,-3.52478,0.247155,-9.33161,-1.70104,-2.49648,-1.4965,-0.219807,-4.72408,1.74032,-3.26157,-8.04713,-5.18945,-258.152,-830.088,-498.736,3080,-54600,15540
1.90664,0.312018,-3.03321,-0.822285,-1.10499,0.785375,-3.34608,-2.6393,3.04207,1.59352,0.705612,-1.4427,1.48289,-1.93188,-1.48495,-4.77657,-261.08,-830.576,-498.248,2800,-53620,15260
3.68787,0.380992,-0.15421,0.374417,-0.220998,0.241429,-1.64226,-4.90678,6.43204,4.59181,3.61955,0.369111,1.61493,-0.402536,1.58203,-2.19026,-258.64,-828.624,-503.128,1680,-52500,14700
6.61212,1.05075,2.19337,-0.144828,0.903274,-0.932073,-0.644713,-2.12772,6.99371,5.33303,3.53712,1.19861,2.39336,1.26914,0.367407,-0.456299,-264.496,-826.184,-499.224,-140,-51940,14420
5.75739,2.61667,1.94051,-0.297881,2.65471,-0.883876,1.6624,3.43684,3.95736,3.2368,1.62614,0.70265,2.6774,1.26679,1.71674,0.551353,-261.08,-825.208,-498.736,-2100,-50400,13580
-5.28334,-3.52132,-4.03927,-4.23345,-1.51207,-2.31887,0.327822,0.981058,-6.77041,-4.11496,-3.26885,-4.64116,-2.09581,-1.46794,-1.37306,-3.26073,-264.984,-823.256,-494.832,-4760,-49000,13440
-17.1019,-13.7967,-11.2814,-8.39639,-8.39966,-3.8614,-1.93624,-1.97354,-18.3721,-15.3173,-10.108,-10.6529,-7.60101,-4.26886,-3.7339,-6.86909,-264.496,-824.232,-492.392,-6020,-47740,12880
-19.6549,-13.8246,-9.0456,-6.56506,-4.78645,-3.89629,-2.81246,1.15471,-20.8212,-13.6819,-11.5472,-10.164,-9.73283,-3.13796,-5.054,-5.55772,-262.056,-826.184,-494.832,-6440,-45640,12040
-21.6399,-25.5845,-14.7452,-16.051,-16.8194,-6.34896,-12.2908,-5.60546,-24.0885,-17.1208,-9.33027,-17.2296,-11.4827,-8.17552,-15.7353,-15.2498,-261.08,-824.72,-493.368,-6160,-42140,10640
-23.2678,-21.8399,-12.1736,-19.0068,-15.9144,-7.67523,-16.8578,-4.57259,-22.2465,-14.9943,-7.60621,-17.9098,-10.0859,-11.0225,-22.0117,-12.949,-265.96,-826.184,-492.392,-4760,-38920,9380
-20.8653,-11.9322,-8.13288,-10.0809,-10.6645,-6.48197,-11.8699,-1.71802,-14.9618,-12.576,-4.31288,-14.2727,-8.70734,-7.58753,-15.2688,-5.88965,-264.984,-822.768,-490.44,-2940,-35280,8120
-10.7602,-4.65224,-3.72311,-4.46136,-6.761,-6.37863,-9.62472,-3.75573,-6.95339,-8.65412,-5.49797,-7.94098,-7.07123,-6.7342,-11.2902,-5.06457,-263.52,-823.256,-490.44,-840,-34160,7560
-2.03725,-1.49537,-1.7804,-2.8443,-4.41288,-4.96493,-8.38851,-4.99149,-2.98013,-5.65531,-5.16512,-3.48845,-4.44461,-6.95074,-9.97105,-5.11522,-269.376,-826.672,-489.464,1680,-30240,5740
7.06458,0.219723,-1.1778,-1.76493,-4.67646,-1.12327,-5.27301,-3.30534,3.70343,0.935034,-0.137796,0.910438,0.452957,-3.07077,-5.15421,-2.83278,-269.864,-825.208,-486.536,3920,-25200,3920
14.1898,5.35381,1.24256,2.86871,-1.96465,3.05114,-0.358734,-2.16329,13.3134,8.06283,3.92677,8.67377,3.94848,2.81652,3.51429,3.18194,-264.984,-829.6,-491.416,5460,-24360,3500
23.3788,17.907,9.20097,15.5001,8.2814,7.77643,10.2038,4.01823,25.665,18.1557,9.25936,19.3625,7.19914,9.94321,16.1747,13.7893,-271.816,-828.624,-493.856,8120,-23660,2800
22.884,22.2482,12.0768,21.487,14.1629,10.3312,16.8483,8.77337,27.076,18.8539,11.434,23.3705,8.86014,11.2471,23.3342,21.231,-265.96,-830.576,-491.904,9100,-20580,1680
21.1509,25.3421,17.3099,24.0343,21.3642,9.84326,17.9048,12.3841,24.4842,21.0615,11.8562,23.5691,10.2251,13.3337,23.8854,23.3029,-269.864,-831.064,-487.512,10220,-18900,1120
15.1775,16.2144,10.4997,17.2959,15.3688,6.93259,14.5052,8.00648,16.1133,11.1959,9.40378,14.0371,7.60932,9.00533,18.9475,14.9575,-266.936,-830.576,-493.856,10920,-17220,420
8.01427,8.32596,4.62111,10.0922,9.30181,5.6502,11.0263,6.05954,6.13765,3.37781,6.3155,4.07336,4.2629,3.80364,13.0803,10.6021,-265.472,-833.016,-496.784,11620,-16240,280
8.86839,7.57105,5.18603,8.43308,8.82799,5.29089,9.71103,6.70612,6.49616,5.51925,5.60453,4.6895,5.27458,4.39756,9.59731,9.47809,-268.4,-833.992,-498.248,13020,-13860,-420
6.40865,3.25562,4.23572,3.77734,4.71258,2.84432,5.99125,2.08528,4.62405,5.15293,3.98753,3.20477,4.39295,1.96115,4.98339,4.87398,-265.472,-832.528,-495.32,13440,-11060,-1400
6.98632,6.47217,8.04176,2.65545,5.56198,2.58726,3.71443,0.904398,7.3671,7.45599,3.18168,2.90642,5.09362,2.44061,3.06931,1.82418,-265.472,-834.48,-495.32,14420,-8120,-2520
3.18525,0.735402,3.4964,-1.57517,-0.943814,-0.0540338,0.401083,-2.00676,1.74778,1.19643,1.62334,-1.99536,2.9585,0.45063,0.972285,-4.60438,-265.472,-832.04,-491.904,14980,-4480,-3640
3.62309,5.70428,7.48922,3.31845,3.95667,-1.03078,4.39541,-0.197242,1.27695,4.22244,4.12354,1.43799,4.97463,0.695764,4.79053,-4.41486,-264.984,-832.04,-489.952,14980,-2660,-4480
-1.62365,0.255139,0.506002,0.370421,2.10904,-3.36423,4.45681,-2.89889,-3.16265,-0.408742,1.26798,-3.07062,1.70619,-0.345347,4.1642,-8.95149,-264.984,-834.48,-496.296,15120,140,-5320
-5.26909,-2.65591,-3.76975,-5.63671,0.0393957,-4.88829,0.836623,-3.47265,-6.69299,-4.51247,-2.82888,-5.20763,-0.15474,-1.4462,-1.93831,-10.1048,-262.544,-832.04,-494.344,14840,3220,-6580
-10.4638,-7.61977,-7.28558,-11.1074,-2.71748,-5.73836,-6.4216,-3.6632,-10.6092,-8.5302,-6.13148,-8.57101,-1.6677,-3.21794,-8.80717,-11.9727,-266.448,-831.552,-492.392,13720,7140,-8120
-22.0054,-11.9033,-11.9249,-14.252,-5.63893,-5.47146,-11.4099,-4.77365,-18.9153,-17.2161,-6.80582,-14.0667,-4.29269,-4.91879,-11.4047,-12.7583,-268.4,-828.136,-489.464,13020,9520,-9100
-24.3965,-13.9193,-11.9282,-14.7393,-6.7247,-5.12493,-12.3826,-4.81753,-20.4913,-17.5841,-8.56635,-15.0489,-5.55554,-4.22233,-11.6779,-13.1776,-267.912,-826.184,-485.072,12460,10780,-9660
-16.8626,-13.2721,-9.59786,-11.2089,-4.50009,-4.01959,-8.84899,-0.728775,-14.1992,-11.9726,-10.8432,-11.0672,-6.91926,-3.16703,-11.288,-9.24746,-266.448,-826.672,-484.096,11480,11060,-9660
-7.08806,-12.4852,-7.89847,-7.11967,-5.27987,-0.376094,-5.53507,-1.54077,-5.57659,-5.30955,-6.40355,-2.56926,-4.96412,-0.518965,-10.0956,-5.51233,-266.448,-825.696,-482.632,11620,10640,-9380
-0.629999,-7.61263,-2.85625,-3.85526,-3.28536,0.795838,-5.46415,-0.37896,-0.538213,2.74977,-4.90734,2.26558,-3.72025,1.24374,-10.5041,-2.2127,-267.424,-823.744,-484.584,12180,10220,-9100
-2.48443,-10.7721,-4.66732,-5.61653,-9.84299,-0.701809,-5.87299,-6.46977,-1.32811,-2.00258,-3.179,-0.0527167,-5.3898,-1.02731,-9.80056,-4.35664,-265.96,-825.696,-482.632,12880,9240,-8960
1.14392,-0.369083,3.03512,3.55822,-2.63315,-0.0694998,2.81892,1.46045,1.79889,3.11027,-0.543372,5.17212,-3.93038,-1.94006,-0.379344,7.17406,-267.912,-825.696,-478.728,13580,8260,-8400
-3.08217,-6.42821,-0.786797,-4.68337,-11.54,-2.25868,-4.02262,-2.76842,-4.7742,-3.81273,-0.532069,-0.940479,-5.9325,-6.09199,-7.17423,4.07773,-267.912,-823.744,-485.072,14420,7420,-8260
-1.70647,-6.29529,-0.446917,-7.76998,-14.0416,-2.5674,-6.39139,-5.57058,-4.9808,-2.60568,-0.591383,-1.61754,-4.60076,-5.99483,-8.83005,2.56162,-268.888,-827.16,-483.608,14840,6720,-7980
9.50572,10.0182,7.03305,6.65486,0.11049,2.32782,5.84064,2.9607,7.68594,7.91525,2.29886,7.74159,1.38037,0.608522,4.52551,11.2198,-266.936,-826.672,-486.536,15120,5600,-7420
12.435,13.4274,4.66215,11.3063,4.58985,4.87444,8.76854,5.03155,11.3493,7.32986,4.38355,9.51384,3.71158,2.03142,11.415,12.704,-264.984,-829.6,-486.536,15400,4900,-7140
13.2434,16.196,8.34963,13.0561,8.39351,5.54728,7.63201,8.57258,9.77048,8.84104,5.45661,8.78881,5.18314,3.13622,14.0945,13.6341,-266.936,-826.672,-487.512,15260,5180,-7140
5.5732,8.16491,5.80776,8.10584,6.11499,2.75261,3.53863,6.51777,1.84029,4.67115,2.72387,1.02626,2.11075,3.20084,9.75896,8.07726,-269.376,-825.208,-494.832,14560,4900,-7000
-0.120474,1.34709,-1.19735,0.845775,-0.161065,0.272455,-3.09717,2.67677,-0.553167,-2.14291,0.379247,-3.90331,-0.469708,0.0584051,-1.73691,2.81428,-266.448,-827.16,-491.416,14140,4620,-6860
-1.34018,-2.55651,-3.20712,-4.63022,-3.38681,-1.34843,-8.27001,-0.800405,-3.49801,-1.91432,-0.710893,-7.21574,-1.52074,-0.946899,-8.06519,-4.16692,-264.984,-828.136,-494.344,13300,3920,-6440
-1.98793,-5.23934,-3.79985,-3.47909,-3.53238,-2.55126,-7.16496,-6.02058,-3.24001,-2.76604,0.397868,-9.32522,-2.69205,-2.10562,-2.60202,-11.2597,-264.496,-832.528,-495.808,12600,3500,-6020
2.40949,1.88286,0.974834,3.17344,4.72897,-0.27604,2.39052,-4.56227,3.61618,2.18134,0.909473,-2.85302,-0.470447,0.748385,6.20372,-8.59519,-267.912,-832.528,-495.32,11900,3640,-6020
1.30877,-1.08574,-1.14221,0.567527,1.9828,-0.457906,2.49717,-7.32942,2.64291,0.98738,-0.133727,-2.86876,0.0481283,-0.156435,4.24402,-7.13039,-263.52,-833.504,-493.368,11340,3780,-5880
-0.903508,-3.27934,-2.733,-0.925005,0.752498,-1.21533,-0.382577,-7.68168,-0.105819,-2.27845,1.22106,-3.32586,1.42103,-0.33227,0.703438,-4.74003,-265.96,-832.528,-493.856,10640,3360,-5740
-0.898519,-2.37688,-3.05856,-0.23173,3.42627,-1.48426,1.00252,-2.97725,0.163194,-1.39541,0.915178,-1.08263,2.76774,0.0964389,0.179429,-1.20791,-268.888,-830.576,-492.392,9800,2520,-5600
2.1699,-0.802726,-3.17964,0.271148,3.60067,-0.811037,0.126953,-2.10666,4.45128,0.519881,1.98425,2.21331,3.77842,-1.70209,-1.48047,-4.13225,-267.424,-836.432,-488.488,8820,1820,-5180
4.96828,9.40371,5.10018,6.4586,10.6933,2.27404,4.32131,5.93768,6.72225,5.94597,2.5264,8.78169,5.85576,-0.203399,2.2304,2.17657,-265.472,-835.456,-487.512,8260,840,-5040
-0.0485862,-0.169212,2.07815,-1.31081,-0.441985,0.869791,-1.07584,4.0337,1.03591,2.35586,0.630113,3.75788,3.51861,-2.11326,-3.28049,-1.29213,-263.032,-834.968,-485.56,7280,-280,-4620
0.769871,0.701085,2.30007,-1.97413,-1.58438,2.03325,0.494216,5.71908,3.00129,2.50037,0.805267,4.45626,4.0785,-0.382477,-2.2539,1.94399,-266.448,-834.48,-487.512,6440,-560,-4340
0.834329,4.61792,4.26024,1.55381,1.02531,2.47854,4.15854,7.40667,2.31247,2.34502,2.50358,5.67727,4.22227,2.47966,3.06354,3.97022,-265.96,-834.48,-487.024,5040,-1120,-4480
-11.2514,-2.12259,-1.04439,0.458018,-1.4049,0.580727,5.66241,7.80236,-9.09311,-4.97344,1.61013,0.0219025,0.886372,2.63412,6.44963,5.12428,-264.496,-832.528,-488,3780,-1960,-4200
-11.5749,-2.98141,-0.853773,-0.162416,-0.0499369,0.746935,6.63868,6.36245,-7.59574,-3.90915,0.506969,-0.375072,0.155869,5.17401,7.63478,9.53511,-263.032,-831.064,-486.048,2940,-2660,-4060
-4.77684,-1.18481,0.713755,-1.00815,2.44929,-0.692638,2.70872,2.94994,-2.2383,-2.50884,-1.71774,0.480151,-1.44379,5.06392,3.40817,7.87037,-265.472,-832.04,-487.024,1960,-3920,-3920
-2.24312,-0.560264,-0.276774,-2.56074,0.858465,-0.864792,-0.227019,-0.0987307,-2.46003,-5.48013,-3.30865,0.278641,-4.71651,2.30756,-0.218742,5.81646,-264.008,-830.088,-483.608,1260,-5460,-3640
1.0916,-0.857506,1.42985,-1.98826,1.14006,-0.104325,-1.03907,-1.33216,-0.534429,-1.74402,-5.31406,1.28264,-4.64066,1.07944,-0.164065,2.58718,-262.056,-831.064,-484.096,980,-6580,-3500
4.18435,-3.07462,0.968684,0.0392094,-1.80502,-0.295166,-1.36773,-6.37242,3.88994,0.183082,-4.0617,-0.739406,-4.61449,-0.0445159,1.2295,-1.84942,-262.056,-828.624,-485.56,980,-7840,-3080
5.38212,4.65374,3.72976,4.71072,3.0457,0.728967,1.46965,-2.97301,5.083,2.47307,-4.05945,1.26477,-2.61447,1.11898,3.66317,-0.13511,-258.152,-827.648,-485.56,700,-8680,-3080
1.89278,-1.32711,-2.47537,-1.57454,-2.62247,-1.74784,-3.76511,-4.68508,-0.388537,-1.6581,-5.30564,-2.42781,-3.19017,-0.846427,-4.88077,-6.0426,-261.08,-828.624,-485.072,700,-10220,-2940
6.21463,2.58589,1.28375,-3.07168,-0.949784,-0.277813,-4.58153,0.238163,3.52373,3.55155,0.617952,2.03,0.246558,-0.861635,-9.18682,-7.25413,-258.64,-826.184,-488,980,-9940,-3640
9.76287,-0.708001,-1.82008,-3.40136,-3.74677,1.33027,-5.67748,-2.86309,7.08385,3.96647,6.40176,0.713737,2.59157,0.685265,-9.15016,-9.93094,-257.664,-832.04,-488.976,1120,-10220,-3640
8.52814,-1.88486,-0.313587,-0.156616,-3.20745,0.94644,-3.68561,-2.83166,4.03433,4.91802,7.63699,0.985046,3.18945,1.61416,-4.05378,-7.0212,-255.224,-833.016,-489.464,1120,-10220,-4200
6.36277,5.37377,3.7621,5.82377,5.50979,1.29983,2.35668,3.21764,3.74495,6.15826,6.89286,3.5947,4.69099,2.49579,5.18797,2.04406,-256.688,-831.552,-488.488,700,-8820,-4760
1.36655,3.9227,0.686027,0.772921,1.50567,-1.39,-1.0462,0.61395,0.0101739,2.94631,2.94953,-2.53051,1.99811,-1.53871,0.787034,0.398941,-259.128,-832.528,-486.536,280,-7280,-5600
-8.60148,-1.21094,-3.79138,-2.9952,-3.37167,-1.48593,-0.484968,1.06266,-7.86094,-5.27039,-2.43406,-7.40366,-0.634254,-4.95458,0.278231,0.684397,-258.64,-831.552,-485.56,140,-7560,-5880
-7.29208,-0.635838,-1.97772,0.332232,-0.514522,-0.806815,3.0186,-0.0266732,-6.88063,-3.17263,-1.62706,-6.41605,-0.340026,-2.90125,3.55789,3.92803,-255.712,-835.456,-484.096,140,-8400,-5740
-10.0798,-6.72493,-4.81111,-2.97062,-6.5438,-2.76821,0.197277,-4.30101,-9.95046,-5.76954,-2.82859,-8.32785,-5.26934,-4.32709,-1.71667,2.05302,-257.176,-838.384,-480.192,560,-8960,-5600
-3.26339,-3.82185,-2.52493,-1.64895,-3.59034,-1.94953,-2.04912,-5.67397,-1.9264,0.988293,-1.08495,-2.41657,-4.91544,-3.23454,-5.00553,3.54354,-259.128,-837.408,-482.632,700,-8540,-5880
0.310096,-3.82328,-2.82339,-4.69137,-5.69582,-2.89348,-6.41231,-8.15556,1.38984,0.863028,-0.383597,-0.375728,-3.5729,-5.76681,-10.3285,-1.7357,-261.568,-838.384,-477.264,980,-7420,-6160
-0.603913,-1.77564,-2.71919,-0.57221,-2.3365,-1.1145,-1.71358,-5.36282,2.0918,-0.0367378,-0.386208,0.0792171,-1.25215,-4.38986,-3.63357,-1.58278,-261.08,-836.92,-476.288,1400,-6860,-6020
-5.57895,3.33626,-0.300535,4.48176,2.06889,-0.571484,0.696226,-0.220064,-1.92985,-1.19209,0.657352,0.378974,1.39504,-2.03812,-0.232499,-1.35946,-263.032,-842.288,-471.408,2380,-7280,-5880
-12.0731,-2.65578,-4.33874,1.79521,-3.0226,-1.71905,-0.245203,-0.926041,-8.24795,-8.49951,-2.55599,-2.32074,0.651228,-1.95799,-0.283042,-4.47641,-261.568,-843.264,-473.36,3220,-7420,-5460
-3.73565,1.97647,0.371443,5.64367,2.94472,1.45196,5.44481,5.83902,-2.46725,-3.36636,-5.25165,4.69928,2.14488,2.19845,7.03399,2.43473,-264.008,-841.312,-475.312,3640,-7000,-5600
1.22823,-2.84413,-2.29727,1.80135,0.323457,1.35015,4.22179,4.88256,-0.202326,-3.33362,-4.56736,4.18676,-0.241429,4.16593,5.13676,-0.928523,-266.448,-845.704,-475.8,4200,-5600,-5740
5.52745,1.12908,3.09081,1.81703,4.88965,2.23144,4.63627,7.06765,3.07531,3.80244,-1.44591,7.81157,2.75005,5.72007,5.75636,0.368665,-266.936,-841.312,-477.264,4620,-4620,-5740
9.49491,6.31013,8.66203,3.67962,6.46104,3.90019,4.95206,7.47188,7.11538,8.86207,3.10071,9.31573,5.81286,7.59613,7.73919,0.982829,-263.52,-841.8,-480.68,5180,-4620,-5600
9.21559,6.78626,6.96367,5.4231,5.40027,3.62664,3.51419,5.30409,7.74564,6.93508,5.6657,6.13046,4.08063,4.93227,7.7983,0.647886,-266.936,-842.776,-483.608,6020,-5740,-4900
1.89418,-0.569818,-0.105901,-1.43437,0.943787,1.0262,-2.81172,0.868517,0.451073,-0.435488,1.53012,-1.06012,-0.855985,-1.16979,-0.145457,-2.46761,-267.912,-837.408,-486.536,6020,-6300,-4620
-1.7579,-2.16748,-2.23567,-4.49122,0.318035,-0.662888,-3.49921,1.35822,-2.39649,-5.15351,-3.25435,-4.26859,-2.96292,-3.92677,-3.61431,-2.07553,-264.008,-838.872,-488.976,7140,-6580,-4340
-3.36615,-3.21098,-1.6181,-3.94844,-1.69363,-0.0553513,-1.73069,1.11015,-2.83913,-8.5073,-4.45511,-6.67616,-2.85487,-3.32381,-1.11626,-0.475964,-266.448,-835.456,-492.88,7560,-5740,-4480
-0.935332,-0.965219,2.1169,-4.14234,0.829705,0.641879,0.0378532,2.44778,-2.49687,-2.6271,-1.46022,-7.25688,-1.61954,-0.512832,-1.61768,0.916734,-264.984,-832.528,-491.904,8540,-5040,-4760
-3.48337,-5.59241,-2.14241,-8.78097,-4.50207,-1.73588,-3.78206,-0.119883,-7.04395,-4.1771,-0.764797,-9.5222,-5.49239,-3.20572,-6.96788,-2.60616,-268.4,-830.576,-488.488,9520,-4900,-5040
4.69555,5.48497,4.59689,0.240828,3.42768,1.73705,-0.287396,2.88898,5.00081,4.14005,5.13582,1.3863,-1.06054,-0.0897497,-1.50735,2.45156,-265.96,-830.088,-490.44,10360,-5040,-5180
6.95768,3.40646,2.78374,-0.517163,1.79475,2.38277,-2.26334,-1.91758,7.63733,4.90859,7.31961,3.58537,2.82404,1.20907,-2.60163,0.474644,-264.008,-823.256,-491.416,10920,-5320,-4900
5.86291,4.55562,3.14873,2.55258,4.57858,2.12179,0.316398,-3.3531,7.72506,7.03896,4.98729,5.92441,4.00652,4.07076,2.79211,3.50184,-265.472,-821.304,-489.952,11340,-4760,-4900
4.26831,5.12257,4.27084,3.60987,5.23373,1.4486,3.37915,-0.244503,6.14384,7.07554,2.76685,6.96404,3.6233,5.48396,4.80237,4.96692,-264.008,-820.328,-489.952,11620,-3640,-5460
-1.34419,-5.2253,-1.76686,-1.75543,-2.32514,-0.466286,0.099609,-2.25427,-2.68417,0.753995,-0.722535,0.279553,-0.0501095,1.82665,-1.09782,1.46503,-264.496,-817.4,-492.392,11760,-1680,-6160
-1.63535,-7.14537,-3.48959,-2.53245,-4.80793,-1.82304,-3.38654,-5.24594,-3.19593,1.93804,-0.015559,-0.109779,0.492796,0.156805,-4.33904,0.54096,-266.448,-813.496,-489.464,12180,-280,-6440
0.215542,-4.34509,-3.79715,0.16418,-4.06162,-2.81672,-2.61461,-5.14946,0.810699,2.67235,-0.579428,1.38455,0.789148,0.458433,-4.09192,1.17396,-268.888,-813.496,-492.88,12180,840,-6580
3.55453,4.53048,0.0296765,6.82307,-0.516266,-2.0924,1.4984,-2.84621,8.66121,1.01923,0.554855,3.51394,2.84035,2.39641,2.11963,4.92445,-268.4,-812.032,-490.44,11620,1540,-6860
0.300488,6.17139,3.48933,6.65619,2.74109,-1.6294,3.05999,-0.972462,3.20161,1.21427,-0.500612,1.6864,2.06477,3.46549,4.96503,4.79549,-271.328,-812.032,-491.416,11060,3360,-6720
-7.75147,-1.76549,-1.14113,1.19265,-3.68223,-1.43458,1.01169,-2.72798,-6.51905,-4.79118,-1.71699,-4.2,-2.39288,-0.691499,4.26583,1.51405,-272.304,-813.496,-489.952,9800,5460,-6860
-9.92258,-5.47554,-3.5204,-3.32324,-6.28686,-2.33482,-2.45474,-2.97572,-11.2233,-5.55577,-1.4553,-5.8108,-2.4268,-4.35691,0.0982462,-1.89352,-277.184,-817.888,-490.928,8680,6580,-7140
-12.9096,-12.658,-8.28074,-12.0964,-11.7177,-4.35326,-8.88455,-4.18997,-14.9736,-9.02304,-4.6367,-10.7036,-4.67247,-9.58023,-10.8723,-7.66767,-279.136,-822.28,-489.464,6720,8680,-7420
-4.66075,-5.48938,-2.52402,-8.58644,-7.83223,-2.03818,-6.60452,-3.28943,-2.47534,-1.46798,-0.84208,-2.76445,-1.46502,-5.54636,-7.78585,-5.46262,-280.112,-821.792,-488,5740,9660,-7700
4.16651,5.65346,2.71789,0.388204,2.33558,0.416781,1.14825,1.74692,6.77034,6.48765,0.366556,5.62661,2.11573,0.272746,1.05225,1.03124,-280.6,-825.208,-489.464,4340,10500,-7700
1.00683,4.87872,-0.443362,2.02618,1.6154,0.786472,2.02327,1.18637,2.29179,-0.716611,1.24077,1.31881,2.77753,1.15805,1.70513,0.469091,-278.16,-827.648,-485.56,3080,10780,-7840
-0.052656,11.5917,3.04081,9.51827,10.4103,2.91765,7.90456,4.19558,0.666134,-0.683982,3.90472,3.75962,3.88472,3.58485,8.1596,4.05454,-280.6,-833.504,-487.512,2100,11340,-8400
-3.90832,4.58952,-1.84389,4.46578,4.9542,0.806199,3.24939,-1.02493,-4.48712,-5.9053,-3.68797,-2.79556,-2.54993,-0.126036,5.05816,-0.120502,-278.16,-833.504,-483.12,1400,11060,-8960
0.574582,5.04516,-1.2569,4.04362,3.96551,0.824974,0.919745,-0.848232,-1.47585,-5.29167,-4.04919,-1.84795,-2.68977,-0.444175,1.68657,0.744619,-278.648,-836.92,-483.12,1400,10080,-9240
7.41342,1.74628,-1.26974,2.16276,3.31693,0.99983,2.17049,0.786868,3.21829,-0.731225,-1.96714,-0.570242,-2.41533,-0.204609,-0.647809,-0.442871,-272.792,-837.896,-481.656,1540,8120,-9240
7.04828,-1.26662,-1.97558,3.06449,2.93542,1.55615,6.27517,4.76277,4.22081,0.437493,-3.59571,0.847434,-4.76123,-0.385866,2.2008,0.0891769,-268.888,-841.8,-483.12,1820,6020,-9800
7.09502,0.606409,0.10895,5.17168,3.33499,1.09821,7.13215,5.21434,6.31581,3.7678,-2.31012,5.28921,-4.68194,-1.60888,1.65083,-1.01452,-266.936,-840.824,-484.584,2100,4480,-9940
2.74715,-1.55384,1.09656,0.451727,1.19901,0.933035,2.22981,4.57071,2.80073,2.73252,-0.91429,3.30046,-2.63308,-2.9353,-4.3997,-6.12906,-263.52,-835.944,-482.144,2940,2940,-10780
-2.19379,-8.45851,-0.0967751,-3.92179,-3.0809,0.615968,-0.52012,3.8688,-2.9605,-2.12927,-0.253676,-1.84496,-1.16708,-1.68735,-3.49858,-6.31292,-262.544,-835.944,-481.168,3640,1680,-11200
-0.645501,-6.19971,3.9332,-4.00497,-1.59385,-0.379128,-0.463765,5.02704,-0.5994,2.21553,-1.17074,-2.31099,0.288279,0.293059,-2.60404,-0.674147,-259.616,-834.48,-466.04,4620,-420,-11480
-2.97395,-12.9162,-1.48763,-14.5872,-11.478,-2.65658,-10.9926,-0.442326,-2.97429,-1.00619,-0.203204,-6.59175,0.0326393,-1.23411,-15.9044,-5.83052,-260.104,-835.456,-478.24,4900,-1400,-12040
1.2083,-5.4795,4.62917,-9.40178,-4.70573,-0.854142,-9.12715,2.10711,-0.369241,5.26498,2.9417,-0.308251,3.64448,1.11862,-9.16672,-5.822,-253.272,-837.896,-485.56,4620,-1960,-12740
4.05807,1.26338,4.41651,0.0897358,-0.715188,-0.211909,-3.06181,-0.243906,4.5432,5.88529,3.02357,0.805982,3.96467,1.53057,3.01234,-5.92624,-252.296,-838.872,-490.928,5320,-3360,-13020
6.54028,11.9613,5.90403,11.466,9.23201,3.04002,7.18176,-1.019,9.52188,8.76777,4.4867,6.84785,6.41248,4.41337,14.3866,3.67715,-253.76,-841.312,-491.416,6160,-3640,-13440
4.03788,10.0342,3.77969,12.266,9.31419,4.50393,8.48966,-1.20551,4.83523,5.88011,6.05082,8.19829,7.05702,8.10477,13.6476,7.35407,-249.856,-837.408,-490.928,6020,-3500,-13580
-3.00783,1.66401,0.371628,6.68336,4.16595,2.57046,3.9981,-0.390648,-4.61877,-0.655185,4.15543,4.1518,4.47895,6.55156,9.55913,6.69389,-253.76,-839.36,-491.416,5740,-3080,-13720
-5.49277,2.2254,-0.204825,3.9416,3.38532,2.38251,3.63377,3.00858,-5.01302,-1.96254,2.62987,3.0874,2.35026,3.18077,9.30509,8.69286,-250.832,-838.384,-488.976,5320,-2100,-14000
-4.66005,1.29142,-3.85431,-0.124267,-0.184058,1.24705,-1.03474,0.0043407,-1.88071,-4.08139,5.33027,1.70886,1.61347,1.25805,4.60628,5.13724,-250.344,-835.456,-491.904,4900,-1960,-14000
-7.68329,2.35603,-5.47344,-2.26968,-1.35029,-1.00634,-6.29383,-3.28684,-3.60931,-6.68602,5.46217,0.0736867,1.96256,-1.95017,-0.558673,1.4075,-250.832,-835.944,-488,4480,-1960,-13860
-2.71235,3.70867,-2.55495,-2.93829,-1.67864,-0.9574,-5.81219,-2.15801,-2.34781,-3.82261,0.178861,-1.58316,1.84935,-2.58043,-3.48185,1.78368,-248.392,-834.968,-485.56,4060,-1260,-13440
-5.97351,-5.16032,-7.11915,-9.00427,-7.95848,-3.008,-6.41925,-4.46456,-8.5518,-11.7855,-6.13617,-9.31778,-4.22039,-6.84061,-7.69926,-0.86687,-247.904,-835.944,-488.488,2660,-420,-13160
-4.59363,-5.41347,-3.50298,-10.6953,-7.48732,-5.51691,-6.65153,-3.16875,-11.8127,-7.92513,-8.08776,-11.4252,-5.72456,-7.1854,-11.4067,-2.47195,-245.464,-834.48,-482.632,2380,-420,-12880
-3.00958,-7.64118,-5.07575,-12.2776,-10.8091,-5.8827,-6.49909,-5.43968,-9.145,-6.48661,-7.98123,-13.0357,-6.94487,-6.32803,-10.9747,-7.10135,-245.464,-834.968,-485.072,2100,-840,-12180
0.402875,-8.16452,-3.90478,-10.2275,-9.88051,-4.46046,-5.57928,-6.87973,-4.28667,-1.35277,-4.5261,-9.8606,-6.34085,-3.10388,-8.76588,-7.75142,-244.976,-834.968,-486.048,1820,-700,-11760
12.2628,6.74664,6.81147,4.42229,3.52219,1.09076,3.40823,-0.52477,10.5099,12.3768,2.09849,5.16758,-1.0848,3.7118,1.36252,1.7731,-244.488,-833.992,-488.976,1120,-280,-11340
6.08026,0.758314,1.61274,1.98195,1.03159,0.435138,1.08814,-4.77412,9.63159,7.59268,-0.102368,4.1012,-1.48607,1.39165,-1.46884,0.758067,-244.976,-835.456,-485.56,980,-280,-11060
-1.32352,-0.438143,3.78819,3.53863,5.79641,0.717073,3.02114,-0.345676,4.08794,5.2209,-4.36278,5.0698,-1.13549,1.16771,-0.30021,5.06921,-248.88,-834.48,-483.608,280,-140,-10640
-3.71187,-3.4359,0.690036,3.38386,1.40986,-0.0209803,1.99921,-1.15334,2.60887,-0.452005,-3.11584,2.47527,-2.34831,1.31321,-2.00678,0.800456,-245.952,-836.432,-487.024,420,-700,-9660
-1.60084,1.84912,2.0851,4.77985,3.73403,0.715361,2.12852,0.350737,4.29515,-1.63795,-0.554851,3.93749,-0.92115,1.0554,-1.79503,-0.818184,-248.88,-834.48,-485.56,560,-1400,-9380
4.93988,6.24151,4.62345,5.98272,6.03467,0.95375,3.00125,2.05827,9.73933,2.82542,1.99098,4.46232,-1.32451,2.94797,0.0178203,-1.80072,-248.392,-835.456,-483.12,560,-980,-8960
10.3073,8.21932,7.03165,9.2167,8.76414,2.70323,6.77937,4.52172,13.5588,6.45847,5.03055,7.66807,0.739523,4.56553,5.43156,-0.259086,-251.808,-837.408,-481.168,560,-700,-8680
7.76271,8.85215,7.17382,9.6297,9.37952,2.90123,7.81908,6.58508,9.26767,5.97524,5.15725,9.32119,2.71144,2.31604,10.2392,1.37349,-250.344,-834.968,-480.68,840,-980,-8400
-1.09087,0.278992,0.429221,2.69142,2.29713,0.804819,3.65192,4.47331,-1.79359,-0.516206,0.361847,3.09928,1.32337,-1.48702,7.3678,0.206952,-248.88,-837.896,-484.096,1120,-980,-8260
-8.47749,-10.3585,-7.11064,-7.55254,-7.05733,-1.45793,-2.62001,0.211954,-10.6963,-7.09407,-4.10987,-5.74114,-2.34279,-4.78154,-2.28787,-4.15924,-252.296,-837.408,-483.608,1400,-1540,-7840
-4.81916,-6.31057,-4.68478,-6.44087,-4.03292,-0.851143,-1.17157,3.34933,-10.0069,-1.71268,-2.3777,-5.55566,-1.05066,-2.25733,-3.39887,-0.289779,-254.248,-837.408,-484.096,1680,-1820,-7420
-3.13786,-9.57692,-10.1986,-5.42271,-8.76966,0.232602,-1.57448,-1.15349,-7.90538,-4.26344,-0.454286,-7.30602,-1.40145,-2.48382,-0.770166,-1.58954,-254.248,-837.408,-485.56,2240,-1820,-7560
4.669,2.15191,0.401227,5.47393,1.69353,2.65522,4.12307,3.17016,-0.140594,5.33459,5.0527,1.48039,4.80718,0.194594,8.30968,5.95429,-253.76,-835.944,-485.072,2800,-2100,-7560
3.26231,-0.145659,-2.4005,3.09609,-2.75405,1.97679,-0.720037,0.9424,-0.140419,0.919587,3.28534,2.20986,3.63291,-0.986816,2.90614,5.0627,-255.224,-835.944,-483.12,3640,-2100,-7560
3.33127,2.21036,-1.72657,1.54018,-3.61848,1.67244,-3.91138,3.85707,3.82324,-0.303633,0.547471,4.05409,3.96239,0.41609,-2.46742,6.42422,-258.64,-835.456,-483.12,4620,-2100,-7560
3.57417,3.42621,-0.26869,2.10284,-1.42572,3.11441,-2.32693,7.91965,5.07181,-0.312971,-1.15789,4.09609,5.47422,2.25077,2.58528,6.67411,-257.176,-835.456,-486.048,5320,-2100,-7980
-1.82241,0.620159,-0.297257,0.823424,-0.0248574,2.44789,0.977925,4.62078,0.386528,-5.00568,-0.946992,0.500225,4.79027,2.06187,6.51722,1.83747,-260.104,-832.528,-487.024,6580,-2660,-7980
-9.19189,4.20919,6.87545,5.19865,8.05472,1.56925,8.28181,0.912127,-6.35466,-4.50743,2.63581,0.798774,6.09681,3.2193,10.479,2.92592,-258.152,-829.6,-485.072,7140,-3220,-7840
-10.7007,-0.384585,5.85635,1.66612,5.78001,-1.9151,4.43892,-2.68775,-11.0282,-3.0806,-2.09879,-5.88232,1.29896,1.41193,4.90321,0.252889,-258.152,-831.552,-482.144,7560,-3220,-8120
-3.03744,2.19119,3.62471,0.23802,4.97279,-2.18906,1.6963,-0.958731,-3.43995,-3.4872,-1.64434,-5.14518,0.139035,0.161559,2.22523,0.186019,-257.176,-833.016,-485.56,7980,-4060,-7980
5.13919,4.02675,2.96013,-3.18867,5.13062,-2.81924,-4.02064,-2.93201,5.67917,3.7961,0.800764,-3.59117,0.185143,0.723442,-5.61178,-2.59046,-258.152,-829.112,-487.024,8820,-5180,-8120
4.89785,2.98286,1.13634,-4.38604,3.94501,-1.34024,-4.65005,-4.83118,6.86026,3.72044,2.51383,-1.92414,-0.726102,1.06017,-8.67498,-3.82517,-258.152,-831.552,-485.072,9520,-5180,-7980
4.13797,4.15887,0.655546,-1.11486,3.49459,0.190195,-1.09166,-2.89432,6.08613,3.80045,3.49707,1.72919,-0.635075,1.39192,-5.14238,-4.23181,-258.152,-828.136,-488.488,9940,-5040,-8120
4.44978,1.93161,0.132034,-3.21965,-2.13355,-2.09893,-5.04426,-4.66893,4.4754,3.76073,2.41705,1.07229,-3.11498,-1.87361,-8.71296,-9.34655,-257.176,-829.6,-483.608,10780,-5180,-8540
3.41463,2.54841,1.1194,-2.5846,-5.32374,-0.864343,-3.77258,-5.70701,4.75847,3.9631,0.761305,1.1831,-3.77577,-0.643199,-7.94052,-7.48344,-258.152,-833.016,-486.048,11200,-4760,-8680
-4.04532,-2.65192,-2.48674,-6.28468,-8.42172,-1.70213,-4.87609,-5.27312,-5.02055,0.0754288,-4.24937,-3.37406,-7.23188,-1.16113,-10.8311,-5.53265,-256.2,-830.576,-482.632,11060,-4060,-9100
-11.2213,-16.4277,-11.9206,-15.4944,-16.0476,-4.6531,-11.3082,-9.99931,-14.571,-9.92678,-6.67515,-9.3884,-10.4669,-6.52333,-17.9268,-13.0813,-256.2,-830.576,-482.632,11060,-4340,-8960
-4.75839,-7.02103,-3.59089,-5.22149,-3.58748,-1.46863,-1.62183,-2.00093,-6.86536,-0.0414556,-1.78746,-0.531994,-2.89309,-1.51143,-5.67282,-4.5563,-257.664,-829.112,-483.12,11060,-4760,-8960
-2.03351,-4.43577,-4.38408,0.331797,-3.41012,-1.07203,3.58792,-1.98222,-3.15173,-0.932129,-0.839733,1.13753,-1.85992,1.25578,2.45664,-2.09948,-257.176,-831.064,-482.632,11200,-4200,-9100
-1.63443,-2.16609,-2.75688,3.19687,-3.49277,-1.33502,5.09562,1.44967,-4.53313,-2.72173,-1.94312,3.48497,-0.897613,-0.0646545,5.38149,0.250699,-258.152,-830.576,-483.12,11200,-4060,-9100
0.920086,-3.98948,-0.334981,1.52101,-4.0987,-1.93735,0.0393427,-0.58901,-3.47396,-0.311034,0.0641419,2.77627,0.166967,-2.06,3.27946,-0.885406,-256.2,-831.064,-483.12,11620,-5180,-8960
-0.215111,-2.80858,1.26665,3.32832,-1.61176,-1.56844,-0.487187,-1.22502,0.0857405,-2.40072,2.23775,1.77025,1.24815,-1.27102,5.06142,3.1711,-254.736,-833.504,-482.632,11900,-6440,-8400
-5.30507,-4.55818,-2.01389,0.586243,-2.80057,-1.62473,-3.43874,-2.43163,-2.27664,-5.07832,4.29257,-1.69743,-0.971556,-1.27943,3.01671,4.14365,-255.224,-832.528,-484.096,11760,-6580,-8400
-0.50359,-2.92278,0.482281,-0.357239,-0.716761,0.361805,-3.72982,0.383624,0.771928,0.0837335,2.60996,-3.45694,-0.688038,-0.916839,0.486723,3.24485,-252.296,-829.112,-488.976,11340,-5040,-8260
7.17221,5.34129,3.46142,4.97611,6.42724,3.77826,1.11264,5.53531,7.63184,3.92008,2.25547,2.67774,1.76414,2.3708,6.5564,6.61375,-254.248,-837.408,-482.144,8960,-1960,-8120
14.2213,15.6069,7.09289,11.9007,15.0444,6.33693,8.0557,9.16066,13.845,10.4556,1.43697,11.1861,2.84932,5.50628,13.1394,12.1906,-251.32,-837.896,-484.584,7420,-2100,-8540
6.91033,5.57478,0.505179,5.5519,5.56806,4.46177,6.17598,5.42472,6.50684,2.33667,-3.563,6.80348,-0.836868,1.20742,9.03107,9.63844,-249.856,-844.24,-482.632,8400,-2380,-9240
4.01422,6.05463,3.93311,7.1811,8.60194,3.25584,8.26762,7.56905,6.65354,4.89957,-2.69444,6.51479,0.427884,0.563918,8.78205,13.0749,-247.904,-835.944,-483.608,11900,-1120,-10080
-0.648783,-0.870588,1.0786,1.49558,0.755433,0.307307,3.91952,2.4046,2.44446,-0.844416,-2.80649,-2.50991,-1.24315,-1.76596,3.76434,6.83149,-248.392,-840.336,-478.728,14140,420,-11060
-1.02656,1.40744,2.07018,1.1716,0.708374,0.787692,4.72374,2.19752,0.966658,-0.525313,-2.72018,-3.78071,2.20121,-1.00375,4.59709,4.73046,-258.152,-833.504,-480.192,13860,1400,-11340
-3.78264,1.89819,4.01869,-0.00389892,2.21464,2.16414,5.44165,3.66039,-1.74069,0.968661,-2.02797,-3.7781,6.05983,0.142388,2.47543,2.74022,-257.664,-833.504,-477.264,11480,-2100,-10080
-6.17878,-5.4907,-2.04244,-5.01567,-3.54443,-0.807338,-0.613955,-1.21258,-4.87327,-2.55311,-2.80918,-7.62197,3.72553,-1.39064,-5.94073,-4.9148,-266.936,-826.184,-475.8,9940,-6440,-7980
-3.27601,-2.0093,-2.73748,-3.6167,-0.562342,-1.22485,-1.02063,0.520711,-2.87609,-0.463691,-2.24597,-3.86423,3.61248,-1.29224,-6.88609,-6.49845,-271.328,-838.872,-462.136,12740,-13720,-4200
1.05375,2.63455,-2.28554,-2.85181,-0.299451,0.920978,-1.96347,0.941853,2.80125,0.105317,0.219629,-0.187366,4.3407,0.739569,-4.82679,-8.47507,-278.648,-830.088,-456.28,20020,-27720,980
3.84979,7.86302,2.60623,1.84415,4.84782,3.39548,0.883486,1.73401,5.91185,1.3979,4.46103,5.23314,7.42185,4.03059,0.613535,-4.25949,-268.888,-827.16,-452.376,26740,-39200,5600
2.87028,3.11546,-0.689663,-2.88109,2.23978,0.510113,-4.05854,-0.724939,2.3592,0.348406,4.12488,2.11904,5.51347,4.12913,-4.72295,-6.46197,-258.64,-841.312,-455.792,32480,-46760,8960
-0.480844,-1.28269,-8.39387,-4.14124,-2.57763,-1.64591,-5.91322,-1.07901,-0.0201789,-5.03662,1.13359,-1.46997,0.302166,0.879344,-5.87942,-8.02916,-263.52,-845.704,-468.48,35420,-45500,8400
0.21221,0.449013,-3.92042,-2.93319,-0.014589,-1.26594,-7.2527,-0.292315,-0.438206,-2.09836,0.489023,0.541455,-3.71615,0.268144,-6.62903,-8.44839,-263.52,-845.216,-472.872,38640,-46900,8400
1.68038,-1.4255,-1.92315,-4.92112,-3.28734,-3.59686,-9.30692,-3.31995,-4.26252,-4.61581,-1.45993,-5.61845,-9.00576,-3.72849,-10.6716,-10.4802,-261.568,-841.8,-476.776,40600,-49140,9100
3.90449,-0.0740083,1.24224,-2.52603,-2.33556,-3.77134,-6.87707,-3.37539,-5.32694,-1.91455,0.203829,-4.63299,-6.63094,-3.56585,-7.41974,-5.98885,-260.104,-849.608,-482.144,40040,-49560,9380
4.06461,6.46543,7.47178,7.06381,6.14707,1.08971,2.49476,1.23791,-0.895826,7.02065,4.0169,5.69572,1.36435,2.37559,4.75015,4.2323,-255.712,-848.632,-487.512,37100,-48440,9240
-1.8666,-0.946699,3.93037,7.04193,0.0570968,2.04186,4.96084,-2.89612,-2.2206,2.84737,5.63775,6.91316,2.64129,5.2942,9.34158,3.33517,-252.296,-847.168,-496.296,34440,-45920,8400
-9.32441,-4.33301,6.42477,4.57175,-1.72188,-0.289878,4.38288,-2.31088,-7.41941,-1.44716,4.97568,3.61314,0.387016,3.21355,6.39094,3.72187,-256.688,-852.048,-497.76,30240,-41580,7280
-20.3946,-17.4607,-1.84168,-8.21314,-13.5179,-4.97324,-4.48603,-8.40538,-17.7117,-13.3244,-0.690448,-10.4296,-8.56653,-5.69408,-6.10648,-2.18312,-254.248,-851.072,-493.368,27440,-39480,6580
-7.44725,-2.29234,4.58796,-0.907825,-3.35301,-1.414,1.87966,-1.22298,-2.73779,-2.18627,-0.815579,0.236512,-4.61412,-0.262663,0.430764,8.78083,-256.2,-851.072,-492.88,25620,-38220,5880
-1.39548,-2.23158,0.15193,-0.410668,-2.56543,0.549151,2.86045,-0.399774,0.733925,1.39777,-0.672359,2.72167,-2.82188,1.02537,3.89034,10.3669,-255.712,-847.168,-490.44,23520,-36540,5040
4.70925,-3.70046,-3.62346,-0.549442,-2.78563,1.0995,2.5979,-0.143452,3.52799,2.9953,-1.77446,3.42238,0.0726289,0.242876,4.28787,7.04285,-255.712,-848.632,-485.56,21700,-36820,4620
8.17967,3.02123,-0.450678,3.56536,1.47787,1.23486,4.65931,2.62493,5.36519,4.33362,-4.11891,3.81897,0.999145,-0.517077,5.61506,7.6353,-255.224,-842.288,-478.24,20860,-38220,4200
6.39808,2.2725,-3.04578,-0.230393,-0.420684,-0.79424,-1.09144,0.887345,3.6425,0.859612,-3.08624,-1.23242,-2.23446,-4.3927,-1.30452,2.71457,-254.248,-844.728,-478.24,20020,-39060,3780
2.98339,4.14777,-2.60631,-0.607734,2.50367,-1.51776,-1.09774,0.783731,4.01101,-0.383636,-2.21913,-1.79971,-2.90664,-5.50155,0.200707,3.25914,-264.008,-842.288,-469.456,19740,-39200,3640
1.267,3.535,0.980656,-0.801553,5.69145,-1.59311,-0.741989,0.660688,3.39056,4.34998,1.07786,-1.39749,0.736645,-2.57192,1.09238,1.78231,-259.128,-836.92,-464.576,20160,-43400,4480
-0.235285,-4.30181,-4.73431,-3.11058,-1.64722,-0.241271,-1.23271,-2.94324,2.96583,0.918234,1.88411,-4.71872,2.5443,-1.70509,1.6714,-4.33815,-259.128,-839.848,-463.6,20440,-46620,5320
2.59935,-2.15628,-3.78143,-0.919378,0.126803,1.66998,0.132533,-0.152935,4.73057,2.96403,-1.27399,-4.88119,2.02614,-0.368652,0.641785,-3.58286,-265.96,-836.432,-461.648,20160,-49140,6020
1.98414,-3.75795,-5.54684,-4.14588,-3.41165,-0.191413,-3.23319,1.0352,2.46121,0.61277,-2.92594,-8.13599,0.184439,-0.136568,-10.3616,-4.39518,-267.424,-835.944,-455.792,19320,-52360,7280
1.0251,0.123099,-0.819534,0.803482,1.81684,1.45412,-1.37126,5.73723,2.49583,3.53291,-2.30926,-3.09103,2.36583,3.33237,-6.35883,-0.08693,-266.936,-833.504,-460.184,18340,-55160,8260
2.31049,3.72962,3.5253,8.26057,7.32958,3.5779,3.55571,7.13386,4.96701,5.08105,0.672695,4.61238,4.95365,7.26758,4.21735,-0.540478,-265.472,-835.944,-460.184,17500,-58100,9520
1.88001,3.80057,1.83926,8.78614,7.14099,2.09556,6.86748,1.3587,4.17257,1.80712,0.447676,5.32508,3.43541,6.13447,8.16304,-3.59072,-271.328,-837.408,-455.304,16240,-59640,10080
0.321848,4.29952,3.80047,5.78378,6.28529,-0.00606845,6.86889,-0.415918,1.49863,0.332798,-1.78452,4.59147,3.07893,3.28662,5.9394,-1.22151,-267.912,-837.896,-461.648,15400,-61320,11340
-4.86694,-4.40514,-1.89981,-5.34351,-5.79073,-4.04297,-3.03254,-3.56254,-7.27066,-7.84372,-6.21548,-2.87956,-3.3144,-4.79322,-6.58454,-6.67261,-270.352,-835.944,-459.696,14420,-61740,12040
3.11936,2.81298,1.07263,-3.63845,-4.72843,-0.720595,-3.13963,-0.764306,-1.4828,-3.40627,-0.871614,3.42334,-1.1401,-4.90041,-6.56022,-4.00897,-268.4,-842.776,-465.064,13580,-61320,12460
6.08558,7.61455,6.11131,-0.564644,-1.95412,1.0709,-2.87503,-2.038,0.122728,2.97773,5.04105,6.86995,2.50852,-1.13249,-4.72187,-2.3429,-266.936,-836.432,-467.016,12600,-60760,12460
-3.70544,-2.20375,1.19628,-6.29133,-6.99499,-0.40645,-5.6894,-5.80752,-6.9879,-3.82773,3.8897,-0.729507,0.974782,-2.88559,-4.73615,-7.64166,-262.544,-838.872,-467.504,12180,-60620,12600
-9.35267,-8.02823,-0.720269,-8.18675,-6.53633,-0.976628,-3.41856,-6.48656,-9.83696,-8.17186,4.14792,-4.45343,0.842177,-0.516745,-1.48067,-8.20843,-263.52,-836.92,-469.944,10640,-57120,11620
-12.7344,-7.14382,-1.74747,-4.73277,-0.904601,-0.907791,0.426764,-3.91089,-11.1468,-5.94851,2.70824,-4.78997,-1.27438,-0.0557319,3.0278,-3.68998,-265.472,-837.408,-474.824,9100,-54460,10920
-9.93432,-4.38009,-1.45249,-2.22598,1.84102,-0.722659,-0.0559019,-0.495847,-5.24195,-3.02423,-2.81737,-0.752268,-3.37545,-0.778388,3.30821,0.970816,-268.888,-837.408,-474.336,7840,-52500,10500
-1.0245,-2.67788,-0.908208,0.265329,0.882198,-0.839097,-0.197485,1.98166,3.45196,-1.75047,-2.43686,2.23692,-2.95803,0.261213,1.26018,4.05865,-268.888,-841.8,-475.8,6300,-50400,9940
7.06932,-1.42751,-2.63097,1.65148,-0.969668,1.05668,0.576425,0.536399,8.54611,1.31842,2.6277,4.29891,-1.52264,1.69189,1.93863,4.84899,-270.352,-840.824,-473.36,5040,-48580,9380
11.5341,7.73143,1.73822,5.5231,5.82642,2.94793,2.7987,2.51915,9.53195,8.79941,2.68593,8.54434,0.808828,2.72812,1.68777,6.31731,-268.888,-842.776,-474.824,4060,-47460,8960
4.45801,0.41477,-5.6062,-0.631621,-1.93269,1.55202,-0.208961,0.315079,1.40227,2.23113,1.08001,-0.0180086,-1.62555,-0.430606,-3.10091,1.0541,-265.472,-837.408,-474.336,2800,-45220,8120
5.26519,8.25368,-0.134272,6.6285,5.43966,3.33228,4.21133,5.90567,5.21426,3.96547,1.54902,4.10234,0.114574,2.16436,4.03294,6.71307,-268.4,-838.872,-471.408,2100,-41720,7280
1.41188,10.9687,1.28067,7.47554,6.93972,1.93698,4.21966,9.44134,1.92045,1.39473,-3.24495,2.84678,-0.97802,1.95392,6.7547,8.462,-269.864,-838.872,-467.992,1680,-39060,6440
-4.75746,7.73112,-0.950629,2.65085,1.65174,-0.293208,1.03591,7.81559,-6.11669,-3.7467,-6.36581,-0.18909,-1.0676,-0.241412,2.9407,5.72611,-265.96,-839.36,-469.944,2240,-37240,5600
-5.0161,2.372,-0.663648,0.108419,-1.36221,-0.376136,-0.053168,2.1726,-7.64658,-3.58527,-3.75416,-1.81888,0.343248,-0.264629,1.49104,1.99955,-268.888,-837.408,-469.456,1960,-32900,4200
2.21754,3.54177,3.66434,1.06119,0.879869,-0.155755,0.268531,0.196636,0.170034,2.53805,0.876287,-0.354628,1.82165,1.51373,1.75281,2.05262,-271.328,-836.432,-468.968,2240,-31220,3360
8.50183,6.39411,7.47846,1.47239,1.8713,-0.415827,-0.274156,-0.645229,7.51389,8.49549,7.33982,1.92747,3.56623,1.475,-0.199905,1.97395,-271.328,-835.456,-468.48,2380,-30380,2940
3.55605,1.73835,6.75149,-1.92758,-0.0861229,-2.13354,-2.49424,-2.36684,2.11893,7.27106,6.70344,-3.63561,2.87909,-0.942706,-3.54471,-0.341755,-269.376,-836.432,-467.016,2660,-28280,2240
-1.43222,-4.54097,0.922035,-2.62683,-1.85259,-3.10385,-2.27093,-5.68655,-0.899581,-0.851727,4.58943,-8.03512,1.5382,-1.28181,-1.71323,-1.13298,-269.376,-833.016,-466.528,2800,-26880,1680
0.163497,-1.31188,2.3329,0.757037,4.22553,-0.676203,1.27506,-2.43436,1.7041,1.07438,4.01406,-3.8269,3.05696,2.27684,1.62367,2.57999,-272.304,-837.896,-466.04,3360,-25340,1120
-3.68853,-8.54006,-4.75546,-1.68791,-1.19454,-0.077647,-0.0494262,-5.3747,-1.23534,-5.29815,-0.951199,-6.53865,1.50343,0.864566,-1.03636,-2.64697,-274.256,-835.456,-465.064,3780,-24920,840
-3.58886,-8.92181,-2.31713,-0.547238,-0.399978,1.0061,-0.00471702,-4.16584,-1.17071,-5.54869,-2.05995,-5.69078,-0.187708,-0.509557,-0.717011,-1.89629,-270.84,-839.36,-467.992,5040,-25340,700
-0.333071,-6.42408,2.24948,0.922457,1.81112,0.694524,1.43691,-0.745271,0.925033,-3.90797,-2.615,-2.99688,-1.61629,-1.62512,0.241519,-0.641407,-270.352,-836.92,-465.064,5740,-23800,140
2.65858,-7.37553,1.41619,-1.13148,-2.28857,-1.50899,-0.988688,-1.40657,3.94642,-1.13285,-1.69341,-1.00735,-2.04543,-2.20119,-2.52335,-3.0036,-271.328,-840.824,-465.552,6580,-23100,-140
3.90248,-2.9387,3.1343,1.99651,-0.0548955,-1.15766,1.12659,3.41954,3.82896,3.54786,-2.13204,3.28176,-0.4173,-0.866771,1.08249,-0.21467,-272.304,-840.824,-464.088,7840,-22680,-420
0.30512,-5.73304,-2.91093,0.199368,-4.39069,-0.900233,1.54353,2.52105,-1.51343,-0.278352,-3.74732,1.11782,-1.40333,0.0763436,3.38105,-1.66602,-268.888,-844.728,-465.552,8960,-21840,-1120
-1.00251,-0.819075,-2.63095,-0.202032,-2.38069,0.470662,2.2867,2.26478,0.589692,0.680808,-4.08625,4.46491,-2.10514,0.489242,4.0666,-0.955568,-264.496,-843.752,-465.552,9940,-19180,-2100
-4.3273,-2.17845,-3.81544,-4.37739,-2.51462,-2.07132,-1.91072,0.165592,-3.37284,-0.387003,-5.3736,1.54318,-3.4985,-1.51685,-1.47737,-4.40157,-267.424,-843.264,-466.04,10640,-15120,-3780
-7.92162,-6.71528,-6.45165,-8.15508,-7.27011,-2.99507,-6.56379,-2.94564,-8.17563,-4.94448,-4.71344,-1.57315,-3.16887,-5.34117,-5.15415,-7.69018,-264.496,-844.24,-464.576,10500,-11760,-5320
-1.4521,0.985597,-1.25406,-2.40725,-1.96954,-0.27393,-4.4098,-0.425948,-1.97165,1.55395,-1.35509,3.92614,-1.25885,-2.72727,-1.75866,-3.78295,-263.52,-842.288,-467.504,10360,-8680,-6720
-6.19955,-4.96398,-7.62191,-8.77313,-8.10235,-2.24356,-10.0964,-3.6777,-8.73723,-4.11464,-3.98501,-2.58418,-5.56649,-4.50349,-13.4406,-6.30641,-266.448,-844.24,-469.456,9660,-5180,-8400
-8.94425,-2.56243,-7.52915,-6.83286,-5.56767,0.334523,-8.27105,-0.636271,-8.3837,-6.52872,-2.3056,-3.45325,-4.58638,-2.61792,-12.2587,-5.40717,-264.008,-839.848,-467.992,8680,-3080,-9380
-7.32082,6.37961,0.231083,0.783499,2.0914,3.02861,-2.73772,3.78067,-5.26482,-0.755321,2.57913,0.488157,0.303533,1.3892,-4.02383,-3.81892,-261.568,-842.776,-469.944,7700,-840,-10080
-0.215942,3.85701,-0.0630558,2.83322,-0.716174,2.87868,-0.363598,-1.58058,2.42737,0.690926,1.67285,1.627,0.545469,0.557365,-1.10877,-2.4212,-255.712,-841.312,-467.992,7140,1120,-10920
9.48756,9.29029,6.31939,7.85933,5.95264,3.81883,5.00408,-0.195503,11.7275,5.76244,2.32597,7.77326,1.918,2.69956,1.78035,6.19761,-260.104,-843.264,-466.528,6720,5320,-12180
6.50571,1.85393,1.64801,1.90363,-0.960739,0.23967,2.56726,-3.91882,6.91847,1.25714,-1.27755,1.64745,-0.936753,0.35229,-0.967355,2.45594,-262.056,-843.264,-459.208,6020,9100,-13300
10.2387,10.1102,7.21478,8.59492,5.74392,2.66557,9.4868,1.8254,10.8193,8.78357,3.04107,5.01488,4.40978,4.73422,7.08829,9.63575,-264.984,-841.312,-454.328,5740,12180,-14000
4.35522,7.53534,5.72933,6.11755,5.64696,2.43967,9.82761,3.58201,2.12655,4.15542,2.79163,1.21078,4.01897,3.99297,5.65927,9.21637,-265.96,-840.824,-452.864,6160,12320,-13860
3.58937,6.89738,2.03783,5.71717,4.7138,2.57747,7.4634,2.10915,1.52501,-0.953389,2.61145,0.515123,3.67948,2.75598,7.34043,5.44779,-267.912,-842.288,-450.912,6300,12460,-14000
2.64982,4.37736,-0.142772,5.03386,1.57603,0.629067,5.22754,-1.95468,-0.0742691,-0.797911,3.72397,-0.671913,4.02329,3.44355,8.05728,2.3053,-265.96,-839.848,-450.424,6580,12460,-14000
3.38461,3.26591,2.04826,4.3255,2.01092,-1.55445,5.53045,-0.899635,-0.323833,0.918182,3.99734,-0.0342197,4.20884,3.78412,7.22367,2.20485,-267.912,-839.848,-450.424,6860,11480,-13860
9.01707,6.93005,6.58159,6.27663,8.03939,0.708677,8.13206,2.00999,7.75425,5.91986,9.0495,5.51775,7.81085,5.84496,8.91783,4.42529,-265.96,-840.824,-454.328,7560,10360,-13440
10.7798,5.873,7.19381,3.36276,10.2711,0.596285,3.36075,3.66664,7.98255,10.6097,8.89201,3.74465,7.14455,4.905,5.13021,3.5611,-267.912,-842.288,-458.232,8540,8960,-13020
-3.28381,-7.84072,-4.21811,-8.02164,-1.52344,-2.48461,-7.92941,-0.532099,-6.08368,-3.01198,3.19018,-5.62249,1.16318,-2.1273,-3.87683,-3.48413,-270.84,-843.752,-459.696,9240,8260,-12740
-9.65935,-7.9756,-3.9575,-8.22297,0.657309,-2.24613,-7.89508,4.09855,-11.4316,-5.85248,-2.39573,-3.91514,-1.31276,-2.17186,-3.47735,-0.962226,-268.4,-844.728,-458.72,10080,7280,-12320
-14.038,-15.332,-9.94273,-13.5096,-5.35138,-4.22238,-11.0498,1.69882,-14.9005,-11.9198,-6.70012,-8.47446,-5.10962,-5.51875,-7.77011,-4.78517,-270.352,-845.704,-457.256,10220,7840,-12040
-6.89238,-8.00117,-4.54095,-7.83184,-2.46088,-2.87925,-4.95772,2.71202,-4.99515,-5.31514,-4.3701,-4.72425,-2.6141,-4.35988,-1.86493,-2.52821,-267.912,-844.24,-458.232,10500,7840,-11900
0.194952,-1.26956,-1.92597,-4.26134,-2.24963,-1.58115,-2.34538,2.08395,3.90185,-0.171525,-2.21414,-1.34296,-1.79439,-2.76556,-0.708373,-4.47948,-267.912,-842.776,-457.256,10640,8680,-11900
5.3697,0.737533,-3.01217,-2.2812,-2.85866,-0.356842,-2.7966,-1.23581,8.50976,1.84402,-1.56102,1.60077,-2.65661,-1.80082,-2.46144,-5.54745,-266.448,-841.312,-461.16,10640,9240,-11760
5.74166,9.42094,3.74369,5.81577,4.26463,3.02185,0.44804,0.53089,7.94678,4.48511,-0.804323,6.10698,-1.07024,0.649584,1.42365,-0.676854,-266.448,-840.336,-460.672,10360,10500,-11900
-12.2223,-2.17203,-3.8328,-0.83884,-5.47995,-0.488923,-2.10502,-3.33139,-8.77789,-8.68508,-2.54311,-4.80588,-5.70711,-4.95833,-1.50195,-3.98691,-267.912,-839.848,-460.672,10080,11620,-11900
-10.5261,-0.417796,-1.09187,4.66208,-1.30383,0.797041,5.9927,1.76878,-5.54409,-3.96862,-2.60208,-0.517128,-4.57337,-2.08535,6.63843,1.35849,-268.888,-839.848,-461.648,9800,12740,-11900
-2.21704,-2.05462,2.71911,5.99802,-0.54083,2.42302,6.78693,1.53302,0.372177,0.341824,-4.06648,2.38343,-4.04456,0.172603,6.66049,0.593575,-271.816,-841.312,-459.696,8680,14280,-11900
2.82597,-3.09299,3.71785,2.71606,-4.87695,1.49635,0.152484,-3.32093,2.61869,-1.82832,-2.65025,2.74893,-3.8608,-1.51712,-0.215063,-1.24925,-273.28,-843.752,-458.232,7980,15260,-12040
4.78414,-2.38798,3.67938,-1.05448,-6.89348,-0.0448781,-5.6952,-6.40407,3.35853,3.68882,-2.29142,1.83068,-2.47197,-1.37114,-6.91453,-2.87622,-274.256,-840.336,-459.208,6580,16800,-12040
1.67649,-1.99686,0.851929,-2.33352,-6.62328,-1.32472,-4.10627,-6.95603,0.559453,2.1859,-2.78378,-0.31718,-0.959595,-0.828031,-7.67964,-1.93322,-275.72,-844.24,-462.136,5740,17640,-11900
-2.55101,-2.46984,-3.15425,-1.65821,-3.53701,-2.0176,-1.08857,-6.93957,-2.98537,-2.36369,-2.08762,-1.56689,-0.219935,0.252122,-4.42744,1.34557,-278.16,-843.264,-458.72,4060,18060,-11620
-6.8575,-6.44941,-5.20793,-5.72277,-5.21838,-3.85777,-3.578,-7.84447,-8.89543,-3.56119,-2.67727,-6.66478,-2.24303,-1.91659,-8.13078,0.185011,-280.6,-843.264,-460.672,2240,18480,-11340
-7.24933,-8.88315,-5.73758,-7.31461,-6.8236,-4.11526,-5.91587,-6.86187,-8.8615,-4.88389,-1.61736,-8.60243,-3.85747,-1.965,-9.70315,-1.48259,-279.136,-845.704,-457.744,980,18760,-11480
4.61647,7.51426,8.10476,6.68483,8.78289,0.99188,3.93808,4.5101,3.12577,8.97856,5.54193,3.57644,4.07658,5.04831,2.45444,10.7703,-279.624,-846.68,-456.28,-560,18340,-11200
5.09359,2.15239,3.68235,3.34339,3.14328,-0.369145,1.96809,-0.494899,0.40142,4.09747,5.81236,2.361,4.38945,1.27214,0.492719,7.60316,-277.672,-845.704,-456.768,-1680,17500,-11060
4.59864,3.00693,3.61771,6.6308,8.24088,1.22256,7.19885,2.18187,2.24556,2.96644,4.11337,5.07251,5.37579,1.96548,7.20782,11.946,-280.112,-843.264,-458.72,-2800,16660,-11200
5.80427,2.67964,3.91576,4.74101,7.75132,1.82634,5.76807,1.2028,5.7559,4.38502,3.21343,5.39915,5.68862,2.84188,4.94775,6.77491,-278.16,-841.8,-458.232,-4060,15540,-11480
9.46964,4.52956,4.6096,2.52756,7.07046,1.56172,1.90045,1.76361,11.5849,5.76787,3.20655,6.46758,5.42945,3.3568,0.579431,0.76073,-275.232,-842.288,-455.304,-5040,14140,-11480
11.9102,9.57205,8.34902,5.07078,11.0551,3.93423,3.74313,7.74405,15.0807,9.30507,3.24427,7.19107,6.91646,6.18404,5.30775,1.95529,-276.696,-838.872,-458.232,-5880,11900,-11340
8.39754,5.99903,3.73048,2.65713,7.0782,5.9673,4.63854,11.1279,10.5917,4.46918,2.14356,0.548762,4.11459,4.54889,8.46035,1.08859,-273.768,-839.36,-457.256,-6160,9660,-11620
2.06016,2.6373,-3.25069,-0.652109,0.602301,4.04452,2.11921,8.0433,3.38575,-1.5818,1.91947,-3.81473,0.263097,1.3141,6.44218,-1.36805,-272.304,-837.408,-458.72,-6160,7840,-11620
0.112656,0.371096,-5.39299,-6.32785,-5.0096,-1.6558,-4.19973,1.7478,-0.360989,-1.1769,2.51338,-4.6193,-1.30327,-3.66486,-2.47042,-8.0018,-271.816,-836.92,-464.576,-5880,4900,-11340
-2.04243,-4.54123,-10.0341,-9.31694,-9.15149,-3.53691,-6.90869,-1.01205,-3.43236,-7.54909,1.93689,-6.13969,-3.53137,-4.55403,-6.25683,-12.1626,-268.888,-838.872,-462.624,-5600,3640,-11480
-2.32746,-1.45409,-7.46795,-5.96031,-5.19276,-1.70725,-7.78931,2.63844,-6.35612,-3.45443,1.58153,-2.4388,-2.36723,-2.19238,-9.00374,-10.1693,-265.472,-837.896,-460.184,-4900,980,-11340
-7.75736,-4.78123,-8.72201,-4.22765,-8.83968,-1.94085,-7.20006,0.939714,-10.7865,-6.37226,-0.28586,-2.89081,-3.10874,-2.43404,-8.24736,-10.7711,-260.104,-838.872,-458.72,-4060,-560,-11340
-8.49048,0.272331,-1.70668,2.27912,-3.86281,-2.0138,-1.07967,1.48978,-7.95917,-4.28119,-0.623576,0.903262,-1.87421,-0.574816,0.0568004,-4.33544,-258.64,-842.288,-461.648,-3500,-840,-11620
-9.47687,-2.48202,-0.764095,-1.06836,-5.27909,-2.41555,-1.48183,-4.1054,-10.4226,-7.46243,0.153496,-3.20495,-1.5473,-2.29417,-0.764218,-4.1081,-256.688,-843.264,-462.136,-3360,-140,-12180
-14.2472,-6.20686,-3.67246,-5.82648,-5.77832,-3.10235,-2.35886,-7.88629,-13.9959,-10.3329,-0.40208,-7.7055,-1.31004,-4.95362,-1.49917,-5.13282,-253.76,-841.8,-469.456,-3500,0,-12600
-7.73464,3.25143,4.13723,0.666458,4.82393,-0.172057,4.64301,-0.182138,-4.15376,1.89017,-4.32205,0.0918038,0.472031,-0.970393,5.95982,3.58971,-254.736,-840.824,-467.016,-3500,1680,-12880
-0.504181,4.71716,4.5313,4.02325,6.47895,2.75557,6.06545,2.95017,2.98449,2.07508,-11.7342,1.8763,-1.12318,3.40617,5.2505,5.86095,-252.784,-847.168,-467.992,-4060,3360,-13020
4.61286,7.83984,5.94819,7.50499,7.7183,5.80814,4.53892,7.52111,7.44511,3.46407,-13.004,5.68144,1.31637,4.66454,2.34842,7.79644,-253.272,-846.68,-466.528,-4620,3920,-13020
1.96491,-2.63081,0.0756645,2.85451,3.03091,3.01413,-0.421972,4.3,0.450966,2.81389,-14.3172,1.96185,-3.94662,2.62266,1.38139,-0.0965855,-254.736,-844.728,-465.064,-4760,3220,-12320
-0.427874,-5.82774,-2.70862,3.08642,2.06781,1.27475,1.72117,-0.363255,-0.980587,1.72862,-10.3744,0.555435,-5.75536,-0.0221701,5.13553,-2.99002,-250.344,-846.192,-466.528,-4340,1820,-11620
2.07305,-4.24134,0.0880943,2.643,2.91746,0.400955,2.99809,-5.73489,2.05421,4.94602,-2.71749,1.92599,-1.71155,-0.219353,3.4389,0.218238,-250.344,-844.728,-463.6,-3780,1120,-10780
2.57574,-5.52498,-1.8242,-0.16746,-1.3842,-0.417907,2.41942,-5.72787,2.57737,1.39879,1.48803,1.07606,0.107163,-2.25858,-1.0185,3.37144,-252.296,-848.144,-467.504,-2940,1540,-10500
6.47269,-0.0495077,2.07665,3.50158,-1.47689,0.904519,3.89849,-2.43396,6.58568,1.46958,4.3317,4.49211,1.00373,-0.306366,1.85817,6.28816,-247.416,-848.632,-468.48,-1680,2240,-10220
8.11163,5.4236,6.0347,7.04161,4.00705,1.20455,4.93543,0.859375,7.64018,3.51126,6.81871,7.48013,0.550547,1.78786,3.97611,8.82175,-252.784,-846.192,-467.992,-700,2940,-9940
-0.0835359,-2.65781,-1.32655,-2.48773,-3.82221,-2.08673,-2.59944,-3.93984,0.954368,-3.80317,7.31694,-0.121554,-0.312618,-2.96105,-4.10497,1.64412,-248.88,-848.144,-463.6,0,2660,-9660
-2.4506,2.04307,-0.142941,-0.33087,1.75885,-2.35755,0.257605,-0.537773,-2.08042,-3.21721,6.59876,-0.641217,1.1939,-0.748659,0.119815,3.30924,-248.392,-846.68,-465.552,840,1540,-8820
-2.17094,-0.00991573,-2.88449,-3.0538,-3.87584,-3.59079,-0.46142,-4.96636,-2.99524,-5.68285,5.86291,-4.35937,-0.245665,0.236891,-1.47882,-0.489,-248.392,-844.728,-465.552,1260,1400,-8400
8.05909,8.80113,6.9181,-0.262333,1.85186,-1.47136,-0.347189,-4.27184,7.82997,4.21032,10.754,3.60188,6.20634,3.92122,-1.21,2.55578,-249.368,-845.704,-466.528,1960,980,-7700
7.27193,4.79755,3.99687,-3.37247,-1.68654,-1.25747,-4.54893,-5.74726,5.17038,3.42752,10.3146,1.04336,4.90204,1.92428,-4.22934,-1.35483,-250.832,-845.704,-465.064,3220,560,-6860
4.92997,2.23058,2.72725,-3.18243,-1.72607,-0.524223,-5.76068,-5.11515,3.00022,4.93529,9.15094,-1.93521,2.54875,0.23298,-4.00011,-4.71927,-251.32,-848.144,-461.648,4060,-280,-6440
4.50082,2.64949,3.06275,-2.5119,1.20766,0.334792,-3.87465,-3.36903,3.64825,7.46398,6.69662,-1.16578,3.27933,1.28776,-3.24284,-3.98519,-251.808,-846.192,-463.112,4900,-700,-6020
-0.466924,-2.26029,-1.8801,-8.88,-4.25222,-2.51299,-7.37942,-4.45759,-0.393549,2.84516,3.37666,-6.01919,1.51428,-3.15884,-6.77033,-5.96555,-252.296,-842.288,-466.04,5460,0,-6020
-2.23837,-3.44772,-3.9087,-6.2735,-3.29915,-0.856804,-4.79262,-0.388546,0.376252,0.116477,0.292282,-4.31422,0.301509,-3.46488,-1.96119,-1.0282,-252.296,-844.728,-459.208,6300,140,-5600
-0.756907,-2.94915,-2.44923,-0.859906,-0.129953,0.801828,1.41501,4.96171,-1.16715,0.687688,-3.70237,-0.240737,-2.58076,-1.02049,3.74806,4.24954,-253.76,-845.704,-462.136,7420,420,-5460
-5.50273,-6.13484,-2.81838,-1.32212,-4.945,0.332335,0.796648,6.22167,-5.79179,-3.01076,-3.62664,-1.64148,-2.44859,-1.99282,1.76858,6.64753,-254.248,-848.144,-459.208,7980,560,-5740
-3.54649,0.51794,4.86037,1.31895,-1.90192,0.759736,1.22872,10.2713,-2.82044,2.94553,-2.99528,0.787431,0.718126,0.0671805,0.457935,8.46412,-259.616,-852.048,-460.672,8820,1260,-5740
-5.49251,-2.2164,0.230656,-0.497338,-4.69848,-0.641305,0.685034,9.60207,-4.45747,-3.51514,-6.33484,-2.47054,-2.42953,-1.54898,-1.7942,0.60719,-266.448,-852.536,-462.136,9940,1540,-5460
-8.87331,-5.91924,-5.46591,0.751669,-0.422503,0.360676,1.88648,6.55636,-7.77191,-8.90215,-6.49099,-2.98479,-3.10423,-1.37345,0.659603,-0.366307,-262.544,-847.656,-462.624,10080,3080,-5600
-7.26775,-3.56828,-2.60975,5.31801,6.02963,0.312321,3.60206,2.38028,-7.07425,-3.78474,-2.84992,1.30329,-1.50135,-0.767507,4.61806,1.09409,-260.104,-846.68,-462.624,10640,5180,-6300
-3.585,-1.88532,-0.41223,6.66808,5.16942,0.672149,3.63027,-0.421977,-2.33595,-3.0025,-3.738,2.50227,0.114796,1.86652,4.00273,-1.23672,-258.64,-850.584,-459.696,10920,5880,-6860
-0.820682,2.69913,0.559814,6.71933,6.47703,1.85289,4.0824,1.40526,-2.83574,-4.47176,-4.06567,2.16127,0.634305,4.24249,2.47964,-3.83405,-256.688,-843.264,-463.112,12740,4480,-7280
-4.20736,-4.88888,-4.8331,-1.8664,-3.28369,-1.81605,-2.36129,-3.76087,-9.7823,-9.68472,-8.03877,-5.89165,-4.98237,-1.3292,-4.76593,-11.6741,-256.2,-838.872,-460.184,13440,2660,-7560
-0.494997,-1.57544,-0.769813,1.10368,1.11995,0.0275068,0.124566,-1.37252,-4.94432,-5.99367,-6.97186,-2.35607,-3.69896,-1.3839,-1.19803,-5.89165,-258.152,-836.432,-459.696,16660,2240,-8120
1.38161,-0.37559,-0.864419,0.709638,2.62169,0.371169,-0.473732,-1.56207,-1.33461,-1.19206,-2.63405,0.0610896,-2.06569,0.391927,-1.44052,-6.20384,-267.912,-835.944,-457.256,18340,3640,-8680
2.461,-0.236034,-2.20763,-2.33746,0.77559,1.04385,-1.1183,-1.02703,4.2655,2.61303,0.130929,2.10057,0.472958,0.945097,-3.06815,-6.38099,-266.936,-836.92,-457.256,18200,2940,-8540
2.44,-0.778588,-2.78846,-4.38733,-0.97627,0.0165927,-2.60298,-0.0334313,6.34355,5.32143,-0.613561,2.78144,0.962385,0.867764,-4.19915,-3.93469,-267.424,-838.384,-456.768,16800,-140,-7700
3.5885,2.73632,-0.659258,-0.20261,0.591991,0.807652,0.543547,0.387761,8.60271,5.64195,-0.123793,4.48307,0.981439,1.78043,1.7935,1.38776,-261.08,-837.896,-459.208,16240,-2520,-6860
3.73511,4.96558,1.61301,3.14876,3.08793,2.27234,3.45699,1.07236,7.64019,6.78496,2.90877,4.29771,2.04217,2.50545,5.69096,5.18902,-274.256,-833.016,-451.4,15400,-2800,-6580
7.59398,9.2907,5.6934,5.82137,6.98465,1.79425,5.11589,3.01516,11.4348,8.46773,3.58553,5.17688,1.38289,2.65579,7.6826,6.39854,-277.184,-842.776,-447.496,17360,-7700,-4060
5.1885,3.80203,1.36048,1.48216,1.68787,1.03226,2.04782,-0.320106,10.7539,2.42498,2.96443,2.82869,-1.16423,1.29241,4.05435,3.22742,-282.064,-836.432,-438.224,20580,-17080,-1120
8.38728,10.1394,5.86178,1.59182,4.72065,2.17039,1.32492,0.780868,13.2569,7.49813,4.29835,6.81609,2.11618,2.77137,1.79467,5.86473,-279.624,-830.576,-435.784,27020,-29400,3500
0.602794,-0.0413043,-1.06632,-8.41011,-6.3164,-1.37627,-5.79647,-6.22955,0.981785,-1.59642,2.28165,-3.46628,0.870062,-3.32441,-8.01388,-1.79803,-267.912,-841.312,-437.248,30660,-36680,6720
0.0595377,1.16951,1.35612,-4.21755,-3.10943,-1.36552,-2.2458,-3.11197,-2.28336,-0.910113,3.16949,-3.61848,2.97787,-2.71678,-3.43741,1.57535,-269.864,-847.168,-442.128,33880,-38640,7280
-0.0352736,-1.41266,1.7791,-1.51424,-4.16163,-0.824783,-2.111,-3.44784,-5.63319,-0.971462,3.60887,-4.17607,2.90998,-1.25493,-0.973865,1.4421,-272.304,-842.776,-445.056,36820,-40180,7560
-0.874813,-0.60155,2.12272,1.87628,-2.12742,0.908008,0.685248,0.319377,-6.65534,-0.474523,1.62523,-2.97818,4.21807,1.61105,1.42006,3.89301,-265.96,-852.048,-458.232,38360,-42280,8260
3.68488,7.96875,2.93513,8.16214,4.76139,2.87926,4.93005,4.79274,0.0684114,3.39054,-0.780871,2.92033,4.66912,3.69772,6.97423,7.39623,-268.888,-851.56,-458.232,38080,-42980,8540
-1.37323,0.480875,-4.31925,2.70336,-2.88558,0.520725,0.0387078,-1.528,-3.51654,-4.28104,-3.20702,-2.3272,-0.355072,0.834263,1.94932,1.42456,-263.52,-854,-461.648,36960,-43540,9240
1.18976,3.3873,0.629233,5.17688,-1.07713,2.43675,3.58893,0.402491,0.501823,-1.41797,-1.29036,2.51713,1.1982,2.46149,3.4879,3.77139,-260.104,-855.952,-467.504,33600,-41580,9100
3.53208,3.85795,4.83614,4.76053,2.07118,0.425559,3.38036,1.2603,-0.96358,4.53155,1.4344,4.78954,3.16195,1.10636,2.84112,2.40617,-262.544,-852.048,-465.552,29820,-39340,8680
5.16346,2.12607,4.73529,6.60117,2.05548,-0.613619,5.87565,-0.668669,1.23465,3.10694,4.60295,5.45148,3.19033,0.713276,8.21048,2.87098,-260.592,-861.32,-468.968,27300,-38780,8960
-1.53651,-4.13391,3.57723,-0.315218,-1.33371,-3.4804,-1.55427,-2.76527,-5.14931,1.15335,1.2042,-0.762341,-1.64351,-4.4622,-1.0752,-1.31577,-261.08,-858.88,-466.528,24780,-37520,8820
-12.6326,-18.6472,-8.84798,-13.5645,-13.2315,-6.06404,-12.6167,-7.77643,-15.6307,-11.4168,-1.81068,-12.0765,-8.46811,-10.9006,-14.1175,-11.585,-261.08,-860.832,-466.528,23100,-36260,8400
-11.9827,-16.3497,-10.2944,-11.9021,-11.606,-4.70306,-11.2876,-4.84782,-13.3401,-10.6187,-1.66349,-9.56271,-7.61326,-8.04319,-11.9833,-10.7681,-257.664,-861.32,-460.672,21140,-34160,7700
-12.8586,-11.6559,-9.08791,-7.74815,-6.88021,-2.86744,-7.50354,-0.784459,-10.1152,-10.3457,-0.467962,-7.34984,-6.85349,-3.8757,-8.26166,-6.2364,-262.056,-856.44,-460.184,19600,-32900,7000
-13.8634,-10.324,-7.09318,-7.08678,-4.67543,-0.952772,-6.15599,1.23309,-8.15122,-7.91853,0.678726,-5.74264,-6.17376,-2.41694,-6.89555,-3.86823,-260.592,-855.464,-457.256,18480,-32340,6860
-5.7369,-2.71486,1.74824,-3.49174,1.95931,-0.531947,-2.57213,3.9213,-1.06746,1.48807,-0.654594,0.637628,-1.65153,-0.6844,-3.86259,-0.228796,-264.008,-851.072,-451.888,16520,-31780,6440
-1.66325,-1.61531,1.63753,-2.83366,1.53593,-0.164923,-0.850374,1.66162,2.363,-2.227,-2.49583,-0.922345,-1.71622,0.282501,-0.962159,0.214115,-266.936,-848.144,-447.496,15260,-32200,6160
5.72337,6.56072,7.36006,3.40139,10.187,1.79276,3.52291,5.72353,11.0995,6.20541,0.531997,4.2332,0.85282,3.51527,6.49448,4.55817,-266.936,-848.144,-443.592,13860,-33600,7000
10.1617,6.71704,5.33552,6.0766,11.8262,2.65776,6.4143,5.06559,14.1821,10.901,1.87182,5.45261,2.00344,4.31892,9.26502,3.58963,-270.352,-845.704,-444.08,13020,-35140,7140
8.55153,8.38206,1.81695,9.95775,9.6108,2.35991,12.771,2.29867,12.1778,8.84047,1.92143,4.66103,2.35698,4.87003,12.8655,3.27973,-275.232,-842.776,-440.664,12600,-36680,7700
8.78269,10.6112,3.13882,9.83654,10.0998,0.839248,13.2803,1.47882,9.00921,9.67331,2.21113,5.30381,3.17092,5.16712,9.70643,2.73171,-275.72,-844.728,-439.688,11760,-39480,8820
3.52788,3.41471,-0.988989,-0.458701,0.877154,-1.27998,2.77055,-1.77161,2.5892,1.70482,-2.46515,1.40825,0.442724,1.73263,-2.1081,-2.82569,-274.256,-843.264,-437.248,11480,-42140,9660
0.686648,0.726621,-1.45725,-4.09324,-2.7687,-1.84448,-1.8575,-3.41318,-0.602005,-1.059,-4.32621,0.927821,-0.0840093,0.968993,-6.3841,-2.68686,-273.28,-840.336,-440.176,11620,-44380,10640
0.669935,4.80946,0.343826,-1.53755,0.108082,-0.236523,-2.04675,-3.60051,-1.28786,0.284604,-1.49362,1.77247,2.66253,1.84,-5.15772,0.333207,-275.232,-840.336,-438.712,11200,-45080,10920
1.58905,6.64517,-2.07343,0.767419,-1.40544,1.36424,-0.564953,-3.85874,0.917366,-0.62944,0.79014,1.67574,2.67945,3.10294,-1.00718,0.0510058,-276.208,-845.216,-444.568,11200,-45640,11200
2.52478,6.56945,-0.210071,1.64885,2.13947,1.74795,0.950516,0.984325,0.541692,0.606614,-0.100926,1.45687,3.48501,2.6442,-0.15148,0.162895,-276.696,-846.192,-443.104,11340,-45500,11340
-4.26107,-8.0419,-9.22784,-9.19469,-10.5968,-1.26383,-5.87233,-3.83985,-7.11971,-9.17805,-2.70765,-9.00627,-0.0565257,-3.92863,-6.22699,-7.48988,-276.208,-845.216,-440.664,11760,-45080,11060
-2.28731,-5.38832,-4.17398,-7.45056,-6.79063,0.133269,-4.45816,-0.790615,-5.55986,-6.10068,-2.42709,-7.11597,-0.321495,-4.55192,-2.12011,-3.08737,-276.208,-847.656,-442.128,11760,-44240,10780
-0.861209,-0.885021,0.985804,-1.31019,-2.1605,2.78867,-0.804502,1.84066,-1.24169,-6.19351,-3.73619,-2.49476,-2.38661,-1.05746,2.48973,-0.321345,-274.744,-850.096,-445.056,11900,-43540,10500
1.51319,5.49196,6.28965,8.05215,4.97984,5.3712,5.46176,6.69573,2.83484,-1.41206,-1.41427,4.30363,0.220102,3.31212,9.34962,7.71186,-273.768,-851.56,-445.544,11900,-42140,9800
-0.218803,-2.70035,3.96921,2.34456,-0.499102,2.43493,-0.874948,2.12482,0.262591,0.162765,-0.425397,1.79771,0.405051,1.40272,1.52164,3.73304,-276.208,-850.584,-444.08,11060,-39060,8820
2.17838,-4.63655,5.01625,-0.0164831,-3.44823,0.758504,-3.48179,0.787646,1.42075,1.94751,0.937306,4.12467,-1.29777,-0.259908,-1.92536,2.27346,-272.792,-853.024,-444.568,10780,-36820,8120
2.1922,-4.88931,4.36268,-0.449306,-2.03093,0.324747,-2.93253,2.51894,0.29749,3.04974,3.35945,4.45458,-1.47077,-1.20412,-1.99864,4.87625,-276.696,-851.56,-445.056,10640,-33880,7000
2.12513,-4.44572,3.31604,0.633679,1.51736,-0.296547,-2.34974,1.87055,-0.435536,5.9031,3.06585,3.17756,-1.16746,-0.779966,-1.7756,4.82166,-273.28,-856.928,-445.544,10220,-30660,5740
6.12434,4.63479,5.37229,8.01744,5.81249,1.05435,3.67141,1.4155,7.51862,7.29849,6.07573,8.32544,3.01031,0.884696,5.56076,6.07418,-273.28,-854.976,-448.472,9520,-26880,4340
1.56225,4.25471,3.52231,6.10807,7.70895,-1.11892,3.48969,3.53426,3.07232,5.39693,2.33633,5.6287,3.23951,0.110309,3.23738,3.54321,-280.6,-859.368,-447.008,8820,-23380,3220
-3.58693,-2.1654,-3.38768,1.99873,3.07711,-2.01413,0.402001,1.6983,-3.08675,-1.73402,-1.54247,0.1982,1.32035,-0.518174,0.187862,-0.601488,-277.184,-853.024,-443.104,8260,-22960,2520
0.305899,0.336458,-3.28064,3.37145,2.7456,-1.29019,1.19102,0.473182,0.993444,1.12702,0.293432,-0.083563,2.36079,0.657676,2.61095,-2.97885,-278.648,-856.928,-443.104,9100,-22260,2380
3.83838,4.39425,-0.692894,5.27073,2.38798,-0.504724,3.11316,2.58852,3.28683,2.19718,1.16344,1.24408,3.86816,-0.248693,4.00233,-1.4514,-280.112,-855.952,-439.688,8820,-18760,1120
-2.68546,-3.65377,-7.66757,-2.13601,-6.94981,-2.18111,-1.19665,-0.266346,-6.02623,-6.78722,-3.75762,-6.06318,-0.429143,-2.89231,-2.75161,-3.63128,-277.184,-854,-441.64,9520,-17780,840
-6.66093,-3.18256,-5.76415,-0.961742,-3.04878,-1.62767,0.574025,0.643554,-8.85719,-6.64195,-3.346,-7.60515,-1.06157,-0.547709,-0.170568,-1.36416,-270.84,-857.416,-444.08,10360,-15820,280
-9.14532,-4.28193,-5.79043,-3.72945,-5.98054,-2.7594,-3.47966,-6.07826,-6.20583,-6.9725,4.50453,-9.69829,-0.319404,-2.91837,-2.10547,-5.55417,-276.696,-851.56,-442.616,10080,-13440,-840
-8.60941,-1.6366,-3.53286,-6.31263,-3.90614,-3.49327,-6.79058,-7.49207,-3.25498,-1.05954,4.07448,-7.2186,-0.93176,-4.24171,-6.28089,-7.43265,-273.28,-851.072,-446.032,9800,-11060,-1680
-6.04085,-3.98789,-5.37764,-10.1224,-6.66414,-3.48601,-9.97898,-8.43849,-3.03858,-3.16546,-1.1983,-8.04692,-4.53134,-3.64146,-14.1038,-9.8567,-273.28,-854.488,-446.52,9380,-10220,-2100
-0.220548,0.3558,-2.8882,-7.6104,-4.77081,-2.56772,-6.64947,-7.37957,0.656093,-1.79175,-1.29221,-2.8321,-4.13101,-1.41738,-12.4829,-6.77424,-272.304,-853.024,-444.08,9100,-9240,-2380
1.94647,4.04396,1.75454,-4.07263,-1.14904,-1.27768,-2.21232,-4.21004,0.773508,4.65998,-0.953001,0.120635,-1.75415,1.2623,-6.40108,-5.64765,-274.744,-852.536,-443.592,8540,-7560,-3080
-0.0949229,1.9882,1.3687,-2.80164,-1.05643,0.371676,2.08519,-1.07742,-3.57342,2.91376,-1.1929,-1.90165,-1.7429,0.658322,-0.0627729,-3.8538,-275.72,-849.12,-441.152,8260,-6020,-3500
3.46146,2.18825,2.9896,3.25781,2.8003,2.71115,9.51446,1.40245,0.464181,4.33694,1.15134,2.54187,-0.126195,2.72523,11.2547,2.27215,-274.744,-851.072,-438.224,8960,-6160,-3500
4.78802,5.13653,5.59026,7.5606,8.5628,4.54151,11.8445,5.14087,5.24301,4.63659,1.06545,6.44295,1.55567,4.06517,14.9568,8.90447,-275.232,-847.656,-436.76,9520,-7420,-2940
3.85307,5.80968,4.65539,5.26011,5.52663,4.32156,6.84537,5.04531,7.61723,0.94553,-1.59707,6.91747,1.88725,2.40208,9.58816,7.61785,-270.84,-850.584,-443.104,10920,-6860,-3220
3.70683,8.69627,9.03686,6.33223,5.79557,4.03976,5.5501,9.26291,6.19379,0.99905,-3.20658,7.73291,1.4506,2.49065,6.26923,9.31973,-274.256,-851.072,-443.104,10780,-3220,-4620
-0.343074,0.180282,2.49184,1.71102,-2.01526,1.62755,1.47894,3.92627,2.11025,-6.75509,-5.2514,2.47938,-3.08232,0.699699,1.51425,4.74588,-273.28,-848.144,-439.2,11060,-980,-5460
8.93962,6.85781,6.80263,4.7471,4.83495,2.38835,3.15053,1.08547,10.2621,4.75622,1.71527,7.57009,1.67366,3.2406,4.9143,5.25583,-273.28,-849.608,-440.176,11480,420,-6300
8.68385,3.42119,4.43608,3.82809,4.35826,2.18568,3.97671,-2.15549,7.19019,6.02631,1.83841,4.17215,1.23361,3.03651,5.1903,6.17077,-274.256,-851.072,-441.64,11620,1680,-7280
3.33849,-1.7709,1.20824,1.96027,2.03591,1.26715,2.39549,-2.29226,2.70469,0.619011,0.337594,0.311787,-0.322521,0.74031,1.29825,5.75605,-275.72,-848.144,-437.736,11060,2240,-7700
-6.01519,-7.31848,-2.56845,-5.15585,-3.64686,-0.561138,-5.17409,-4.16798,-5.78556,-2.92163,3.78561,-3.66913,-1.74414,-1.0824,-6.74448,2.2153,-272.792,-850.584,-440.664,10500,3080,-8120
-14.4722,-16.0918,-9.52058,-13.5753,-11.7768,-3.57711,-13.9862,-8.40585,-15.4206,-7.54269,-1.21296,-10.8978,-4.49285,-5.58682,-16.4801,-3.1512,-274.744,-851.56,-440.176,9800,4200,-8820
-5.79941,-13.2834,-3.81686,-8.39905,-7.58047,-3.40125,-10.7287,-7.8925,-10.4295,-4.27328,-0.609598,-5.14828,-0.741031,-5.23394,-10.6699,-2.74144,-272.792,-852.048,-440.664,9100,6580,-9660
-3.9847,-15.6728,-3.27136,-9.06438,-6.47522,-3.67438,-8.89799,-4.60042,-11.4494,-4.64459,-2.97694,-6.49249,-0.969693,-3.83666,-8.37742,-3.59259,-273.768,-853.512,-439.688,8260,9100,-10640
-3.68406,-14.4417,-8.17431,-11.5782,-6.78057,-1.85366,-7.45139,-3.38121,-9.23564,-5.14403,-2.48891,-7.4899,-0.410684,-2.89732,-8.18701,-3.91076,-275.72,-853.512,-439.688,7000,10080,-11200
3.70271,0.288807,-5.20916,-1.09549,2.91091,0.541622,1.41284,3.18272,0.811825,2.3373,1.15909,0.352953,1.37637,2.62731,2.12261,1.85283,-274.744,-852.536,-440.176,6020,11060,-11900
2.78776,6.0951,-5.28527,5.97803,5.3606,1.04127,5.59012,4.51728,3.76743,-0.425785,0.789947,3.46318,1.08098,2.48145,9.4869,0.574232,-276.208,-852.048,-438.224,5180,11480,-12040
2.64838,11.0817,-1.04136,9.20228,9.03867,1.62553,5.60652,5.33343,4.98065,0.796602,1.4622,6.89458,1.91281,2.39979,10.2483,-1.8265,-276.208,-851.56,-437.736,4760,11620,-12180
-0.712751,7.62719,-2.25797,5.931,6.23238,0.560269,4.33705,5.50974,1.56197,-0.630191,-0.113048,2.83401,-0.188945,0.643019,4.82189,-5.58545,-276.208,-851.072,-438.224,4620,11900,-12180
4.05563,9.38203,0.920459,8.63406,5.13637,1.26047,7.23827,5.20405,7.20048,3.03531,2.25081,4.08296,2.28496,1.41108,6.73925,-5.06793,-276.696,-850.584,-434.808,4760,12180,-12320
7.27491,15.165,8.46557,13.2248,8.10451,0.661768,7.65791,8.84389,12.4128,10.4298,3.90399,7.51609,6.03527,2.93786,6.81942,0.75111,-273.28,-850.096,-437.248,4620,11760,-12320
0.742945,5.33464,3.21651,4.18192,-3.23084,-2.84181,-1.24785,1.10021,5.7816,5.02855,2.52072,1.32371,2.77675,-0.537349,-2.8145,-5.22195,-276.696,-850.096,-438.224,4620,11480,-12460
2.15957,8.2902,6.35307,3.59787,-0.774521,-2.20819,-2.59826,1.6015,7.17859,7.54263,2.84175,5.80525,1.5236,-0.681532,-3.40775,-2.73049,-274.256,-849.608,-437.736,4060,10780,-12320
0.285332,4.03443,5.96851,0.925076,-3.57259,-2.01319,-3.58878,1.57748,3.76945,4.40365,0.892597,4.48862,-1.85632,-0.451435,-3.04439,-1.77476,-273.28,-849.12,-432.856,3920,9940,-12180
-0.707968,4.57227,9.08557,4.61035,0.669488,1.00441,2.33189,5.79703,1.79627,0.637613,0.0533294,3.3749,-0.158335,2.01671,3.77989,5.1351,-275.232,-849.608,-435.784,3920,9100,-11900
-7.14567,-6.04764,2.50083,-4.25342,-3.26374,-0.913552,-2.0381,2.31109,-8.1392,-6.12665,-1.9384,-5.71732,-1.64943,0.314567,-2.82708,0.242883,-272.792,-849.608,-435.784,3500,8540,-11760
-10.1843,-13.6796,-5.2778,-12.5104,-8.12405,-3.29599,-6.38723,-0.172668,-13.2442,-11.5911,-6.20774,-11.781,-4.46137,-3.07434,-10.4263,-6.9584,-272.304,-848.144,-438.224,3080,8120,-11620
-4.35222,-8.46601,-2.73833,-9.89177,-6.02661,-2.42807,-4.41689,1.00523,-5.39412,-8.0639,-5.39789,-7.65366,-3.04423,-3.56913,-8.97591,-5.54082,-268.4,-848.144,-439.2,2100,7840,-11620
2.65,-1.68143,1.2469,-5.68531,-3.18818,-0.838182,-0.655823,0.838695,0.769698,-1.28208,-1.41135,-4.39044,-0.425274,-1.39194,-4.38546,-2.86348,-267.424,-849.12,-440.176,1820,7980,-11620
3.03541,-3.33357,-1.89649,-4.2914,-3.35639,0.271374,1.54198,-0.43281,-0.0929444,-1.06317,-1.88929,-4.29283,0.132757,-1.091,0.662396,-2.82812,-265.472,-847.168,-441.152,700,8260,-11900
5.5247,2.04945,0.421733,1.09656,3.81369,2.48282,4.58352,1.75137,2.02422,4.48096,-1.66253,-0.12027,3.31624,1.67094,5.50263,-0.63022,-268.4,-850.584,-445.544,280,8820,-11900
3.33268,0.313407,-2.5685,2.58772,2.87994,3.00497,3.71263,-4.31645,0.827757,-0.329398,-1.85697,-0.717235,2.47863,0.04911,6.39564,-5.05371,-266.448,-854.488,-447.008,-280,9520,-12320
1.72066,0.743792,0.428178,4.50309,7.33178,5.08467,4.64083,-2.77297,-3.07916,1.42003,-0.440174,1.26369,2.4807,1.01693,7.74153,-0.201697,-266.448,-851.072,-442.616,-980,9940,-12600
1.84463,-1.75491,0.524376,1.44583,4.83058,4.47892,2.14941,-3.13495,-3.02466,4.25644,1.14797,0.0168781,0.0520545,0.303921,3.63153,6.00565,-266.936,-854,-443.104,-1400,10360,-12600
1.64531,-3.80677,-2.37336,-0.532317,0.719358,1.83136,-1.49392,-6.40424,1.55815,2.70547,2.75977,-2.20831,-2.18927,-0.937806,-0.347305,7.94585,-262.544,-850.584,-444.568,-2240,11340,-13160
3.20103,-1.98529,-4.00917,0.133527,1.37059,-0.447452,-3.29296,-6.72438,6.02467,4.31532,4.67309,-1.84487,-0.950718,0.241538,-2.38708,9.17798,-267.424,-854,-443.592,-3080,12320,-13720
1.0534,-3.17884,-6.98667,0.194127,0.694608,-1.18373,-3.30208,-4.24471,3.17011,-0.457752,1.37109,-0.204113,-1.56164,-0.6357,-0.721336,8.07301,-265.472,-854,-437.736,-3500,13020,-14000
2.5023,5.5239,-1.59575,6.70488,5.66116,2.50151,2.95367,2.00754,3.39388,1.79202,2.30216,7.63906,1.67859,2.81302,5.24798,10.3457,-263.032,-854.488,-439.2,-3920,13160,-14280
0.902736,11.8631,2.01004,10.0149,7.37756,3.82728,5.89097,4.10984,1.17543,2.19489,5.72043,9.38816,1.68909,5.43653,7.87468,7.23324,-263.032,-854.976,-440.664,-4480,13860,-14420
-10.2358,5.41217,-0.0949703,6.69674,2.5401,3.05603,6.34947,3.94889,-7.28762,-6.00293,4.9746,5.5132,1.24166,4.20602,8.5543,4.85566,-265.472,-857.416,-443.104,-4620,14700,-14840
-9.65643,1.72983,-0.935859,2.21953,-0.611354,-0.254054,2.46623,1.20332,-4.90177,-3.14511,-0.688663,4.6498,0.30966,1.52907,2.93131,3.71889,-265.472,-854.976,-444.568,-4760,14700,-15120
-4.30782,-6.00965,-6.60095,-7.71032,-9.30452,-2.88667,-5.31523,-5.56181,-1.03118,-6.38057,-0.833462,0.542733,-0.946562,-1.61522,-8.05363,-1.85866,-266.936,-855.464,-440.176,-5320,14700,-15260
4.4021,-5.44831,0.263905,-8.46878,-6.76042,-2.33531,-4.02262,-4.38537,3.70857,-1.85572,1.77307,2.46346,0.84077,0.478394,-9.4596,1.19594,-265.96,-854,-443.104,-5320,15260,-15400
6.18229,-3.96921,4.73393,-5.48653,-5.7598,-2.50089,-3.70437,-5.538,3.96945,0.28615,-0.175993,1.59403,-0.949259,-0.040783,-7.00153,-1.16084,-264.008,-856.44,-441.64,-5600,15260,-15540
0.557428,-4.00306,2.13669,-6.75996,-7.14323,-4.64354,-7.53392,-10.6179,0.437115,-1.72875,-2.03279,-2.38534,-3.26779,-3.4194,-7.29928,-7.3397,-265.472,-856.928,-440.176,-5740,15820,-15820
-2.20404,-0.322381,2.21348,-5.34189,-2.0386,-5.3952,-6.83011,-12.9477,-0.897919,0.332464,-3.38181,-3.06648,-4.76182,-3.45898,-5.6336,-9.0119,-264.008,-857.416,-445.544,-5740,15960,-16100
-5.96803,-3.07074,1.02665,-1.27518,0.120492,-2.94407,-2.74131,-13.0231,-4.0189,-2.47432,-3.23984,-3.88175,-5.24012,-3.3468,-1.11076,-6.93031,-264.984,-857.416,-445.056,-5740,16100,-16380
-5.24362,0.183672,2.91232,3.68626,3.31688,-0.211171,0.612259,-4.6067,-3.58756,-1.08193,-3.06766,-2.48088,-1.46843,-2.60267,0.972668,0.414631,-262.544,-854.488,-443.104,-5740,16380,-16240
-4.21537,-5.17954,-0.681195,-3.27579,-5.69286,-2.0685,-4.94019,-5.49481,-5.48367,-2.35539,-3.66501,-6.49426,-1.60347,-3.97999,-6.63189,-3.95084,-264.496,-857.904,-440.664,-5740,16660,-16380
0.983987,-1.68874,3.18348,-2.45454,-2.88339,-0.536487,-2.0068,-1.08796,-0.644548,1.38999,-1.61678,-1.78049,-0.100994,-1.30362,-4.18948,0.427167,-263.52,-855.464,-442.616,-5320,16380,-16520
4.68317,-0.288535,4.59672,-3.18513,-2.07757,-0.685214,-1.49655,3.66818,0.973064,5.4309,-1.14713,-0.554674,0.0252965,-1.24077,-3.94076,5.23639,-262.056,-854.976,-441.64,-4620,16520,-16520
1.48823,-3.7101,1.03074,-5.61554,-6.33903,-1.60438,-2.21843,7.00044,-3.97293,1.31383,-2.12473,-3.80106,-1.30475,-2.49667,-5.19815,5.13325,-263.52,-855.464,-439.688,-3920,16520,-16380
-0.830211,-3.39751,-1.0027,-4.48822,-6.18744,-1.47954,1.10367,11.0882,-5.8172,0.717792,-2.62332,-5.2027,-0.492412,-1.45875,-3.56331,4.95626,-260.592,-856.928,-438.224,-2380,15400,-16380
3.318,5.33543,0.012521,3.81328,2.1094,1.76173,8.90132,17.3249,0.509996,4.20278,-1.68645,-1.95809,2.71898,0.655586,5.45896,7.12371,-260.592,-854.976,-439.2,-1680,14840,-16100
2.09118,7.40637,-2.04238,7.02321,3.61194,3.49266,9.64813,15.2967,4.42341,0.686364,-1.5822,-1.46364,5.18677,1.94057,10.182,4.02327,-262.056,-852.536,-439.2,-1120,14140,-15820
4.09427,11.0785,0.485446,9.6273,10.7614,3.36799,11.1603,15.3051,7.39413,3.39737,-2.0024,1.80929,4.75992,4.82318,13.9802,2.07398,-264.984,-856.928,-437.248,-420,12040,-14980
4.91331,6.39255,-3.52986,5.82926,7.64408,3.8226,7.52203,10.0878,8.60158,1.72335,1.60129,0.320715,2.52333,4.2805,10.4369,-9.42618,-261.08,-858.392,-437.736,560,9520,-14000
5.49719,10.1883,2.22157,8.7971,12.9689,4.69507,6.26251,11.5673,7.88649,4.93324,3.23104,3.88293,4.96588,4.24038,10.0396,-12.5603,-259.616,-854.976,-437.248,2520,6020,-12460
2.1171,5.06543,-1.14488,7.06148,6.91666,0.826694,2.55739,7.65959,3.57854,-1.28754,0.260188,1.34674,2.1381,1.74864,5.26226,-18.3575,-260.104,-859.368,-433.344,4060,5460,-12180
4.22293,4.27644,-1.33504,7.23298,6.97792,0.20954,0.958161,4.2818,4.91257,2.01964,3.18927,4.84574,1.54056,1.42032,4.31,-15.0592,-258.152,-862.296,-439.2,5600,5460,-11620
6.52719,4.13588,2.61458,5.44103,8.72973,2.30649,1.42644,5.83021,5.67986,6.44326,6.6249,8.19594,3.31172,1.4763,3.91072,-9.81712,-254.736,-862.296,-442.616,6580,6160,-11900
1.72656,0.0744092,4.8415,3.40748,3.5175,1.99726,1.75094,6.03837,2.51274,0.11852,7.12133,5.68048,2.51684,0.071811,2.40177,-9.4622,-256.688,-862.296,-438.224,7140,7140,-12180
-8.22609,-2.62392,0.943396,2.51367,1.74275,0.857351,0.793523,4.68772,-4.81501,-4.84284,5.26429,2.8745,0.745886,0.544457,1.80269,-4.65416,-256.2,-860.344,-445.056,7000,7420,-12040
-14.2728,-12.1684,-7.42175,-8.12655,-6.61096,-2.81685,-9.22064,-0.261691,-11.7835,-8.22585,-2.05089,-5.29876,-3.34073,-2.79367,-9.11588,-6.58113,-257.176,-863.272,-442.616,6580,7700,-11900
-7.2512,-10.2191,-6.77275,-9.64522,-8.85318,-2.51197,-11.2357,-3.65042,-5.42548,-7.48347,-0.921283,-3.33736,-1.97139,-3.03435,-9.80719,-3.43382,-253.272,-863.272,-445.056,5740,8400,-11620
3.57124,-2.41855,-0.846734,-5.11185,-7.02341,-1.75373,-7.70257,-5.60141,4.19072,0.0969613,1.55474,1.16959,-0.453869,-0.548836,-8.00249,4.94136,-256.688,-861.808,-445.056,5460,8400,-11340
4.81688,-2.62032,-0.15153,-2.41195,-8.02766,-1.25586,-5.65693,-9.56808,4.23238,0.669926,-1.21727,0.228683,-2.9376,0.818654,-4.61947,10.0961,-252.296,-864.248,-443.104,5180,8260,-11200
3.2681,0.438348,3.85263,-0.53758,-2.89804,0.582361,-3.26687,-10.855,0.955522,4.57829,1.38864,2.54263,-0.304972,1.34521,-0.803278,16.7407,-254.248,-864.736,-445.056,5040,8400,-11060
-2.62179,-3.86591,1.97501,-3.64373,-4.97787,0.0275205,-4.14476,-14.2045,-6.77357,-2.73815,0.593315,-1.58253,-1.55245,-0.573919,-2.66642,17.0878,-251.808,-863.272,-446.032,5180,8260,-11060
-8.89651,-8.50844,-3.39496,-8.05712,-7.4389,-1.90579,-8.5121,-17.4231,-11.6214,-7.13707,-2.18572,-4.87024,-4.97363,-0.780177,-9.09773,11.272,-252.296,-863.272,-445.544,5460,8400,-10920
-10.5583,-10.0699,-3.42405,-14.9112,-6.47393,-2.97454,-11.3146,-15.6296,-14.4342,-4.84919,-2.10828,-6.129,-6.77722,-2.23118,-15.9835,6.6573,-253.76,-859.368,-447.984,5320,8820,-10780
-10.0667,-11.6151,-6.94166,-16.5094,-9.96869,-4.27587,-9.51223,-16.5397,-11.7081,-8.92651,-2.37891,-8.11262,-8.62158,-4.63865,-14.7204,0.628338,-251.32,-857.904,-449.936,4900,9240,-10780
-0.127956,7.98885,3.88694,4.20699,5.86642,0.673341,6.1102,-6.13307,2.1645,1.97012,0.25171,4.51502,-1.78019,2.67397,4.50897,10.0276,-255.712,-859.856,-441.152,3780,9800,-10640
3.42398,7.12289,2.89935,6.50838,5.34876,0.884781,8.68811,-5.91262,4.47558,4.38024,0.759355,3.4138,-1.73953,3.70604,10.0854,7.99833,-256.688,-857.904,-444.568,4060,9100,-10640
5.86729,3.25839,1.53166,2.25327,1.47965,-0.278353,3.40254,-6.598,4.82755,6.80546,2.90977,2.77694,1.58391,-0.906003,5.38963,3.04231,-256.2,-857.416,-447.496,4900,7980,-10080
3.40238,-0.788367,-0.262085,-0.624125,-2.36443,-1.9951,1.4103,-7.23112,0.444817,2.01428,-1.01488,0.274994,2.58192,-3.571,2.35718,-1.45301,-254.248,-854.976,-447.984,5040,7560,-9940
0.164643,0.836194,0.706419,3.88313,2.17415,-0.334841,7.13537,-2.51734,-0.199917,-4.22223,-7.30972,0.140123,0.395263,-1.41872,9.2198,2.08931,-252.296,-854.488,-447.496,4480,7140,-9800
3.32346,2.80532,2.69468,7.57205,7.75555,2.99595,10.6012,1.23821,3.5617,-1.26667,-5.67682,3.29648,1.45549,1.57639,14.3121,4.33058,-255.224,-855.952,-447.008,3500,6300,-9660
6.69555,0.374575,2.40824,6.13536,7.12166,3.33824,9.68303,3.17972,5.41015,2.49808,-4.0141,2.69643,2.10472,0.67631,9.03906,0.390897,-256.2,-853.024,-445.544,3220,5180,-9380
10.9588,4.25388,4.65855,6.91297,3.95682,3.8276,7.90448,6.87509,11.8881,5.34262,-0.740161,2.44346,5.21637,1.87235,4.80605,0.452909,-259.616,-853.512,-445.544,3500,3780,-8680
15.0508,13.377,6.71704,8.50697,5.27964,2.72897,5.94867,8.86839,17.369,11.0973,3.89078,4.84266,7.51726,3.09295,2.83572,2.34599,-257.664,-855.464,-444.08,4200,2800,-8540
3.78396,1.72926,-1.97958,1.42853,-5.91696,-0.688675,0.572934,4.6545,5.76035,1.09797,1.16378,-3.02931,2.7304,-0.394048,-3.18177,-3.04922,-252.296,-854.976,-447.984,5040,2240,-8260
-0.82984,4.55291,0.0962004,3.24056,1.24621,-0.839222,3.98227,13.3879,0.268458,3.11169,0.127007,-2.55621,2.99537,-0.619736,-0.765164,3.79061,-252.784,-856.44,-444.568,5600,2380,-8540
-1.24721,4.70531,-1.59656,1.71809,0.539307,-0.18522,2.47384,12.5352,0.349569,2.01397,-0.111548,-3.00396,0.855124,-1.25868,-1.44432,-0.310744,-257.176,-857.904,-450.424,6160,2660,-8680
-0.0927286,6.01907,-0.20868,1.69886,-1.33461,0.458198,0.105945,10.918,1.58746,1.68826,1.01323,-1.09623,-0.866867,-0.34589,-1.23867,-8.37576,-253.76,-856.928,-447.496,6720,2520,-8820
-0.270872,9.30964,4.17029,7.72885,5.31949,1.57255,2.19625,13.4405,0.701066,4.44557,3.04098,2.94179,0.942792,3.53664,2.46699,-5.4607,-256.688,-855.464,-443.592,6860,1680,-8960
-4.35253,3.01423,1.83485,7.54078,5.06446,2.05798,3.98942,11.7142,-1.87199,-0.853502,2.25566,1.2421,0.373297,4.52914,3.22245,-1.47055,-255.712,-853.024,-441.152,7420,1120,-8540
-2.82357,1.35153,2.11165,4.37415,5.99938,2.48981,2.74918,10.8616,0.00296263,0.34149,2.95371,2.60872,1.32481,3.79531,0.45327,0.390528,-256.2,-859.856,-447.984,7840,1260,-8680
-2.72588,-7.97814,-0.971369,-9.28437,-3.62688,-1.42904,-6.84673,3.40528,-3.77153,0.579419,2.64586,-2.36554,-0.249889,-1.36469,-11.7612,-5.45946,-254.736,-858.88,-446.032,7980,1540,-8680
-4.88594,-11.4805,-2.51157,-13.5862,-5.55587,-2.46428,-11.4133,-1.04801,-7.36625,-1.63463,0.87652,-3.99667,-1.56547,-4.04627,-12.7101,-8.49129,-255.712,-857.904,-444.568,8400,1680,-8960
-7.70171,-6.95996,-2.13171,-6.81849,-0.451966,-0.745403,-8.2863,-2.33471,-9.1607,-4.85422,-2.42667,-2.70487,-2.29372,-2.1713,-2.45094,-11.1837,-257.664,-859.368,-447.008,8820,1540,-8960
-17.2162,-11.5956,-8.13871,-8.38436,-6.53175,-1.65722,-6.88076,-4.76354,-16.3713,-15.1874,-1.89759,-7.92785,-4.23641,-3.60759,0.463648,-17.0238,-258.152,-860.344,-447.496,9240,1540,-8820
-19.8354,-13.4089,-9.46984,-10.4266,-8.24577,-3.55032,-8.17545,-4.01387,-17.7928,-12.0151,-3.47092,-10.0716,-5.72808,-5.02995,-2.28686,-17.428,-255.712,-858.88,-447.496,9380,2100,-8820
-14.4431,-14.0675,-13.1834,-13.4479,-10.5219,-5.33498,-10.913,-7.98325,-15.1367,-11.3128,-8.34313,-10.6204,-6.77431,-6.82595,-9.05532,-20.7293,-255.224,-860.344,-442.616,9240,2380,-8960
-2.75424,-9.04082,-9.92598,-12.3452,-10.7874,-4.82061,-11.5068,-10.3685,-6.00606,-8.26825,-5.26807,-6.10201,-5.04012,-4.945,-11.1367,-17.9859,-253.272,-860.832,-443.592,9380,2660,-9100
1.72665,-7.57589,-5.5411,-14.7048,-10.2156,-5.95629,-14.9662,-10.3983,-4.34502,-1.78888,-1.75822,-3.45882,-3.57486,-6.31285,-15.4879,-10.784,-255.224,-859.368,-445.544,9660,2940,-8960
0.875269,-11.836,-4.76038,-13.9463,-11.2865,-4.5973,-15.9021,-11.2742,-2.80869,-2.13764,-0.601226,-2.35509,-1.86203,-6.4196,-15.5114,-7.96782,-254.248,-864.736,-441.152,10220,2520,-8960
10.7791,6.6938,6.73017,8.00027,7.95451,3.08663,1.60742,1.13136,11.9167,8.58825,4.7067,12.8783,4.29705,3.11665,4.37033,9.045,-255.712,-863.76,-441.64,10360,2660,-8820
11.8853,11.1561,6.33634,17.6784,12.2814,3.67603,10.5473,1.84991,14.7557,8.08617,4.81501,13.0963,3.62256,6.86525,14.0819,14.6167,-254.248,-865.224,-445.056,11060,3220,-9100
12.0122,13.6392,8.14791,20.6155,14.3976,5.00162,16.1139,3.65828,15.435,7.61785,5.54026,12.6743,4.97702,7.24261,18.5195,22.0866,-255.712,-864.248,-445.056,11340,3220,-8960
14.8263,13.285,8.99579,15.3029,12.041,4.64266,13.9235,1.48489,16.541,8.4954,5.99458,11.4246,6.62751,8.226,14.3722,23.8422,-256.688,-860.344,-445.544,12320,2380,-8680
17.8576,14.2453,9.08252,12.5529,10.555,5.04986,14.0477,-0.148886,18.8279,7.38268,7.18567,9.70863,7.12878,8.7586,13.1844,23.9264,-254.248,-861.808,-444.568,13020,1260,-8400
10.2421,7.81476,6.14243,6.36697,5.84285,3.23403,8.29343,-0.81857,11.9313,4.38467,3.09463,3.63251,3.7318,5.73718,7.55994,20.3913,-254.736,-862.784,-446.52,13300,1400,-8540
7.24962,6.41143,3.00983,6.15012,4.73102,1.71539,4.28144,-0.261356,8.09153,3.76898,-0.257645,2.56648,1.86187,2.57315,6.47066,18.0246,-255.224,-863.272,-441.64,13580,1540,-8680
5.31515,8.30531,2.77936,11.0577,6.02966,2.49932,8.82056,2.94051,4.26633,2.03727,-0.0724587,5.86506,2.33194,3.27187,12.7158,17.904,-254.736,-860.344,-443.592,14000,980,-8680
2.07328,6.50031,6.84937,7.85239,3.71109,1.05654,9.56523,2.90335,0.114132,2.00174,-3.18825,2.75006,-0.101591,2.55046,9.25112,11.042,-255.224,-857.416,-440.664,14000,420,-8540
0.400676,-1.29671,6.27831,0.37104,-3.75683,-1.15273,3.47719,-2.34204,-4.08365,1.09202,-1.5521,-3.14448,-1.68922,-1.23263,0.311067,1.06124,-258.152,-859.856,-442.616,14000,420,-8540
