-1.72709,-1.74418,-1.77157,-1.31914,-2.32427,-0.233863,-1.01885,0.848857,-1.6895,-1.65319,-4.37961,-1.65514,-1.40736,-0.512297,-1.51879,-0.247883,38.552,-622.688,-782.264,1540,-3640,3920
-6.61563,-8.1311,-5.81439,-7.3851,-6.07708,-0.645406,-6.17166,1.40006,-6.13584,-6.28752,-6.7856,-6.00771,-3.19571,-3.90992,-5.92809,-0.929108,37.088,-622.688,-776.408,2100,-3640,3640
-6.58047,-7.68682,-5.20113,-8.00135,-5.0595,-0.703164,-5.06578,2.80395,-5.99998,-6.13312,-6.64673,-5.71581,-3.43015,-4.16465,-7.11682,0.123215,35.136,-624.64,-774.944,2940,-3640,3360
-4.63346,-4.37756,-4.77606,-3.95996,-3.90444,-0.138575,-0.735591,3.34853,-3.56753,-4.79904,-6.17876,-3.60568,-4.38372,-4.52218,-1.6803,-0.190825,40.504,-625.616,-776.408,3640,-4200,3220
-3.65836,-1.3232,-3.18781,1.26757,-0.593123,0.00560169,2.11775,4.82327,-1.47767,-4.11989,-5.22134,-0.171747,-3.79937,-1.5775,3.82387,1.35427,42.944,-627.568,-776.896,4200,-4340,3080
-13.4011,-7.53097,-8.03351,-6.81366,-5.84449,-2.5167,-4.63116,1.36864,-13.6334,-11.4608,-9.56379,-7.05685,-5.37265,-4.96347,-5.28243,-3.70627,43.432,-626.592,-778.848,4480,-4340,2800
-19.8814,-12.3305,-10.6341,-10.3759,-8.65217,-2.99513,-8.15065,-0.817778,-18.2076,-17.3196,-9.08048,-12.9474,-6.49416,-5.75711,-8.62363,-5.20601,46.36,-624.152,-774.944,4480,-4200,2660
-15.1511,-9.74989,-9.09605,-8.81068,-7.40323,-3.55756,-6.16484,-4.72434,-16.8854,-12.9081,-5.08314,-10.8428,-4.89845,-6.9022,-9.52111,-6.75249,48.312,-628.056,-775.432,4900,-4620,2380
-8.11275,-10.8068,-7.18207,-11.0963,-8.47042,-2.9621,-8.67022,-8.19915,-11.4742,-8.3135,-2.27676,-10.2985,-4.63796,-6.17852,-10.2179,-8.55846,53.192,-624.152,-775.92,5320,-4340,2240
1.77934,-5.56883,-2.5782,-7.5188,-5.09443,-1.39604,-4.57747,-8.01207,-2.48118,-0.6908,0.184769,-4.55477,-2.28477,-3.10589,-7.10557,-5.60202,51.24,-628.544,-772.504,5600,-4340,2240
1.87636,-5.04231,-2.58904,-7.17303,-5.14313,-2.3449,-3.92568,-7.15985,-0.798378,1.77572,1.85162,-3.10522,-0.886883,-3.79693,-7.26072,-4.87388,50.264,-627.08,-772.016,5880,-4620,1960
-0.629076,-4.42382,-0.321018,-4.91456,-3.51817,0.235332,-2.42553,-1.2945,1.48267,1.09297,3.34218,-2.40728,0.467445,-1.00156,-2.6911,-0.295801,53.68,-630.984,-771.528,6300,-4900,2240
2.897,2.67777,2.11639,1.32125,0.761272,1.96419,1.21961,-0.317116,5.7607,3.54183,3.46973,2.23481,1.06285,1.59584,-0.208121,4.70606,53.68,-629.032,-774.456,6300,-4760,2380
5.04316,6.28176,3.45874,5.37939,3.02187,2.08123,2.77049,0.977519,10.4893,5.47914,5.12849,5.39943,1.77108,2.70047,4.5379,4.39531,55.632,-628.544,-776.896,6300,-4900,2660
4.46077,5.25965,3.40366,5.05754,2.91215,1.15826,1.62744,-1.06965,6.31827,5.23472,4.65137,4.64173,2.33614,1.76347,2.88718,-0.55322,59.048,-628.056,-775.92,6860,-5040,2940
3.39345,5.08876,2.98365,3.76215,2.9296,2.95743,1.8925,0.26489,4.42335,3.95195,1.97649,4.30386,2.23334,2.0351,5.68302,-0.254716,59.536,-631.96,-772.992,7280,-5320,3500
2.37903,6.20334,5.84515,5.46497,5.52155,2.85741,3.41781,1.80507,3.40427,2.61564,1.30359,5.62899,2.20693,5.34031,7.65353,4.2166,58.072,-632.936,-773.968,7840,-5180,3780
2.6195,5.22003,6.98808,5.08805,5.57212,2.07046,3.31076,1.92647,-0.221919,3.06536,0.957951,5.52723,2.8649,4.42109,4.73063,3.73262,60.024,-629.032,-773.968,8400,-5320,4480
3.84818,4.41331,7.42567,4.89825,5.37329,2.30272,3.90459,3.28448,-2.0102,3.93685,0.13445,4.22835,3.47619,3.81124,1.76451,3.88713,58.56,-631.96,-775.432,8540,-5460,5040
5.90482,5.88648,6.24475,8.50505,6.96472,0.289209,4.6182,2.08792,2.50826,4.31003,1.90066,4.92268,4.40385,4.16384,5.41096,3.25267,61,-630.008,-775.92,8960,-5460,5600
11.1419,9.0335,4.86062,7.76796,4.96158,-2.60611,2.90954,-1.91308,9.11381,7.91365,5.42719,6.95498,4.9449,1.72676,2.09129,-1.72643,61.976,-630.496,-775.432,9240,-5460,6160
11.8906,5.55699,4.35024,1.36099,1.60917,-1.47492,-2.00935,-0.50731,14.9379,8.52213,7.63864,4.61644,3.11067,1.57331,-1.80173,-2.61448,60.512,-630.008,-774.456,9520,-5320,6720
1.86996,-2.42605,-1.23799,-4.13352,-2.33411,-2.62628,-2.7952,-1.32114,1.1138,1.13078,0.321455,-2.01776,-0.585999,-3.67797,-5.48776,-3.26629,60.512,-630.984,-771.528,9940,-5180,7140
-1.93633,-4.01379,-3.04894,-4.00422,-2.24396,-2.14151,-2.68365,-1.24768,-1.24612,-2.33938,-1.16058,-3.43251,-1.55051,-2.66322,-0.459821,-1.59263,60.512,-630.496,-772.504,10080,-5040,7560
-3.17982,-2.64187,-4.22367,-3.90393,-2.2264,-2.03448,-2.4277,-1.8967,-5.95631,-3.39648,-1.53791,-3.15173,-0.814859,-2.53891,-1.16056,-2.81804,60.512,-630.496,-774.944,9660,-4900,7840
-4.58593,-1.01531,-4.61228,-1.64265,-0.902719,-1.57774,0.446538,-0.114531,-5.51991,-4.14049,-0.303984,-2.73221,-0.498066,-1.17504,2.88945,-1.04341,57.096,-628.544,-772.992,9240,-4340,7840
-9.61539,-4.06724,-6.27632,-3.1099,-4.16136,-1.62925,-1.51081,-0.255333,-7.97509,-8.2665,-1.65529,-4.76144,-2.94438,-1.78921,1.47527,-1.49413,52.704,-630.496,-771.04,8680,-4060,7700
-7.01173,-5.03909,-4.17623,-4.07755,-4.2845,-0.515905,-1.66339,0.170561,-7.72051,-5.6526,-3.09283,-4.57674,-3.01375,-2.05534,-1.40384,-2.13511,52.216,-632.448,-774.456,7840,-4200,7420
0.244643,0.161978,-0.250953,1.50063,0.901875,1.42181,2.10974,3.78062,0.622407,-0.501052,-2.77993,0.234317,-0.890238,0.656081,3.02536,3.48761,50.752,-630.008,-776.896,7280,-3780,7420
-0.416826,-1.08424,0.476183,3.62426,1.44154,2.59525,2.56506,4.37582,-0.0205367,-0.637726,-3.64723,-0.102141,-0.230283,2.64338,4.81013,6.50202,50.752,-630.496,-775.432,6300,-3780,7000
-3.57774,-1.88265,-1.77125,1.9124,1.00868,2.18177,2.64884,3.58842,-4.04057,-0.949056,-3.55567,-0.860172,-0.695427,0.504537,3.09442,5.39643,48.8,-630.008,-775.432,5460,-3780,6440
-3.00736,-3.11544,-1.52942,0.880721,0.663897,1.34782,2.18081,4.62841,-0.434112,-0.155382,-1.16856,-0.973367,-0.0765859,0.904194,3.4133,4.59099,47.336,-631.96,-771.528,5320,-4060,6160
0.426179,-1.18264,-1.41518,0.309767,-0.637096,0.0448038,1.29433,0.961135,2.25887,0.470376,-0.916383,-1.40528,-1.04296,-1.86838,-2.87533,-0.143483,44.896,-630.496,-771.528,5040,-4200,5600
0.118442,-1.00994,-0.644897,-0.338524,-0.46409,0.436784,0.441591,2.04789,5.51159,-0.235643,-0.723822,-1.23691,-2.59401,-0.600706,-4.06091,-1.35486,44.408,-633.912,-773.48,4900,-4620,4900
0.287056,0.268823,0.386356,-1.49258,-1.90781,-0.218087,-2.37112,-1.7699,5.32215,1.25256,-0.483893,0.318428,-1.51083,-0.960895,-7.70912,-4.60309,41.48,-633.912,-772.016,4620,-5040,4340
2.63117,1.69456,1.59152,-0.724684,-2.3647,-0.598168,-4.30486,-4.34894,4.1331,1.96143,0.0504928,1.60444,0.418873,0.0519506,-8.31717,-4.53325,41.968,-635.376,-771.04,4760,-5740,3500
2.81503,2.58088,3.2027,2.8841,1.49551,2.05737,1.99975,0.627481,3.79539,3.34728,2.62042,2.96613,1.18759,3.82435,0.427264,2.59207,38.064,-633.424,-771.528,4480,-5880,2800
-0.205449,0.5298,-0.566536,-0.432276,0.79812,0.447914,1.85753,-1.27791,-1.98952,1.56927,-0.5085,0.698265,-1.2441,1.00539,-2.09096,0.26903,39.04,-631.96,-767.624,4200,-6440,2240
-2.68695,-3.04138,-3.62683,-4.90631,-2.72267,0.157745,-2.8816,-2.90337,-2.46829,-3.22946,-3.18639,-3.33458,-2.50577,-1.87075,-1.7135,-1.99686,34.648,-632.936,-763.232,4060,-7000,1400
1.21407,1.45155,-0.0369569,-0.195262,-1.01565,1.57708,-0.337158,-3.26278,0.74147,-0.532929,-0.470019,1.50972,-0.0166966,0.553819,0.763678,1.65239,37.088,-632.936,-764.696,4060,-7140,980
4.82313,5.46323,4.49079,5.08572,4.68529,2.25193,5.00294,1.27696,3.72741,3.84815,1.77568,5.21015,2.17767,3.74093,8.28645,4.04322,36.6,-632.448,-764.696,4340,-7840,560
1.52573,2.32036,3.603,2.74582,2.98679,0.0571906,3.24178,1.29583,-0.543265,1.95774,2.04886,2.03466,1.66176,1.15741,5.11111,1.0727,33.184,-631.96,-762.256,4340,-7980,280
-2.23636,-0.179208,2.18426,-0.922024,0.914651,-0.036217,0.953935,-1.21888,-4.82948,-1.71265,3.09918,-0.652888,1.91338,-0.370944,0.670302,-0.949508,37.576,-634.888,-763.72,4480,-8400,140
-5.62651,-1.44994,0.121183,-1.02986,0.107591,-1.59101,-0.375897,-3.23101,-6.8209,-6.47059,1.9638,-1.16036,0.524484,-1.63689,1.47988,-0.317482,37.088,-631.96,-759.328,4900,-8540,0
1.51977,0.076304,0.820036,-2.35347,-1.55966,-3.67037,-3.95153,-3.53275,-0.136528,-1.32053,1.4446,1.87317,0.417352,-0.95876,-0.118575,-2.14265,34.16,-633.424,-760.304,5040,-8540,-140
2.70221,-0.804387,0.563955,-5.389,-3.48333,-4.37392,-6.71081,-1.79371,-2.78411,-0.319938,-2.528,-0.0247474,-0.28876,-3.50448,-6.58549,-3.95454,34.648,-635.376,-762.744,5740,-8540,0
-0.0669315,-5.5322,-0.21968,-6.58365,-3.96087,-2.03031,-6.55028,0.154964,-4.58083,-0.440215,-1.53123,-2.85074,0.352474,-3.61777,-3.78825,-2.34404,33.672,-636.352,-758.352,6440,-8400,140
-2.27249,-5.16157,-3.11073,-4.88959,-3.21831,-1.44192,-3.88393,-1.97189,-8.18462,-1.28273,-0.857086,-4.2753,-0.28552,-4.91452,-5.07607,-3.79674,32.696,-634.4,-759.816,7140,-8120,560
0.139682,0.466899,-2.64608,2.56111,2.15323,0.813095,1.81792,2.95206,0.930025,-0.123197,0.0535295,-0.923524,-0.256412,-0.522551,3.29506,0.823673,36.6,-638.304,-760.304,7700,-8260,1260
4.525,6.79203,0.538588,9.23195,8.36831,3.50316,8.34458,5.37746,4.31808,3.11564,3.07638,4.32067,0.838456,4.23772,8.62765,3.62964,33.184,-635.376,-755.912,8260,-7980,1680
6.07078,8.4297,2.74156,11.6836,9.18125,4.17613,10.2243,5.60142,7.93721,4.13925,3.52968,5.91583,2.49544,5.58472,11.9871,5.54581,32.208,-636.352,-756.4,8960,-7840,2240
4.893,6.17168,2.39588,7.25067,4.93299,3.71408,7.01736,4.37991,9.31869,4.8837,1.71602,4.38682,2.49239,3.98869,8.24835,4.84133,30.744,-635.376,-757.864,9380,-7840,2660
2.13871,1.09245,0.301469,0.620525,0.328581,2.00571,0.867135,0.409167,4.37002,2.76333,1.5751,-0.47667,1.04734,0.654179,-1.69771,-0.535597,32.696,-632.448,-754.936,9940,-7980,3080
0.399974,-2.48937,-1.05671,-5.69829,-3.35165,-1.68212,-6.05035,-3.82535,0.757565,1.89473,2.39649,-3.63748,0.401715,-2.29595,-6.83952,-4.83181,34.16,-637.328,-757.864,10220,-7840,3780
-2.39582,-4.37807,-0.148598,-6.70388,-5.3438,-4.42313,-9.57652,-4.92749,-1.62947,-0.60486,2.57005,-4.56358,-1.01659,-1.96683,-9.04859,-6.08246,37.576,-631.472,-754.448,10780,-8120,3920
-3.39789,-3.16803,-1.27378,-4.57973,-4.57167,-3.12007,-6.58253,-3.6725,-1.35188,-1.12949,0.504768,-3.22441,-0.444419,-2.75336,-9.0736,-6.0432,37.576,-632.936,-757.376,10780,-8400,4200
-3.70112,-2.20324,-0.265742,-1.6529,-1.69529,-0.373775,-1.93199,0.936294,1.28875,-2.157,-2.54349,-0.177241,-0.0275772,0.868706,-2.48777,-1.30067,37.576,-632.936,-757.864,10920,-8540,4340
-4.66146,-2.76757,-1.59505,-2.73697,-2.79184,-1.12516,1.0628,1.65125,-2.19161,-3.50723,-6.37106,-0.633378,-1.29,-0.712078,-2.43409,0.126628,39.04,-634.888,-758.84,10920,-8820,4760
-7.55562,-6.62977,-3.98997,-5.15313,-5.79227,-1.32858,-0.792774,2.30209,-5.65954,-5.9251,-8.15776,-4.5895,-2.66471,-0.817943,-3.85086,0.637346,40.992,-631.96,-758.352,10920,-9380,4900
-7.01159,-0.968412,-3.02879,1.19422,-0.43577,-0.0274282,4.18727,2.56316,-5.05145,-5.39917,-4.87075,-2.48768,-2.80707,0.511338,-0.559526,2.77756,40.016,-631.472,-760.304,11200,-9800,5180
-7.16572,1.6648,-1.81273,4.51205,2.44509,0.0349349,4.94218,1.21656,-5.0241,-5.07412,-1.49607,-0.351902,-3.14517,1.614,1.70716,3.41678,39.04,-628.544,-760.304,11480,-9940,5180
-2.50115,-1.37702,-0.0361073,2.85147,0.36423,0.408747,1.17034,-0.915316,-0.792066,-2.38152,-0.569797,-0.550228,-2.59588,1.48979,2.14109,3.13692,40.504,-624.64,-760.304,11480,-10500,5460
2.62282,-1.1193,0.9152,-0.0255244,-2.11285,-1.37823,-1.65069,-6.51272,1.7334,2.183,1.36139,0.266493,-1.15833,-3.28268,-1.78937,-1.04931,40.504,-622.688,-759.816,11620,-10780,5740
10.3558,5.15282,4.67348,4.0854,2.13993,0.849202,1.72561,-2.72581,9.12849,7.46451,5.31037,5.68115,2.16041,0.464373,5.23094,3.03934,40.016,-626.104,-760.304,11620,-11200,5740
10.5811,7.48795,5.23383,6.61228,5.33146,2.2738,3.79426,0.100584,5.81363,7.62447,5.12931,8.53291,3.44976,3.58076,8.37224,6.33421,40.504,-622.688,-762.256,11200,-11620,6020
5.74084,3.9759,2.47801,3.20063,3.4514,2.91732,3.26092,1.19319,0.622553,4.80357,3.3131,5.27012,3.0527,3.34634,7.30793,5.66964,39.04,-618.784,-762.256,10500,-11620,5880
1.09793,-0.795597,0.548949,-0.836714,-1.03086,3.07335,-2.39561,3.78771,-1.91244,2.39923,2.60067,1.01347,1.63975,1.17685,1.00464,2.85243,38.552,-618.296,-766.16,9940,-11900,6020
-5.00773,-7.33084,-4.41998,-8.27435,-7.2925,0.783977,-13.4084,2.44065,-7.13143,-1.9251,-1.80837,-5.64635,-1.46004,-3.4904,-10.2969,-5.42818,39.528,-622.2,-765.184,9240,-12320,6300
-1.53069,-4.79389,-4.80235,-8.25308,-4.02363,-0.514997,-8.23185,-0.260211,-1.49352,-1.16463,-3.46463,-4.97408,-1.74047,-2.82229,-7.18297,-8.59053,35.624,-620.736,-765.184,9240,-11900,6580
2.25933,0.0945115,-0.307477,-1.72932,0.658722,-0.775853,1.12153,-3.66684,3.86973,-0.193887,-2.45204,-0.689113,-0.373169,-0.422348,4.05405,-4.66346,36.112,-618.784,-767.136,8680,-11480,6720
-0.220914,-1.7505,-2.06298,-2.15362,-0.593797,-1.9012,1.17393,-7.11364,-2.76019,-2.79066,-1.95158,-2.81868,0.167075,-3.72126,0.171672,-3.9922,33.672,-617.808,-768.6,7840,-11200,6720
-0.44997,-2.33344,-0.648001,-1.37604,-0.065917,-1.01909,0.342744,-1.67971,0.308068,-0.871966,1.76245,-2.30017,1.50601,-2.00128,2.70281,-1.95226,33.184,-621.712,-770.064,7140,-11200,6580
-1.89365,-0.167395,-0.581101,-1.47942,0.301643,-0.80029,2.40702,1.4567,-1.93091,-2.30299,-1.03086,-2.2913,0.277509,-2.44871,-0.44797,-1.53576,32.696,-623.664,-767.624,6440,-10780,6440
0.864949,2.93461,2.49823,3.41776,4.16143,2.87222,5.87062,6.15739,2.9423,-1.02664,-1.0293,1.2126,0.940567,2.56251,5.11314,2.57413,30.256,-625.128,-771.04,5460,-11340,6300
6.35836,10.0599,5.42964,10.9904,8.86613,5.21352,11.1182,8.04061,6.68499,4.14463,1.09731,6.82879,1.37172,6.29671,10.1575,7.49228,29.768,-626.104,-767.136,4760,-11480,6160
6.49821,8.91039,6.62699,8.95104,7.8386,3.14202,9.44028,4.69506,7.60753,5.58268,4.36467,6.17973,2.13802,5.78571,9.3563,6.65359,30.256,-632.936,-773.48,4200,-11340,6020
-1.87681,0.656506,1.43492,1.8493,0.651708,-1.4341,0.464741,-1.28543,-0.12074,-2.79882,1.97477,-1.15713,-1.4629,0.446877,-0.213858,-0.561462,25.864,-632.448,-773.48,3780,-11620,5460
-9.74264,-2.144,-3.1448,-2.1377,-2.38094,-4.44357,-3.05861,-2.16339,-5.83203,-9.05395,-1.24578,-4.66089,-2.95143,-3.24229,-5.8924,-2.03609,27.816,-640.256,-773.48,3640,-11620,5180
-6.93041,-1.96765,-2.02864,-1.56088,-1.05449,-2.9634,-0.985861,0.553331,-5.06272,-4.60876,-2.17401,-1.94932,-0.861384,-1.03654,-3.12682,2.12856,27.816,-642.208,-772.504,3640,-11480,4900
-3.15157,-3.19355,-0.530177,-2.18163,-0.581327,-1.50434,-0.619141,0.995361,-4.62034,-2.91193,-3.41654,-0.838288,-0.77976,1.52521,-3.75256,1.94303,28.792,-642.696,-774.944,3780,-11760,4340
2.33603,-0.704624,0.856229,-1.42558,-0.680572,-0.446831,-0.202293,-2.14711,-2.28787,2.74465,-1.36549,0.922447,0.495167,1.47793,-4.76535,0.415392,28.792,-644.16,-772.504,4340,-11900,4060
1.55926,-3.23613,-0.762839,-3.48193,-2.9204,-1.37954,-3.89372,-1.85668,-0.401886,3.1975,1.76486,-0.266739,0.00841268,0.335896,-3.79081,-1.4996,31.232,-646.6,-768.112,4620,-11900,3640
-1.58514,-3.83582,-3.37537,-5.39641,-4.0189,-3.15974,-4.14701,-3.72904,-4.10943,0.654643,0.433518,-1.32829,0.01903,-3.69887,-5.75675,-3.83549,29.28,-645.136,-767.624,5460,-11900,3220
0.305967,-0.983178,-1.42219,-0.117737,-0.777505,-0.966957,-0.883525,-1.17209,-1.22707,0.398415,-1.2748,1.08196,-0.304273,-1.33,-0.824746,-1.65841,29.768,-647.576,-768.112,6300,-12040,2660
2.16412,1.031,1.24682,1.04847,-0.447487,-0.562103,-4.10087,1.155,1.61176,2.34452,-0.0916913,3.16179,0.135887,-0.0599779,-3.48385,-0.775818,30.744,-648.552,-767.136,6720,-12040,1960
1.80634,-0.416554,0.739316,-1.73077,-3.26667,-0.0313586,-7.43875,2.01516,1.74417,2.40055,-0.337243,1.74572,0.524137,-2.30537,-8.03131,-2.44539,35.624,-647.576,-765.184,7420,-12600,1400
1.50717,-0.370063,-0.323755,-0.682672,-1.0542,1.17178,-2.73354,1.17107,3.99792,1.8681,0.580538,0.726948,-0.27034,-1.54081,-1.45785,-4.17853,36.6,-649.04,-765.184,7980,-12320,980
-3.18392,-2.36034,-4.01166,-2.43714,-2.78993,-0.497811,-2.07589,-6.30077,-1.98953,-1.49857,-1.155,-2.44664,-2.23283,-3.17106,-3.15931,-4.88533,37.088,-650.504,-763.232,8960,-12180,420
-3.00904,-1.80869,-1.99875,-0.873713,-1.61517,-0.572789,-0.290793,-5.14623,0.139513,-0.551572,0.071513,-1.42254,-0.909192,-1.75102,-0.506314,-0.586074,40.992,-650.016,-762.744,9240,-12180,0
1.46878,0.235736,0.0484525,1.15635,0.656584,0.483835,1.09878,-3.5065,0.393748,1.66037,2.88313,-0.117299,0.872696,0.903458,-0.239608,0.744459,41.968,-647.576,-760.304,9660,-12180,-560
1.16648,-1.22141,0.400393,-1.51254,-0.440881,0.60155,0.876627,-1.6487,-1.31011,0.443791,2.33421,-2.55464,1.48106,0.492386,0.74536,-0.178011,43.432,-648.552,-759.816,10220,-11900,-1120
2.05832,2.23287,2.29367,1.22478,2.31411,1.17881,3.05077,0.636712,4.17615,0.640784,2.51157,0.325876,1.48676,2.62352,4.58494,1.60727,41.48,-650.016,-761.768,10640,-11760,-1540
7.36315,8.17278,4.99698,8.22259,6.55183,3.39602,8.24789,4.6148,10.4599,3.12261,2.35833,6.86335,2.09228,4.941,11.0249,5.98016,45.872,-649.04,-760.304,11060,-11620,-1680
6.10237,6.07836,3.21962,7.78949,5.18744,2.98545,8.09456,5.49182,8.3252,4.34041,3.08782,5.82848,2.3775,4.82858,11.8621,8.35047,47.336,-650.992,-756.888,11340,-11340,-1820
-3.79319,0.339633,-1.9573,1.41001,0.318444,1.5492,2.50653,1.66247,1.12614,-3.63191,2.18499,-0.813484,0.0278886,1.47839,6.07225,3.58079,46.36,-651.968,-762.256,11340,-10920,-2100
-9.04302,-3.8606,-5.1614,-4.23404,-4.46633,0.142982,-3.27827,-4.34779,-7.0028,-6.87581,-1.72533,-6.64135,-2.25185,-3.28417,-4.28748,-4.24589,47.336,-650.016,-757.376,11620,-10220,-1960
-0.374633,-1.77988,-1.89169,-1.95116,-2.27127,1.12783,-3.2333,-2.23207,-0.860876,-1.63343,-1.53157,-3.35077,-0.121066,0.377637,-0.207029,-2.53137,49.288,-649.528,-755.424,11760,-9800,-2100
4.38626,1.0062,0.593645,-0.101286,0.478706,-0.600864,-0.175147,1.33945,-2.00326,2.03538,-2.42518,0.253002,-0.598611,-0.0927619,1.46295,-0.477292,51.24,-650.016,-760.792,11620,-8820,-1960
1.73099,-0.140709,2.21271,0.618583,0.382037,-0.195005,-1.15022,4.68536,-1.07905,2.30992,-1.28806,-0.124882,-0.564115,1.07836,4.58834,1.71276,53.192,-648.552,-758.352,11480,-8260,-1820
-1.99652,-2.85092,0.369271,-1.70991,-1.22878,-1.60411,-3.14498,2.56481,-4.36643,0.225838,-1.49573,-1.9465,-1.02817,-2.07333,-0.840494,-0.956703,52.704,-647.576,-755.424,10920,-7140,-1820
-4.31426,-4.43342,-0.108198,-3.68226,-0.123613,-1.06429,-1.86087,2.14255,-4.55669,-2.52598,-2.15431,-3.42521,-0.649814,-1.85004,-1.30632,-0.106076,54.656,-646.6,-754.936,10080,-6300,-1680
1.00976,1.0499,2.03153,0.900713,3.19691,2.33641,2.56193,4.02335,1.22052,0.151384,0.209962,1.59717,1.16852,0.183396,2.24261,1.82113,56.608,-646.6,-755.912,9520,-5320,-1540
-0.648272,0.281427,0.429915,-1.59672,-1.08673,1.84104,-5.2705,4.07552,-0.730603,0.394972,-0.755184,0.405006,0.805468,-1.53181,-4.89122,-1.61077,55.632,-646.6,-756.4,9100,-4060,-1400
-2.13876,0.236888,0.726975,-1.38294,-1.66776,0.660597,-2.50592,6.00131,-2.34997,-2.12154,-2.81842,-0.217507,0.282375,-1.68207,-5.18595,-2.59978,57.096,-643.184,-754.936,8260,-3500,-1120
-1.58242,-0.300812,1.30525,0.395252,0.774595,-1.8707,3.45696,1.86175,-0.580453,-2.7845,-2.78985,-0.087675,-0.578758,-1.87662,0.299643,-2.42907,57.096,-645.136,-753.96,7560,-2520,-840
-2.63038,-0.756275,-0.840961,-0.434378,-0.0899675,-3.45879,4.41665,-7.68761,-4.16826,-3.21685,-4.12176,-1.18993,-0.799869,-2.84294,-1.69579,0.152173,58.072,-646.112,-758.352,6440,-1680,-560
-2.1064,-2.07064,-1.08432,-1.18567,-2.36402,-3.31614,1.72407,-7.11295,-1.25335,-1.60663,-0.891302,-1.53788,-1.47605,0.128338,-4.07822,1.55947,55.632,-648.064,-754.448,5600,-1400,-280
0.683572,1.69544,-0.533689,1.9032,0.498891,-2.88505,2.41411,-2.8265,0.621801,0.581755,0.305845,0.967526,-0.833023,0.968413,-3.06834,1.51812,55.632,-646.6,-755.424,4620,-980,0
3.57727,3.00861,-0.755258,3.65455,1.51507,-0.488451,1.51307,-1.1522,3.7495,1.88833,1.88773,2.94808,-0.0195608,2.32056,0.906169,1.19521,54.168,-645.624,-752.008,3780,-700,140
6.09317,6.10324,1.01246,5.22499,3.16558,0.845642,2.75034,-0.913534,6.75408,3.73718,3.67786,5.3093,0.86332,2.20703,4.32951,1.74644,53.68,-647.576,-751.032,2940,-140,560
3.66535,3.18137,1.24136,3.66549,3.69013,1.47831,3.61268,1.0362,2.16982,2.1299,2.52726,3.45077,0.453781,1.51057,3.67185,1.70076,54.168,-646.6,-753.96,1820,-140,840
-3.97732,-7.01136,-2.72011,-7.68766,-4.94645,-0.552297,-7.52817,-0.793997,-5.45638,-2.84593,-0.448813,-4.45187,-2.01543,-1.48501,-6.28639,-3.87481,55.144,-644.648,-752.008,980,0,980
1.14513,-0.648995,0.212747,-2.32081,-1.45979,0.898569,-3.44595,-3.19367,-3.52217,1.97335,0.986909,0.76943,-0.247362,0.481111,-6.35022,-1.62647,57.096,-646.112,-752.008,0,0,1120
8.32562,6.76243,5.26561,5.19506,6.00388,3.49475,4.37294,0.203595,6.81197,7.62421,5.19861,7.09844,3.50488,5.87499,4.46708,3.4541,54.168,-643.672,-752.984,-280,420,1120
4.47824,3.42054,1.81278,3.20905,3.41339,1.54846,2.01567,0.46551,4.29445,4.31683,2.59071,3.96772,1.9394,2.72926,2.75637,2.10689,53.68,-642.208,-752.008,-1260,140,1400
-2.29323,-2.55778,-1.93264,-1.82277,-1.73873,1.31831,-1.77592,-1.36857,-0.752014,-1.00111,-1.24961,-1.78652,0.0482732,-0.0261837,-0.209825,-0.31709,51.24,-641.72,-751.032,-1960,420,1540
-6.8818,-8.00135,-5.816,-7.22795,-5.96431,-0.881329,-5.28561,-2.94975,-6.41302,-4.47911,-2.42725,-6.71343,-2.68789,-2.35715,-4.64622,-3.71129,54.168,-643.672,-748.592,-2520,420,1260
-7.2818,-7.58663,-5.9605,-7.30473,-5.23967,-1.39417,-4.21981,-0.673207,-7.4188,-3.49513,-2.29511,-6.65309,-1.25518,-2.26897,-4.53189,-4.30237,53.68,-641.72,-752.008,-3640,560,1120
-6.37836,-5.58415,-2.73302,-6.15908,-3.47635,-1.22129,-2.90156,0.191014,-4.70799,-2.57128,-2.50669,-4.60054,-0.91259,-1.27887,-3.69059,-2.71514,55.144,-641.232,-752.496,-4620,560,700
0.625631,1.2308,1.60957,0.976907,1.03414,-0.0198007,-0.711329,0.9062,5.51486,1.12525,2.10195,1.36168,0.843478,-0.324351,0.94156,0.588227,56.608,-637.328,-750.056,-5600,840,280
-2.66891,3.76336,-0.110022,2.82468,1.25612,-0.950724,-0.466278,-1.16741,4.7453,-2.15941,2.8094,1.06723,1.4314,-2.43152,1.36397,-0.877167,57.584,-637.328,-752.008,-6860,1120,-420
-6.26369,-0.994983,-2.31566,0.941091,-2.83685,-1.78922,-3.24828,1.15558,3.01237,-5.64665,0.129775,-2.98857,-1.46014,-2.20075,1.88308,-1.65135,52.216,-636.352,-753.472,-7560,1680,-1120
0.258734,0.492825,-0.804797,2.28064,-0.510271,-1.54791,0.49588,2.53896,1.22966,-1.89871,-4.05877,-1.27349,-1.36623,-1.48778,0.64567,-0.807925,54.656,-634.888,-754.936,-8960,2100,-1820
3.09957,-0.434537,1.96635,2.41538,0.64865,-0.263043,1.43244,2.92345,3.19192,2.17205,-1.91926,-0.48855,0.345498,0.782455,4.63503,1.38218,54.168,-630.984,-751.52,-9660,2520,-2240
5.33437,1.47733,3.96521,2.58759,1.26143,0.147932,1.70252,-0.206195,1.61906,5.01605,1.54877,1.67897,1.47764,-0.341021,4.19939,2.22467,54.168,-629.032,-752.008,-10640,3080,-3220
7.91128,6.7554,6.0099,5.89884,5.33124,2.69943,5.19525,0.681948,4.81608,6.7671,4.20581,6.51179,3.1983,1.46504,10.1337,6.15319,52.216,-628.056,-753.472,-11900,3640,-3920
5.9964,3.53133,3.68475,1.75796,2.5035,1.81469,3.24116,0.558159,1.82141,2.99677,1.64879,4.17098,1.89627,0.462011,6.63403,4.46053,49.776,-625.616,-749.08,-12880,3920,-4620
3.15642,-0.628096,1.18773,-2.41708,-0.9039,-0.520357,-0.656806,-3.98511,-2.37407,0.305791,-0.2431,-0.0777835,-0.0641093,-1.64228,0.00444911,-1.3363,54.168,-625.616,-749.08,-14280,4900,-5320
3.47791,0.315795,0.989702,-1.51931,0.183717,0.976257,0.289489,-0.414847,-1.60165,1.0489,0.703244,0.376246,0.506801,-0.198289,-1.6973,-1.39158,52.216,-625.616,-756.4,-15260,5320,-6020
-2.86607,-2.47782,-1.54066,-1.5548,-0.923886,1.58005,-0.411706,2.97192,-4.80668,-4.86992,-1.94576,-2.63952,-1.69698,0.43113,-5.18979,-0.886848,52.216,-625.616,-753.472,-16800,6020,-6720
-9.29591,-0.901833,-2.68094,0.713364,0.116968,0.839014,1.90871,1.90403,-6.99694,-9.78607,-2.2653,-3.79091,-1.38061,-0.672725,-3.91688,0.0449252,50.752,-625.128,-755.424,-18480,6300,-7140
-3.81438,2.23836,1.13739,4.58111,4.18174,0.922136,4.22536,3.57454,-0.977317,-5.09583,0.838516,1.03389,0.0421438,2.45795,2.37293,2.41865,48.312,-623.176,-752.496,-19740,6860,-7700
5.28054,6.9734,3.65714,6.569,5.24816,0.895535,7.0304,1.80883,4.55383,3.06929,0.847278,5.80497,0.672029,4.15581,3.33867,2.9075,47.336,-621.712,-753.96,-21420,7280,-8120
4.53676,2.07633,1.46574,0.682062,0.799795,-0.596487,0.576147,-1.47008,3.57762,4.44398,-0.120279,3.164,0.11265,3.56166,-1.24651,-1.37308,49.288,-622.688,-760.792,-22260,7840,-8400
-0.572547,-3.92818,-2.81542,-6.23974,-4.24495,-2.90849,-6.786,-4.55397,-2.95062,2.25588,-1.3558,-2.86565,-1.47458,-1.54968,-8.27316,-6.39009,46.848,-624.152,-754.936,-23660,8400,-8540
-1.08218,-2.82668,-3.01629,-4.0051,-2.90371,-1.8429,-3.8051,-0.847762,-3.56376,1.54373,-2.51502,-2.00497,-1.45425,-1.85142,-4.77136,-1.74353,44.896,-621.712,-760.304,-25060,8820,-8680
-1.34202,-2.06949,-2.19869,-1.63579,-1.86125,-0.42389,-0.724535,3.04861,-1.19032,2.20706,-1.42369,-0.554113,-0.897528,-0.0364445,1.14299,1.71148,42.944,-622.2,-759.816,-25900,9240,-8400
-3.32783,-2.72987,-4.57806,-2.65934,-2.70067,-1.25166,-2.86252,2.18395,-4.67371,0.28645,-1.64961,-1.79038,-0.941788,-1.40106,-5.12225,1.11172,42.944,-620.736,-759.816,-26740,9520,-8400
-2.09073,-2.74983,-3.10555,-3.64115,-4.08169,0.141274,-9.10695,2.5803,-1.20478,0.80291,-0.230779,-1.10013,0.381928,-0.523083,-8.31544,-1.72907,40.504,-623.176,-761.768,-27440,9660,-8260
-0.493897,-0.915304,-1.22295,-1.46476,-2.42158,1.03833,-3.02578,2.01813,1.62154,-0.0993198,0.0230134,0.292284,-0.010203,-1.09229,-5.48302,-3.95937,40.016,-620.736,-760.304,-28280,10080,-7980
0.773607,2.62137,2.14689,3.21432,3.3756,1.077,5.23415,-1.03494,6.09142,1.10173,2.58718,2.46647,1.5358,-0.145083,4.27355,-0.23934,37.088,-619.272,-762.256,-29120,10080,-7840
-2.27487,-1.3638,0.644508,-0.420627,1.2601,-1.5083,4.16558,-4.38963,2.38567,-2.102,2.33214,-1.84718,0.467502,-1.94399,4.08436,2.00668,36.6,-620.248,-760.792,-30100,10220,-7560
-2.80003,-1.84307,0.360082,-0.252967,-0.112755,-1.7159,2.91605,-1.73029,0.545159,-3.51777,0.313206,-3.06899,-0.661159,-0.979835,3.42993,3.69569,35.136,-619.272,-759.816,-31080,10360,-7280
0.221443,2.58848,2.48163,2.50941,2.56072,0.670613,2.8568,4.31835,2.23001,-0.461944,0.719009,0.430174,0.212767,2.3431,6.77024,2.54594,33.672,-620.248,-764.696,-31640,10360,-7140
0.91179,2.3096,2.34659,2.6383,2.62306,2.35741,2.30551,7.76589,1.36817,-0.391804,-0.179495,0.668051,0.127608,2.32422,6.2258,2.95791,30.744,-619.272,-759.328,-32480,10080,-6860
1.35164,1.86481,1.3557,1.87822,1.72665,2.56601,2.21525,3.99399,-1.01658,0.329149,-1.90009,-0.0321427,-0.659785,0.363357,3.01375,1.6407,29.768,-619.76,-765.672,-32900,9940,-6580
1.6391,-1.59016,2.1581,-0.913078,-0.163853,1.24105,-0.937104,1.31203,1.55989,0.633936,0.22657,0.236695,-0.632017,0.678938,3.26635,-0.722394,28.792,-621.224,-764.696,-33600,9660,-6300
2.99577,1.629,2.57458,0.147289,-0.160875,-0.428262,-1.35647,-3.65448,0.552836,2.15014,1.79201,2.08418,1.1747,-0.266014,-1.29742,-2.69758,25.864,-621.224,-766.648,-34160,9240,-5880
3.97798,3.02273,0.91788,3.02056,1.05602,0.0639296,-0.808433,-5.11791,3.23498,2.2059,2.88834,2.75272,1.91378,0.936327,2.34529,-1.95057,25.376,-620.736,-768.112,-34580,9380,-5880
0.143884,0.316095,-2.24495,-0.0752431,-1.0605,-0.925569,-1.60339,-7.75317,-0.995172,0.444009,1.16241,0.838951,1.36926,-1.90171,-2.52174,-3.32412,27.328,-626.104,-769.088,-34720,9520,-5880
-1.68095,-2.83063,-2.79311,-2.74384,-1.34233,-0.516126,-1.14663,-9.23659,-3.81809,-1.05687,-0.97576,-1.07834,0.600571,-1.859,-3.33747,-1.98238,28.792,-622.688,-771.04,-34720,10080,-6020
-1.2293,-2.17463,-0.869644,-0.956254,0.206108,0.68312,0.58234,-10.0481,-4.33826,-1.63198,-1.13875,-0.34994,0.122095,0.166376,-0.60299,2.01757,26.84,-624.64,-774.456,-34720,9940,-5880
-1.67354,-1.76741,-1.35199,-0.201919,0.814042,0.839583,0.452443,-12.5088,-6.73263,-2.00348,-0.771271,-1.14647,-0.0690791,0.777406,-1.47207,0.898022,28.792,-624.64,-770.064,-34300,9520,-6160
-3.26248,-3.66309,-3.10668,-3.17441,-1.44308,-1.88798,-3.37434,-12.1232,-8.59807,-2.9324,-1.21881,-3.9447,-0.970664,-0.472852,-3.63653,-2.45026,24.4,-624.152,-773.48,-34020,9520,-6300
-0.843714,-0.426177,-1.17146,-1.69446,0.342717,-1.08786,-0.809207,2.2748,-3.08673,-1.15786,-0.805351,-1.59731,-1.3212,1.60899,-0.0938037,-0.315898,27.328,-622.2,-772.016,-33600,9520,-6720
-1.54869,-1.58195,-1.10445,-3.70314,-2.35982,-1.76498,-1.05808,8.03213,-2.52826,-1.24988,-1.35947,-3.27014,-2.83746,-1.22904,-2.19513,-1.93109,27.816,-623.176,-772.992,-33040,9380,-6860
-1.5446,-3.25421,-0.532718,-4.06954,-4.87896,-2.48814,-5.93213,8.16233,1.73778,-1.59308,0.0228502,-2.91088,-3.40202,-2.73339,-3.67304,-2.08159,32.208,-623.664,-774.944,-32480,9100,-7140
1.42054,0.295567,-0.150331,-1.67495,-4.94814,-1.56729,-9.15078,9.25361,3.95482,-0.388907,-0.670265,0.083931,-1.85872,-3.62017,-8.31143,-2.7795,30.256,-621.712,-774.456,-31780,8960,-7280
3.5473,2.94604,1.41992,2.81151,-2.05015,-0.0903679,-2.55929,10.201,10.6894,1.58211,-0.0229683,2.72877,0.397549,0.566903,-0.970157,-2.64193,32.208,-624.152,-772.992,-31080,8680,-7560
6.53839,6.65896,4.27101,7.17534,3.62905,-0.221333,6.84653,5.59448,15.5884,5.22275,1.5008,7.28889,2.86426,2.80753,6.01889,0.386106,33.184,-623.176,-774.456,-30660,8680,-7840
3.45204,4.27897,1.93092,4.51348,3.28472,-0.277704,6.79497,1.36011,8.9524,4.68095,1.27951,3.99229,3.02879,2.88978,4.43324,3.20245,34.16,-620.736,-772.504,-30100,8400,-8120
2.50968,3.25411,2.22159,5.23788,4.46243,1.94363,7.22591,4.91138,6.96632,4.03747,1.22901,3.79725,3.36235,4.25216,6.32689,6.84578,38.552,-621.224,-776.408,-30100,8400,-8680
4.52409,6.21404,4.10833,7.25996,6.09509,2.9506,8.32548,5.21872,4.52146,4.63616,0.824419,5.71232,3.45749,2.51822,5.22462,6.77282,40.504,-618.784,-778.36,-29680,8400,-8960
1.89264,3.69435,2.14313,3.66289,3.19002,1.53284,4.99584,3.88278,2.9039,2.80933,1.97992,1.97726,1.93402,0.768456,5.9686,3.44096,42.456,-619.76,-777.384,-29680,8540,-9380
-13.8083,-8.1391,-6.2275,-6.90827,-5.13382,-2.7244,-3.88911,-1.03056,-12.0762,-9.05858,-2.41614,-8.27627,-2.93686,-5.53037,-4.44085,-3.14911,42.944,-618.296,-775.432,-29680,8680,-9800
-12.8716,-7.20075,-6.19318,-3.59795,-2.4132,-0.998705,-0.460173,1.74931,-13.7031,-10.1691,-4.83451,-6.03186,-2.30447,-2.58678,-1.01677,-0.0282231,42.944,-616.344,-773.968,-30100,8960,-10360
-2.01867,-1.46204,-0.782351,0.915453,2.58787,1.95402,3.76864,3.49246,-7.01787,-3.63665,-4.19075,1.03371,-1.0698,1.95365,3.23064,4.8886,44.896,-619.76,-775.92,-30520,8820,-10920
4.29587,-0.420679,0.463801,-0.01957,1.64761,2.59961,2.7921,0.95515,-4.1499,2.51923,0.0932678,1.10031,-0.481521,0.999224,2.8956,4.6337,48.8,-617.808,-781.776,-30660,9380,-11620
-0.162094,-6.93477,-2.53094,-8.64149,-5.26027,-0.342264,-7.12875,-6.5642,-7.0073,0.220794,-0.0119334,-5.3197,-1.8986,-3.85622,-7.01925,-3.64088,48.8,-612.928,-770.064,-30660,9380,-11900
-2.50569,-9.90056,-3.22407,-13.713,-9.36059,-2.25422,-12.8622,-9.9837,-5.40969,-1.41243,1.30286,-8.36732,-2.41787,-6.96543,-13.6677,-9.64788,50.752,-605.608,-768.6,-32060,8960,-12460
-0.576392,-5.31472,-1.80311,-11.3068,-8.787,-3.41845,-12.4147,-12.2356,-2.92428,1.13315,2.84995,-5.17893,-1.0431,-7.69138,-15.8396,-9.45495,49.776,-603.656,-758.352,-33740,9380,-13160
1.30886,2.07787,2.38873,0.42722,1.39038,1.48343,-3.35139,-5.54969,4.38525,2.67569,3.23356,1.47412,0.811575,1.3904,-1.81534,-0.668884,56.12,-603.656,-766.16,-35840,9940,-14140
3.92506,9.7007,6.06292,11.4462,11.5161,4.92304,9.19142,2.54762,2.32811,5.11884,2.0583,6.81153,2.75203,6.67493,9.15266,6.92936,57.096,-607.072,-769.088,-37660,11060,-14700
1.36724,9.03511,6.40115,12.6478,12.647,6.18576,11.2099,6.46049,-0.256014,2.06831,0.345521,6.4804,2.42603,8.95305,14.1165,9.39386,58.072,-610.976,-772.992,-38220,11060,-15120
2.4808,8.74057,4.81342,11.6821,9.72265,4.09962,8.73901,6.25904,-2.01825,-0.0209583,-0.242435,6.57926,2.06182,7.36538,10.3942,7.83027,61.976,-613.416,-778.848,-38080,10920,-15120
1.60658,3.2574,0.135881,2.28815,0.728844,1.36776,-3.54266,4.96953,-0.0401998,-0.499421,-0.771337,1.81115,0.470288,2.17656,-0.185827,0.32055,69.296,-606.584,-788.12,-37520,10640,-14700
0.920797,-0.480963,-3.12009,-1.92946,-2.97458,-1.26234,-3.84171,1.57693,1.93262,-1.16835,-0.482813,-2.74538,-1.91752,-1.91789,-2.30644,-6.09573,68.32,-602.68,-792.512,-35420,10780,-13860
0.985967,0.71648,-2.84443,0.121338,-1.61558,-2.91656,3.42035,-2.81812,3.56729,-2.65702,-1.40722,-1.50193,-2.67178,-1.89324,2.43524,-4.60014,73.688,-599.752,-799.344,-32620,10080,-12740
3.39886,1.37035,-2.14843,0.160157,-2.22079,-3.79498,2.90238,-5.80168,6.90316,-1.44124,-0.482541,-0.345066,-2.43006,-1.13191,1.52024,-3.43546,74.664,-594.384,-803.736,-31080,10220,-11900
2.05184,-1.11676,-0.938936,-1.17511,-2.53419,-3.93959,0.341731,-5.21148,4.15227,-0.302106,0.709468,-0.734472,-1.01324,0.0541143,0.260411,-3.01491,73.2,-593.408,-806.176,-28280,10080,-10640
4.73937,2.28675,0.939579,2.09211,-0.270522,-2.06276,2.33855,-2.09946,5.40846,3.1155,1.59597,3.32326,0.393991,0.567035,0.302375,0.207683,70.272,-594.384,-805.2,-26180,9520,-9940
4.49584,1.28423,1.30051,1.82487,-0.583501,0.249974,-0.815064,-0.411032,4.55903,1.95533,0.926204,3.05468,0.43532,1.24806,0.0689919,-1.36398,69.296,-598.776,-800.32,-23940,8260,-8680
1.79165,-1.84145,0.962236,-5.7222,-5.27538,-1.1692,-8.15221,-3.70982,0.998678,1.89367,1.20322,0.594167,1.42885,-4.05746,-9.18754,-7.94963,63.928,-598.776,-793.488,-22400,7280,-8400
-2.68753,-8.0294,-0.506036,-13.7992,-11.4627,-4.21025,-15.1431,-5.0225,1.69703,-0.411391,1.48787,-4.28675,-0.514088,-8.20266,-15.9353,-11.7813,64.904,-599.752,-787.144,-22680,6160,-8120
-7.85292,-9.20278,-2.6243,-9.82311,-8.47383,-3.15176,-7.63038,-1.23232,-4.67474,-3.7789,-1.52492,-6.6397,-0.927817,-4.93855,-10.3379,-5.34999,65.88,-604.144,-784.216,-22960,5180,-8120
-15.8644,-13.0371,-6.91209,-8.5442,-6.59671,-2.69453,-2.63487,-0.164931,-17.1166,-9.02482,-5.74434,-10.7977,-2.27876,-3.70496,-5.08169,-0.821098,62.952,-612.44,-780.312,-22960,4620,-8120
-7.31843,-4.22663,-2.36125,0.243795,1.34221,0.948071,3.50761,3.46408,-5.2403,-3.16546,-2.65924,-2.95008,0.408028,2.6138,7.86557,5.43315,65.88,-618.296,-781.288,-22820,4200,-8260
2.89725,3.03212,1.22416,5.0724,3.55402,0.566904,4.90996,0.953718,4.13106,2.88547,1.21482,4.27672,3.00158,2.75714,7.81619,6.92714,68.808,-628.056,-787.144,-22260,4620,-8260
4.02656,5.02728,3.08915,7.85863,5.3745,3.34786,6.32129,2.52393,6.88516,3.13414,1.18305,5.45222,3.42202,3.72497,9.86488,8.63699,69.784,-627.568,-789.096,-21420,4760,-8120
2.3302,2.44229,2.05183,6.05106,5.72859,3.99589,5.11599,4.75144,2.49734,2.75543,0.276336,3.23914,1.88417,2.8836,4.8986,7.65298,70.76,-629.032,-796.416,-19460,4200,-7700
-1.39597,-1.46538,-1.78032,0.342856,1.35958,1.82338,0.110085,2.1314,-1.97956,1.10872,-1.09177,-1.69552,0.52812,0.341184,1.02693,2.35993,70.272,-626.104,-792.024,-18340,4620,-7560
1.38164,6.52575,2.83621,9.15334,9.16484,2.29051,7.09586,2.75098,1.22946,2.62184,0.203247,4.48366,0.573035,4.79142,10.3152,6.69047,68.32,-624.64,-795.44,-16800,5180,-7420
1.48025,7.43829,3.91791,7.40994,9.1128,1.98773,6.8637,3.6685,1.46949,1.69471,-1.13989,5.08307,-0.184843,3.90661,8.11793,6.66112,75.64,-621.712,-795.928,-15120,5600,-7560
7.24391,12.3349,6.6069,9.47048,9.10794,2.89744,8.55162,6.97116,9.38335,5.01554,0.805338,8.20262,2.80808,5.69083,7.35685,7.78636,75.152,-619.76,-794.464,-14000,5740,-7840
2.51249,2.53169,3.20329,0.52038,1.09581,-0.137602,1.95867,3.39524,4.50789,1.75931,2.60574,1.03935,0.811432,1.41766,-0.579812,2.93209,73.2,-609.024,-792.512,-12880,6300,-8400
-3.13123,-5.50308,-2.43292,-6.61194,-4.99115,-2.03751,-0.502847,1.02292,-3.10378,-2.92243,0.33038,-6.63974,-3.04417,-4.96463,-6.05222,-1.30429,76.128,-602.68,-781.776,-12740,6300,-9100
-1.08742,-2.35016,-2.53884,-1.61051,-1.13132,-0.0367811,1.2856,4.98379,-0.390372,-3.05344,0.241619,-3.26051,-3.52831,-1.82585,1.97168,1.51612,80.52,-599.752,-781.776,-13440,6580,-9940
3.47698,2.13084,-2.93266,-0.976918,-1.96038,-1.20065,-1.28337,-0.830571,0.554894,-0.332979,0.87587,0.0139208,-2.83726,-4.06449,-2.47384,-3.18899,80.032,-593.896,-782.264,-13720,7000,-10640
3.6372,1.04758,-1.68943,0.0194302,-0.670723,-1.54708,-0.715236,-2.63984,1.50964,0.0360284,2.70127,0.829819,-1.7836,-2.62597,0.978336,-3.27773,80.032,-588.528,-784.704,-14280,7000,-10920
0.586938,-1.38459,-3.23907,-0.893154,-1.84196,-1.70386,-1.47676,-3.78934,-3.52726,-1.17473,0.461184,-1.9511,-1.26466,-2.40564,-3.46691,-4.59292,82.472,-591.456,-781.288,-15120,6720,-10780
-5.66283,-8.1361,-5.36964,-11.1484,-9.97546,-1.80071,-13.4591,-6.64884,-10.6283,-4.48164,-2.63865,-6.28786,-0.492327,-4.41136,-17.5802,-13.5704,81.984,-588.04,-786.168,-15680,6440,-10640
-10.767,-9.74236,-3.88751,-13.0288,-10.3234,-0.155007,-15.5866,-6.11905,-15.7095,-5.43398,-1.07152,-5.99497,0.391089,-2.79846,-21.4542,-13.4122,82.472,-583.16,-792.512,-15820,5740,-9940
-6.8011,-5.88107,-0.80612,-8.83882,-7.1904,0.859026,-12.2453,-4.07619,-10.7374,-1.41511,1.41419,-2.91404,2.40552,-1.45325,-16.9444,-9.71008,85.4,-579.744,-791.536,-15960,5180,-9240
7.74216,4.21766,3.1747,-1.76593,-1.67621,1.42991,-6.33044,-2.77483,6.0927,6.76884,4.01824,4.83401,4.82306,1.39369,-6.38994,-6.17461,80.52,-574.376,-794.464,-15820,4760,-8680
7.82299,3.46807,1.83149,2.05901,1.01696,1.41301,1.38244,-0.366695,7.81621,4.73326,2.65423,3.94604,2.25662,2.33499,4.72041,-0.22656,81.984,-571.936,-797.392,-14980,4340,-7700
-1.0407,-4.96011,-3.69749,-3.10168,-1.96389,-0.501444,0.936628,-2.56398,-2.82952,-2.63164,-2.77491,-3.71779,-1.39488,-2.25699,3.50697,0.433451,76.616,-571.936,-795.44,-14700,4060,-7140
-0.73298,-1.1281,-1.76564,4.48374,3.72114,-0.223346,5.74932,0.730194,2.02829,-2.67806,-2.81856,-1.09966,-1.76703,1.87501,13.247,7.06407,73.688,-574.376,-797.88,-13860,3500,-6440
-3.13071,3.33629,0.230533,10.0061,7.96482,0.506173,10.7517,1.73266,-1.18124,-3.24432,-5.01213,0.894852,-1.86438,2.63677,15.3984,9.86134,69.784,-574.376,-790.56,-13020,2660,-5740
-2.30257,7.54323,4.60836,12.9352,10.547,2.07004,10.6797,1.01467,0.569561,-1.63751,-3.77956,3.95538,0.281436,4.63673,14.6272,10.1006,61,-578.28,-794.464,-13860,2660,-5460
-0.283211,6.10379,5.63686,9.90518,7.81092,0.32802,8.12064,-0.357479,0.0735428,1.20455,-1.69044,4.63226,0.776979,3.52368,9.08914,7.90628,62.464,-582.184,-792.024,-15820,2940,-5320
2.33194,-0.854422,2.57785,-2.33985,-2.79432,-1.07146,-1.11935,-1.82543,3.17211,2.1877,1.49834,-0.186508,-1.63333,-1.89813,-3.88902,0.684441,60.512,-593.408,-801.296,-17080,3220,-5460
9.12531,1.6266,4.81755,-4.3408,-3.96077,1.15043,-7.7078,1.66493,14.5755,6.60271,3.80571,1.99074,-0.868873,0.240621,-7.76093,-2.05543,55.632,-600.24,-798.368,-17360,4480,-5040
9.48318,5.46942,6.44767,1.03824,0.718069,0.790175,-1.68629,3.5712,10.1963,7.05029,1.55468,4.55651,-0.669445,1.3086,-3.93982,-3.21732,53.68,-603.168,-797.392,-16240,5040,-4760
-2.09288,-3.99365,-0.103075,-4.59256,-2.3152,-1.95958,1.11899,0.370199,-1.37858,-1.14245,-1.14363,-1.63042,-1.38053,-1.49581,0.331204,-5.24018,52.216,-608.048,-797.392,-16240,5320,-4620
-6.461,-5.00852,-2.078,-4.05192,-2.14176,-4.9554,0.818942,-5.69819,-5.67127,-3.37052,-2.03006,-3.05984,-1.47322,-2.37728,-0.253609,-2.23364,53.192,-611.952,-798.856,-16380,5600,-4340
-5.17786,-2.72608,-2.11825,-2.2133,-1.85937,-3.18951,-0.180647,-2.90829,-4.03474,-2.99761,-2.43201,-3.09005,-0.879596,-2.44018,-0.580438,-0.718894,48.8,-613.416,-803.736,-17220,6720,-4480
-7.67435,-1.92169,-4.09387,2.70326,1.596,0.310528,4.14977,1.89199,-6.8503,-6.12467,-3.0989,-3.4981,-0.554333,0.0476866,2.37585,2.94303,51.728,-615.856,-803.736,-19740,7560,-4620
-9.63933,-6.2455,-5.55385,0.460029,-0.351573,0.85216,4.81679,3.73508,-10.5883,-7.05066,-1.56381,-6.50183,-0.304785,-0.000787411,4.96545,4.68871,49.288,-621.224,-811.056,-19460,7700,-4620
14.6845,8.13121,2.18658,5.02295,3.53931,0.985357,4.00497,5.40794,17.4471,8.1197,5.28043,6.0077,4.47106,2.9143,7.6894,4.11526,50.752,-622.688,-813.984,-18620,8400,-4620
20.0957,19.2912,8.6743,18.4889,13.6246,3.27467,11.5079,10.051,22.8679,12.1157,6.6518,16.8458,7.03113,10.8169,18.8169,9.89796,53.192,-624.152,-813.008,-17640,9100,-4900
0.893384,4.88088,1.51582,7.10666,4.86908,2.80493,7.69019,7.21146,-0.862697,1.08851,1.44591,5.35084,3.03869,5.06281,8.71194,6.156,51.728,-623.664,-815.936,-16660,9240,-5180
-8.85387,-11.6987,-5.73441,-11.9539,-9.51686,-1.29207,-10.3786,-0.664975,-7.97162,-5.3104,1.14356,-7.75696,-1.7455,-3.79326,-9.76457,-4.92986,55.632,-624.64,-810.08,-15960,9940,-5600
-4.97235,-8.29262,-5.54087,-12.9606,-10.5145,-3.03085,-14.8501,-5.31906,-6.39029,-2.38195,0.782038,-5.57549,-1.22405,-6.74673,-21.0478,-10.8175,53.192,-622.688,-811.544,-15120,10500,-5880
-5.90962,-3.79308,-4.2166,-6.77856,-5.5839,-0.962045,-10.8473,-4.80935,-4.59199,-3.46529,-1.7445,-3.09196,-1.66148,-4.92632,-13.9225,-10.5224,54.168,-626.104,-804.224,-14420,11200,-6580
-11.9141,-14.6099,-8.45544,-16.7797,-11.7711,-2.52584,-13.1969,-7.64873,-15.2593,-7.30577,-2.83862,-10.5021,-4.13156,-8.70695,-19.5713,-12.972,58.56,-627.568,-813.496,-14140,11340,-7420
-2.96323,-9.14301,-2.90287,-10.4157,-6.45691,-0.974475,-4.827,-2.31185,-6.83081,-0.0547035,3.43032,-6.79614,-0.411944,-3.67817,-8.60029,-4.53251,57.096,-629.032,-802.76,-13720,12040,-7980
2.45711,4.17236,2.80221,8.34833,8.45662,2.52596,9.41818,4.35994,0.356862,2.6494,1.8348,4.37635,1.98387,5.77146,9.49512,7.50769,61.976,-625.616,-804.712,-13300,11900,-8540
5.63275,7.37769,4.14844,10.7173,10.2046,1.55535,10.185,2.40561,5.85551,3.30985,0.810271,7.26807,1.37268,4.2469,9.58775,6.32934,61.976,-622.688,-799.832,-13580,12040,-8960
-6.08238,-2.58478,-2.42512,2.87315,3.4574,-0.475576,5.86981,-0.181945,-5.71923,-4.70575,-3.03316,-2.75188,-2.39658,-1.17868,7.24071,4.39267,63.44,-621.224,-797.88,-13720,11760,-9240
-1.51992,0.637667,-1.69405,1.86976,0.473706,0.0886271,0.0482912,-1.82711,0.721736,-1.51581,-0.659488,-1.5041,-1.66018,-1.18674,3.15613,2.03974,67.344,-623.176,-796.416,-13580,12180,-9800
5.69496,6.76042,1.49456,3.27184,0.304666,-0.205087,-3.80287,-4.35115,6.74495,4.23045,0.85073,2.39047,0.258757,-1.73776,-1.29157,-2.90743,68.32,-617.32,-795.928,-13720,12180,-9940
8.99658,7.40817,4.82989,0.672281,-1.33743,1.22646,-7.87261,-2.66834,9.40484,5.45426,2.06922,4.05686,1.42034,1.33115,-7.15019,-3.31863,70.272,-620.248,-795.928,-13860,12040,-9940
13.509,9.00149,7.19212,-2.15335,-2.92453,1.48684,-9.54264,-1.31509,13.5636,9.0342,3.45025,5.64246,2.4306,1.0741,-10.5093,-2.85849,75.64,-614.392,-795.44,-13580,11620,-10080
12.7934,14.003,10.3016,10.1859,9.16175,4.57259,7.5831,6.29148,17.56,9.28913,1.14003,11.2352,2.674,7.52659,11.4438,7.2484,76.128,-611.952,-795.44,-14140,11900,-10360
2.82773,5.9282,5.50465,8.02981,8.16229,3.25895,9.5868,0.628268,2.6573,2.60921,-2.58587,4.97973,1.46883,4.29709,10.865,4.74462,77.592,-605.608,-802.272,-16100,12880,-10920
-9.00733,-7.48998,-4.48303,-8.55512,-7.29021,-1.6699,-5.57703,-9.68852,-14.9251,-5.08909,-4.69189,-7.27167,-2.99414,-6.17642,-10.5273,-4.16766,78.08,-600.728,-801.784,-18760,13580,-11060
-17.8974,-6.1121,-3.7603,4.71295,2.54019,1.8156,11.416,4.21093,-21.6854,-10.7683,-6.12702,-5.82541,-3.05838,2.33752,13.0659,10.5991,76.616,-605.12,-800.808,-20020,13720,-11060
-12.6549,-5.55677,-0.895755,10.8139,9.49088,4.18215,19.2448,10.8623,-18.4485,-8.1852,-4.73486,-2.98832,-0.271846,6.53365,20.8368,15.7519,81.984,-600.24,-806.664,-20160,14280,-11060
-3.45617,-5.54366,-0.299764,-0.338647,0.867656,2.35136,5.82119,7.05616,-5.0016,-2.97281,-0.684738,-3.30641,0.33398,2.60698,6.60577,6.26357,81.984,-599.752,-804.712,-20580,14560,-10920
0.784485,-6.07603,-2.56264,-10.068,-8.14915,-0.22223,-7.18832,0.644275,-0.972829,-2.01858,-1.41017,-4.07571,-1.38585,-3.98023,-10.7912,-4.42351,84.424,-593.896,-802.272,-20300,14840,-10920
6.01523,-13.1033,-6.25223,-31.3841,-25.7945,-7.11417,-30.3512,-10.0429,6.77288,1.1096,1.94308,-9.79498,-4.1589,-15.5741,-37.084,-23.1731,85.4,-590.48,-807.152,-20160,15400,-10640
-1.59015,-9.58835,-6.93718,-16.0508,-13.9276,-7.21385,-15.7284,-5.21235,-0.33136,-2.99066,0.0752349,-7.91674,-3.58597,-10.5552,-17.7323,-14.3107,83.936,-589.016,-804.712,-20160,15960,-10220
7.75531,7.26404,-0.117915,7.30107,5.07759,-3.27401,5.13864,-0.974967,13.1597,1.28799,3.39144,4.9809,0.449835,-0.836556,8.19992,-0.406426,88.328,-586.088,-800.32,-20020,16520,-9660
0.598192,6.04791,0.144642,9.01335,6.09175,-2.84529,7.43738,-0.2163,8.15826,-2.6964,1.5116,3.63351,1.2217,1.82152,11.8442,2.73425,88.816,-586.088,-802.272,-19740,17220,-9660
-7.73183,0.0167556,-1.27751,7.33687,3.45631,-1.5062,2.75803,0.966344,-8.63966,-5.92665,-1.64062,-0.488484,2.25808,2.39257,7.77779,-0.1672,87.84,-583.648,-800.32,-18900,18060,-9240
4.38063,5.5668,2.3359,5.57563,3.02498,-1.65588,0.986549,-2.41931,1.02909,3.08902,1.48726,5.82767,4.27266,2.94998,3.34294,-3.404,92.232,-581.208,-802.272,-17640,17780,-8820
4.72818,4.95659,6.28069,5.95959,5.22913,0.335516,0.506689,-1.80159,2.97316,6.60647,4.23436,7.39055,4.79356,5.91072,3.32175,-0.141733,90.768,-575.352,-797.88,-16660,18620,-8400
0.0523518,2.33264,3.06947,2.66951,3.62278,0.451747,-1.17778,-2.47844,-3.11894,3.515,1.56877,3.3391,2.13404,3.52624,-1.76398,-0.368826,89.792,-572.424,-799.344,-18060,18760,-7980
4.51587,4.95447,3.51691,6.36514,8.20762,4.00472,6.29411,4.42746,7.87322,6.1042,1.99478,6.75646,2.05966,7.51294,9.12245,6.4039,90.28,-573.888,-795.928,-20160,18760,-7980
-0.26806,-6.413,-2.98915,-5.69826,-1.90259,1.22972,3.86978,4.45028,0.631514,1.94265,-0.93138,-3.46985,-1.55037,0.836747,1.10274,3.44719,89.304,-574.376,-791.048,-20440,18340,-7700
3.56135,-3.25726,-4.74505,-7.61494,-7.24094,-1.17783,-1.16521,3.32817,6.20246,2.04905,-0.671725,-4.25023,-2.49083,-3.65366,-3.20547,0.715622,86.864,-573.4,-796.416,-20300,17500,-7280
-2.46528,-2.37703,-3.27602,-0.272866,-1.01007,-0.423236,2.16045,3.3018,-2.21387,-1.46752,-0.411271,-3.05359,-2.40454,-1.48571,2.78225,1.41148,86.864,-570.472,-795.44,-21840,17500,-6860
-6.70793,-5.30745,-2.65258,-1.96164,-0.859089,-0.757004,-0.100136,1.44681,-8.42654,-2.84443,-0.355525,-5.39125,-2.35617,-2.33614,-2.51176,-0.200697,84.912,-569.984,-793.488,-24500,16940,-7000
-2.34901,1.17781,-0.286843,-6.76561,-5.22536,-1.32859,-10.499,-4.16693,-0.558127,0.0541531,-0.00476922,-2.63728,-1.60114,-4.86601,-16.5431,-6.33111,86.376,-570.96,-795.44,-26180,14980,-6860
9.91,20.1012,10.9072,15.1486,13.6563,3.71207,5.30316,0.317283,15.9862,6.40674,2.45537,14.3195,4.05001,7.02979,4.37367,5.2222,87.352,-574.376,-793,-26740,14140,-6860
7.11899,13.0938,8.436,16.0019,14.8344,5.19201,14.3241,2.84287,7.37847,4.33765,2.42488,10.9421,3.26543,7.62129,13.4279,10.6783,81.496,-569.496,-800.32,-27580,14000,-6860
-10.1369,-0.246276,0.256263,10.8045,7.75213,4.1529,12.6084,3.43947,-11.0161,-6.36158,-2.18162,-0.971749,-1.72965,4.30153,17.0843,9.97112,81.008,-567.544,-801.296,-28980,13300,-6860
-2.59263,4.34915,2.3638,13.1265,10.1717,3.48049,13.7818,1.03585,-5.04574,-0.967557,-1.24484,3.60194,0.805011,3.86676,17.4984,9.48184,83.448,-569.008,-804.712,-30800,12320,-7140
-0.259309,-6.54819,-3.0222,-4.70191,-3.78554,0.314132,-3.941,-2.46182,-0.154719,-1.03535,-0.694189,-4.50813,-1.41172,-2.53817,-1.72599,0.605887,83.936,-570.472,-803.736,-32480,12180,-7420
-13.0475,-17.6622,-10.3598,-19.6027,-17.4115,-3.54335,-22.1858,-4.36978,-14.0272,-9.20975,-4.8951,-15.9121,-6.29355,-10.991,-24.902,-11.6671,86.376,-571.936,-807.64,-34020,11760,-7420
-6.39147,-11.7281,-6.31979,-17.9308,-14.9343,-3.42729,-19.9784,-8.34755,-8.08082,-4.29927,-2.97919,-10.4455,-3.52841,-9.94528,-26.6192,-16.2096,88.328,-575.352,-810.08,-33740,11200,-7140
22.8949,17.7832,9.48286,7.09769,5.17992,0.945603,-0.720801,-6.79131,29.7537,14.7784,7.61534,14.285,4.58145,1.8737,-1.97664,-4.47832,88.328,-574.864,-811.544,-32620,10220,-6160
10.5894,7.50488,4.27237,5.56343,5.78893,-0.665604,5.54172,-3.48854,10.5938,6.99192,4.45835,8.55963,3.19459,2.47512,4.21322,1.45182,92.232,-574.864,-812.52,-31360,10080,-5460
0.969745,-6.23513,-1.69001,-10.8602,-8.14115,-2.88206,-6.69435,-2.38322,1.32168,0.448615,0.76303,-2.36539,0.336138,-2.27582,-5.1587,-4.01746,91.256,-571.448,-811.056,-29820,9940,-4620
-2.62762,-9.39974,-3.04203,-13.8071,-9.53631,-1.04508,-4.53088,0.175803,-3.22677,-3.91058,-2.581,-6.03445,-1.3568,-2.18573,-6.4569,-2.96172,92.72,-569.496,-812.52,-28700,8540,-3640
-17.3824,-18.7074,-9.9724,-17.3193,-13.6682,-0.27731,-4.39323,4.48539,-20.0188,-13.3917,-6.7228,-15.0397,-3.96473,-4.94068,-7.3448,-1.4263,85.4,-569.984,-810.568,-28280,8260,-3220
-22.5479,-20.8021,-13.4593,-19.7725,-20.4081,-3.9936,-13.0696,1.27812,-26.5396,-17.4232,-9.45803,-19.0999,-7.4695,-9.19401,-18.3814,-8.29588,87.84,-565.104,-813.008,-28700,7980,-2940
0.084674,4.62119,3.88807,8.13298,5.72899,1.67776,3.16303,5.56235,-5.521,-0.531695,-2.04396,6.68934,2.28426,6.10272,3.07619,1.96154,84.912,-560.224,-813.008,-28700,7840,-2660
5.51815,8.37919,6.82818,15.1972,12.9046,3.94909,12.7077,9.28967,2.94475,3.02937,0.274111,9.1784,3.95892,8.64926,17.8055,8.90845,85.888,-559.736,-806.176,-28420,7840,-1960
7.72238,8.93939,2.58025,11.9464,6.68252,0.864098,6.64764,3.48683,11.785,3.35998,2.23609,4.93386,2.96594,2.34589,16.9703,3.33964,82.472,-558.272,-808.128,-26040,7000,-1820
14.392,22.2879,8.23278,23.7568,16.04,0.850987,10.8433,1.36891,17.3255,8.71069,4.17883,16.243,5.81409,5.4028,19.7441,4.88992,85.4,-559.736,-809.104,-25480,7280,-1680
3.74858,11.0927,5.4125,18.696,14.3164,2.30052,10.5205,4.474,2.73666,2.88131,2.4658,9.49672,3.09935,7.04692,17.1226,7.80782,82.472,-559.248,-811.056,-26880,7980,-1400
-10.8688,-11.0611,-4.65845,-4.46152,-1.97608,0.0604714,1.15122,-1.1762,-17.48,-4.56674,-1.00567,-7.68634,-1.76244,-2.87002,-2.12927,-0.252234,83.448,-561.2,-809.104,-27860,7700,-1120
2.00163,-11.5416,-2.04547,-10.5667,-5.56467,-0.261908,0.0602087,-0.548197,-1.1286,1.73403,3.46571,-7.63516,-0.658788,-2.19172,-1.52795,0.392433,80.032,-561.2,-807.64,-26600,7140,-700
19.7266,6.0827,5.43651,-0.985903,0.26284,0.563312,-0.372761,-1.50314,17.4664,13.1731,9.70801,4.97419,2.70428,0.988663,-1.92607,1.15398,79.544,-557.784,-807.152,-26880,6580,-420
0.269691,-2.00634,-0.409271,-4.17464,-4.26397,-0.114981,-7.37901,-4.70905,-2.36655,2.87472,3.98733,-3.93413,-0.792375,-3.93985,-10.4151,-5.03201,78.08,-562.664,-805.2,-27020,6020,-280
-13.6457,-12.7531,-10.0022,-13.4611,-13.8532,-3.22769,-11.2017,-5.59643,-15.373,-7.20013,-1.56495,-14.5942,-5.28703,-10.0375,-16.078,-8.06218,78.568,-563.152,-809.104,-27020,5460,-560
-0.0334555,-2.1728,-2.5407,-5.73232,-4.0833,-2.24693,-1.91758,-2.2141,1.44607,0.316046,0.989457,-2.455,-2.09702,-3.86119,-5.40401,-3.46154,74.664,-563.152,-807.64,-26740,4900,-840
-1.20951,-6.405,-1.0181,-13.1955,-5.52981,-3.07194,-3.64599,-0.476706,-0.491458,0.464111,0.0828378,-3.62778,-1.45451,-2.84653,-9.94868,-3.02334,71.248,-556.808,-811.544,-26040,4200,-840
-3.50524,-1.08068,-1.19833,-10.3504,-5.56783,-2.59059,-5.26472,-0.245219,-0.941591,-2.41297,-4.05727,-2.10461,-2.45835,-0.562306,-11.8708,-0.743022,69.296,-560.224,-813.008,-25200,3500,-980
10.3093,20.6165,7.64023,13.7138,11.2981,0.508364,3.62817,0.845721,13.592,5.45628,-3.75064,15.4798,2.97602,7.12267,1.44932,3.08692,69.784,-560.712,-816.424,-25200,3920,-1540
-7.21394,8.09794,-0.84753,12.5898,8.23202,-2.06028,5.38382,-0.151757,-3.57846,-6.62125,-9.16476,2.95243,-1.81647,3.76357,10.8023,3.06778,69.784,-558.76,-813.984,-24920,3640,-2100
0.603888,19.0632,6.5754,25.9515,20.1495,-0.105713,14.3578,-2.43863,4.95641,1.64247,-3.65951,12.0408,2.24587,8.09748,24.5413,6.2154,66.856,-560.712,-817.888,-24640,3220,-2240
-1.34375,3.97143,3.66861,9.74571,9.41805,1.58318,9.83283,0.403472,4.38465,0.481878,0.196661,3.44232,1.68023,5.4709,18.6281,4.37931,65.88,-563.64,-822.768,-24220,2800,-2660
15.985,10.2671,6.00279,-1.93628,0.104856,1.18746,-2.97457,-0.886952,26.496,12.3651,6.6465,7.72815,3.62043,1.04937,1.44841,-2.63098,64.416,-561.688,-823.256,-24220,2520,-3080
12.0545,10.1821,5.2962,3.3666,2.08704,1.33683,-5.98734,-1.33672,15.3075,10.6717,6.75271,8.33779,5.08001,0.857608,-2.02788,-4.38485,62.464,-570.472,-821.792,-23520,2520,-3500
-12.5923,-12.1259,-5.5343,-9.96842,-6.8935,1.23557,-6.77254,0.829136,-14.7522,-6.80629,0.0714428,-8.62534,-0.369591,-1.71281,-6.62452,-1.41083,64.416,-574.864,-824.72,-22680,2520,-3780
-6.70733,-6.68074,-3.78431,-7.56933,-3.76109,2.34881,2.26378,2.5895,-7.12608,-4.38273,-1.36761,-3.78758,-1.06039,-0.172591,-5.06111,3.11985,61,-576.328,-821.792,-21840,2660,-4340
-11.1719,-15.1289,-5.3389,-5.85106,-1.00692,4.54823,9.11429,6.45158,-14.8624,-8.34459,-2.69577,-7.7126,-2.85671,0.710991,6.64549,9.16109,63.928,-577.792,-821.792,-19600,2100,-4900
1.21708,-5.97978,-1.38253,-6.23808,-3.40785,3.0174,3.08444,5.36878,-0.161518,-1.71455,0.75685,-2.62112,-1.27025,-1.04009,-1.67492,6.18208,61.976,-579.256,-822.768,-17780,1960,-5740
12.2162,1.95327,4.67744,1.54387,0.788333,3.70665,-0.840493,7.01125,13.9767,4.17994,2.60177,5.22401,2.29652,2.38182,-4.16475,4.18144,61.976,-581.208,-824.72,-16520,1960,-6020
-5.57649,-15.4491,-5.76595,-12.712,-14.4027,-2.39978,-20.7027,-3.32683,-8.81818,-6.59671,-0.918987,-8.96996,-3.7311,-8.91742,-25.1683,-11.2349,62.952,-578.28,-822.768,-16800,1680,-6580
-17.3773,-13.1794,-9.97133,-7.58921,-15.4588,-6.50383,-17.6222,-11.6807,-21.7026,-16.3375,-5.13374,-12.0274,-6.94027,-12.6895,-20.212,-17.354,65.88,-576.816,-821.792,-16520,1540,-6860
-24.9078,-23.5463,-9.57413,-9.45676,-7.46786,-2.28344,2.03455,-4.0207,-29.1756,-21.0669,-9.87456,-14.205,-6.05683,-4.67281,-3.77761,-1.77374,66.368,-582.184,-819.84,-16240,2240,-7700
-6.61033,-13.656,0.038974,0.687179,1.88657,1.83879,8.84436,2.88071,-6.32917,-5.51517,-2.55025,-2.21782,0.138943,4.05012,4.88273,6.22201,67.344,-580.72,-818.864,-16660,2520,-8400
6.63273,2.85471,6.18684,13.3732,8.55529,1.13269,5.74166,-0.0700612,4.47445,7.81094,3.57547,9.4177,3.44094,5.37655,5.59679,3.18648,68.32,-578.28,-818.376,-17780,1960,-8400
13.2903,11.5704,4.53975,8.04438,2.32808,-0.213518,-1.74987,-2.22614,19.4984,12.6143,5.351,8.17132,2.12538,2.58144,3.94779,-1.04102,72.712,-579.256,-817.888,-18480,1260,-8400
22.6999,22.9095,7.50332,12.7076,7.90303,-0.815218,3.31404,-5.4672,26.3257,18.1774,6.34476,14.0241,3.24311,3.0667,8.26292,-0.207121,70.272,-577.792,-810.568,-19040,980,-8400
5.31916,6.98309,3.79755,9.1203,7.59849,-0.871937,4.67393,-4.47669,1.34486,7.70822,2.69467,4.58863,2.40622,2.61985,14.5782,3.19357,74.176,-574.376,-813.008,-19460,280,-7980
2.98492,17.2385,6.06331,19.695,15.5062,1.69962,14.7502,0.216926,0.391429,5.53092,1.39766,7.88033,3.76679,6.76221,25.8401,7.37252,79.056,-576.816,-813.496,-20160,840,-7980
-6.37663,8.60613,-0.901888,9.95552,6.4776,1.69126,13.6858,4.88786,-7.79902,-2.08659,-1.46894,-2.52298,1.54737,2.62719,23.3304,5.10389,84.912,-578.768,-818.376,-21000,560,-7980
1.64303,3.8775,-2.10992,-2.12017,-3.71962,-1.88242,4.12175,3.50327,1.28274,2.21026,1.76834,-5.59457,1.46502,-2.14593,9.34977,-0.350888,88.328,-580.72,-816.912,-21840,280,-7700
-0.672944,4.53483,-0.595247,-1.17605,2.96825,-1.35813,5.61255,7.38426,-4.66619,-1.93696,-2.11823,-1.37702,0.330789,1.23726,0.691629,4.74263,90.768,-577.792,-819.84,-22540,0,-7560
-12.4327,-14.3206,-4.13248,-16.1072,-1.14915,0.599635,-0.772105,10.5125,-21.5591,-11.2026,-7.0557,-9.9065,-1.81735,1.01282,-13.8123,5.99162,93.208,-578.768,-817.888,-22540,-280,-7140
-16.7011,-33.4665,-16.2957,-53.1547,-36.1362,-10.2215,-40.9183,-5.59807,-21.3614,-13.1246,-5.29512,-28.5266,-8.67189,-19.6087,-56.7988,-21.4734,93.696,-572.424,-816.912,-22260,-1820,-6440
17.8716,5.4834,0.245993,-20.9685,-19.0036,-8.69633,-33.0723,-9.27221,21.4374,11.0381,5.40258,1.60245,0.328233,-12.7413,-36.897,-21.9627,97.112,-572.424,-818.864,-22120,-2100,-6020
14.6036,7.39078,3.47594,-2.75016,-4.68059,-5.2143,-8.85997,-6.83758,17.1984,11.0497,6.05364,5.09005,1.50668,-3.3183,-6.28076,-10.953,98.576,-568.52,-818.864,-22540,-1680,-5600
15.3717,20.7768,6.38644,18.5101,10.5657,-1.50667,11.0635,-3.22553,15.8533,10.9093,5.36409,12.739,3.08491,3.56674,12.9985,1.04235,96.624,-566.08,-822.28,-22400,-2240,-5320
14.6089,19.3837,9.79319,24.1785,20.5642,5.04224,20.3997,7.70049,16.1743,10.2034,3.51924,16.9911,3.68345,12.009,21.9392,13.6543,102.968,-559.736,-820.816,-22680,-2380,-4620
-6.80307,-2.93771,-2.53126,-1.04209,1.22412,1.33435,-2.67436,1.13117,-6.66552,-3.75136,-4.39472,-0.870764,-4.18903,-0.274118,-8.40143,0.789782,106.872,-556.32,-819.352,-22960,-2240,-4200
-5.19028,13.8445,2.49413,15.161,8.7433,4.19545,3.00136,1.37223,-4.28528,-1.64649,-2.33912,8.47634,-2.30114,4.70555,4.41577,4.3431,103.456,-553.88,-813.984,-23520,-2660,-3640
-10.7665,-1.91371,-2.37217,1.38323,-3.61554,3.79795,-3.7248,-0.48995,-11.1416,-5.39477,-0.203713,-4.12499,-1.26617,0.367346,4.78381,-0.640575,103.944,-549,-812.032,-24360,-3360,-2940
0.290229,5.86864,4.32682,11.2939,8.85207,7.10805,9.84424,3.38155,-0.434411,1.0432,2.30491,4.47991,4.53728,5.91415,16.0734,7.55944,104.92,-545.584,-811.544,-26040,-4200,-2660
-11.799,-10.5998,1.22921,4.43767,8.87228,9.31097,16.4472,9.07706,-15.0681,-8.03509,-0.865599,-3.47816,3.37112,8.20232,16.8481,13.9344,103.456,-546.56,-812.032,-27300,-4760,-2240
4.94609,-10.6968,-1.01158,-19.0326,-11.8003,2.52167,-11.7332,-2.83529,7.77654,0.641798,5.75655,-5.14842,2.12658,-4.51544,-22.427,-6.72263,104.92,-542.168,-814.472,-28840,-4900,-2240
3.42102,-7.76081,-6.15232,-25.1139,-20.1515,-2.42305,-19.1773,-7.59379,16.0786,-4.81004,4.94334,-7.87404,-1.90796,-9.90217,-29.92,-14.2096,107.36,-537.776,-811.056,-30240,-5180,-2100
-25.5855,-26.075,-13.9957,-16.6728,-8.09967,-0.453345,0.408057,-3.03204,-20.0883,-29.2133,-13.0669,-16.0678,-10.1097,-5.52081,-4.42544,0.322576,103.944,-533.384,-817.888,-32620,-4900,-2380
-16.9534,-21.8016,-11.3229,-8.30707,-2.19551,-0.0267084,1.9437,-2.03739,-16.8593,-26.1906,-19.6138,-9.456,-12.882,-3.97101,-0.756682,2.6239,105.896,-526.552,-816.912,-34440,-4620,-2380
17.01,-0.818384,1.89544,6.57092,3.59103,1.22579,2.10704,-1.70404,16.3527,0.947579,-7.02361,7.97864,-4.81692,-0.935501,1.87831,1.34691,107.848,-518.744,-815.936,-36540,-4340,-2380
22.4814,13.4914,9.50027,25.1843,14.3693,5.17811,16.8152,3.86794,24.8215,17.9218,3.88453,16.4042,3.89249,6.60179,27.1655,10.4308,108.336,-518.256,-818.376,-38080,-4480,-2240
-4.95792,-4.90441,-0.425934,15.8831,5.68244,3.67296,18.1916,7.16542,-3.76027,4.49639,-2.68087,-1.23795,1.56535,4.27974,29.889,8.38669,109.312,-517.28,-820.328,-39760,-4620,-1960
-14.1556,-12.4274,-0.737793,14.2282,6.13201,3.39825,17.1578,9.26965,-13.9154,0.620314,-0.890239,-5.32567,2.65178,6.12493,33.1214,6.91459,109.8,-513.376,-817.888,-40740,-5040,-1540
0.377787,-6.91646,7.97468,13.531,11.0542,3.50471,15.7191,4.22584,-6.53106,13.8557,10.4947,5.13677,10.7969,8.09766,23.1336,6.42617,106.384,-511.424,-818.376,-41720,-5460,-1400
-7.76034,-17.8749,5.02839,-0.198001,6.69499,4.27933,8.38295,5.80438,-18.4534,6.62523,5.75868,-1.47289,8.21219,7.12337,5.63561,8.40641,105.408,-508.008,-813.496,-42840,-5600,-1260
9.13676,6.48052,6.90346,0.381085,-1.04912,0.203871,-12.002,-2.11197,5.87968,12.0442,4.68204,7.43764,5.98228,-0.392216,-18.1419,-4.27765,101.992,-504.104,-815.936,-42980,-5880,-1120
37.5773,40.1716,16.6763,14.6683,4.38233,0.603319,-11.5451,-4.68126,43.9081,27.5096,10.4267,25.7369,8.9548,1.56668,-9.11545,-6.56189,99.552,-504.592,-818.376,-43960,-6860,-1120
27.6946,37.9552,12.4562,15.8732,9.33989,1.46801,2.74791,0.132246,33.1604,18.0831,5.32991,20.1381,5.56195,6.87962,6.83087,2.02411,97.6,-497.272,-820.328,-45080,-8260,-840
2.41745,19.0485,1.79633,2.41097,4.6783,-1.90023,2.9275,0.0241762,6.93075,-1.8468,-6.39554,4.63807,-1.24547,4.37898,1.0534,3.59626,99.552,-493.368,-817.4,-45500,-9520,-420
-15.0897,3.91046,-6.20164,-8.86969,-3.21837,-4.98627,-11.7142,-2.94212,-12.1757,-12.9566,-9.07216,-6.1297,-5.03253,-2.21144,-16.8848,-2.98354,98.088,-488.488,-819.84,-45360,-12180,560
-17.4413,-15.4343,-13.7013,-33.2386,-24.6695,-13.4641,-33.5493,-14.3002,-17.7925,-13.6995,-2.57703,-20.915,-7.87204,-17.8182,-44.7368,-20.6092,99.552,-488,-817.4,-44660,-14000,1540
-7.24252,3.00134,-3.92978,-13.6727,-10.0273,-13.4553,-19.2861,-11.3433,-6.34939,-3.93663,5.76981,-5.99994,-1.92265,-10.5415,-29.2556,-11.7848,98.576,-490.928,-821.304,-43400,-15400,2240
-4.71915,17.6203,3.44886,11.2674,6.19943,-7.07551,-1.10634,-2.47217,-0.583409,-1.0928,6.26151,6.86003,0.222588,0.865062,-2.23082,0.23411,98.576,-489.464,-821.792,-44660,-18060,3780
-0.207257,5.75355,0.408128,-3.96628,-5.71892,-5.85831,-4.57799,-10.6888,-1.78159,2.0938,7.19796,-1.39328,1.90353,-5.53514,-6.13933,-9.425,100.528,-493.368,-819.84,-45360,-19600,5180
2.76295,-4.97029,2.16889,-6.07565,0.870914,0.624601,8.60747,-3.60229,1.3531,2.31128,8.30254,-2.96573,5.7069,4.64742,12.3726,2.63638,94.672,-501.664,-816.912,-45920,-22540,6720
-22.2306,-27.8095,-7.17121,-14.6295,-1.04786,0.687024,16.4194,5.66012,-28.9283,-14.7392,-1.76866,-18.1085,0.340638,6.45428,19.1635,11.8784,92.72,-509.96,-813.496,-46200,-24500,7980
-38.9011,-40.6241,-18.7925,-30.9853,-17.9493,-7.29313,-4.66556,-0.707962,-48.2247,-25.2146,-6.83895,-31.3288,-6.48815,-6.8155,-5.03014,-3.83249,103.456,-521.184,-815.448,-43120,-28840,10220
-37.0779,-37.3463,-21.3548,-32.0079,-25.1904,-14.5942,-20.8392,-10.3859,-44.6645,-25.4867,-6.24555,-32.4745,-11.6564,-16.9476,-20.4245,-17.6806,115.656,-534.848,-820.816,-38640,-31920,11620
0.963938,2.42952,-5.22639,-0.766372,-7.16665,-11.4298,-7.95765,-9.75078,-4.05397,-2.16968,-1.92885,-4.45196,-9.01859,-11.664,-8.99879,-12.6413,99.552,-538.752,-840.824,-37520,-28700,9940
7.91796,19.1508,-2.664,16.1437,5.2529,0.311839,5.15266,2.83212,10.8873,-2.47528,-12.9223,5.36617,-13.4674,-4.49913,6.07152,-1.68198,110.776,-540.704,-847.656,-42700,-25760,10080
5.92198,3.53451,-6.799,-1.67469,-7.96284,3.72831,-12.3707,-2.61891,11.3275,-4.67728,-6.64776,-1.49096,-10.7207,-9.79791,-14.2983,-12.9785,108.824,-537.288,-847.168,-46620,-25900,10080
12.3235,3.04517,-1.45855,0.223399,-4.2585,8.01733,-9.11318,0.0447597,21.961,3.42935,4.67383,3.8753,-0.929065,-2.87111,-7.41993,-9.5395,109.312,-547.048,-845.216,-42700,-23940,10220
-3.29778,-10.1304,-3.16644,-1.96916,-1.12074,6.32848,-1.03671,8.88194,-0.608675,-0.338221,5.81807,-1.38498,2.35671,1.51949,-4.15036,-0.443601,105.896,-547.536,-846.192,-38780,-23660,10920
-0.356379,-14.248,-2.55687,-10.2964,-8.29236,4.38215,-7.00775,10.1716,-3.24025,7.96501,10.3449,-3.46021,4.72606,-4.02741,-13.5771,-0.814532,109.312,-548.024,-838.384,-39060,-24080,11760
13.9581,4.41028,9.48204,11.846,11.9557,10.6235,10.2506,19.527,12.3138,14.481,4.99412,15.2168,5.39679,7.84679,9.48304,13.7816,102.968,-550.952,-835.456,-37520,-25340,12460
29.7587,16.2707,9.95497,23.7426,22.8067,11.6449,25.682,25.7721,31.0868,14.1701,-11.5598,23.8034,-6.24109,13.5111,28.6822,24.2734,103.456,-548.512,-830.576,-35840,-25900,12880
41.3358,31.8664,13.1205,39.6297,34.2713,18.1526,35.893,28.7483,42.4076,15.9994,-14.4649,33.1687,-2.99114,20.9501,40.6318,30.929,104.432,-556.32,-821.792,-33880,-24780,12460
22.56,17.7932,12.5946,34.1035,31.1489,20.145,28.835,24.2056,22.4569,7.55125,-0.23243,23.5964,10.3695,23.6155,38.2225,26.3931,91.256,-552.904,-822.28,-33180,-24640,11900
15.1817,13.573,12.4795,21.1035,17.9062,8.77185,16.7028,10.4574,12.062,9.38573,13.2077,14.7903,17.6688,15.6629,19.2564,15.6093,93.696,-560.712,-823.256,-36120,-26320,12180
16.3053,17.5264,17.2212,19.3962,15.9492,1.64974,14.7528,4.16414,13.0963,17.7133,21.5063,17.5794,21.5132,14.038,17.9357,12.991,91.744,-564.616,-823.256,-38920,-27300,12040
12.1953,10.2578,12.3449,4.11033,3.96407,-2.65185,4.99772,-5.84955,6.5531,17.1777,12.9948,9.80375,13.2875,3.04259,1.435,5.33415,94.672,-571.936,-825.696,-39200,-23800,11060
7.64851,5.4079,7.33253,-3.80885,-6.44376,-4.4134,-6.24301,-14.4321,4.36692,9.31848,0.521012,1.19466,6.90636,-5.41386,-2.76106,-5.29504,93.208,-575.84,-839.848,-40040,-20580,9240
-10.0544,-4.71211,0.035658,-5.73958,-10.3759,-3.87128,-9.4084,-14.7052,-13.5025,-6.97068,-11.835,-9.56879,1.19916,-4.99916,-1.11732,-7.69993,88.328,-571.936,-844.24,-41860,-19600,8540
-9.05075,-2.5769,6.88284,-1.01486,-5.48782,1.58856,-5.31496,-9.98921,-10.2703,-4.47275,-8.04591,-4.97659,4.72183,2.12274,-4.66684,-2.27593,89.304,-570.472,-853.024,-42560,-20020,9100
-9.28691,-2.94539,5.23362,-5.05241,-4.86981,-0.437244,-2.2115,-14.0637,-8.53031,-4.57636,-6.69911,-4.55303,1.54895,0.564328,-6.65838,-3.79268,92.72,-573.4,-850.096,-42560,-18480,8820
-13.3178,-7.0712,-1.13256,-12.3635,-8.12058,-10.2682,-10.0415,-22.0963,-9.97034,-7.41882,-6.4697,-7.11174,-5.52034,-5.87714,-15.2268,-9.45641,93.696,-572.912,-856.928,-41440,-18060,8820
-11.9476,-7.54734,-6.43553,-11.9492,-6.06442,-13.0536,-4.44574,-14.6848,-6.72244,-9.23746,-8.18974,-8.52481,-8.17154,-7.91215,-8.6359,-4.48332,90.28,-577.304,-858.392,-40460,-16940,8820
-17.8856,-18.1143,-15.4422,-23.131,-12.9842,-10.845,-12.4673,-4.16091,-10.1491,-17.6804,-17.4652,-16.9739,-14.7251,-9.38875,-19.3113,-4.02941,91.256,-575.352,-861.808,-39760,-16380,8820
-37.673,-33.6427,-25.5904,-34.656,-23.7766,-10.6113,-22.8411,-10.4135,-34.1776,-28.8824,-20.8737,-30.714,-16.9972,-16.0423,-31.1814,-14.1461,90.28,-578.768,-860.344,-39200,-15680,8680
-39.9069,-30.7336,-22.8028,-31.2311,-25.1227,-10.4512,-25.4449,-24.117,-34.0925,-28.65,-13.5392,-29.961,-12.1502,-15.7196,-26.0777,-24.0175,89.304,-577.792,-857.416,-37800,-14140,8540
-27.8313,-19.8724,-15.4579,-18.7451,-16.7324,-6.52038,-19.9725,-29.8492,-21.6727,-16.3955,-5.66677,-20.4771,-7.48437,-11.9506,-15.1547,-24.8166,84.424,-582.184,-856.44,-36820,-13860,8960
-6.90147,-10.8625,-7.34706,-13.1174,-10.4418,-2.25773,-13.1311,-20.1108,-2.89275,0.683935,8.03002,-10.3997,-2.21611,-7.55032,-7.79198,-17.4634,85.4,-588.528,-850.584,-36120,-13720,8960
10.3144,7.30646,3.65004,1.30621,-0.0423483,0.859499,-3.9312,-4.17468,16.0481,12.8186,20.5599,4.05884,4.04808,-0.426918,0.714159,-5.51122,83.448,-592.432,-850.584,-36540,-13860,8400
12.4243,15.7837,7.63725,14.3399,10.0385,2.13295,10.0232,6.31427,12.9172,15.2042,24.0438,12.7019,6.65437,3.33769,9.79905,4.64122,81.008,-598.288,-848.144,-36960,-13580,7840
8.70247,4.13426,4.53433,3.08868,2.93,2.17429,3.44183,12.9703,6.80262,13.4033,23.7167,6.0059,6.10511,0.691086,2.10286,2.65113,77.104,-597.312,-849.12,-39620,-14560,7560
2.94995,-2.27175,0.00574211,-1.51071,-3.43564,-3.25824,-3.18861,10.394,-4.25146,6.72965,15.7786,-1.15259,1.13118,-4.61165,-4.79817,-4.82889,76.128,-605.12,-844.728,-41160,-15540,7980
-3.55796,-7.76506,-7.76506,-5.43853,-6.97231,-5.66518,-3.69956,11.7671,-11.5185,-4.6044,-1.84567,-6.34252,-10.3027,-7.6372,-3.14738,-4.06265,73.688,-606.096,-837.408,-42700,-16240,8400
-1.86534,-5.07225,-9.65213,-5.96502,-5.49921,-3.10524,-3.41608,18.9012,-6.57702,-8.67278,-10.2685,-4.24921,-14.4958,-3.35995,-13.9659,0.435505,67.344,-605.12,-833.504,-43680,-19600,9240
14.094,16.957,1.28463,13.1476,7.10957,1.23581,2.3207,21.688,13.3289,2.26571,-3.15988,10.6456,-6.19938,4.78268,-9.50514,2.97446,63.928,-605.608,-813.984,-44380,-26600,11340
16.3071,30.793,7.02794,37.4601,26.2019,6.55416,26.3747,25.6244,17.2756,1.62978,-10.6118,21.0079,-3.22268,14.8193,26.7361,20.202,94.672,-616.344,-824.232,-41860,-34860,14420
16.456,23.6327,7.98233,31.0154,23.7109,4.7945,24.6953,14.2521,15.2686,4.98404,-8.25194,18.4893,0.908943,12.5768,32.4377,18.1166,64.416,-610,-815.936,-42420,-27300,11200
14.9545,20.749,12.4232,26.2204,23.7764,9.3776,22.869,11.4851,12.4149,10.0621,1.49845,18.2042,11.8647,14.8651,31.976,18.1932,71.248,-619.272,-806.664,-44520,-24080,11620
14.6206,19.3729,18.2782,21.5082,20.775,13.2519,18.5254,15.8793,17.7529,10.1132,1.27077,18.6317,14.6313,18.1974,28.0854,19.7604,60.512,-626.104,-812.52,-39900,-21840,14560
8.06403,4.75283,10.6428,4.54873,7.74834,12.853,10.8237,11.5133,6.88319,5.78755,-5.85595,8.52421,8.87099,9.99809,13.3412,11.6187,95.648,-647.088,-819.352,-42840,-27300,15540
6.34968,-1.58616,8.37612,-4.42209,0.338652,15.2034,0.057225,8.79476,5.9683,4.41274,-1.76687,5.90428,8.78991,7.00849,-1.18565,5.9264,98.088,-641.72,-830.088,-43120,-20020,14280
11.2561,0.0713799,5.53061,-5.03173,-0.463987,9.85907,-1.47229,1.40455,6.86571,6.6846,0.112448,6.12316,3.52043,4.48659,-9.41112,4.05295,86.376,-632.936,-832.528,-48160,-10920,11060
17.4085,14.1574,9.06483,19.1422,17.7739,2.74261,21.8442,1.45703,13.6827,15.2042,14.4923,17.0485,7.20413,10.499,24.9557,17.3095,89.304,-630.984,-837.896,-55020,-5460,11200
17.042,16.8804,10.9503,25.1282,21.3039,1.303,25.7889,1.79281,14.8445,20.3253,29.9284,17.4026,14.1652,6.36169,33.8141,19.0546,83.936,-624.64,-825.696,-61180,-1820,11760
-10.6008,-16.5074,-8.26441,-13.4443,-13.2829,-3.8466,-7.85937,-13.1493,-14.5971,-0.187129,19.7761,-14.2305,8.22122,-14.8884,-4.03069,-8.5771,82.96,-622.688,-823.256,-62020,700,12320
-21.8494,-36.8945,-15.3137,-41.7409,-36.9038,-7.16314,-35.2783,-24.1906,-27.9452,-9.82857,10.5755,-31.3939,4.64513,-24.6834,-32.8302,-30.0341,78.08,-616.832,-820.328,-63560,2660,12320
-25.4282,-39.358,-17.4351,-50.4971,-45.4065,-8.98454,-50.9022,-27.2134,-29.5887,-15.2987,-0.088246,-35.0873,-2.38802,-26.353,-53.4445,-39.3056,71.248,-608.536,-815.448,-64960,4060,12600
-22.6561,-19.4775,-17.314,-28.5816,-32.217,-8.85222,-42.4699,-22.2306,-21.7428,-20.029,-19.9105,-23.8735,-13.8191,-19.8635,-43.118,-31.8557,68.808,-604.144,-816.424,-68180,5740,12600
-17.0574,-15.1748,-13.3098,-14.0439,-11.1713,-3.42934,-16.9024,-6.3325,-13.7998,-20.4,-30.1231,-14.2438,-18.903,-4.84342,-18.827,-8.2937,62.952,-595.848,-812.52,-71260,8400,12040
-4.15177,-5.89814,-4.54092,-5.97265,-1.92493,-4.31078,-2.44166,-5.64333,-1.43125,-7.61004,-16.8975,-6.61245,-10.1928,-1.22034,-7.27541,-2.79723,61,-586.088,-814.472,-73220,9660,11760
-7.17148,-5.17872,-1.72261,-0.366485,5.60739,-1.69444,10.9146,0.771833,-2.18663,-9.95177,-16.5912,-4.33766,-7.84151,4.37646,7.57419,8.82701,56.12,-580.72,-811.056,-76020,10080,11200
-18.03,-18.5801,-10.1872,-19.4294,-10.6802,-10.1632,-12.7555,-13.5874,-14.6953,-16.8286,-12.2514,-15.1631,-7.8084,-7.6916,-20.2612,-8.55007,54.656,-573.888,-816.424,-77840,11340,10640
-6.29247,4.94803,-2.88827,3.56453,0.149047,-9.32711,-3.73903,-11.5137,-1.09455,-5.86659,-3.10787,-0.362098,-1.83177,-1.90079,-1.21932,-6.9161,55.144,-565.592,-814.472,-80080,12600,9380
1.25465,13.2533,0.728179,18.0989,12.8104,-4.88911,15.672,3.66583,9.6626,-1.24374,-9.03412,7.87365,-8.04023,5.94887,22.7747,8.28155,54.656,-560.712,-816.912,-81760,12320,8260
19.5653,20.984,5.28615,24.0505,20.6358,-0.559171,28.901,11.0794,26.4132,10.3882,-6.02795,17.2534,-8.20089,9.91093,30.503,18.0217,52.216,-555.344,-824.72,-83020,11900,7280
13.2882,17.5505,5.39575,20.2835,16.7972,4.46605,25.7968,15.704,22.809,7.17843,3.69287,13.8767,0.396974,11.3599,27.6269,18.4379,57.584,-551.44,-830.088,-83860,11480,5740
10.0565,18.7571,11.7942,15.7222,12.1377,1.40322,14.7618,9.78113,14.5276,12.4731,21.0883,12.3222,12.6242,9.2251,10.6478,8.97305,60.512,-547.048,-830.088,-84280,11060,4340
12.1776,20.6943,18.8507,17.3633,15.2818,5.25238,10.3525,8.03892,10.8408,18.5294,27.4582,16.5475,19.7979,12.1344,7.34929,8.04694,57.584,-545.096,-842.288,-83860,10360,2240
19.6492,21.568,24.236,20.5719,18.1262,11.6241,11.4476,10.1795,15.3558,24.4983,29.262,21.8408,21.8014,15.3512,11.2793,9.78081,57.096,-544.608,-845.704,-82460,9940,140
26.1715,22.87,24.0581,22.4003,20.7861,11.7086,21.1465,12.145,22.9165,26.2888,20.5496,25.5674,14.9029,16.6419,20.2528,16.2746,64.416,-543.632,-852.048,-81340,9380,-980
8.18932,-5.92049,0.225271,-8.21719,-4.3965,-0.0799457,-2.64645,-0.838928,5.64656,5.24066,-1.56094,0.801205,-5.69042,-4.15397,-9.37864,-1.18204,64.416,-542.656,-858.88,-78680,8680,-2800
-9.23386,-23.988,-16.974,-29.8328,-24.1075,-2.48629,-23.4152,-5.50504,-11.599,-12.555,-12.5949,-18.1421,-12.5748,-16.9235,-31.8327,-15.3478,61,-541.68,-863.76,-76580,8120,-3640
-20.3569,-15.0066,-19.804,-12.2815,-17.488,2.46688,-19.0391,-0.209239,-23.8208,-21.3961,-17.4965,-18.1817,-10.1694,-13.697,-17.8819,-12.306,59.048,-538.264,-871.08,-73640,7000,-4200
-17.9925,-7.68841,-11.2815,2.20592,-5.87594,3.2323,-6.64009,-0.611675,-22.2699,-16.591,-14.2828,-11.3685,-5.75716,-3.82309,3.83294,-5.48641,59.536,-538.752,-876.936,-71260,6440,-4480
-13.4947,-7.32201,-5.32972,0.602603,-0.529464,0.795637,0.115939,-7.83901,-21.7148,-8.87579,-12.5948,-6.84261,-2.27511,-2.14318,4.3001,-3.16193,61.976,-532.896,-882.792,-68600,6440,-4620
-6.63596,-5.32458,0.247006,-0.585669,-0.340717,0.0534584,0.7513,-5.53798,-9.37859,-0.485883,-5.18626,-1.56437,1.16267,-0.0691317,4.53529,0.386086,56.608,-529.968,-883.768,-65800,6440,-4760
-4.7745,-14.4446,-3.11104,-21.0798,-14.463,-6.50628,-17.446,-8.55448,-7.9634,1.9589,-0.497314,-7.64201,0.884054,-7.87832,-23.0823,-10.1517,57.584,-531.432,-886.696,-63980,5600,-4480
-7.75387,-14.8883,-5.60263,-21.7605,-15.1736,-5.14502,-19.1035,-0.924319,-10.9499,-3.71242,-4.17741,-10.1008,-2.14912,-6.29606,-24.9404,-9.8131,58.072,-525.576,-883.28,-61880,5460,-4060
-1.41849,-5.82908,-1.98215,-8.49917,-4.94806,-1.45192,-5.68637,3.549,-5.8771,-1.64422,-3.53198,-3.54751,-2.92885,0.538529,-7.87466,-1.65409,53.68,-527.528,-877.424,-60760,5040,-3220
2.43597,4.5398,1.13879,8.69087,8.04665,-0.302533,9.12535,4.35753,-0.735607,0.153056,0.15753,3.8877,-1.24474,4.22119,12.6116,4.4578,52.704,-528.992,-883.768,-59360,4900,-2520
1.38867,3.2448,0.0812824,3.89807,2.83877,-3.60438,2.10691,-0.840473,6.16699,-2.41805,3.39916,0.84181,0.570586,-0.549494,6.41471,-1.83551,51.24,-530.456,-880.84,-58240,4900,-1120
1.16215,-6.18985,-1.74613,-6.40238,-5.02345,-6.31055,-5.40249,-4.89828,6.68843,-0.76224,5.25095,-4.08307,1.54623,-4.38845,-5.81621,-5.80244,50.264,-527.528,-870.592,-57960,4340,280
-12.66,-6.74949,-4.80875,-1.91317,-2.5234,-6.44966,1.52471,-1.81871,-13.5039,-8.37892,-2.79976,-6.58886,-2.11373,-2.3959,-0.421263,-0.406177,49.288,-528.504,-854.488,-57400,3640,1680
-6.29318,-0.453793,-3.15655,0.81918,1.0814,-5.54823,5.03425,1.92622,-2.35669,-5.66873,-5.26833,-1.94838,-4.70534,0.803158,6.07706,4.84735,47.336,-534.36,-864.736,-57680,2940,2520
1.15966,1.61542,-3.13369,-3.84125,-2.20099,-5.58014,3.28824,-1.13553,3.74685,-0.212821,-4.11007,-0.0279359,-4.37874,-1.91423,-0.660701,2.97587,49.288,-538.752,-879.376,-58800,2520,3640
8.79147,6.18077,1.34858,-0.810219,-0.934518,-4.35343,0.324338,-2.04442,11.6942,5.62041,2.47614,4.92937,-2.34905,-0.372095,-2.89377,1.93789,48.8,-536.312,-878.888,-58520,2940,5040
14.0691,15.1491,6.9847,14.494,10.4011,3.01372,12.2379,2.07407,16.3105,8.93398,4.83961,12.2518,1.19565,6.44649,12.9253,8.14425,50.264,-535.336,-872.056,-57960,2940,6160
20.967,23.6849,12.3639,22.6346,18.2331,7.2925,14.5868,4.67407,26.2889,13.3104,8.72224,18.4969,6.79886,10.0467,18.8865,8.47461,51.728,-529.48,-868.152,-58100,3360,7420
27.1488,26.4894,15.9119,21.9825,17.7378,7.63032,10.9023,4.40129,36.6092,18.3812,14.888,20.8774,10.1335,11.0612,17.115,6.08275,56.608,-528.016,-873.032,-58240,4060,7420
11.6195,8.7359,4.92715,0.914709,1.70773,2.39529,-2.48346,-2.81337,15.3541,6.58758,7.95545,4.67749,4.10048,1.1787,-1.44923,-3.83783,57.584,-524.112,-879.376,-58520,4900,7280
0.536421,0.94607,-0.17364,1.00915,1.32374,1.50638,2.17807,-0.228268,3.47264,-0.731445,3.42113,-1.24239,0.90258,0.93523,8.04018,0.557908,50.264,-515.816,-874.008,-58100,5460,6580
-5.2215,4.5775,0.836545,14.2066,10.5416,2.58281,14.9767,1.86119,-4.30842,-3.96391,-1.73878,1.87024,0.0598691,5.3138,25.0648,9.08427,44.896,-512.888,-866.688,-58380,5040,6300
-3.92481,9.6351,5.75257,21.6578,16.5905,5.65738,17.932,5.10029,-3.37246,-3.07174,-0.886532,6.08039,2.98696,9.24771,32.459,13.2362,41.968,-508.496,-854,-59920,4200,5460
-7.02743,-0.140328,3.40003,8.41748,5.84076,3.06224,0.40674,-1.76808,-11.0346,-3.77127,0.783701,1.11272,3.00229,3.79642,7.4088,4.06844,38.552,-510.936,-853.024,-61880,3500,4340
-5.59549,-13.4996,-2.133,-23.267,-17.9164,-0.591472,-34.1211,-8.52855,-12.3212,-0.709715,4.9089,-7.48767,1.71222,-10.4313,-39.7291,-16.4031,40.504,-516.792,-853.512,-62580,3360,4760
-10.7844,-25.0871,-8.08563,-42.2042,-32.4529,-2.79458,-44.8802,-7.76669,-19.1719,-4.62715,3.68347,-18.0359,-1.54562,-18.1143,-60.6232,-27.9758,52.704,-512.888,-863.272,-62720,5320,3500
-23.026,-38.9868,-17.3334,-49.3953,-36.6519,-5.50505,-38.4798,-9.20638,-34.4246,-14.344,-2.98755,-29.3612,-7.00961,-21.269,-58.3307,-29.8839,51.728,-498.248,-860.344,-67620,5740,-280
-20.477,-24.5122,-13.9387,-22.823,-15.8901,-0.313144,-7.76447,-1.4597,-34.2316,-13.2852,-6.97382,-19.5094,-5.97087,-10.4044,-20.9217,-7.1355,50.752,-493.856,-857.416,-72100,3640,-2940
-2.64055,1.70065,-0.298546,11.4499,11.2533,7.37041,22.0445,10.3996,-8.47414,-1.93027,-4.41292,2.58154,0.229113,7.35205,23.2171,16.7086,48.312,-491.904,-857.416,-74620,3360,-4200
4.77265,7.25638,1.92136,14.6357,13.4515,7.16795,22.8095,7.07813,-0.0433048,2.30808,-4.30981,6.81505,1.79054,8.00271,20.5158,15.0824,49.288,-491.416,-856.928,-77420,3780,-5320
4.18579,2.98073,0.449227,11.9925,9.68702,4.83471,20.2901,8.30633,5.08697,-0.364677,-5.76769,3.64205,0.237091,6.85253,21.3418,12.9954,46.848,-490.44,-852.536,-80500,4060,-6580
3.58157,0.245426,-1.731,8.08214,6.60958,1.45833,16.4732,7.98108,5.37531,0.158531,-6.97135,0.648972,-1.58442,2.70383,16.0985,10.2426,48.312,-485.072,-861.32,-82040,2800,-7140
6.48898,7.43958,2.58187,16.3958,13.3566,2.73164,22.8839,10.6733,12.7581,2.55652,-5.42354,5.43197,-0.404611,7.70382,26.9916,16.6092,54.168,-479.216,-870.104,-84140,3080,-7700
3.66596,6.68335,1.75284,13.6362,8.4665,0.283003,13.4949,6.8773,10.5177,0.859503,-3.50239,3.64361,-1.97392,6.019,20.6567,11.8117,55.632,-471.408,-870.592,-85680,5740,-8260
-4.44646,-4.6375,-5.20098,-3.62224,-8.28617,-5.51105,-11.7675,-2.03592,1.26153,-3.82863,-4.76944,-5.88781,-6.29881,-4.44051,-6.49031,-4.61137,52.704,-468.48,-877.912,-88340,11340,-9240
0.881771,-0.308777,-2.46415,-2.2132,-9.17795,-7.26185,-15.0615,-7.48679,7.12323,0.522497,-1.53275,-2.01333,-4.14395,-6.83697,-10.8417,-14.6436,46.848,-472.384,-875.472,-89740,13160,-9380
11.835,8.53281,3.27581,0.749258,-4.55617,-8.21287,-14.5542,-11.2593,20.0895,7.81455,3.13206,6.53679,-0.0384549,-5.03349,-14.8835,-17.0526,49.288,-470.432,-877.912,-91280,11340,-9940
7.18013,-0.299674,-0.462838,-11.4006,-10.2946,-7.26732,-17.447,-11.5198,13.4964,4.13312,3.08054,0.788633,-0.247541,-7.76524,-22.2562,-16.3976,46.36,-461.648,-886.696,-91980,11060,-10360
-3.59047,-11.4259,-4.21223,-17.2918,-11.5053,-5.89738,-12.9621,-7.28234,-0.331571,-1.80329,1.21238,-6.56076,-1.57819,-5.74668,-15.7611,-10.6031,47.336,-454.816,-890.6,-91560,13020,-10500
-7.66737,-4.98254,-2.92429,-3.07471,-1.59727,-5.33108,-0.348834,-3.60566,-8.01496,-2.85228,-1.48332,-2.91197,-1.28473,-2.86663,1.36718,-1.45504,37.088,-454.816,-900.36,-90440,18200,-10500
4.70456,14.3471,7.89982,19.2431,12.6396,-0.361804,5.22641,-1.13278,5.59473,7.88758,5.90352,12.1024,6.24212,4.42896,16.1883,4.072,38.064,-452.376,-902.312,-89320,17360,-11340
16.6784,29.4079,16.4149,26.1946,18.1174,4.81103,2.12053,-0.0784269,19.5562,18.6082,12.1558,22.9578,13.3377,8.98994,6.54568,4.0133,33.184,-450.912,-912.072,-88340,16660,-11900
19.1121,26.5975,17.8191,15.0711,13.4556,8.15449,1.16506,1.52556,20.7163,19.9188,13.7132,21.8508,13.8442,10.315,-5.44798,6.14819,33.672,-446.032,-922.808,-85400,20440,-12740
12.6753,13.1266,14.2254,2.97892,8.39814,10.2057,7.06026,7.08605,14.5434,15.1305,13.9405,12.8943,10.7996,11.7338,1.43163,11.0076,35.624,-439.2,-923.296,-82600,22820,-13020
-8.10414,-0.761958,1.51411,-1.72181,2.69468,6.93779,12.3887,7.03236,-10.1289,-1.82687,1.78141,-2.9808,0.898457,5.13848,5.68798,10.3613,28.304,-439.2,-933.056,-78400,26740,-13300
-18.5245,-7.7924,-8.24553,-6.13546,-2.74469,3.74767,11.8226,7.54531,-19.2006,-13.9916,-9.3043,-12.3905,-6.4989,0.417158,9.97707,8.96646,22.936,-440.664,-938.424,-74060,28280,-14280
-20.2833,-9.15904,-12.9769,-7.66437,-6.21363,1.013,7.60474,5.11581,-22.2556,-18.2442,-15.6584,-15.1805,-10.149,-3.75436,6.27176,6.61572,27.816,-436.76,-941.352,-71120,28280,-14980
-6.4764,0.917831,-5.11772,1.08476,1.91018,3.29443,5.39177,1.9988,-7.29011,-7.46203,-7.01893,-3.11806,-4.86459,-0.134848,6.57128,3.96072,30.744,-438.712,-946.232,-66780,28560,-15400
-0.969082,-7.85225,-4.03802,-11.5871,-7.40538,-0.318403,-9.68504,-6.62764,-4.4221,-1.80113,1.27618,-5.38539,-2.80688,-3.8822,-10.8694,-7.0376,35.136,-435.296,-960.384,-63280,28560,-15820
-7.57895,-23.5518,-10.594,-27.2908,-18.9821,-3.67616,-20.4161,-8.3019,-13.2138,-8.25754,-2.25561,-15.1918,-5.5848,-10.3899,-25.1577,-13.3054,42.944,-436.272,-964.288,-58940,28000,-16520
-8.75772,-24.5994,-8.21446,-18.5632,-9.59476,0.1777,-6.25593,1.70635,-16.3273,-8.28465,-1.69987,-12.5916,-2.76626,-3.48934,-7.24105,-4.30077,43.92,-443.104,-963.8,-53620,26040,-15540
2.62695,-1.36765,5.63932,13.6172,12.991,5.66331,15.6362,10.2666,-1.84029,0.645956,2.07409,6.46473,3.71594,9.12697,23.2084,10.5625,51.24,-441.64,-964.288,-48440,25480,-14980
-2.48841,-2.21118,0.773882,8.95149,6.88441,0.6698,4.86788,2.23433,-6.61603,-4.34279,-3.23876,2.31649,0.0293843,0.663255,9.7839,0.522617,54.656,-441.152,-960.384,-41720,22960,-13720
-3.53826,-5.61318,-2.70039,-0.48884,-2.28746,-4.05664,-8.48281,-4.41952,-3.97748,-6.04799,-3.78979,-3.3017,-3.86717,-4.99483,-1.79355,-6.95645,64.416,-444.08,-962.336,-36260,21840,-12460
3.7895,3.6571,0.807875,1.19155,-0.0360895,-3.4269,-4.23425,-4.11814,0.819558,-0.883969,-1.10854,1.33539,-2.1766,-4.67055,-5.33169,-4.46939,74.664,-442.616,-960.384,-28980,19600,-10920
-2.12466,-6.46953,-2.77494,-9.14622,-6.95121,-5.18863,-5.06653,-0.782215,-6.09722,-5.00619,-0.297263,-6.3112,-3.61758,-4.66759,-6.26076,-3.28376,80.032,-444.568,-955.992,-21980,17360,-9240
-8.4175,-12.1696,-7.8114,-13.2615,-14.0908,-8.00703,-8.40949,0.441507,-14.0497,-9.50749,-2.45486,-11.9522,-5.89593,-6.38363,-9.7784,-6.9102,80.032,-441.64,-948.672,-16940,16240,-8260
3.45901,2.7689,-2.14902,-1.24538,-3.83197,-6.33998,1.76145,0.487376,2.34608,-0.816426,0.4121,-1.20534,-1.99712,-2.28352,2.53202,-5.9719,85.888,-441.152,-937.448,-10360,13860,-6860
26.0142,31.6158,11.4815,21.008,14.001,-2.90877,11.6463,-4.33632,32.46,14.9845,6.65835,19.8317,4.38447,7.50718,14.9059,-0.702586,89.792,-438.712,-933.544,-6020,11480,-5740
31.9379,40.9177,16.3972,30.2115,19.7255,-1.26494,10.8871,-7.06817,41.8259,20.4211,8.75203,26.1637,7.75758,11.2098,14.5179,3.77025,92.72,-442.128,-925.248,140,8820,-4620
16.8163,24.9655,9.76055,23.9922,15.7287,-1.787,11.5002,-1.82149,23.9322,11.3316,3.13561,15.3382,4.44014,9.6182,15.4643,8.31822,91.744,-437.736,-917.44,4480,7000,-3920
-8.11573,-6.97521,-4.29371,-3.02697,-2.33214,-5.5767,-2.67032,-1.84012,-8.06448,-5.02662,-5.99942,-6.97653,-2.5746,0.131308,-3.52221,0.714462,96.624,-441.64,-908.656,7700,5040,-3080
-12.1239,-18.536,-8.5467,-18.329,-11.4724,-4.84518,-12.949,-6.23571,-16.7461,-7.02795,-5.43862,-13.8453,-2.49709,-7.0013,-20.1329,-6.56993,91.744,-447.008,-900.848,11340,2380,-2660
-3.35468,-13.5961,-4.57607,-12.9772,-9.92147,-1.56679,-11.7406,-5.60014,-5.32422,-0.990186,-0.851216,-8.21526,-0.620135,-3.87513,-14.5459,-4.67554,94.184,-449.936,-898.408,13020,560,-2240
-0.32207,-3.64837,0.0391679,1.18136,0.954346,2.33199,0.831264,0.816357,-2.33486,2.57233,1.31821,-0.538312,1.79861,-0.88003,-0.971976,3.67817,84.912,-452.864,-892.064,14560,-980,-2100
-7.29775,-9.76181,-0.832194,-2.65363,-0.377875,4.14452,1.95671,6.95919,-8.98467,-1.8153,-0.203651,-3.7233,0.90962,-0.335754,-1.82128,7.2477,82.96,-453.352,-889.624,15260,-2940,-1960
-11.9073,-21.2348,-5.06059,-18.2736,-11.8705,1.32163,-8.43385,2.67319,-12.1229,-4.66245,-2.21292,-10.6416,-0.531383,-6.8985,-15.5542,-1.41151,81.008,-459.696,-886.696,15680,-4620,-1960
-7.94321,-19.9043,-2.90252,-17.2991,-10.2285,1.76639,-6.4343,0.858534,-7.04967,-1.27704,0.56511,-8.79469,1.22268,-6.38604,-10.9934,-1.91015,80.032,-469.944,-884.256,16380,-6720,-1960
-6.87733,-14.3651,-1.20337,-6.2786,-1.64262,4.30379,3.3487,5.98193,-4.01954,0.363165,1.33087,-3.95075,2.03142,0.0888022,5.66282,6.53914,79.544,-472.384,-877.424,16520,-7140,-2380
-10.3432,-11.8132,-3.92419,-3.71716,-2.33341,2.58567,0.822384,1.82976,-10.3917,-2.7873,0.13195,-4.0051,0.360941,-3.35712,2.36328,1.2841,74.664,-479.216,-874.496,17360,-7420,-3080
6.26718,8.5532,2.96642,14.4324,8.16682,3.00487,2.4788,0.870363,12.8936,6.5584,3.97782,10.724,2.34507,3.02208,11.7092,-0.0172431,76.616,-482.632,-878.4,17500,-7000,-3920
12.935,13.8305,4.07795,18.2975,8.44159,1.19885,-6.31507,0.0924111,19.9861,9.09076,4.78479,13.6354,3.26175,3.54423,1.24646,-5.127,73.688,-489.464,-874.496,16940,-6580,-4620
9.88264,14.8086,4.50844,15.8099,6.56551,2.1198,-6.14356,1.45797,15.9199,5.65582,3.0015,11.6179,3.69019,3.21521,-1.84329,-7.64413,74.176,-491.904,-871.08,16240,-5180,-5180
7.40153,15.327,5.71287,14.9723,8.61202,4.29361,4.70353,0.557568,14.509,3.79571,0.929753,11.7009,3.56905,5.06114,7.88011,-3.89303,71.736,-494.344,-871.08,16100,-4340,-5320
-0.953015,1.60959,1.34626,-2.6134,-2.29488,2.95201,5.27776,-0.661505,6.23878,-1.90713,-1.40595,0.49373,-0.0917486,0.924591,4.31352,0.883019,69.784,-491.416,-861.808,14700,-2940,-6020
-1.04419,9.23747,3.34938,0.494207,0.497268,4.04284,8.11422,3.26414,3.3977,-2.37419,-1.9719,3.08282,-0.602653,3.35359,3.83466,6.46999,69.296,-488.976,-862.784,13300,-2520,-6440
-5.11603,1.70212,0.50887,-6.04437,-1.56896,2.3352,0.826928,1.04692,-9.42252,-4.70158,-1.47566,-2.22905,-1.09867,1.62037,-5.77627,2.91403,68.32,-487.024,-864.736,11200,-1540,-6860
-3.69405,-2.62206,-1.75245,-9.60853,-1.36297,2.36763,6.77933,1.83157,-11.3937,-1.98706,-0.293262,-5.70412,-0.471572,1.5384,-2.10545,5.74064,64.416,-484.584,-866.2,9800,560,-7280
-0.482945,8.41147,3.31343,9.29609,8.73654,4.4083,17.0403,6.31229,-4.56529,0.402751,2.3514,1.0506,2.29558,7.18138,21.4201,12.484,69.296,-483.12,-870.592,9800,1540,-7700
-6.64351,14.5346,0.772658,14.6804,10.0808,1.88232,15.8343,2.50584,-15.6053,-2.85629,-1.71723,0.172453,-0.329428,3.4833,20.3648,8.6416,67.344,-481.168,-878.888,9940,3500,-8120
-0.145308,23.9347,3.98263,14.6736,10.5452,3.08074,10.9974,3.4911,-6.49229,0.388689,-1.98423,4.51252,-0.408781,5.68999,15.4745,7.96674,65.88,-471.408,-880.352,9940,5460,-8400
-4.50671,9.99515,-6.06801,-13.4986,-8.84797,-3.58676,-8.96926,-2.07065,-11.089,-4.51006,-5.23209,-8.11452,-6.04175,-5.61708,-16.3309,-4.18011,66.368,-464.576,-878.888,10500,6860,-7980
-2.54243,-1.1894,-8.25919,-27.1487,-17.4994,-4.43889,-12.5041,-2.0021,-5.93906,-2.80723,-4.07856,-13.1806,-6.4529,-8.8957,-19.7166,-7.02552,65.88,-354.288,-876.936,11200,9520,-7980
3.58409,-8.90271,-2.67369,-15.4187,-9.97721,-2.8483,-7.82225,-1.94566,2.29597,0.596361,-1.68113,-5.21283,-3.93134,-5.50678,-7.52933,-4.5024,67.344,-476.776,-883.28,12040,2240,-9800
-4.74092,-17.6384,-6.74281,-13.7563,-11.8603,-5.63341,-14.7926,-6.64024,-5.12717,-3.83216,-3.07551,-7.57075,-5.25974,-9.43709,-13.6489,-11.1098,58.56,-467.992,-871.08,12040,11340,-8120
-9.32688,-21.9426,-7.70308,-13.6823,-10.5549,-4.31089,-12.0353,-5.82137,-9.75132,-6.78018,-2.05011,-9.56725,-5.65913,-7.11731,-12.6839,-8.48377,65.88,-453.352,-874.496,11200,15960,-7140
4.83344,-6.17898,2.51136,5.35324,3.82893,-0.891068,-0.134059,-2.38119,6.62934,2.65208,3.87474,4.36318,-0.308405,2.00695,2.37834,0.50025,73.688,-448.96,-875.96,10780,16240,-6580
16.2228,6.11327,10.4279,19.4465,13.8535,1.03131,10.2393,-1.0054,19.6228,10.9951,8.90834,14.1919,5.395,7.22593,13.9497,5.13613,70.272,-446.032,-879.864,9380,19600,-6440
1.81402,-13.0002,-0.218462,-2.75033,-4.17513,-4.57732,-7.21023,-6.79266,7.45511,1.04181,9.25473,-2.72763,0.904591,-2.44681,-7.10429,-6.9009,70.272,-437.248,-876.936,8820,21980,-6300
1.50381,0.155995,1.3275,7.55731,2.31506,-3.72264,-6.87737,-7.72254,6.86542,-0.23728,4.39671,3.26321,1.23435,-1.31406,-7.89163,-7.42773,68.32,-433.832,-877.912,8680,22960,-6440
-0.969374,2.54211,3.78066,9.95549,6.83461,-1.04967,-6.90971,-3.32294,1.69915,-1.86954,-1.11043,6.65286,2.23271,3.38143,-8.72368,-3.71795,50.264,-407.48,-906.216,7140,24080,-8260
-15.3474,-0.938581,0.920231,11.8145,8.43378,-0.138273,2.70896,2.04956,-19.4308,-7.62027,-6.89905,1.14659,0.812871,5.03984,1.70821,2.83928,76.616,-425.048,-885.232,-9520,25620,-11340
-15.0708,-6.97833,-2.42376,5.74459,5.6662,0.865264,14.5769,7.13842,-17.7117,-10.0671,-9.66015,-3.21869,-0.876517,4.21893,15.4508,9.81597,72.712,-414.312,-896.456,2940,20020,-7000
7.54534,-0.360137,0.53126,-8.22699,-6.55196,-0.936478,-4.21677,3.82836,11.5951,3.19392,-0.573084,0.285268,2.32843,-3.06417,-1.99035,-0.864482,75.64,-404.064,-898.408,12040,21420,-7280
21.198,14.3899,6.00258,0.519886,2.1068,1.72964,-3.27776,4.31829,22.4826,12.2603,3.74404,11.1558,5.20692,0.595855,-5.75626,-2.45264,79.544,-406.016,-899.872,17920,22680,-7140
14.1447,-0.782946,0.879887,-5.36454,0.506931,2.98922,6.78201,9.38012,12.1041,5.75852,2.09362,1.18431,3.18855,2.2761,9.93588,4.15532,83.448,-402.112,-908.168,19740,23940,-8400
-19.0728,-23.7221,-12.3522,-4.42464,-0.784814,-0.0476344,13.9799,5.80321,-32.293,-14.3669,-6.82893,-18.1457,-3.59429,-1.17685,21.9259,6.62837,89.792,-399.672,-913.536,22820,23380,-8540
-1.28851,3.95778,-0.668215,16.5632,12.3936,1.85923,18.4183,2.27002,-2.694,-1.5706,0.519118,2.22684,1.90711,5.55173,32.1857,8.79243,91.744,-405.04,-925.736,26880,23800,-9100
21.1995,13.8207,8.09782,5.66638,3.95551,-0.779093,-4.24394,-4.39527,30.1851,13.4439,7.15449,11.7388,5.19438,2.524,-1.06592,-3.57462,100.528,-412.36,-928.664,30240,24080,-9240
-2.66178,-5.70136,-3.62975,-12.3416,-11.8736,-5.73622,-23.8432,-9.50739,-1.29501,0.249964,0.473125,-5.8555,-1.20088,-7.97152,-30.0988,-15.9391,103.944,-409.92,-928.664,35000,23240,-8540
-11.6398,-14.8851,-10.9019,-22.8646,-20.7916,-7.29192,-22.9153,-7.55179,-12.9483,-5.7833,-3.23305,-15.4817,-5.38397,-12.5059,-32.3603,-14.8718,109.8,-411.872,-930.616,39200,22400,-7560
-9.57127,-17.1948,-7.23515,-20.4299,-14.7641,-3.91114,-9.01383,-0.901201,-13.303,-3.50376,-0.208178,-13.8139,-3.54325,-6.44905,-19.4081,-4.3694,122.976,-410.896,-926.224,44100,20440,-5460
10.6859,1.59684,5.5085,-6.42737,0.0186579,1.50085,2.43593,1.63129,9.11876,8.5574,4.11247,4.48778,1.95054,1.00081,-8.09764,3.41932,125.416,-411.872,-922.32,48860,19740,-3080
1.93116,-15.2102,-0.54191,-19.1052,-8.98135,1.7899,2.78203,0.879808,3.21925,1.91992,2.41006,-7.70306,-1.57471,-1.44339,-3.63285,4.76374,134.2,-415.288,-922.808,52080,18620,-1260
-1.71115,1.66016,1.45017,1.95846,-1.19575,1.14989,8.98703,-2.33925,-2.37922,0.791514,1.19628,-1.46021,-1.71113,-2.36709,9.42313,5.04286,137.616,-416.264,-922.32,54460,17780,1120
11.1033,28.4494,13.4021,26.4164,14.51,5.56991,4.92376,1.12712,14.9316,9.17763,2.58708,20.1709,4.74275,7.3736,13.928,5.4522,144.936,-427.488,-916.464,54880,17780,2940
18.4237,26.6568,12.1365,17.9972,11.4485,5.57553,0.0784288,3.29001,20.4216,13.8065,5.10886,19.7695,6.37345,7.59597,0.409153,2.96122,146.888,-432.368,-903.776,54880,17780,5460
16.4082,15.7622,6.40724,6.66786,5.48836,4.17049,6.66975,3.90976,21.7975,10.1216,3.28866,11.6777,3.74969,4.68655,3.82799,2.34531,150.792,-406.992,-893.528,55300,17780,8120
2.55702,14.4121,5.21202,26.8018,20.7876,7.00704,30.7726,7.57979,6.44449,1.71085,-0.253565,10.7576,2.62801,11.9725,40.0142,17.3426,138.592,-441.64,-879.864,55020,19180,10780
-1.50202,33.5164,9.21479,58.7809,42.5033,11.7656,48.1649,14.972,3.8326,-3.21377,-5.12122,22.1328,1.71969,21.6594,68.8535,32.5692,141.52,-445.544,-869.128,55580,15540,13160
-2.70353,31.9102,4.51404,47.3069,28.4831,6.50317,24.5175,8.3425,3.28184,-5.8991,-7.34351,18.105,-0.319146,12.9612,40.3031,19.289,140.056,-449.936,-855.952,53760,13720,15120
-13.7477,-11.2309,-12.1856,-21.4712,-18.2159,-5.42713,-24.2505,-5.34999,-11.9947,-11.9792,-7.42565,-13.1927,-6.55751,-11.9486,-31.7896,-9.7651,141.032,-453.84,-840.824,49980,12880,17500
-23.0318,-36.6791,-18.9577,-56.2157,-40.7086,-8.55507,-46.9141,-12.9258,-29.3929,-14.0161,-4.30122,-29.4456,-7.58675,-23.1794,-65.635,-26.0636,140.544,-457.256,-833.992,47880,11480,19180
-12.4332,-26.0586,-9.99442,-45.5868,-33.1776,-6.55513,-43.6855,-14.5768,-16.4939,-6.7754,0.789734,-18.5361,-4.08238,-17.8115,-54.9675,-27.509,138.104,-459.696,-828.624,43680,10920,20300
-30.9746,-28.4338,-11.8162,-24.7072,-16.3792,-2.40696,-11.168,-4.43646,-43.2643,-18.5543,-9.25859,-20.5657,-6.29937,-8.29818,-14.0106,-10.4389,135.664,-465.552,-826.184,38640,10360,21700
-30.9822,-13.185,-7.99698,11.9241,8.8449,2.72292,15.6956,4.66593,-40.5937,-18.3806,-9.41707,-10.3564,-4.24622,4.86726,27.7257,6.68418,132.736,-467.992,-823.256,36960,9940,22400
4.55701,7.36401,0.446687,17.286,11.793,0.830166,10.3826,2.80977,3.36762,1.6103,1.43259,3.45194,-0.495419,4.71954,21.2639,2.87252,127.368,-471.896,-828.624,33600,9520,22960
17.9224,1.68128,2.4574,-9.31555,-5.92422,-4.94429,-10.703,-3.92449,16.2239,10.3821,7.29994,0.693833,0.997893,-3.73942,-16.015,-10.2514,125.904,-469.944,-828.136,31080,9100,23940
6.11426,-15.5964,-2.47662,-36.7453,-23.6164,-6.91015,-22.2132,-4.69634,8.98406,3.17064,3.77156,-10.7494,-0.608332,-9.63117,-36.445,-14.1312,122.976,-466.04,-825.696,27720,8820,24640
-13.8154,-23.4352,-6.13508,-19.7591,-11.5442,-4.90804,-2.50278,-1.80271,-20.6317,-6.6434,-2.07127,-14.8927,-2.72252,-4.95058,-10.5859,-4.16728,121.024,-467.016,-834.48,26460,8680,24920
0.817244,-2.28303,6.06383,7.97648,8.85432,0.648506,9.82041,1.19216,-0.986157,3.63045,2.12298,3.75625,2.67172,5.6112,14.9007,3.36306,110.776,-464.576,-836.432,23940,9380,25200
30.5579,17.408,15.8814,12.3786,10.9599,2.78371,8.57646,0.829438,37.2007,21.5025,8.91088,18.3186,7.67885,7.19001,9.68761,3.92175,114.192,-469.944,-839.848,21280,9380,26320
24.4051,11.9833,11.7498,3.54642,3.33063,1.99077,-0.397979,-0.806502,31.0676,15.8141,6.46431,12.2758,7.28066,3.65797,-2.82795,-0.752259,109.312,-471.896,-848.144,22680,9800,26460
10.4422,7.33474,4.66033,4.16838,-0.320984,0.752237,-1.0285,-1.09197,14.0959,5.66984,4.17712,3.75982,3.16865,0.636602,-3.27217,-0.217075,108.824,-467.504,-852.048,23100,9800,26740
-3.0301,-9.47103,-6.39453,-9.10051,-8.61939,-1.99778,-1.02457,1.15521,-1.66439,-2.88998,2.7966,-10.0442,-1.33646,-3.73487,-6.76301,0.63817,101.504,-471.408,-856.44,23380,9800,28560
-6.01191,-15.9149,-8.02364,-19.0332,-12.2678,-1.20429,-4.00489,1.2238,-7.28608,-3.93645,3.03837,-12.5213,-0.430087,-4.0393,-12.3362,-0.0159629,103.456,-475.312,-854.976,23660,8960,29120
1.65006,2.68274,1.28276,6.23001,5.61746,1.59302,7.02246,0.19608,1.57591,0.915949,3.83917,3.51611,3.01542,4.80648,6.66609,5.12834,100.04,-474.336,-868.64,27300,7700,29540
3.62941,21.3996,7.63828,34.6319,23.3835,3.54736,22.8255,2.41754,2.26377,0.565382,-0.403239,16.6149,4.13572,12.0254,31.3339,13.0747,91.744,-474.824,-871.08,28280,7840,30100
10.8507,36.5643,13.2909,50.2511,33.5199,6.42228,29.2853,6.87789,16.7033,6.33711,0.393969,26.3627,4.65361,16.5433,48.8284,19.825,88.816,-474.336,-875.472,29120,7980,30100
13.8332,34.8098,9.5706,40.3266,27.0863,3.17478,18.5602,4.15591,18.8126,7.41812,-1.4481,24.4917,1.8066,9.89938,31.4907,11.9622,86.864,-469.944,-878.4,28840,7420,29120
4.98171,1.29728,-3.09596,-5.54326,-4.53663,-3.53078,-10.8238,-0.760047,10.7414,2.95054,-0.213759,-0.388185,-3.86341,-5.9913,-10.0082,-6.59439,84.424,-466.04,-878.888,28000,7840,28280
-14.4366,-17.6914,-13.0725,-22.9972,-16.3355,-5.91396,-13.9046,-1.92846,-9.72996,-9.63464,-6.97154,-17.5771,-8.81154,-11.7351,-19.2665,-9.97644,79.544,-461.648,-874.984,28280,8400,27160
5.96426,7.59255,2.63624,5.46652,5.42031,0.96279,2.46581,1.50554,14.8555,2.82869,-0.937126,5.62002,0.00490296,2.21569,7.57087,1.63687,77.104,-456.28,-872.056,29540,7700,27020
-4.98868,-2.76253,-2.4508,-3.74622,-3.92501,-0.616493,-12.5763,-5.47888,0.0306406,-4.62882,-3.32811,-2.7543,-1.77924,-3.40916,-10.7703,-7.39899,74.176,-457.744,-870.104,32900,5880,27020
-7.6731,-4.81892,-5.16988,-6.74526,-7.03034,-1.70525,-16.1444,-5.60118,-8.41115,-6.73811,-5.01554,-5.08352,-3.36254,-6.43399,-21.2643,-9.91274,69.296,-451.4,-874.496,35700,3360,27580
-7.02239,-8.10533,-3.54555,-7.91804,-4.2893,0.213858,-6.99289,-0.982949,-12.2325,-3.09554,-2.67267,-3.82254,-0.923973,-2.20012,-8.85685,-3.60712,70.76,-451.888,-872.056,37800,700,28560
-20.5437,-20.3242,-7.34074,-15.9736,-8.2031,1.20376,-3.41909,0.33873,-32.9036,-10.7318,-5.63792,-12.0095,-2.51815,-2.22947,-3.86903,-1.61066,69.296,-448.96,-882.304,41020,-2660,28980
-26.5676,-28.8192,-9.78672,-26.3033,-14.2576,-0.0409383,-4.07505,3.23993,-44.3076,-14.1604,-7.17461,-17.8596,-3.69854,-5.9468,-10.7961,-1.64138,66.368,-447.496,-881.816,42560,-3780,28560
-27.9333,-26.9313,-9.81759,-16.8961,-9.38295,0.10294,3.81273,7.57145,-41.1222,-15.9375,-5.79194,-18.4396,-4.63922,-3.25648,0.12839,3.98714,61.976,-444.568,-877.912,44800,-5180,28000
14.2459,6.16115,6.53088,2.99138,2.657,2.32433,10.9758,4.84869,14.0885,10.3693,8.13955,5.79774,3.9329,1.62547,10.3897,6.64132,56.608,-445.056,-881.816,46760,-5880,27160
21.5669,9.85022,8.91145,2.4577,0.162751,1.51863,1.27718,0.10122,24.7739,14.7531,10.374,8.03783,4.93407,-0.311746,4.41834,0.253266,58.56,-449.936,-882.304,47320,-6440,26460
13.3559,8.2508,6.05449,2.41212,1.42077,1.84912,-1.62098,2.26732,15.509,7.99294,3.15215,5.44163,4.21531,0.591857,-3.88897,0.889171,58.56,-450.912,-879.864,48020,-6440,25200
6.94442,5.12689,2.39991,0.0107216,-1.01439,-0.10788,-5.93607,1.52055,7.53463,3.54965,0.2545,2.21349,2.38186,1.29995,-13.0398,-0.41875,58.072,-450.912,-878.888,47880,-5880,24080
3.58009,-2.61623,-0.21911,-9.95671,-8.36222,-3.22297,-11.7758,-2.72343,4.65095,1.69569,2.41289,-3.36493,0.274989,-2.4103,-16.5992,-6.42907,56.12,-448.472,-877.424,45920,-5320,22820
-4.12531,-18.3942,-7.71841,-28.079,-21.4854,-6.9139,-14.7839,-7.24683,-6.8498,-4.64136,-1.70957,-15.2283,-4.28036,-10.6124,-26.2757,-10.5079,60.512,-452.864,-875.96,44100,-4480,21140
-2.86679,-16.7255,-8.53996,-19.9468,-16.4277,-5.92359,-8.36641,-7.95496,-3.05612,-3.85958,-1.28313,-13.4044,-4.74143,-7.93075,-13.9707,-8.05893,58.56,-448.96,-869.128,43400,-3640,20020
6.57975,8.75614,3.87314,11.8277,8.61327,1.01818,14.2053,-1.46943,7.61858,4.09718,1.00806,6.59077,1.38452,5.65916,13.0184,7.09334,56.12,-448.96,-862.296,42700,-3080,18760
1.38236,19.8093,8.61128,33.6204,26.6425,6.70011,30.1946,6.7379,3.70612,1.58827,-1.85402,14.3582,3.13822,13.8965,38.9798,20.7943,61.488,-447.984,-864.248,42000,-2660,17780
-5.09216,8.55788,1.29964,25.3451,17.9354,4.65858,18.4385,4.4923,-5.59607,-4.99936,-4.28475,5.48768,-0.621216,7.65918,29.6748,13.3745,63.44,-452.376,-862.296,40180,-1820,16660
10.0155,21.092,6.44633,27.5255,16.9788,4.97918,5.96912,1.58297,13.6403,4.50027,2.86933,15.6106,3.14745,8.24804,17.7754,4.91069,68.808,-452.864,-862.784,38080,-700,15260
8.52119,15.949,5.5771,13.8454,7.64884,1.91596,-7.21534,-3.11933,14.2681,5.19451,4.73893,12.4107,3.86512,3.56872,-1.04071,-6.21912,69.784,-456.28,-860.344,36540,140,14420
-4.75549,1.19359,-1.7697,3.81868,1.15716,-0.842677,-3.92049,-5.77134,-1.66755,-3.13439,1.12316,0.178011,-0.131814,-0.699023,0.500735,-9.05928,76.128,-461.648,-862.784,34440,840,13440
9.63843,13.9357,2.15503,14.224,7.64765,-1.70106,3.42399,-7.93011,15.1173,6.26045,5.6557,8.36563,1.3738,1.1255,9.3615,-2.85478,72.224,-464.576,-859.856,33600,980,12740
11.1406,20.5717,6.35889,13.8203,4.54744,-0.706931,-5.56852,-2.22085,19.158,8.89861,7.73944,13.0421,2.68189,2.77737,-1.50508,-3.85908,75.64,-469.456,-862.296,32760,-700,12600
-5.70082,-7.70016,-5.01102,-22.9857,-16.7173,-2.82964,-21.3721,-0.985022,-3.79274,-2.09574,-0.250605,-7.91564,-2.41753,-8.45618,-33.1993,-12.1093,79.544,-472.384,-864.736,32340,-840,12460
-8.89875,-36.5093,-13.9787,-49.7314,-31.9496,-5.50734,-26.3924,-3.17895,-11.9842,-4.78274,-1.9979,-24.8291,-6.32611,-14.8975,-38.0449,-16.0452,75.64,-478.728,-866.2,32060,-840,12180
0.428162,-6.87578,-1.92793,0.8263,2.78166,-0.0374682,9.57019,3.24495,-3.34455,0.388231,-3.26976,-2.6783,-1.78365,1.56713,13.2542,3.55693,80.52,-482.144,-869.616,32900,-2520,12740
10.1746,38.1886,17.5237,58.2225,43.5831,11.199,44.0594,13.8528,12.0294,6.41487,-3.01112,30.1389,7.39233,24.538,60.538,29.0693,79.544,-489.952,-868.64,33320,-4060,13020
-3.89233,14.2976,7.33029,24.9157,18.5638,4.29387,20.1917,6.4741,-5.81931,-0.589137,-3.81244,11.899,3.95157,11.1663,23.738,13.7416,81.496,-495.808,-871.568,34160,-5600,13720
-2.53028,-15.0976,-1.40832,-25.5805,-15.5054,-4.65043,-14.1823,-4.32607,-3.7403,2.81857,1.82746,-8.24549,0.709504,-7.03727,-25.5072,-7.1811,82.472,-496.784,-865.712,35000,-7560,14420
-2.57633,-14.2853,1.94644,-30.2537,-15.4788,-2.73372,-16.53,-1.47586,-4.47353,1.97527,2.18423,-5.34758,1.66376,-4.65696,-28.5025,-7.13894,83.448,-505.08,-867.176,35840,-8960,14980
-14.0683,-26.5466,-5.08884,-34.2826,-20.3475,-4.37051,-19.5285,-1.99797,-17.2157,-9.27371,-3.65774,-16.6111,-3.49009,-9.06241,-30.034,-9.93746,85.4,-507.52,-869.616,37240,-9940,15960
-3.79246,-12.605,-5.10033,-17.5115,-11.8184,-4.15026,-8.89257,-2.23696,-2.66322,-4.61929,-3.48964,-10.6101,-3.05763,-7.41297,-11.3801,-5.38837,81.984,-508.496,-869.616,38360,-10920,16660
-11.5488,-10.4358,-8.37757,-2.65801,-3.53777,-2.41794,6.31444,4.5082,-10.6835,-10.3282,-8.5197,-12.219,-5.80229,-3.25277,10.8374,5.19103,79.544,-508.984,-868.152,40320,-11900,17640
-11.251,-13.936,-11.4795,-7.97962,-7.48239,-2.11838,2.92684,2.0215,-13.7269,-8.4445,-6.639,-15.0282,-5.23951,-7.41975,4.73514,0.860503,80.52,-510.936,-867.664,42280,-12040,18340
-14.5893,-19.2317,-11.7925,-13.6757,-10.1941,-2.37011,-1.7927,0.448393,-17.1242,-9.64375,-3.7687,-17.1502,-5.16575,-6.84607,-1.75808,-0.836504,77.104,-510.936,-865.712,43820,-12460,18760
-9.5181,-9.10834,-6.08695,-7.32317,-4.15776,-0.499472,-0.737506,0.905263,-12.35,-5.94589,-0.862883,-8.26427,-3.7416,-3.50069,-4.75887,-0.237646,72.712,-508.496,-858.392,45360,-12880,19180
-1.349,-7.02889,-5.33767,-9.25732,-8.34812,-2.49507,-9.73634,-3.98173,-5.79365,-2.33572,2.10916,-5.80389,-2.92517,-6.23464,-13.2113,-6.95556,66.856,-506.056,-858.392,45780,-13020,19180
8.73745,4.94236,-0.000968357,7.69606,0.415203,-0.0926917,-1.6768,-1.538,8.19181,3.86691,4.47979,3.10823,-0.650192,-0.807892,3.86828,-1.83662,66.856,-505.08,-855.464,45920,-13160,18760
17.6336,20.6364,6.72763,23.2088,11.2209,3.03788,4.65909,0.146555,16.4333,10.1248,4.99531,13.4912,3.40939,4.19793,7.54425,2.86313,62.952,-502.64,-851.56,45920,-13300,18200
19.4368,20.7847,12.9196,16.5979,10.5706,5.6867,-1.9876,-0.318676,18.4067,11.8104,7.10354,17.7105,6.73677,8.39893,-2.60672,0.748114,65.392,-501.176,-853.512,45500,-13440,17360
9.58448,9.63454,8.80231,4.24713,5.34628,4.47158,-4.13412,-2.92806,6.55636,5.15064,3.26899,10.6578,4.9811,4.73963,-9.08362,-2.74288,61.976,-502.64,-851.072,44100,-14000,15820
7.40217,12.198,7.41894,13.668,10.3792,4.45187,9.80265,0.579876,10.1783,3.628,2.39633,10.1843,4.77158,5.15025,13.3707,5.76964,63.44,-502.64,-850.096,42140,-13860,14140
5.85124,16.886,7.86419,19.8718,15.4374,4.59297,18.3263,3.23897,11.0586,2.87177,0.642627,13.6823,2.94257,6.70566,25.7416,10.883,59.536,-501.176,-853.512,39340,-14980,11900
-5.22258,2.70011,0.586504,8.80518,7.82175,2.24184,13.0608,2.48022,-4.08429,-3.2784,-2.92938,1.6911,-0.369145,1.53315,19.6332,5.90809,55.632,-499.224,-850.584,38640,-15680,10500
-4.56555,1.65891,0.161259,9.5459,8.81561,2.23622,14.0934,3.75217,-5.62296,-2.60273,-0.719534,0.997351,0.76502,2.95802,21.6341,6.77901,56.608,-503.128,-848.144,39620,-16380,10360
-3.74299,6.92457,0.997196,14.5392,11.917,2.85962,10.3547,4.48145,-3.56882,-2.52828,-2.78991,4.28391,0.813272,6.03441,15.1504,8.52062,60.512,-504.104,-849.608,40320,-15260,8400
3.17194,5.16191,0.0354813,-1.39155,-1.36286,-0.579387,-9.18701,-2.45532,5.55307,3.01545,0.0662023,3.43242,0.885458,0.376664,-15.3127,-3.45911,60.024,-505.08,-853.024,39900,-14560,6580
-0.894891,-11.6078,-4.27243,-20.6896,-15.7471,-4.23676,-18.8378,-4.60987,1.58727,1.47369,3.29626,-6.26477,-1.2363,-4.54657,-23.6331,-10.103,61.488,-506.056,-852.048,39620,-13300,4200
-0.0115302,-2.94143,-2.58704,-4.69033,-4.58109,-3.23636,-3.04728,-3.0664,-0.179704,1.16467,2.76581,-1.97547,0.53072,-1.5251,-4.98675,-3.31605,67.344,-507.032,-849.12,38780,-12320,1960
3.42595,6.57645,0.919716,8.88583,5.11522,0.279635,2.7805,-0.158634,5.16249,0.217797,1.05325,3.85659,1.32461,3.74998,6.307,1.87402,68.32,-507.032,-854,38080,-11340,280
-4.14164,-4.8385,-4.38529,-6.71224,-6.70943,-3.52491,-8.88156,-3.604,-9.6553,-4.52006,-2.57855,-5.13112,-2.17036,-3.99616,-14.7914,-7.47913,71.248,-508.984,-847.168,36540,-9800,-1540
8.50837,-4.35825,0.0109862,-14.4817,-11.1479,-2.8618,-11.8111,-1.84149,6.72504,6.09537,5.02932,-3.35042,0.842857,-5.12229,-20.1248,-10.6453,76.128,-508.984,-851.072,35560,-8960,-2660
24.9953,21.368,12.4074,14.7495,9.71818,3.54678,8.79742,4.9101,34.0348,19.2572,9.43975,17.0718,7.26835,8.27417,9.61138,4.64246,81.496,-511.424,-844.728,33740,-7700,-4060
6.49956,16.6305,7.81824,18.1269,12.6618,2.36036,11.0668,5.68821,12.9421,7.66377,1.31311,12.3224,4.00087,8.95365,13.1183,8.53391,86.376,-515.816,-848.632,32900,-6160,-5180
-19.4057,-12.3985,-5.54445,-6.71983,-4.34459,-3.64923,-2.91557,-0.549935,-21.4932,-10.68,-8.31539,-10.4279,-4.82681,-2.14838,0.570695,-2.13732,91.256,-516.792,-848.632,31360,-5460,-5740
-21.7479,-24.2779,-11.5927,-22.0616,-15.3655,-8.66617,-14.5625,-7.3322,-22.1862,-14.2205,-9.10367,-20.4012,-7.86695,-10.4549,-13.5857,-10.1342,91.744,-518.256,-846.68,29820,-4480,-6160
-2.48942,-15.2217,-7.53378,-25.2624,-16.5779,-7.10175,-17.9286,-8.53392,0.875417,-2.41582,-2.40277,-12.7365,-4.40561,-11.8344,-26.348,-11.6377,94.184,-516.792,-841.8,28980,-4060,-6300
-5.78138,-22.2729,-6.51114,-30.3328,-19.4097,-4.7488,-17.3448,-5.65923,-6.05994,-4.98559,-2.41965,-13.7203,-5.28291,-10.2862,-27.2257,-9.71504,93.208,-517.28,-840.336,27580,-3360,-6300
-9.48534,-12.0865,-1.73282,-9.85699,-3.56167,0.857077,2.41528,1.38143,-14.617,-6.40802,-3.96203,-5.89019,-2.12513,-0.670423,-0.213297,2.50555,94.184,-516.792,-837.408,26320,-2940,-6020
-9.82177,-11.9058,-5.0298,-5.49736,-3.25513,-0.140727,3.83964,1.73273,-12.2126,-7.00215,-2.0628,-8.09232,-2.49854,-1.02425,7.23497,4.7543,95.16,-515.816,-836.432,23380,-2800,-6020
-7.42672,-9.06252,-6.91114,-2.23719,-3.01243,-2.06023,5.31521,2.42143,-9.4201,-6.60365,-1.75305,-9.27516,-4.80477,-3.25362,9.88238,5.00557,94.184,-519.232,-828.136,20860,-2800,-5460
-2.82954,-1.05127,-1.80649,6.57882,3.42637,1.34243,10.0856,4.01135,-4.8602,-2.70211,-0.834524,-2.25016,-2.25032,0.244396,15.0417,5.5897,94.672,-514.84,-832.528,19040,-2520,-5320
-2.66375,-4.89998,0.312291,-1.24612,-1.16924,3.21786,1.76029,3.8285,-4.87466,-1.11279,-0.187842,-3.0933,0.41513,-0.719561,5.63418,0.569186,99.552,-514.84,-831.064,16240,-2660,-4620
10.5075,16.9542,9.53309,18.6359,15.8873,8.06274,17.7838,7.13538,8.50705,8.56474,2.42242,13.0622,5.6851,8.23402,21.6298,9.67233,97.112,-508.496,-828.624,14280,-3080,-3640
22.447,33.7069,18.2973,36.9077,28.4876,11.6636,24.7409,8.8284,26.5315,16.7441,7.56977,26.4593,9.61409,16.7351,35.5288,16.219,98.088,-508.008,-830.088,11760,-3220,-2800
30.894,49.0561,21.9895,52.2657,35.8596,10.6734,25.9613,6.95296,36.569,21.6707,9.83545,37.9756,11.6497,20.6708,37.3569,16.4483,99.552,-501.664,-833.016,9240,-3360,-1680
11.2339,31.8114,10.2141,33.4611,22.0416,5.88665,11.2568,2.31601,13.7944,8.73031,4.19121,24.1029,6.3997,11.7308,14.9232,6.75991,99.064,-501.664,-837.896,7700,-3780,-560
-17.9397,-14.7598,-9.7471,-15.3626,-11.2387,-2.1814,-14.5981,-4.54489,-22.0078,-10.4138,-3.19294,-11.1625,-4.02775,-6.41336,-25.2731,-7.5139,98.088,-495.808,-840.824,6720,-3500,980
-22.5965,-35.9388,-19.1325,-36.8778,-26.9324,-8.0568,-24.2096,-7.94286,-28.9311,-15.6996,-5.74239,-26.8342,-8.16487,-16.799,-34.5064,-14.3091,99.552,-492.392,-848.632,6440,-4200,2940
-9.54659,-14.995,-10.5894,-15.3437,-11.6029,-5.28933,-9.4118,-3.52275,-14.6378,-9.78803,-5.5976,-11.5323,-5.55703,-8.12569,-12.1602,-6.89102,98.576,-489.952,-852.536,6720,-4620,4760
2.07606,-4.1627,-2.05693,-5.9924,-5.56187,-2.79634,-3.47653,-0.203493,1.2983,-1.71827,-1.45747,-2.74607,-2.22142,-2.41263,-4.65545,-3.61096,97.112,-487.512,-853.024,7700,-5600,6860
6.24609,-1.47244,-0.146914,-11.1381,-10.4936,-4.40389,-12.8853,-4.8085,6.21111,2.52173,1.23698,-1.91278,-0.0250176,-5.51769,-20.206,-10.5523,94.184,-484.096,-858.392,8680,-6440,8540
-0.301393,6.70068,3.02323,5.18149,1.89284,0.72929,-3.54957,0.312793,1.92422,-1.33601,-0.350671,3.46527,1.30894,2.50575,-5.98435,-2.32412,91.744,-480.192,-860.832,10080,-7700,10640
-8.60894,-0.696833,-2.32682,0.313351,-0.951041,0.738919,-1.38129,-1.30597,-7.77276,-6.16755,-2.18098,-3.28923,-0.810388,-1.65809,-4.85765,-2.00308,90.28,-479.216,-866.688,11200,-8960,12040
-12.1362,-19.5026,-7.68515,-23.7374,-16.7497,-4.49798,-15.1953,-7.05879,-9.99355,-7.73887,2.19626,-14.762,-2.61499,-9.00069,-18.1063,-9.25402,86.864,-479.704,-870.104,13020,-9940,13300
-7.57948,-20.3118,-5.96927,-26.4339,-15.5122,-4.6844,-14.4409,-8.27511,-8.46165,-4.83054,0.425296,-13.0844,-1.55432,-8.76064,-18.168,-9.14878,84.912,-479.704,-870.104,15120,-11200,14420
-1.70556,-1.28065,1.23766,0.807415,3.22786,1.38477,3.98892,-1.20857,1.81615,-1.78805,-3.46094,-0.0443478,0.333321,2.55774,8.08968,4.14897,82.472,-479.704,-875.472,16660,-11760,15120
7.35951,11.3791,8.19131,14.5849,12.1519,3.56083,9.89404,3.12916,11.1529,6.05337,-1.13618,9.00861,3.13461,8.21372,16.0823,8.83651,80.032,-475.312,-878.4,19460,-12740,15960
10.6313,8.12001,6.03532,6.31495,4.60499,2.80882,2.28674,1.93266,11.1946,8.87954,1.21594,6.60875,3.11345,4.17425,5.08613,2.94093,75.152,-477.264,-879.864,21840,-13580,16380
-1.26868,-1.8313,-1.3783,1.97914,-0.320152,0.692817,1.08991,1.29459,-3.61317,-0.444761,-1.10135,-1.87904,-1.05579,-0.611005,4.9928,2.43695,72.712,-475.312,-884.256,24780,-14000,16520
4.99689,-7.33049,-4.80031,-8.75553,-9.08803,-5.24,-8.19437,-3.93471,3.30548,2.08025,1.61794,-6.84971,-3.48176,-7.05321,-9.29947,-4.33754,72.712,-474.336,-880.84,27860,-14700,16240
13.1357,1.28397,-0.0939365,-4.83688,-5.02156,-4.007,-3.52245,-1.32587,13.4608,6.68517,3.48356,-1.01819,-0.628526,-4.16511,-8.33364,-3.20884,69.784,-475.312,-884.744,29960,-15120,15960
19.6045,17.5913,9.48214,13.8275,10.8493,2.46133,10.1778,5.86175,25.7634,11.5639,5.43751,12.9339,4.27251,7.19027,11.6417,7.18574,65.392,-475.8,-879.864,32760,-15820,14980
20.2405,28.9908,13.3242,30.711,22.7018,5.31619,21.6367,7.42584,24.7149,12.8591,6.13642,21.6943,6.97708,11.9766,28.5119,13.4689,62.952,-474.336,-878.4,34720,-16240,14000
10.1918,17.5877,7.21923,20.8993,14.3399,2.73884,13.6421,5.08889,12.3822,7.16127,5.13572,13.5042,4.18758,7.85598,20.339,8.47578,56.12,-475.8,-874.008,36960,-16660,12320
2.86054,2.76376,0.364603,-0.23062,-0.747786,-0.503206,0.453104,0.256157,2.39906,3.76904,2.9549,2.77486,1.35078,0.341746,-0.472944,-1.92812,55.632,-474.824,-876.936,38780,-16940,10640
-4.43211,2.79911,0.163738,7.17075,7.40683,2.25002,12.3079,4.0089,-7.57164,-1.39535,-2.23736,2.30376,1.5919,4.04203,12.8501,5.57981,55.144,-477.264,-877.912,40040,-16940,9100
-2.1944,2.56225,1.63003,3.59307,4.48293,0.881657,3.56834,2.11363,-2.68754,-0.884274,-1.82479,0.990886,1.07762,2.34243,2.68664,1.14733,52.216,-477.264,-874.496,41440,-16800,7140
-7.83073,-11.3758,-3.42382,-14.7602,-8.39872,-1.96503,-7.39268,-1.08956,-13.9305,-3.55873,-0.549048,-8.50597,-0.560617,-5.26417,-16.0879,-7.16696,51.728,-476.776,-871.568,42280,-16520,5460
-21.3011,-23.1353,-8.89109,-20.5835,-12.232,-1.95544,-8.11962,0.664011,-28.2212,-12.0661,-3.26605,-14.9918,-2.75722,-6.52484,-11.8013,-6.27625,50.752,-480.192,-866.2,43120,-16660,3640
-26.9839,-14.7813,-8.41175,-5.25823,-3.16269,-1.23966,-0.110925,0.0579165,-34.6346,-16.11,-8.56477,-10.0824,-4.71934,-1.09877,0.637083,-2.87571,50.752,-483.608,-863.272,43400,-17080,1680
-12.8356,0.188153,-2.45592,11.6256,8.20017,3.49391,10.3836,3.97477,-11.9449,-8.2619,-6.3154,0.117573,-2.31342,5.2181,17.4012,5.65358,53.68,-488.488,-857.904,43260,-17780,140
-8.08218,-3.77389,-2.45767,-1.17963,-0.633307,1.99067,-2.49318,1.13149,-5.9496,-6.88356,-5.7566,-2.01482,-3.32035,0.287373,-1.27917,-0.408361,51.728,-490.928,-858.392,42560,-17920,-1680
-13.1201,-15.905,-6.89338,-17.1716,-11.7113,-0.797645,-10.673,-0.566362,-15.123,-10.1013,-5.99251,-10.5684,-4.72794,-5.02097,-13.6423,-3.75303,52.704,-497.272,-855.464,41720,-17640,-2940
-6.43271,-22.4715,-8.84977,-29.5188,-21.3832,-3.86418,-20.5186,-5.4737,-7.41199,-5.04052,-2.21589,-14.7894,-5.10148,-11.0155,-25.8606,-9.9958,54.656,-503.128,-850.096,40460,-17080,-4620
6.29417,-4.535,-2.48619,-6.87961,-6.81303,-1.92235,-8.04355,-4.91117,10.0104,4.27499,2.54763,-3.75611,-1.66118,-4.49215,-5.96401,-3.67265,54.168,-507.032,-851.072,38920,-16240,-5880
15.4921,29.1937,11.1692,38.0333,24.6099,4.83797,21.2375,1.819,24.4118,11.3687,4.76885,19.9176,5.26741,11.378,30.8382,12.7719,58.072,-512.888,-850.096,37660,-15400,-6860
11.5302,26.3168,10.3656,30.2034,17.4754,2.96181,7.71347,-0.91848,23.0822,9.7518,6.81985,18.3659,3.86988,8.94739,15.2028,5.95909,54.656,-516.792,-849.608,36400,-14000,-7560
2.53191,3.77633,-0.29716,-4.74754,-6.95695,-3.01686,-12.6354,-7.90259,5.67358,4.1053,3.731,0.662698,0.129523,-6.20346,-19.1135,-6.03631,59.048,-517.768,-854.976,35560,-13440,-8260
1.17865,-10.1048,-2.73822,-18.5583,-15.59,-3.0004,-15.2672,-6.5713,2.07339,2.27541,1.24386,-8.40809,-1.41971,-7.00488,-20.0883,-8.68822,59.048,-521.184,-847.656,34720,-12740,-8680
4.57497,-1.85069,0.419306,-4.27755,-3.29146,-0.733141,0.636773,0.113838,3.55163,2.10253,0.0281357,-2.28806,-1.34177,-1.13071,-3.93649,-1.74949,57.584,-521.184,-849.608,34720,-12600,-8960
-5.76145,-5.35548,-1.64909,-1.00025,2.16594,0.85243,9.08538,6.41572,-10.1348,-6.32124,-3.79958,-3.9192,-2.66314,0.883048,8.64786,6.15148,58.56,-526.064,-849.12,34580,-12040,-9100
-3.45328,-7.8124,-1.34172,-7.60389,-2.61561,-0.0633006,3.19685,5.37355,-10.0775,-5.58845,-1.05193,-5.00786,-1.91295,-1.06248,0.511323,4.35481,60.512,-531.92,-844.24,34720,-11620,-9240
6.25542,-4.71491,0.455491,-8.5054,-3.47383,0.274961,-1.50408,-0.912549,-0.282716,1.60938,3.30094,-1.65591,0.627734,-1.48478,-6.85925,-0.00403845,58.56,-534.36,-840.336,35000,-11060,-9380
13.2976,1.12846,1.63565,-7.01537,-3.85948,-0.122735,-6.70038,-6.37027,8.83576,6.66393,6.62704,2.50426,2.90809,-2.0862,-11.382,-4.98056,59.536,-537.776,-838.872,35280,-11060,-9380
13.656,4.76159,2.54311,-3.87567,-2.04187,0.297984,-7.63168,-4.14824,13.6933,6.95792,4.03756,5.10975,4.09557,0.430173,-14.9673,-5.42221,59.048,-536.312,-837.408,35560,-11340,-9380
5.58959,2.75422,1.2852,-0.0843682,0.9473,0.0314633,-2.08685,-1.20157,5.37134,2.07785,-0.747092,2.16719,2.49036,2.40645,-4.93837,-3.03469,61,-541.68,-836.432,35840,-11760,-9520
-8.74661,-1.6389,-2.01601,5.30441,3.40682,-0.384878,3.84341,4.14263,-9.51604,-7.91513,-2.01797,-1.09533,0.63753,3.29197,9.79315,2.36343,58.072,-540.216,-831.552,36120,-12740,-9100
-10.5637,0.50827,-4.32993,6.74337,0.761127,-1.83489,-0.65688,5.05168,-12.6471,-7.61364,-3.29525,-1.58692,-0.48237,-0.908389,8.72659,1.0368,59.048,-543.632,-836.432,36260,-13580,-9240
5.6304,12.1625,2.91893,11.3799,4.24365,-1.44812,0.00366074,1.5229,6.38524,3.5659,0.716436,8.61855,1.69681,1.47297,9.51176,-2.29427,60.024,-547.048,-832.528,36680,-14280,-9100
9.66767,10.6221,3.36122,5.64373,2.57104,-2.57751,-3.0502,-7.74337,10.2606,7.67593,0.901511,7.86731,1.2533,-0.96135,2.20177,-7.34643,56.608,-546.56,-830.088,37520,-15680,-8820
4.35944,7.13277,2.61108,6.22182,3.86743,-1.66572,2.69746,-4.89451,4.04613,5.47391,0.711673,3.39432,0.789356,-1.15886,5.83139,-0.139041,60.512,-548.512,-838.384,37800,-16800,-8820
0.342543,4.58298,2.29286,10.9145,8.45191,1.79391,10.5658,2.23093,2.72966,2.73337,1.57509,2.7067,1.19775,2.81722,17.1499,8.12983,58.072,-550.464,-834.968,38640,-18060,-8400
2.03298,6.74111,2.03557,8.70767,8.96376,1.5048,11.0013,2.1827,4.83869,2.78581,0.448346,5.05949,0.951662,2.76871,10.0005,7.25558,59.048,-548.024,-836.432,39760,-18900,-8120
-1.46853,3.06388,2.70298,7.98594,8.58392,3.12698,14.7546,6.65539,5.36378,0.501121,-1.02379,2.44748,1.11316,5.17439,15.4311,9.55158,53.68,-549,-835.944,40600,-19880,-8260
-9.13891,-6.56141,-0.254923,-0.22025,2.33741,1.75838,7.97782,5.92638,-7.88964,-4.51046,-4.38916,-4.86923,-1.38101,2.48064,4.13667,5.38821,55.144,-551.44,-837.408,41860,-20720,-8260
-8.82164,-8.06688,-0.838471,-4.59453,-0.354066,1.13901,4.30251,4.15327,-9.31191,-5.08055,-3.53221,-6.05089,-1.19943,1.31949,0.133347,3.73726,54.656,-549,-837.408,42980,-21280,-8400
-0.301555,-5.37071,-0.513175,-8.42444,-5.00701,-2.04004,-4.32222,-2.61258,2.84219,0.905936,1.32015,-5.25385,0.423321,-2.5309,-7.26254,-2.43048,55.144,-548.024,-839.848,44240,-21560,-8400
-1.57566,-9.68322,-4.24579,-15.7293,-10.3928,-3.28345,-11.3112,-3.58813,1.12136,-0.0700292,0.1382,-8.74293,-1.30249,-5.9954,-16.8505,-7.63756,52.704,-548.024,-838.872,44800,-21840,-8820
-10.0955,-14.3816,-7.48186,-19.4298,-13.4491,-3.84446,-13.6227,-4.5356,-8.60412,-6.45104,-3.66655,-12.1021,-4.33297,-7.66479,-18.5327,-9.16667,54.168,-547.048,-834.48,45780,-21700,-9380
-21.2124,-16.4075,-7.87463,-11.8709,-8.5069,-0.503884,-3.08635,0.791825,-20.6662,-13.9492,-7.90275,-11.3952,-5.50838,-3.54821,-4.96596,-0.997567,50.752,-549,-836.432,46340,-21140,-10220
-20.1875,-14.2384,-4.7367,-5.04318,-4.05405,3.40589,3.90808,4.85545,-24.0722,-11.3597,-6.22636,-8.63643,-4.01939,0.107902,3.89275,3.64401,52.216,-550.464,-836.432,47040,-20580,-10500
-5.65487,-0.87333,2.22651,6.20131,3.77687,5.87642,5.54077,7.10808,-6.56814,-3.41862,-0.542948,1.50262,-0.559174,5.71754,12.0455,6.76603,49.288,-552.416,-832.528,47600,-19880,-11480
1.89883,8.25975,3.62142,11.3407,6.79496,4.8945,2.4022,3.82748,-0.439704,0.673097,-0.664032,6.97461,-0.197936,4.25594,1.79233,3.83085,49.288,-551.928,-834.48,47600,-19320,-12040
18.8907,15.4416,8.13025,9.28763,4.65449,3.8785,-6.64941,-0.79917,22.4992,12.8871,8.70448,13.5687,3.98319,3.97499,-6.81262,-2.53927,49.288,-555.832,-837.408,47600,-18200,-12880
30.0153,19.8209,10.332,4.90541,1.70343,1.13354,-9.68764,-6.35091,31.9127,20.5397,13.587,17.2194,8.04112,1.95263,-12.0383,-6.0415,51.728,-556.808,-831.064,47180,-16940,-13580
12.9037,6.99713,2.81326,-1.67222,-2.17872,-1.78626,-8.6381,-4.2628,10.735,9.45018,7.7344,5.56033,4.45716,-0.820753,-9.46298,-4.47564,51.24,-555.832,-833.016,47040,-15820,-14000
0.88695,5.78001,-0.823229,7.35225,4.77346,-0.951893,3.76122,3.04395,-4.1096,-1.59891,-0.186257,2.30429,0.270395,2.29532,5.65467,2.20534,51.24,-557.296,-829.112,47040,-14560,-14280
1.2768,9.39394,1.08434,12.8705,9.22145,-1.25498,9.87513,3.03436,-2.74666,-2.56358,-2.67398,5.3783,0.0085477,4.42211,12.1321,4.30133,53.68,-557.296,-825.696,46480,-13860,-14700
2.65844,1.76714,-0.998245,2.90543,2.18696,-0.896125,6.64896,1.23026,1.56374,-1.10183,-0.892323,-0.17495,0.232601,0.134087,9.83471,3.35549,53.68,-560.224,-828.136,45500,-12320,-14980
-6.64285,-16.6077,-8.04186,-16.8382,-11.559,-1.69552,-4.77344,-1.67111,-11.7192,-6.78674,-3.3071,-12.5637,-3.3484,-6.85826,-5.865,-2.48411,56.12,-563.152,-829.6,44100,-10780,-15400
-7.89591,-11.5517,-7.49435,-6.80293,-4.37568,-1.05497,1.91616,-1.16997,-12.8762,-6.31934,-5.70029,-8.6804,-2.74708,-4.60122,2.7037,-0.194628,53.192,-560.224,-827.16,43260,-9660,-15260
9.33176,6.40257,2.61669,7.50292,4.06676,-0.605664,0.362281,-4.36511,10.3895,5.17727,1.03182,4.75019,1.49492,0.914068,4.00846,-2.58402,52.704,-558.272,-825.208,41720,-8680,-15260
1.43963,-0.303115,-1.0154,-3.23262,-3.99278,-4.37914,-9.69003,-9.41558,0.1616,-0.38921,-1.74017,-0.763708,-2.27318,-4.26871,-13.2127,-9.42631,55.144,-560.712,-827.648,40600,-7560,-15260
-7.27751,-12.5106,-4.00399,-13.6481,-11.2078,-4.76038,-12.0059,-6.69193,-9.62983,-5.69103,-2.00584,-8.75462,-4.5718,-6.07226,-18.5749,-8.87612,51.728,-558.76,-821.304,38500,-6440,-15120
-5.3862,-8.42596,-1.09402,-6.91054,-5.21866,-2.47513,-2.00162,-1.94896,-6.60912,-4.3025,0.293467,-5.36771,-1.59916,-3.21204,-4.7437,-1.12915,57.584,-559.736,-822.768,36540,-6160,-14840
1.17671,4.11336,3.06923,4.65592,4.59957,-0.625462,7.80075,2.55204,4.78272,1.11643,2.26177,3.48119,1.72607,0.559413,9.45285,3.98755,59.536,-561.688,-823.744,37100,-5460,-14980
5.30134,6.8137,2.47841,2.41972,2.34484,-0.488092,2.95511,2.49614,15.1106,4.5839,4.23209,4.70143,1.14305,0.264704,7.34451,1.17751,53.68,-557.296,-826.184,36260,-4760,-14700
4.55566,12.2259,1.17329,8.47468,5.75089,0.149495,7.57362,1.80431,14.4379,3.22531,-0.186789,7.2076,-0.872889,1.14331,10.1046,4.17099,58.56,-556.32,-822.28,33600,-4200,-14280
-1.89576,3.82017,-0.32316,5.91329,4.65034,2.69655,7.2482,3.3178,5.54031,-1.1712,-1.45272,2.2175,-0.689749,3.40848,12.5523,4.81875,58.56,-552.416,-824.232,32340,-3780,-13720
-4.12485,-5.21825,-2.07724,-3.07995,-1.38636,2.7177,0.775301,0.773022,-5.19498,-1.87789,-2.102,-3.11888,-0.607101,1.16182,1.55348,2.32224,64.416,-553.88,-822.768,31640,-4060,-13160
-1.17738,-1.36765,0.230313,0.00104401,0.693983,3.80312,-0.945004,0.942326,-3.3249,0.431549,-0.941468,-0.757447,0.969927,2.32636,0.98111,1.35502,60.512,-553.88,-824.232,31780,-3780,-12880
-2.46246,-1.86575,0.054013,-3.11314,-2.78586,0.618546,-7.34088,-3.03316,-5.58197,0.402589,0.636869,-1.82069,2.00389,-0.201593,-10.4476,-2.71767,70.76,-552.904,-814.96,31920,-4060,-12460
-1.30092,-3.60151,0.805517,-8.80657,-6.51637,-1.01012,-11.7661,-4.59152,-4.56959,2.12033,1.42505,-1.72433,2.35039,-2.09524,-18.5871,-7.02997,67.344,-551.928,-821.304,33460,-4480,-12040
-6.44371,-8.64112,-2.04584,-8.19735,-5.71516,-0.520711,-6.21666,-1.40623,-9.7791,-0.766071,0.53123,-5.67309,0.610415,-1.63008,-11.855,-5.11762,68.32,-548.024,-821.792,33460,-4760,-11620
