-2.59599,-7.73451,-7.42206,-1.4139,-2.06652,-0.979376,1.91181,-2.65754,-1.01903,-0.233305,-1.35007,-1.82301,-0.201644,-1.07812,-0.0700016,-1.50022,-277.184,-882.792,-366.976,5040,280,560
0.380048,-3.43205,-1.47713,-1.13073,1.82553,-0.93792,-1.68533,-1.79907,1.43215,2.87716,0.914196,2.08134,0.0434388,-1.88436,-3.37509,-3.213,-277.672,-880.84,-369.416,5600,-700,2100
5.68072,6.83315,4.96154,6.66789,10.5094,2.25716,3.09876,1.99553,7.54151,6.83547,5.98158,9.52615,4.14745,2.2178,4.59854,1.79718,-279.624,-885.232,-371.856,6020,-420,2940
7.29353,9.22079,8.3306,9.11812,13.3485,2.65681,6.456,5.95597,7.27003,7.76825,7.12116,9.83764,6.70438,7.00736,10.1045,5.48712,-278.648,-886.696,-365.512,6160,700,3500
4.15429,3.77198,5.75,5.14512,5.09118,3.08318,4.97698,5.57248,5.08265,0.782349,3.866,6.13312,5.53492,3.93761,9.37789,3.7014,-285.968,-885.72,-367.464,7140,700,3780
2.36887,2.69487,5.67356,2.33078,4.94116,2.54453,-0.455222,6.16218,1.9992,1.45699,0.0040863,5.07238,3.05732,2.3596,2.82429,2.55954,-286.456,-890.112,-367.464,8120,560,4060
-1.65836,-3.87305,-0.677686,-4.7445,-2.67639,-0.633661,-6.18166,1.03903,-2.32061,-3.10834,-2.64092,0.507916,-1.41695,-1.21865,-4.49088,-2.71366,-286.456,-887.184,-366.976,8540,140,3920
-2.25988,-5.45871,-1.02343,-9.03337,-4.18978,-1.04317,-6.76481,1.50079,-4.00719,0.768861,0.148822,-1.45487,0.856113,-2.03634,-7.81353,-1.52654,-286.456,-891.576,-368.928,9240,-560,3640
-2.2044,-6.38498,-3.43982,-11.7759,-6.88334,-1.58485,-9.01581,0.234468,-5.94695,-1.18097,0.296962,-3.02482,-0.355985,-2.84435,-8.8701,-4.76793,-287.432,-887.672,-364.048,9380,-1120,3220
-0.862649,1.2585,-2.95409,-0.824056,-1.98724,-0.335229,0.501012,1.05644,-1.64081,-3.64454,-1.10316,0.0602509,-1.33276,-0.29999,3.38365,-1.46554,-282.064,-888.16,-365.512,9380,-1820,2940
-0.564149,7.21681,0.691106,8.2034,5.33475,0.409291,8.98852,4.17989,-1.6987,-3.38856,-0.476311,2.30289,1.07042,1.8368,11.5913,3.81393,-282.552,-890.112,-363.072,9240,-2520,2240
-6.28649,-5.38618,-5.89884,-2.77569,-7.56382,-3.98579,-0.120866,-2.15666,-10.4174,-8.48729,-2.73357,-7.00087,-3.00572,-4.60272,-2.21729,-5.17159,-283.04,-889.624,-365.512,9100,-3920,1820
-5.50089,-4.19007,-6.45923,-4.3597,-8.69626,-3.50231,-3.07839,-1.67007,-8.0263,-6.61175,-3.6095,-8.35269,-4.01881,-6.12099,-10.6642,-6.47353,-278.648,-890.112,-362.584,8960,-4900,1540
-2.88963,-3.67552,-7.66407,-2.02788,-6.51349,-2.36371,-1.19885,-0.295046,-4.33869,-6.26324,-4.12574,-9.56675,-5.74287,-1.80698,-10.3718,-4.99214,-278.648,-888.16,-359.656,8540,-5460,840
2.7689,4.74067,-3.02403,7.2781,1.13213,1.90448,7.66743,3.85046,4.0478,-3.10726,-1.9003,-2.24328,-2.42427,2.98138,1.79869,3.6044,-277.672,-888.648,-359.168,8260,-5880,560
5.71573,8.85463,0.968393,12.0873,4.32764,3.30087,10.7056,2.85881,8.22851,-0.0939624,-0.66984,3.17669,-0.365189,6.1143,9.20532,5.04314,-276.696,-883.768,-356.728,8260,-6580,140
2.66111,8.21247,2.91828,10.1582,4.89344,3.65527,9.27139,0.877948,5.70283,1.5225,0.629774,3.30029,0.111097,5.75939,7.75916,4.49083,-271.328,-881.816,-357.704,8120,-7000,-140
4.216,7.47985,2.65466,7.66154,5.529,3.05132,5.61018,-2.38814,8.04958,5.45845,3.12914,5.12562,2.9067,5.37661,5.01256,1.15627,-277.184,-884.744,-351.848,8120,-7000,-560
6.95668,7.97414,4.22791,3.95295,6.05645,0.846176,1.78401,-1.2608,8.04129,8.87317,3.20882,5.65372,4.02454,4.29482,2.1179,0.251869,-278.648,-887.672,-358.68,7840,-7420,-420
1.20367,-2.63944,-1.75751,-4.05813,-1.99605,-1.56488,-2.57899,-3.32606,0.848048,0.881046,-0.955459,-0.477314,1.49464,0.124885,-1.86099,-0.882158,-277.184,-889.136,-357.216,8120,-8120,-140
1.25318,-0.196027,4.62778,-4.7745,1.71404,-1.32964,-4.79601,0.344599,0.139508,5.92353,-0.256763,1.47095,1.60761,0.228374,-4.29968,1.11628,-276.208,-887.672,-354.776,7980,-7840,140
-2.40845,-9.37784,0.0980951,-10.9301,-4.51994,-2.92286,-10.2635,-6.82672,-6.09355,1.91366,-0.42581,-1.31705,-2.51757,-3.82826,-10.9276,-4.5167,-278.648,-889.624,-357.216,7700,-6440,0
-2.67762,-2.59665,3.52227,-3.61911,2.10706,-0.197324,-4.20157,-3.05798,-5.73781,5.52032,0.307421,3.42901,0.177287,-3.67148,-2.87732,2.53013,-276.696,-889.624,-356.24,7280,-6160,-280
-9.02044,-9.72826,-2.84124,-8.01147,-6.35288,-1.43584,-7.20598,-7.52292,-9.86749,-2.99892,-2.13536,-4.06401,-3.0283,-8.31726,-5.48534,-1.29182,-275.72,-889.136,-356.728,6580,-6300,-280
-6.4906,-6.35943,0.293275,-4.48548,-5.37259,-1.64505,-3.85754,-5.86051,-4.78452,-2.6107,-2.00495,-3.21586,-1.34513,-5.93422,-2.01272,-0.0943725,-276.208,-889.136,-364.536,6160,-6020,-140
-1.35085,-1.42727,3.29843,-2.26423,-3.5309,-1.33064,-1.79662,-3.35095,0.537315,0.459222,1.24427,-0.839334,0.349063,-3.75445,1.95437,2.43594,-277.184,-887.184,-364.536,5320,-5600,140
-0.0661054,-2.06094,1.59277,-2.5381,-2.46674,-1.97354,-2.63163,-2.10041,0.767841,-1.63861,1.71515,-2.43393,-1.28697,-1.46935,1.82177,1.94848,-275.72,-886.696,-369.416,5040,-5880,420
3.60696,4.80921,4.23235,4.93473,2.82846,0.706449,2.22677,3.57414,7.17878,0.192633,1.96928,2.41174,0.360701,4.1924,8.72272,5.93322,-277.672,-885.232,-369.416,4480,-5600,420
4.34939,7.98611,3.5737,9.55259,6.29926,1.27784,5.81583,5.43754,7.36493,0.152264,-2.09412,4.55907,0.392976,6.70218,11.7045,6.67545,-276.208,-884.744,-370.88,3780,-4760,280
-2.54108,0.403772,-2.45098,3.01993,0.676869,1.38561,3.49633,5.72218,-0.735603,-6.19601,-3.7207,-0.388354,0.920466,3.35557,7.54648,2.9207,-275.232,-885.72,-368.44,3360,-4200,280
-3.91398,-5.31336,-1.44603,-5.4559,-1.67754,-0.711746,-3.24714,2.92129,-5.87086,-3.03639,-1.11146,-3.60795,1.63094,0.26349,-3.125,-2.60443,-278.16,-882.304,-366.976,3640,-5740,980
1.71242,-5.38592,-1.51876,-5.35863,-2.97729,-0.370507,-2.13186,-1.21817,-0.664505,-0.774234,2.31065,0.713977,0.453106,-0.700865,-4.57603,-3.95962,-274.256,-881.816,-369.416,3640,-7280,1680
10.9085,6.43773,4.879,5.49411,7.14418,3.14638,7.07308,2.35724,10.5388,6.75458,6.26161,9.81971,2.6089,3.67116,6.64419,2.93827,-272.304,-880.84,-364.536,4060,-7140,1820
9.72714,6.68842,5.05242,7.25253,9.33048,3.45789,8.91781,4.23098,8.42032,4.48201,6.59254,6.73669,1.99058,4.23875,6.54404,4.50592,-272.792,-880.352,-364.536,4200,-5880,1400
-0.865062,-1.40321,0.0250168,1.34593,3.73136,2.48706,5.079,3.26804,-3.36875,-0.0896962,3.28168,1.02463,1.47755,1.72066,-2.55768,1.18389,-275.232,-878.4,-362.096,4760,-5880,1260
-3.78466,1.06925,0.0167313,1.26608,3.64302,2.49128,2.47599,2.25481,-4.90114,1.63263,1.29735,1.08285,3.37591,-0.244572,-4.79053,-1.38009,-278.648,-880.84,-366.976,5040,-5740,840
-8.96589,-6.90529,-9.90495,-5.53914,-6.41438,-1.61538,-6.27817,-3.8991,-8.90021,-6.29488,-3.79382,-7.50819,-2.82338,-6.84567,-11.9233,-10.2485,-277.672,-881.328,-366.976,5180,-5740,840
-6.85124,-2.10466,-9.23975,-4.44275,-4.71157,-2.56362,-6.16303,-1.30834,-7.60797,-4.86435,-2.5703,-7.28985,-2.66895,-7.40345,-9.41545,-7.45221,-276.696,-882.792,-363.56,5040,-6020,980
-2.74942,-2.02627,-7.14719,-5.19376,-6.58261,-3.19805,-7.02183,-2.91023,-3.92782,-1.44157,0.294256,-5.89684,-3.30339,-7.63776,-7.859,-9.11786,-278.16,-883.28,-368.44,5040,-6300,1260
0.220763,4.58492,0.0268155,1.20057,-1.80682,0.0641997,-1.006,1.6668,3.38666,1.41548,0.349872,-0.646476,-1.31735,-1.32379,0.478224,-5.24432,-276.696,-881.328,-363.56,4900,-6300,1400
1.24861,6.51254,4.89481,5.20003,2.01022,1.46397,2.66422,6.09619,4.34178,1.61004,-2.93831,-0.977437,0.651973,5.20824,4.13567,-0.177488,-275.232,-881.816,-363.072,5040,-5180,1400
1.56971,3.63019,3.45331,3.70426,0.575819,-1.19328,0.991072,2.72714,2.28473,-1.15073,-3.99449,-2.62193,1.21242,4.25572,1.82551,-0.125241,-273.28,-880.84,-361.12,4900,-4900,1260
2.03264,0.633635,-0.694066,0.935216,-0.316832,-1.68621,0.107766,2.12524,2.1322,-0.834899,-4.8791,-2.83796,0.474634,3.90663,3.32024,3.01402,-277.184,-884.256,-363.072,4620,-4480,1120
0.440683,-2.80721,-4.6171,-0.387241,-3.29031,-2.36798,-0.488393,0.0776008,-1.00814,-0.815134,-4.81044,-2.90907,-1.84767,3.25717,2.28965,2.67618,-277.672,-884.744,-360.632,4480,-3080,700
-2.51703,-10.4683,-8.34812,-7.65555,-9.67107,-2.61305,-6.10489,-5.02825,-4.99447,-4.76265,-4.0137,-6.78265,-4.58774,-1.41872,-4.32086,-2.22777,-276.696,-890.6,-360.632,4340,-2520,560
-5.01132,-8.51649,0.0136132,-6.71208,-2.88277,-0.32832,-5.71674,-0.27501,-8.9402,1.61346,-1.1901,-4.58353,-1.88289,-2.37664,-3.51981,2.06688,-278.648,-888.16,-360.632,3920,-1680,0
-4.83603,-8.52248,-2.4013,-5.12024,-4.66459,0.0623057,-5.20721,-3.15154,-6.08813,-1.90388,0.579931,-2.03765,-1.19733,-2.3821,-0.133323,0.981775,-277.672,-887.184,-360.632,3920,-1540,0
5.31637,9.869,6.58589,5.5946,6.56129,2.43249,-0.248329,-0.109046,9.22204,3.3128,1.9941,8.56204,3.71347,2.28466,6.38324,5.89134,-276.696,-890.112,-360.632,3500,-420,-280
9.32935,13.3827,7.76744,8.2515,9.15968,3.35912,2.57434,-1.5714,13.7362,4.44982,4.74524,11.3419,4.98475,4.0589,8.48631,5.40611,-276.696,-892.064,-365.512,3080,840,-700
7.47863,12.7786,5.54544,9.33847,10.927,4.41857,6.95035,1.74062,10.2381,3.94482,3.08251,12.881,3.14316,4.26459,10.947,6.44423,-277.672,-888.16,-365.024,3080,2100,-1260
8.39361,7.92307,0.935622,5.41182,5.6607,2.21253,5.10234,-1.59815,9.03323,4.18657,3.75325,10.8619,1.49338,3.30469,4.59446,1.25916,-274.744,-891.088,-365.512,2800,3500,-2240
5.10642,-0.854959,-2.12453,-2.02047,-0.0923266,-0.92731,-1.02806,-3.35544,4.56748,3.3357,2.61033,3.97476,-1.11464,-1.37926,-5.8734,-3.71213,-275.72,-891.576,-360.144,2520,5040,-2660
-3.31397,-6.19335,-2.50718,-2.82328,-2.13769,-0.482729,1.07982,-1.3267,-3.23171,0.740448,-0.359674,-0.715152,-2.73273,-1.83696,-3.57687,-2.3908,-274.256,-887.672,-366.488,1540,6020,-3220
-3.83768,-2.5691,0.555114,1.91034,2.06322,-0.772224,4.56117,-0.189122,-4.02369,1.4857,-1.4011,-0.328633,-2.19967,0.0785966,1.85244,-0.542658,-274.744,-887.184,-363.072,560,7140,-3780
-1.05735,3.79587,4.37125,5.26879,4.712,0.853119,7.73428,-0.455327,1.12937,0.397183,1.12524,4.28121,1.3456,0.670838,6.03778,1.20388,-277.672,-884.744,-363.56,-140,7980,-4200
-1.78518,-1.55891,5.39574,-1.29893,3.06484,1.5711,5.00368,0.29499,-2.75215,2.04951,3.75769,1.2241,1.24089,0.120298,-0.0400047,-0.572617,-275.232,-886.208,-364.048,-280,8680,-4480
-6.96429,-10.2021,0.667355,-7.27924,-5.43347,-0.915283,-1.01268,-2.83854,-10.4152,-6.51522,2.61142,-7.22603,-1.80854,-3.42312,-7.70826,-3.51912,-275.72,-882.304,-359.656,-420,8540,-4620
-7.38267,-6.94259,-2.91722,-6.23725,-6.94327,-1.51762,-2.62216,-1.68081,-9.96107,-8.23471,-1.57306,-10.2111,-1.91109,-3.80133,-10.5715,-2.16302,-278.16,-884.256,-361.608,-140,8400,-4900
-8.85505,-7.82816,-5.0257,-8.09053,-10.1252,-3.99848,-5.24561,-1.80072,-10.4273,-8.16965,-3.94584,-12.2857,-2.38506,-8.12369,-12.743,-4.94771,-275.232,-883.768,-361.12,560,9100,-5180
-0.783946,-1.2392,-0.256377,0.194344,-5.80418,-2.37527,0.203525,-2.12852,0.47515,-1.20778,-1.31541,-5.23089,0.952539,-4.21434,-2.35503,-1.00649,-277.184,-880.84,-357.704,1120,9380,-5460
1.889,1.60352,2.7261,3.2251,-3.56753,-1.95065,0.199391,-0.480228,2.76523,2.38547,0.708346,-2.57658,1.87703,-2.42014,0.607094,2.17296,-279.136,-883.28,-361.608,1820,9380,-5740
-0.959862,-5.72441,-1.21632,-2.48606,-5.98342,-1.41589,-3.3102,0.721106,-3.70026,-2.04364,0.573563,-3.67758,-0.469994,-4.07414,-1.2425,1.66181,-279.136,-882.304,-360.144,2520,9380,-6020
6.59128,2.66964,3.55012,3.20087,2.97213,2.74673,0.582629,5.62898,4.84763,4.72817,3.78574,4.12192,2.68341,1.93888,4.67927,7.09406,-277.184,-884.256,-361.608,2940,9100,-6440
5.92529,2.55571,3.45837,4.23281,3.92493,2.34057,0.821877,5.26116,6.23726,3.30127,1.22869,3.31976,2.10434,4.91457,5.51061,6.20172,-275.72,-881.328,-354.776,3080,9100,-6440
1.71792,1.4859,-0.975083,5.05715,4.5747,1.92055,3.11265,5.42315,3.21596,0.060688,-1.38407,3.36134,1.63901,5.39331,8.43069,6.00508,-275.232,-883.768,-360.632,3220,8820,-6580
5.35784,8.15247,0.613625,7.8042,9.21495,0.900784,5.87279,3.76898,7.76416,5.45666,-0.0836588,5.57569,2.12799,6.92012,10.56,5.87981,-276.208,-882.304,-359.656,2940,8680,-6720
7.14004,10.7981,3.28857,5.24576,8.81431,1.87773,4.56037,2.98567,8.45628,5.70592,2.41582,5.9178,3.32731,7.36427,6.32555,4.65352,-276.208,-886.208,-358.68,2940,8540,-6720
-2.94047,-0.250416,-1.85799,-4.17782,1.27684,-0.449749,-2.95397,0.042809,-2.92932,-2.60525,-1.93772,0.0971299,1.27343,3.47867,-2.68168,-1.68517,-275.232,-886.696,-362.096,2940,8400,-6580
-10.6193,-6.86808,-7.65713,-10.0949,-3.93991,-3.91291,-8.31468,-2.02234,-11.0774,-7.1779,-6.77268,-6.55392,-2.22644,-2.30332,-9.75706,-8.11803,-273.768,-886.208,-358.68,2660,8260,-6720
-4.89344,-5.57827,-8.20315,-10.1453,-6.99032,-4.99279,-10.9196,-6.6316,-6.3149,-2.18551,-0.438639,-5.11155,-2.02395,-3.20679,-12.296,-12.2167,-275.232,-888.16,-358.192,2660,8400,-6720
1.10465,5.46944,-0.370979,-0.0557146,2.35126,-0.859852,-2.88622,-0.714354,-0.296087,4.69511,-0.588147,1.12601,-1.01107,0.450182,-2.58008,-6.04236,-277.184,-889.136,-364.048,2660,8540,-6720
-0.903852,-1.17651,-3.83692,-3.54906,-5.10685,-0.224927,-4.33257,-2.03357,-3.36825,-2.94306,-4.17203,-3.32912,-5.4273,-1.49705,-2.2825,-7.30104,-275.72,-889.624,-363.56,2660,8540,-6860
6.74434,9.16934,3.57885,4.12502,4.52646,2.10195,1.04015,3.61319,6.5145,3.51204,-0.784152,4.0182,-0.557577,0.721509,2.75441,-0.0921015,-276.696,-890.112,-360.632,2940,8400,-6720
1.73489,-0.590384,-0.513781,-3.04405,-1.81384,-0.999375,-3.75444,-0.988726,-1.0842,-0.611292,-0.0482827,0.401723,-0.493017,-3.81198,-3.95026,-4.68666,-278.648,-890.6,-361.12,3080,8120,-6580
-2.81875,-6.6031,-0.380223,-6.02418,-3.22602,-0.716477,-4.14554,-1.5968,-6.49431,-2.41046,0.762449,-0.125145,-1.86892,-5.56063,-3.96278,-2.68563,-275.72,-889.136,-361.12,3080,8120,-6720
-1.30756,-3.11716,1.37824,-0.560193,-2.51342,1.50094,2.67632,-0.396766,0.225051,-1.20046,0.924488,0.56058,-2.79644,-2.67296,4.91697,1.5315,-275.232,-891.576,-356.728,3080,7980,-6440
-0.527022,-2.28186,0.661416,1.9796,-2.36856,1.93377,4.73089,0.148773,2.07966,-2.21942,-1.13242,-0.104993,-4.48314,-1.76395,6.52509,1.52545,-273.28,-891.088,-359.656,3220,7980,-6580
1.33227,3.51487,0.620501,10.0966,3.88049,3.35849,10.5888,2.46792,7.86272,-0.656086,-2.1702,6.32354,-2.84932,2.38666,12.6564,6.00672,-271.816,-890.112,-355.264,2940,7560,-6440
-2.24838,0.511659,0.686455,7.25938,1.5164,2.73824,6.10742,1.27924,2.85996,-0.0302665,-1.63086,2.6863,-0.219644,2.71519,5.05175,3.6912,-271.816,-892.064,-359.656,2800,7000,-6580
-8.06223,-11.314,-4.69548,-2.52552,-7.29509,1.2544,-2.57197,-4.22944,-7.1746,-7.07485,0.261233,-5.72132,-0.870303,-2.11674,-4.19586,-2.48382,-276.208,-891.576,-364.536,2660,6720,-6440
-2.56565,-2.56032,1.74215,3.19851,3.67961,1.21541,1.16865,-1.99685,-4.15826,2.4558,1.81683,-0.637186,2.71363,1.31849,3.02935,2.94752,-275.72,-893.04,-362.584,2800,6300,-6160
0.00523842,1.31755,-0.498512,3.63541,2.92383,-0.728857,0.656525,-4.14621,-0.621896,3.32797,4.34091,-0.744062,2.6004,0.330164,3.8632,1.74732,-274.744,-893.528,-364.536,2800,5740,-6020
2.23479,3.33781,1.15439,1.61778,2.40673,-2.22615,0.215864,-1.28949,3.09759,4.71759,3.31399,0.570473,2.60317,-0.0639581,2.15686,1.62442,-274.256,-892.552,-365.512,2800,5180,-5880
2.7777,1.62488,1.38486,-2.92753,0.114817,-0.532031,-1.44712,-0.409791,3.06742,1.14437,1.65794,-0.723914,3.79007,-0.0191698,-3.98188,0.875586,-277.184,-892.552,-361.608,2800,4760,-5740
7.05498,4.32422,3.75115,-1.82898,3.19245,2.03931,1.12238,0.750447,5.01225,2.91912,4.00668,2.84069,4.41206,2.89461,-2.88573,2.03122,-274.744,-889.136,-360.144,2940,4200,-5460
8.53105,7.92126,7.47286,1.09132,7.62269,2.76219,1.28786,3.39268,5.31101,6.86094,4.33042,4.54531,5.61659,2.35003,-2.23386,2.3685,-276.696,-889.624,-360.144,3220,3640,-5040
0.770357,-0.332187,1.17375,-5.65425,-0.647834,-1.25526,-5.50161,-0.949029,-1.36765,0.376808,0.296111,0.0316083,2.66505,-1.31807,-10.1435,-2.41437,-278.16,-888.648,-356.24,3360,2660,-4900
0.232886,7.52114,3.27389,0.258762,4.13992,-0.0700497,1.38192,2.6413,3.4381,2.79998,-0.800966,5.39966,2.48851,2.50571,-2.94091,3.86496,-276.696,-890.6,-353.312,4200,840,-4200
1.08498,5.53148,-1.15751,0.275217,0.180418,-2.18502,2.55461,0.0567491,7.00584,-0.445345,-2.90288,2.49663,-0.840544,3.70097,-0.872984,1.28984,-281.088,-889.624,-355.752,5040,-1260,-3220
1.24979,3.24959,-1.03414,1.08266,-1.36803,-1.40895,1.47316,2.35016,6.65699,-2.85325,-1.71859,1.31359,-1.42757,3.12632,1.19787,1.96919,-276.208,-887.672,-357.704,5740,-2100,-2660
-6.57069,-6.61454,-3.65417,-4.18426,-5.79933,-2.42044,-3.79567,1.87019,-5.43339,-6.76076,-2.92155,-5.75465,-4.3151,-1.39533,-3.39434,0.751888,-277.184,-886.696,-356.24,6860,-1820,-2380
-11.3121,-10.3202,-4.91531,-4.4301,-8.24138,-2.48093,-4.07542,1.17711,-12.7853,-9.63726,-3.65878,-9.15654,-4.19278,-4.3218,-5.09349,-0.425692,-273.768,-889.624,-358.192,7280,-1260,-2660
-5.4587,-7.66836,-3.95911,-3.66482,-8.65675,-2.20433,-5.87459,-2.08039,-6.51838,-3.96457,-1.34119,-6.90476,-3.20451,-4.21613,-6.92491,-3.82111,-281.088,-882.792,-357.216,7700,-980,-2800
-4.62744,-9.52972,-3.23142,-6.95811,-7.97975,-2.92459,-6.63751,-3.70922,-9.27136,-2.6827,-2.16034,-7.56316,-3.14225,-7.17154,-9.66785,-6.53446,-292.8,-882.304,-345.504,9940,-4060,-980
0.0531236,-5.87673,-0.35476,-0.409527,-3.46739,-0.773341,-2.14173,-3.98957,-5.0055,-1.93109,0.960578,-4.20658,-2.02157,-3.53605,0.371832,-3.87173,-298.168,-885.232,-341.6,13440,-12740,2520
14.5509,12.274,10.7582,14.2468,12.3505,3.29219,8.269,5.20903,13.1092,10.6499,4.18949,9.66281,3.66574,3.74444,14.7225,5.70464,-296.216,-874.008,-337.208,20440,-24780,6860
11.2078,3.29715,3.40206,8.83126,5.00002,1.79593,5.78925,2.09942,10.1873,3.93008,2.33793,4.55528,2.65737,1.81916,12.7285,1.28713,-283.528,-885.72,-345.504,25200,-31360,9800
3.54048,-0.211701,2.25276,4.90736,4.19464,1.53735,7.46836,3.36952,0.98133,2.1716,-0.60196,-0.0287166,2.17181,1.08637,11.3427,1.34986,-286.944,-896.456,-344.04,28420,-31080,10500
4.09267,2.206,2.53123,5.88373,3.72847,3.70423,9.17634,2.83052,2.5443,5.07907,1.52239,1.13504,2.3376,3.90536,10.4191,-0.508412,-283.04,-895.968,-346.48,30800,-31920,10220
5.85164,9.55026,4.04587,7.51355,6.05152,3.41433,5.56699,0.448715,7.09216,9.09211,4.76642,7.43969,3.08254,6.39148,6.32442,-1.00988,-285.968,-895.48,-352.824,32060,-32340,9940
-8.69746,-6.66711,-9.10944,-6.18706,-6.71104,-3.23106,-5.94963,-6.91269,-8.93683,-3.98516,-2.04518,-3.71465,-2.90944,-2.14925,-7.3917,-8.04285,-285.968,-897.432,-351.848,31500,-32340,9660
-14.7359,-12.637,-9.69333,-9.67209,-9.28638,-4.35178,-8.60072,-5.18964,-17.5643,-8.73884,-6.07139,-8.35421,-3.22844,-3.95655,-11.1958,-6.22502,-278.648,-900.848,-364.536,29820,-31500,9240
-6.15413,0.821979,-0.911541,-0.311579,0.5686,2.52126,1.12142,3.01216,-6.31274,-2.97665,-3.06942,2.77601,0.788037,1.83612,-0.0558361,5.06174,-278.648,-899.872,-361.608,25340,-27580,7980
-1.60171,2.46036,-1.57205,2.47258,1.63406,1.90059,3.55746,3.55477,-0.55392,-2.8223,-4.5171,3.5246,-2.85178,2.40681,3.68711,5.1218,-282.064,-906.216,-369.904,19740,-23380,6580
-3.5687,-1.88995,-6.01699,-0.701739,-4.17921,0.122018,1.98999,-0.397984,-0.783248,-7.98587,-5.42351,-1.42313,-5.04138,-3.08288,1.98705,0.944913,-282.064,-903.288,-371.368,15960,-22260,6020
0.588384,6.30244,1.28714,1.67724,4.66765,-0.182009,1.07504,1.50229,2.54007,0.627309,-2.70831,1.33304,-2.04873,-1.83417,1.2068,4.27363,-278.648,-902.312,-370.392,10780,-21980,6160
1.11743,-0.718519,-0.211148,-6.36712,-1.24029,-2.52536,-7.08358,-4.74409,0.503095,-1.12889,3.35209,-1.04797,0.352267,-5.14752,-8.85388,-2.33474,-275.72,-904.264,-371.368,6860,-20020,5320
3.69933,-1.30897,1.66557,-6.60393,0.47854,-1.00648,-6.76734,-3.43596,1.9204,2.81777,6.25411,0.695253,3.06783,-0.99884,-9.37806,-1.53192,-276.208,-905.24,-368.928,2800,-15960,3920
5.1636,2.65838,1.6101,-3.89204,2.95878,-0.530053,-2.89378,-1.8953,3.18322,5.49516,6.07631,3.09716,1.24775,-0.0310526,-5.54824,-0.178077,-275.232,-900.36,-365.512,420,-13720,2520
1.44622,3.28022,0.660951,-6.7056,1.69418,-0.485653,-3.99304,-1.50089,1.37429,3.72414,4.74613,1.26436,-0.949946,-1.8888,-4.22161,-0.811186,-278.648,-903.288,-358.68,-420,-13440,1820
0.466081,6.36319,6.42264,-4.51631,2.68263,0.725074,-2.96328,1.02038,2.85525,5.37115,4.17087,0.694156,1.39116,-0.734649,-3.51498,-0.0447403,-279.136,-898.896,-354.776,-980,-12600,1120
-0.559995,-3.00348,1.0323,-8.8083,-6.81396,-0.0409988,-5.15308,-1.84351,1.34731,0.0407204,2.06986,-3.9528,-0.235269,-1.44147,-7.69011,-5.71585,-281.088,-899.384,-353.8,-1400,-12600,560
1.7759,3.16885,3.09782,0.0588759,3.00612,2.07284,1.96147,4.48857,4.62802,3.24939,0.308771,2.80329,2.26475,4.88169,1.42061,1.88039,-282.064,-897.92,-348.92,-1260,-13440,420
2.83862,5.00149,0.0864898,8.34731,6.55309,2.07277,5.37366,3.76982,6.9757,1.85784,-0.638612,6.14923,1.29529,7.88942,8.89529,3.47125,-284.504,-892.552,-344.528,-700,-15260,560
3.34642,9.78605,1.65986,13.8243,8.51624,3.31228,7.64681,5.19306,8.07965,-0.58068,-1.44558,7.85024,2.56917,7.87263,12.0703,5.09368,-284.504,-895.968,-342.576,140,-17080,1120
-1.67499,-2.65383,-4.66176,3.76423,-2.40263,-1.12288,-0.958718,-1.54355,-1.0511,-6.297,-4.17878,-2.04076,-0.416101,0.637389,2.24887,-2.38527,-284.016,-892.552,-341.6,1400,-18900,1820
-13.9807,-19.5096,-9.63805,-6.00593,-10.0107,-3.54838,-6.06762,-0.87182,-17.6472,-12.9497,-9.22275,-15.4729,-3.80356,-4.55593,-4.12367,-4.94314,-282.552,-892.064,-341.112,2380,-20300,2100
-9.80938,-10.2922,1.79634,1.48605,0.187947,0.151556,1.25935,7.35173,-12.7804,-3.34669,-5.64957,-7.93462,0.466028,0.514474,3.92161,5.04463,-283.528,-893.04,-341.6,3640,-21280,2660
7.04964,5.82187,9.77038,10.3121,6.69021,1.47375,7.25155,5.95196,7.66386,6.02751,1.87353,5.80606,2.64083,5.94976,11.7393,7.74781,-280.6,-894.016,-343.552,4760,-21840,3080
5.78334,0.757988,3.07098,3.96185,-2.32207,-1.61522,2.41849,-4.96727,7.44405,0.859092,2.53569,4.00121,-0.13111,0.691256,6.06895,-1.49551,-278.648,-893.04,-341.6,5740,-23100,3360
0.99643,1.08583,3.67413,2.37202,0.22176,-1.43097,1.68839,-1.60855,1.32775,2.04793,1.12745,1.87233,-0.876739,-3.32833,2.9808,1.04025,-278.648,-892.552,-340.136,7000,-24220,4060
0.165923,-5.88518,-2.22913,-3.97664,-7.70568,-0.909538,-2.61063,-4.49888,-1.36049,-0.996856,3.14095,-2.12167,-1.03784,-6.506,-6.15798,-2.9891,-278.648,-891.088,-343.064,7560,-23940,4340
6.058,6.17801,4.34324,2.65076,0.0237052,2.43181,1.24039,-0.195014,5.49128,6.88894,4.9781,5.14988,4.87652,-1.9902,-3.72729,1.67618,-276.208,-890.6,-343.552,7980,-23100,4340
1.88318,2.59179,-1.4379,-0.369028,-2.56107,1.08709,2.51236,-1.47279,1.37629,0.7828,0.337843,-1.30257,1.04094,-3.23022,-0.0552488,0.0500034,-273.768,-893.528,-345.992,7840,-21560,3920
0.311288,1.00403,-3.21509,-5.32284,-1.68223,-1.38407,-0.919692,-0.106136,-0.437838,0.562766,-1.74783,-2.79894,-0.165247,-3.68649,-3.48029,-1.03125,-273.28,-893.528,-346.48,7420,-19600,3360
-0.496872,-1.22464,-3.59444,-6.61657,-3.12794,-1.13409,-4.21712,-0.630369,-0.901451,-0.560316,0.178083,-2.24956,0.546691,-1.98235,-7.67042,-2.70558,-270.84,-896.456,-352.336,6720,-16660,2520
-6.3996,-9.43133,-11.0234,-9.83759,-8.51615,-2.51005,-6.4103,-3.92704,-8.95729,-6.80765,-2.38033,-7.30216,-3.73543,-3.48618,-11.1993,-5.07957,-271.816,-891.576,-347.944,5880,-14980,1960
-2.3138,-3.79427,-7.09256,-3.35248,-0.505886,-1.63964,-0.35228,-1.12726,-3.63397,-2.3474,-2.38676,-2.53169,-2.92678,-0.279702,-4.06164,0.848938,-267.912,-888.648,-355.264,4340,-13020,1400
3.72695,1.39375,0.921365,4.23642,5.44785,0.35763,4.29235,0.327881,1.79611,2.90825,-1.5911,1.76129,-1.89561,4.14279,1.20431,1.53023,-271.816,-886.696,-355.264,2660,-8820,280
5.83964,4.26297,4.54521,9.79255,6.06274,2.40538,7.33189,0.292821,4.68737,1.9761,-0.45715,3.75702,-1.75688,6.07625,4.01336,1.26343,-273.768,-887.184,-356.24,840,-6580,-280
2.97098,4.56995,5.793,9.27222,6.93175,1.44825,5.04591,0.10553,2.28442,3.59905,-0.401398,1.41742,-1.68612,2.73669,4.52296,1.96218,-274.744,-885.72,-353.8,-840,-4620,-840
-2.55313,-1.37044,0.400358,2.98685,-0.586652,-0.895818,1.45441,-5.02897,-1.58716,-2.52435,0.0503733,-3.93991,-2.61299,-1.33522,2.58918,-2.12266,-274.744,-887.184,-355.752,-1540,-3640,-1120
0.168297,2.90161,2.95093,1.96267,2.15215,-0.504945,3.02815,-3.34384,0.885612,1.53856,2.84049,-0.551602,-0.805206,-0.681009,4.08171,-1.96249,-277.672,-885.232,-353.312,-2940,-1680,-1400
-4.87956,-2.07218,-0.203422,-5.67713,-2.36517,-1.69565,-2.14155,-5.09455,-6.06355,-1.31222,0.422423,-3.61815,-1.18439,-4.00669,-1.15149,-6.65907,-279.136,-881.816,-353.8,-3500,-420,-1680
0.826829,3.61875,2.91995,-0.907512,1.95225,0.737729,-1.50361,-3.7731,0.940382,2.32999,1.90429,4.15831,2.95051,-0.837997,2.93502,-3.91151,-279.136,-880.84,-352.336,-3920,-140,-1820
0.673558,4.97984,4.07362,1.25057,5.58248,1.81717,-1.04275,1.96411,3.09526,4.29409,1.84104,6.12571,4.36345,0.757113,3.54236,0.658441,-282.064,-880.84,-353.312,-3920,-140,-1960
1.33655,-0.744604,-0.24551,-3.90001,0.0841231,0.208944,-2.31052,1.93429,2.98304,-0.266159,1.84938,3.17787,1.46093,0.789861,-1.81299,-0.537647,-281.088,-883.28,-352.824,-3360,-280,-1960
0.362184,1.21845,1.24189,-6.13874,-0.822974,-0.337603,-5.26058,4.20434,0.183333,-1.09461,1.66509,4.36325,2.09688,-0.889105,-6.24277,-0.0521,-283.04,-886.696,-351.848,-2660,-840,-2100
-10.1253,-10.5794,-6.11251,-14.4261,-9.49997,-1.71834,-12.2314,1.55293,-13.5512,-7.53447,-3.66232,-4.82429,-1.98648,-4.2607,-13.223,-4.12197,-280.6,-886.208,-353.312,-1680,-2240,-1820
-2.56976,0.856293,-2.91105,-0.759408,-0.522057,4.48601,-1.75892,8.12094,-1.8147,-2.83669,-2.71775,3.06672,0.372286,3.71524,2.18576,7.008,-279.624,-882.792,-354.288,-700,-2800,-2100
4.28948,8.5624,1.68153,9.578,6.30198,6.02382,3.88437,10.9878,9.34584,0.828863,-2.24081,6.94371,1.03682,7.66578,11.0097,10.2949,-279.624,-880.84,-354.776,140,-3500,-2240
7.06421,9.44295,2.33982,12.5089,6.44445,4.53443,5.24765,6.88488,10.8973,2.22687,2.5786,6.49983,1.44579,3.65778,10.9247,5.99162,-277.672,-882.792,-349.408,980,-4200,-2520
-0.0115293,1.21714,-2.00957,6.06963,-0.482283,1.19716,1.32855,0.950406,1.9875,-1.04572,4.25774,1.41099,0.745787,-0.62108,5.18591,0.739216,-280.6,-883.768,-355.752,2380,-5460,-2380
-6.77733,-8.46183,-6.37884,-5.32099,-8.64085,-3.89464,-7.98748,-3.54099,-8.70642,-6.75077,2.85287,-6.59419,0.638154,-3.81274,-6.26698,-5.42855,-275.232,-886.208,-355.264,3220,-6020,-2240
-8.16835,-15.9259,-10.6102,-14.0443,-15.6784,-8.13028,-14.3421,-9.02092,-10.5699,-5.95521,3.89773,-11.557,1.71556,-6.47047,-14.6871,-10.2952,-274.744,-884.744,-354.776,3920,-5600,-2520
-7.829,-13.1916,-7.30653,-13.459,-9.37094,-7.82626,-11.2488,-5.44488,-9.67588,0.544207,-0.00250065,-10.7237,0.791473,-4.4688,-14.8304,-6.39478,-274.256,-885.72,-357.704,4060,-4340,-3080
2.81214,-3.10827,0.735917,-0.221869,-0.392353,-1.63893,2.94805,-1.77009,1.35478,4.91505,-0.181714,-1.9706,0.635514,5.54141,-0.54915,2.68015,-272.304,-889.624,-359.168,4200,-3080,-3640
29.9813,31.5443,23.0779,30.0836,27.7968,8.21731,30.6638,13.1172,30.5331,24.2224,2.4122,24.0851,5.95137,19.6782,28.8282,24.3183,-277.184,-882.792,-357.704,3920,-1680,-4060
28.8339,29.6624,17.4506,27.4342,23.372,6.31048,29.163,8.03348,29.1455,18.7039,-0.418131,21.1541,3.08374,13.157,28.2462,19.105,-272.792,-887.184,-357.704,3500,-1120,-3920
5.28934,13.6017,6.07244,9.19236,8.66643,1.97642,10.3174,5.08268,7.21524,0.651359,-6.48114,2.54196,-0.181124,-0.3294,11.3521,6.4095,-274.744,-886.696,-358.68,3080,-140,-4060
-24.3167,-17.4006,-12.2068,-17.7691,-15.7179,-6.53777,-12.2183,-5.25645,-22.2925,-23.1318,-14.3035,-25.0704,-7.66561,-14.3984,-10.5872,-13.476,-273.28,-885.72,-360.144,2940,140,-3780
-32.9419,-32.8271,-15.7041,-28.9993,-24.0154,-6.98583,-19.6239,-7.53018,-33.5787,-24.0116,-13.1344,-32.8609,-9.07717,-16.7795,-21.3765,-19.3642,-273.768,-884.744,-361.12,2520,280,-3780
-22.776,-24.2197,-8.53431,-22.7204,-15.9063,-1.92129,-13.9884,-4.42819,-23.5197,-14.3029,-6.24266,-20.434,-4.48859,-10.6192,-19.8061,-11.3237,-275.72,-885.232,-360.144,1960,560,-3640
-5.09864,-8.00041,1.67587,-8.62631,-3.23066,1.22131,-2.80095,-5.60974,-5.60145,-0.241558,2.56539,-2.80706,0.401642,-0.78143,-10.5836,-5.11007,-276.208,-887.184,-360.632,1400,1120,-3640
18.9225,18.9789,18.7627,16.8918,17.0176,5.97316,16.5556,-2.81754,20.8396,18.2607,17.1,21.3979,10.5748,12.4507,12.3516,8.33851,-275.232,-888.16,-357.704,560,2240,-3920
21.326,22.2151,20.2458,21.6937,19.9485,3.02461,18.8026,-0.511192,20.5163,21.8045,14.9179,24.5473,10.1615,12.3794,14.8113,9.16926,-276.696,-891.576,-359.656,-840,2800,-4340
6.345,3.17693,4.33677,5.67026,1.76518,-1.39855,1.93555,-2.67872,2.63214,6.08088,2.25109,10.8497,-1.46916,-1.20854,-3.02501,-4.61123,-275.232,-891.576,-357.704,-1820,3080,-4200
-4.93153,-5.46332,-7.02695,-4.5461,-9.05065,-5.19241,-10.5703,-5.7655,-9.23119,-2.3921,-5.19771,0.489166,-7.37115,-9.08325,-11.3341,-11.6027,-276.696,-891.576,-358.192,-2940,3080,-4060
-13.5752,-14.4472,-19.311,-13.656,-18.2871,-6.34553,-18.1601,-8.89784,-16.1333,-14.5798,-9.43294,-10.1234,-13.2397,-13.5537,-16.7316,-14.3338,-278.16,-893.528,-354.776,-3500,2940,-4060
-5.08537,-10.7706,-17.4718,-10.9227,-12.4296,-4.03422,-14.964,-5.35148,-4.98768,-10.91,-7.63458,-7.81476,-14.0379,-8.60539,-14.4116,-6.08295,-278.648,-895.48,-355.264,-3920,3500,-3920
1.83551,-0.964096,-6.63058,-1.97866,1.37537,1.88359,-4.40368,5.43971,3.35591,-2.7578,-5.54045,-1.19881,-9.16767,-1.07888,-4.08147,5.12732,-279.624,-897.92,-356.24,-3080,2800,-3360
-2.83969,-5.51256,-5.02717,-1.55818,2.53219,3.5996,-1.36467,5.95969,-3.42413,-7.15085,-3.37842,-4.16907,-5.00222,2.05341,1.92155,5.43285,-278.16,-896.456,-357.704,-2520,2800,-3220
-1.16289,2.3031,0.28866,5.79267,8.70166,4.58591,4.55128,10.5988,-1.35423,-2.20627,0.403906,-1.30803,2.45373,4.91152,9.7978,11.3554,-276.208,-896.944,-355.752,-1820,3220,-3220
-3.00305,-5.36771,-4.03668,-2.83572,-1.41376,0.239413,-1.22266,1.10351,-3.56929,-3.74086,3.60394,-6.85611,2.68768,-0.741176,4.73082,2.78709,-277.672,-895.968,-355.752,-1820,4480,-3640
-4.36406,-4.98932,-1.55136,-4.85436,-1.16997,0.345465,-2.10738,0.0813676,-5.38601,0.303523,6.31714,-6.27411,6.89517,-1.74527,1.89405,2.28437,-274.744,-901.336,-355.752,-1680,5600,-4200
2.89089,4.26061,5.14534,3.47453,4.39491,0.902963,-0.542901,0.86668,4.06236,8.07158,8.90219,3.2882,10.3155,1.81178,2.94924,2.26378,-280.112,-897.432,-354.776,-1260,5880,-4200
14.6997,13.6305,9.42518,9.89912,4.67484,-0.885612,0.479345,-3.98801,17.1523,13.2244,13.4624,12.8805,11.7422,4.44009,3.37553,-1.62885,-281.576,-898.408,-350.384,-840,5600,-3920
17.0726,16.3549,12.6106,11.8633,7.14043,-0.375782,3.24065,-4.66171,19.9595,14.7438,13.8031,13.4089,11.9856,6.47777,5.78854,-0.588103,-284.016,-901.336,-350.872,-140,5600,-3920
13.7012,16.7713,10.346,11.9505,9.40202,3.52174,10.3009,2.42508,15.8189,10.8136,6.65753,10.9257,7.99574,8.82197,11.825,4.59053,-281.576,-901.336,-350.872,280,5880,-3920
22.2913,28.7789,14.3081,25.1496,19.7098,11.1089,25.3408,11.3289,25.8359,15.1822,5.0556,21.5663,8.09892,16.7127,27.8354,16.1906,-283.528,-897.92,-350.872,560,7280,-4200
25.8646,34.7819,19.5901,31.4542,27.5139,11.7466,31.0773,16.3736,30.5847,18.8307,3.83528,27.1555,8.33008,17.6126,34.5695,21.7499,-284.016,-898.408,-350.384,1540,7980,-4480
-4.50775,-2.17985,-5.08669,1.82379,-0.959792,2.90394,8.51908,5.23352,-1.92468,-9.51576,-8.69584,-1.56913,-3.90485,0.237902,7.34955,1.44602,-286.944,-897.432,-346.48,2380,8120,-4620
-21.3691,-16.6449,-10.6921,-12.061,-13.1017,-4.58668,-8.0721,-0.41365,-18.8514,-18.1409,-11.4768,-15.8612,-7.82064,-9.56962,-10.6126,-11.596,-284.016,-896.456,-351.848,3500,8540,-4620
-19.0354,-22.7435,-9.59335,-20.3545,-21.0446,-7.42359,-18.452,-7.81725,-18.503,-13.0235,-4.94428,-19.2709,-5.51615,-11.0544,-22.0462,-18.7748,-287.92,-895.48,-350.384,4060,8540,-4620
-7.93477,-14.417,-0.832614,-14.3314,-11.3986,-1.96152,-12.4352,-2.24829,-10.3926,-3.42943,-5.21,-10.1442,-2.31514,-3.40363,-17.2853,-10.0578,-283.04,-891.576,-346.48,4760,8680,-4760
-5.80141,-14.016,-5.86258,-10.7113,-8.60433,-0.565035,-6.43519,-1.36003,-8.32105,-7.96159,-9.52177,-9.19733,-5.4526,1.08875,-11.1359,-3.87843,-283.04,-893.04,-348.432,5180,8400,-4760
-8.37625,-12.7402,-7.487,-11.6488,-5.84669,-2.29771,-5.0852,-2.13431,-10.6629,-8.33106,-6.54942,-10.0808,-3.88281,0.305946,-10.4258,-0.403657,-284.504,-893.04,-348.432,5740,8260,-4760
-16.4834,-17.6208,-9.29472,-19.1744,-10.5452,-5.54158,-10.329,-8.5406,-19.2538,-9.64987,-4.10984,-15.884,-3.58966,-6.63386,-15.1903,-4.09589,-284.016,-892.552,-350.872,6020,7700,-4620
-19.575,-22.7341,-12.4369,-23.8922,-14.9769,-10.5468,-17.8272,-14.5421,-25.4029,-8.95592,-5.8667,-19.9885,-6.80045,-13.1841,-18.3371,-13.4414,-285.48,-890.112,-347.456,6160,7700,-4620
-2.85984,-3.0935,-3.58712,-6.29209,-3.00377,-6.66045,-7.28953,-9.38566,-5.87774,-0.00711931,0.746278,-2.20196,-1.2218,-9.00576,-2.2793,-5.36584,-284.016,-887.184,-348.92,6300,6860,-4620
4.83724,8.27922,5.17589,2.79003,4.87128,-2.9726,-1.92651,-2.33015,3.75313,8.60489,2.94907,7.0388,2.02533,-3.87754,1.78257,1.84917,-281.576,-885.72,-346.48,6580,6020,-4760
-17.8791,-14.3947,-9.5352,-13.7123,-12.7215,-6.21711,-11.4785,-2.31796,-21.2361,-11.6699,-6.07282,-10.6187,-6.4212,-10.7981,-11.0894,-6.09261,-294.752,-882.304,-338.184,7420,4480,-4060
-22.2219,-19.1623,-11.5192,-12.0948,-13.0796,-2.72463,-6.99518,1.06702,-27.8194,-14.5251,-8.16414,-12.6456,-7.76002,-7.82374,-6.80291,-2.66844,-294.752,-886.696,-334.28,11620,-3640,-1120
-3.44967,-0.54579,-0.0717942,1.82308,-0.658224,4.14715,2.43816,7.1465,-6.40166,-2.02339,-4.60722,1.19572,-2.88399,0.252845,2.58981,5.33024,-295.24,-878.888,-328.912,16520,-11060,1120
8.09647,11.769,6.35252,11.9939,9.15152,8.04664,9.00118,9.70509,8.17642,3.62565,-0.951163,10.1675,-0.0514552,5.94064,8.15149,10.3657,-283.528,-883.768,-331.352,22820,-19180,4060
21.8968,23.4732,14.5355,23.4348,19.5813,8.96979,17.0642,12.4808,24.8958,14.2355,8.33904,21.4432,3.19698,12.861,17.3249,13.493,-283.528,-889.624,-333.304,26040,-20020,4060
33.0783,28.9617,17.5034,29.3786,22.3846,7.32006,22.0973,6.52161,38.092,19.7857,17.348,28.0411,8.60008,15.1303,22.4827,16.107,-283.528,-896.456,-336.232,28140,-21280,3920
29.9523,36.1335,21.3791,34.323,27.8747,5.8522,28.3214,6.24372,37.5666,21.1512,13.6811,29.8384,10.0159,15.9956,28.8446,19.7409,-284.504,-893.528,-337.696,30380,-22540,3780
18.4656,22.3245,9.63556,21.3365,16.2591,-0.284456,17.5121,1.27136,24.4474,12.2446,5.29161,17.5623,0.300971,6.992,19.9725,7.88233,-280.112,-894.016,-343.552,30660,-23240,4200
13.0731,13.6859,0.120489,10.1224,5.15016,-3.0649,6.25936,-1.32724,15.646,5.59148,1.95048,8.31692,-2.83015,-1.974,8.75627,-0.681862,-276.696,-895.48,-350.872,28700,-23100,4060
3.30635,-0.258789,-8.12354,-5.48515,-7.18219,-5.15577,-6.75646,-7.54219,5.23157,-2.66446,-0.247294,-4.95164,-3.8421,-6.08638,-5.27044,-8.97652,-274.744,-893.04,-351.848,25480,-21840,3920
-6.74825,-12.2753,-10.0301,-11.934,-10.6046,-1.5306,-9.66785,-3.93834,-6.59654,-8.27762,-2.64561,-13.8458,-0.702339,-5.60209,-12.5463,-7.70517,-280.112,-898.408,-358.192,22680,-20440,4060
-8.02634,-13.8822,-5.47472,-9.24866,-8.17321,3.8647,-6.24732,0.209222,-9.09923,-6.01023,-0.121091,-12.8836,5.10941,-0.291236,-11.9071,-4.55777,-281.576,-897.92,-354.776,18900,-18620,4480
-4.45536,-5.92007,3.23975,-2.8283,-0.541972,4.52345,-3.71511,-0.198926,-7.16407,-0.608485,1.66622,-5.97321,7.32673,1.86111,-9.32133,-3.82927,-279.136,-898.408,-360.632,16380,-18200,4900
-13.9045,-11.3824,-4.15243,-5.16663,-3.57043,1.19098,-4.31273,-2.254,-16.5288,-10.051,-5.05117,-10.0183,1.49936,-1.27664,-7.69317,-5.54433,-278.648,-899.384,-362.096,13300,-15960,4760
-14.2198,-11.2359,-5.4938,-8.77729,-4.4299,1.3573,-8.00104,-0.513704,-17.2458,-6.29668,-4.13588,-9.65546,0.493437,-2.69418,-11.2174,-4.20248,-280.112,-901.336,-359.168,10220,-14000,4340
-11.3068,-16.9784,-10.6811,-19.5602,-15.5983,-3.98113,-19.5985,-10.9196,-13.5919,-4.93332,-0.280951,-12.8816,-1.61182,-8.77792,-22.5658,-13.7781,-281.088,-897.92,-360.144,9240,-13020,4060
-8.10717,-8.98162,-4.10681,-15.5381,-8.63236,-3.26839,-16.0163,-5.36296,-7.00102,-0.266483,1.15663,-8.37283,0.29082,-6.94883,-16.1939,-9.43362,-278.16,-896.456,-358.68,8820,-11480,3360
-6.98123,-6.93412,-0.932348,-9.37832,-5.68646,-0.0607605,-8.08268,0.132527,-5.07855,-3.05046,-1.7008,-6.19588,-0.447419,-1.76872,-4.86007,-5.09744,-278.16,-891.576,-360.144,8400,-11200,2940
-2.92191,-0.776886,1.79938,-2.92534,-2.02547,0.84105,-3.80173,2.00999,-1.29238,-0.612942,-1.88474,-0.874661,1.15138,-0.301722,3.0572,-3.20098,-278.16,-888.16,-356.24,8120,-12600,2800
-1.96976,-0.502491,0.583397,-4.76813,-4.17313,-1.57603,-6.05956,-0.924613,-2.81964,1.77499,0.649571,-0.759833,0.386607,-1.18236,1.05262,-6.11101,-279.624,-886.696,-352.824,7420,-14700,3220
-1.12828,-0.637007,-0.425232,-2.57189,-1.96509,-2.95773,-0.477808,-2.48183,-3.1231,2.11777,-0.328037,-0.0640319,-1.69012,1.3344,3.96135,-2.26726,-278.16,-887.672,-350.384,6720,-15820,3780
7.00178,8.76594,6.75979,9.5609,5.52894,1.13997,10.9823,2.4058,6.74264,5.12801,0.549082,8.25018,-0.311034,7.09501,15.2833,7.04176,-279.624,-880.84,-350.872,6440,-16100,3640
5.52487,5.14233,8.76597,5.1242,5.2185,-1.16236,6.49757,1.34092,1.91024,4.50695,1.06318,4.87594,-2.758,3.65678,9.4658,6.28259,-272.304,-879.376,-348.92,6440,-17780,3360
3.15892,2.2897,6.47462,3.25618,3.00419,-0.5081,7.71812,3.26368,1.12127,-1.97789,1.39986,3.06606,-4.02817,2.36841,7.92982,6.60313,-273.768,-873.032,-344.528,6860,-19460,3080
6.54195,7.11178,7.48102,9.65652,8.15451,1.45465,13.9517,6.28325,8.25095,1.79406,1.81437,6.71439,-1.62617,6.26008,13.7888,10.3674,-271.328,-874.008,-343.552,7700,-23240,3640
0.154992,-8.24582,-5.71537,-5.46392,-6.45806,-4.06361,-3.37897,-6.66663,0.706348,-4.99137,-0.00877332,-4.00605,-4.03364,-5.73601,-6.72565,-5.2765,-273.768,-875.472,-345.016,8400,-24500,4060
-3.09985,-8.78563,-7.54919,-5.73798,-5.94937,-6.54016,-6.49754,-7.43962,-2.83117,-5.22958,-3.84878,-5.79279,-6.35794,-8.83846,-9.85281,-7.3761,-267.912,-875.96,-342.576,9660,-24920,3920
8.95803,7.16915,2.81042,12.4834,9.4743,2.12997,10.6768,8.84368,10.2886,3.22165,-2.55702,9.55609,-3.45585,2.99289,9.43505,9.6318,-269.376,-876.936,-342.576,10080,-24220,3220
25.0158,23.3002,10.7575,27.6852,21.6573,10.3986,23.341,21.1704,27.9101,14.6105,0.119467,25.3257,2.87133,17.6004,25.5403,24.4356,-271.328,-881.328,-341.6,10920,-22960,2380
13.8404,20.2743,3.40904,22.3348,19.4566,8.45262,18.2824,19.7173,18.7123,5.85893,-7.86669,18.6363,2.54976,14.178,21.1111,23.1175,-273.768,-881.816,-343.064,11760,-21280,1540
-5.92137,-2.13919,-11.5172,0.335387,-0.763134,-0.358434,-0.434711,4.89941,0.804405,-10.7924,-11.5466,-1.20183,-2.40048,-0.011521,-1.9266,5.87834,-276.208,-883.28,-341.112,12040,-21000,1540
-21.3254,-13.3721,-15.3848,-12.9676,-10.8653,-7.21671,-12.4985,-4.61062,-16.0269,-14.2139,-8.29895,-12.6126,-0.119273,-12.2226,-16.0442,-4.62349,-272.792,-884.744,-342.576,11900,-20440,1260
-28.8401,-24.6205,-16.3592,-23.5242,-20.0986,-9.75676,-21.3924,-15.8953,-30.0244,-16.3018,-2.69734,-22.2807,1.57031,-15.698,-24.2716,-15.2565,-274.744,-888.16,-346.968,11340,-18760,840
-18.6171,-16.0147,-5.71824,-16.1031,-13.7853,-3.16688,-15.0636,-13.5521,-23.2437,-5.6302,4.65925,-13.2176,5.60654,-9.89517,-16.5298,-11.4758,-272.304,-889.624,-346.48,10220,-15820,420
-4.44367,-6.16805,1.82826,-5.83088,-4.47675,2.18006,-6.78691,-8.24622,-10.5096,5.90003,10.0589,-1.9226,8.78966,-2.38331,-7.75667,-4.85348,-278.16,-892.064,-349.896,9380,-13300,-280
22.2574,20.7709,16.2686,16.715,14.4094,8.05417,11.4697,-0.717373,20.8188,23.4063,20.7084,17.9985,14.2834,10.9691,11.9056,9.9711,-277.672,-893.04,-346.968,8260,-11480,-420
23.1802,23.2877,15.6007,18.3726,15.9497,5.65444,14.6865,-0.202944,20.7102,21.8269,19.1334,16.8099,11.0969,9.77384,16.6958,9.14429,-282.064,-894.992,-350.384,7140,-8540,-840
5.65045,7.25149,3.61582,4.43387,2.82048,-2.34196,2.82949,-2.61476,0.289422,5.17278,6.68277,0.402949,0.795767,-1.30579,4.90098,-5.45042,-281.088,-896.944,-345.992,5880,-6580,-1260
-2.26078,-1.77298,-3.29167,-5.85886,-8.77668,-3.33366,-5.95241,-2.4123,-4.93845,-5.5617,-2.34844,-8.74813,-6.64502,-7.06015,-2.52567,-13.383,-287.432,-899.384,-341.6,4620,-3920,-1680
-9.13602,-4.43369,-4.52616,-10.9545,-8.37559,-0.127021,-6.67957,6.05797,-9.82491,-10.2506,-12.4699,-14.8089,-10.3396,-6.82566,-6.06431,-9.74827,-285.968,-902.312,-336.72,4060,-2380,-1820
-16.0936,-19.4605,-13.8887,-22.0702,-18.3029,-0.421208,-14.9291,0.774054,-17.0166,-21.2026,-15.5509,-23.8694,-12.9801,-9.83129,-20.5861,-14.7431,-288.896,-904.264,-333.792,3640,-1540,-1960
-13.2033,-13.5129,-5.38354,-15.0318,-8.45639,1.95212,-11.3802,2.28247,-15.8142,-14.1339,-10.8661,-15.9245,-6.43658,-4.32994,-17.803,-8.08047,-287.92,-905.24,-331.84,4200,-700,-1960
1.9862,-0.496935,6.40333,-0.921954,2.52297,5.0774,-0.402308,-0.010223,-0.0742312,-1.94101,1.25296,0.358103,0.534089,6.58679,-4.45178,-1.83274,-287.92,-903.288,-328.912,4620,280,-2240
11.254,10.7172,15.2011,9.13484,14.2861,3.78202,10.2598,-1.77805,10.3334,10.2866,8.84415,12.7401,5.82519,12.4195,8.00993,4.62827,-291.336,-906.704,-331.84,4620,1820,-2940
-1.13241,0.0762932,0.51169,1.87043,2.50755,-4.83691,2.15928,-8.86011,2.32005,-0.645905,-2.31116,4.62596,-3.48907,-0.29534,3.45047,-6.29097,-289.872,-909.632,-331.84,4900,1680,-3360
-0.119093,-4.89308,-5.88388,-3.17812,-5.68909,-7.33943,-5.46201,-9.05175,5.86558,0.0383695,-2.92537,2.80693,-6.49849,-7.69414,-3.43942,-11.2898,-288.896,-908.656,-331.84,5600,1400,-3640
9.3274,1.73192,-0.781523,1.96872,-0.693634,-2.12739,-0.764996,-4.03126,10.2464,10.2399,3.29703,9.84011,-0.943019,-1.32429,0.179701,-1.58532,-289.384,-905.728,-334.28,5180,1120,-4340
13.0657,9.18631,4.72655,11.7777,9.30766,0.796248,9.44385,-0.010063,12.0164,12.2119,3.45933,13.6107,1.77851,8.24214,11.1746,11.3912,-290.36,-905.728,-337.208,4760,1400,-4620
12.1669,11.0312,4.41446,16.4313,10.8298,3.30469,16.0835,8.3265,15.0288,6.28068,2.26427,14.2212,1.80583,11.7638,17.2949,17.9758,-287.92,-905.728,-338.672,3780,2380,-5180
12.5928,12.4188,6.65007,14.4056,12.0414,2.55973,13.6476,12.7058,14.4055,11.025,4.28591,12.2005,2.51383,9.82117,14.7226,15.5419,-288.408,-902.312,-338.184,3220,2100,-5320
3.90183,4.4187,-0.262058,4.11133,1.8788,-0.4128,5.85774,5.0671,6.01889,3.04684,2.69456,2.34216,0.394089,0.132524,6.00897,6.26723,-286.944,-900.36,-338.672,3640,1820,-5320
-6.50722,-6.81814,-5.03157,-7.12181,-7.05747,-1.51922,-5.50484,0.549304,-4.54878,-4.04612,-1.02209,-8.58111,-2.91497,-6.74246,-6.51294,0.0375339,-287.92,-897.92,-339.648,4200,1120,-5040
-17.1536,-17.9313,-9.01293,-17.5566,-13.8139,-3.40377,-14.5062,-0.810653,-16.6644,-12.4352,-5.2114,-18.6178,-5.18473,-11.7484,-17.0672,-5.72125,-285.968,-896.456,-343.552,4760,1680,-5180
-7.82229,-6.81432,-1.2865,-8.30475,-6.37202,0.401245,-8.73628,-0.255446,-7.37807,-6.69008,-2.7659,-8.59462,2.5139,-5.10197,-7.35978,-1.84883,-285.968,-896.456,-344.04,4480,4760,-6020
-0.707237,8.59054,7.30158,8.43395,5.40639,5.09065,5.62674,5.7596,2.26291,0.114152,-1.30053,2.45398,8.92601,3.26686,9.58952,8.59809,-289.384,-894.504,-342.576,4200,7420,-7000
-7.5078,-4.86402,-1.38,-2.03967,-4.70493,0.68636,-1.08939,0.233168,-5.08825,-5.64802,-2.67946,-5.14336,4.65659,-0.886629,-0.237308,-0.476582,-286.944,-893.528,-342.576,3780,8260,-7560
-3.92193,1.48211,1.18648,0.631887,1.88894,-0.0791257,-0.258419,1.60667,-2.1968,1.70886,0.209402,-0.929526,6.07078,-0.0443598,2.06209,0.155796,-287.92,-895.48,-342.576,3360,8680,-7700
-4.01926,-6.36139,-8.30398,-6.46808,-6.71311,-2.94277,-7.82019,-5.57577,-4.08712,-2.88418,-1.01095,-4.92128,1.40682,-2.80955,-6.11454,-8.68352,-288.896,-891.088,-341.6,2940,8540,-7560
-11.5033,-14.356,-10.8901,-10.7389,-7.27089,-3.9049,-6.94516,-0.935287,-13.8489,-8.04927,-5.42268,-7.83306,0.534551,-2.39883,-7.95481,-4.79639,-288.896,-893.528,-345.016,980,9940,-8260
-12.7493,-13.2232,-8.34904,-10.0856,-4.71071,-3.26104,-4.20664,2.52119,-16.91,-9.65342,-7.79798,-8.45458,-0.259783,-1.14175,-5.16182,-2.2492,-289.872,-890.6,-344.528,-420,12040,-9240
4.74447,5.00028,3.74794,2.79472,6.0461,0.57494,1.6345,1.07898,3.44458,2.67753,2.46889,4.77724,3.1829,2.72386,4.96256,1.13229,-288.408,-889.136,-346.968,-3080,13160,-9660
13.2752,12.3961,10.3647,12.7594,9.9989,4.40685,8.45124,0.182023,13.5585,9.80966,7.1906,12.9734,2.03784,7.89589,13.4586,4.48647,-287.92,-885.232,-349.896,-5320,12600,-9940
13.3893,11.036,12.9889,10.9486,10.5386,3.6134,7.9759,1.74904,10.9555,9.80426,6.36528,12.1995,-0.613963,6.23569,9.90153,5.03787,-281.088,-884.744,-350.384,-6720,11900,-9940
11.3395,9.62014,9.49355,8.77713,8.17196,1.83844,6.76498,-1.10241,8.8845,3.24496,2.41028,9.59802,-4.04785,3.20102,8.37773,2.24233,-278.16,-882.304,-347.456,-8400,10920,-9940
11.3371,18.8771,11.9372,16.1294,15.988,4.63754,12.2695,3.03622,9.80423,7.62489,1.87786,12.4808,-2.10545,6.52854,14.7633,7.39816,-277.184,-887.672,-345.992,-9240,10500,-10080
-4.91123,4.6221,-1.32303,8.25107,5.42383,1.95696,8.14585,-0.547358,-6.70967,-3.9736,-2.18249,0.265474,-4.72314,0.518826,10.7946,3.92921,-275.232,-889.136,-349.408,-10220,9940,-10080
-0.0101632,8.97678,-0.561297,7.89826,6.36314,2.02092,7.00948,1.56503,-0.52335,0.668988,-0.372449,3.38268,-3.17421,0.903119,6.16919,5.06157,-271.816,-887.672,-344.528,-10500,8960,-10360
9.32467,5.06543,-4.22353,-1.09406,-3.2522,-0.443631,-2.58049,-4.86141,10.1891,3.71885,4.96525,2.05304,-2.25943,-0.628959,-8.40687,-3.28622,-272.792,-891.088,-349.408,-10780,8120,-10500
2.97041,-7.23353,-8.85297,-12.5634,-13.2207,-5.08697,-13.7911,-6.87994,-0.280367,1.4074,3.96788,-6.94205,-2.29211,-7.53862,-21.2308,-10.6545,-270.84,-891.576,-348.92,-10640,6860,-10500
-2.58503,-7.42635,-7.94251,-7.64453,-9.90599,-4.56994,-8.74299,-1.63666,-5.24212,-1.77563,1.89924,-7.88527,-1.20059,-7.34593,-13.1439,-5.64414,-271.328,-895.968,-347.456,-10780,6160,-10640
-7.04911,-14.7155,-9.18651,-13.1654,-14.9482,-5.38401,-13.4336,-6.50399,-9.28045,-6.46722,-2.13865,-11.2824,-4.35044,-8.40873,-19.354,-11.0734,-270.84,-894.992,-349.896,-10640,5180,-10220
-4.34435,-7.37118,-2.07539,-4.80877,-5.80248,-2.14057,-8.49521,-2.29459,-3.35496,-1.42255,-2.49203,-2.88156,-0.64663,-3.36684,-11.8813,-5.05349,-270.352,-895.48,-350.384,-10500,4480,-10080
-7.00821,-4.44672,-1.68403,1.91441,-1.14477,-0.632192,-4.41247,-0.590019,-3.73892,-2.70055,-2.16369,-1.44188,2.90784,-1.06591,-2.03036,-1.31258,-271.328,-899.872,-351.848,-10360,3920,-9660
-14.6795,-15.4361,-11.7777,-9.12141,-13.8269,-3.17397,-11.4861,-5.06854,-12.5953,-10.8043,-4.49468,-11.007,-1.76506,-7.18018,-9.6409,-8.48286,-269.864,-894.016,-349.408,-9940,3080,-9240
-5.29264,-7.68982,-4.98316,-8.71832,-7.64659,-1.02217,-7.2649,-1.24034,-3.43833,-3.61571,-3.26192,-4.91341,-1.04506,-0.199742,-7.80567,-4.76268,-272.304,-896.456,-352.824,-9940,2380,-8820
-5.31675,-6.37368,-1.53713,-7.09714,-3.89604,-0.381056,-0.149019,0.348551,-4.4471,-6.6389,-1.56417,-2.22942,-0.542536,3.11008,-1.24842,-2.62744,-270.352,-897.432,-353.8,-9240,2240,-8120
-12.2893,-13.0954,-2.20764,-13.5883,-5.77819,-3.1659,-4.09422,-0.29655,-13.3194,-6.72663,-3.00356,-7.66718,-2.63058,-2.21357,-6.52581,-5.4894,-269.376,-896.456,-349.896,-8820,2240,-7420
-14.2973,-18.6819,-5.12764,-21.2816,-10.9751,-4.5659,-10.0223,-4.87683,-16.2661,-7.93794,-3.77899,-12.6975,-3.64171,-6.34609,-16.5161,-11.3621,-272.792,-899.872,-355.264,-8120,1960,-7000
-0.890282,-4.38634,1.76078,-6.64598,-0.136498,0.502732,3.38593,0.0853573,0.426772,2.84805,-0.392947,-2.22759,-0.293677,0.314549,-1.33361,-1.66698,-276.696,-901.336,-350.384,-7280,2100,-6300
4.81409,6.17297,5.00339,2.6012,6.4358,1.95825,9.43076,5.83208,7.16912,9.17828,0.457211,1.04289,2.40293,0.214372,6.8187,5.86395,-278.648,-904.264,-356.24,-6300,2520,-5740
8.35835,11.9006,5.30955,12.8258,9.35234,6.40947,16.925,10.3668,11.5162,6.40394,0.105448,4.62887,3.0363,6.18062,17.6684,12.786,-280.6,-900.848,-356.728,-5320,2940,-5320
22.9406,32.9035,20.9777,30.1672,25.6981,13.9838,27.6604,19.1916,28.0237,16.1962,5.07628,21.9505,8.13015,15.4624,32.5747,25.7973,-274.744,-894.016,-360.144,-4340,2520,-5180
13.6332,21.1909,14.6572,20.0005,14.8179,8.27709,14.7361,8.51791,15.3698,7.56823,-0.358917,12.4905,3.50001,9.39646,21.9397,14.4447,-277.184,-892.552,-361.12,-3640,2660,-5180
-0.413288,6.26785,6.24727,5.63116,3.32988,3.50834,1.25626,4.59061,-0.968377,-2.93951,-4.65621,0.991983,0.914783,0.973673,7.68702,5.95481,-271.816,-888.16,-360.144,-2240,2240,-5040
-0.937317,4.10687,5.00381,5.6792,6.77763,5.60626,4.22451,6.51905,0.0300626,-2.93922,-2.20105,2.17972,2.23113,6.09941,9.08455,9.91551,-275.72,-885.232,-362.096,-1400,1540,-5180
21.3759,24.608,19.6219,25.9734,27.3254,12.4038,22.4141,10.3111,23.9075,15.9961,12.4439,25.0823,12.5769,21.4371,25.9984,23.5867,-276.696,-885.232,-361.12,140,980,-4900
28.469,25.7182,17.2615,25.81,25.5452,2.62434,17.3521,-0.201985,28.9499,19.7707,14.9888,27.2116,11.1544,11.5007,24.2068,14.9051,-279.624,-881.328,-360.632,1540,700,-4620
17.0565,16.9286,3.11931,18.4175,12.1524,-8.21259,8.34954,-9.38896,21.0574,7.92785,8.72049,13.8686,3.39872,-3.91047,18.8115,2.44638,-277.672,-880.352,-356.728,2100,-700,-4480
-0.406516,-6.25618,-15.3398,-6.62078,-16.4768,-15.79,-16.9831,-23.4538,3.59062,-5.60453,5.09155,-8.45885,-3.6805,-19.7135,-9.31268,-19.5036,-278.16,-878.4,-352.336,4200,-2520,-4200
-17.6852,-24.3308,-19.5103,-29.3309,-30.7243,-17.3638,-35.71,-24.5591,-22.3276,-10.1196,-3.26284,-26.0392,-7.27,-26.2861,-35.4979,-30.5781,-282.552,-878.4,-349.896,5460,-3780,-3780
-30.3354,-41.9594,-25.7728,-45.1412,-40.6223,-14.4909,-42.0901,-25.6949,-41.4297,-19.9653,-9.81541,-34.3468,-11.0239,-25.936,-49.861,-35.4275,-281.088,-880.84,-350.872,7280,-4340,-3920
-19.8349,-25.1398,-11.4341,-29.1771,-18.5859,-3.35216,-22.407,-7.82766,-30.1682,-8.65278,-8.40703,-17.7878,-5.40047,-10.7298,-31.5776,-16.4117,-282.064,-879.864,-349.896,8400,-3500,-4480
-4.5652,-7.10199,-2.36665,-6.07388,0.309182,6.81098,2.85858,8.16903,-11.4232,-2.75961,-2.16417,-0.322501,0.401744,7.0421,-4.07791,2.31333,-283.528,-880.84,-348.432,8820,-2940,-5040
1.41125,2.99073,1.821,7.3538,9.89759,10.2838,14.2479,16.773,-1.71008,0.680498,-3.9793,8.92308,-0.383019,14.3637,9.14141,12.6847,-284.504,-883.768,-345.504,9660,-1960,-5880
-6.06676,-1.4768,-2.38875,4.83748,5.73497,5.76068,13.8504,15.1133,-9.04036,-5.27307,-6.19439,3.44765,-5.31493,11.3528,8.04599,10.9877,-292.312,-876.448,-344.04,10080,-2660,-5880
-8.9942,-1.04285,-7.13275,3.49734,1.99524,-0.253004,7.94574,6.19936,-7.90601,-10.0813,-6.10837,-1.85072,-6.85784,5.7717,4.10835,2.78094,-299.144,-882.304,-336.72,12180,-7560,-4340
-8.13394,4.34534,-5.089,3.80364,0.729464,-1.38343,2.90975,7.20492,-0.405967,-6.63289,-2.01199,-3.29453,-3.66386,-0.58311,2.12844,1.31304,-301.096,-881.328,-332.328,16100,-16240,-1540
-8.97484,-8.70862,-6.50238,-9.01417,-10.943,-4.54108,-9.87688,-0.5924,-7.17928,-4.02382,-0.189612,-10.1025,-3.88964,-5.99579,-11.9666,-9.97364,-295.728,-876.448,-331.84,19880,-22260,280
-5.90549,-6.73707,-0.555487,-4.16559,-6.95601,-2.08857,-6.25655,-1.83574,-3.69738,-2.51306,-0.32519,-5.124,-1.13471,-2.32268,-8.54312,-6.49008,-290.848,-885.72,-338.184,23940,-27160,2240
0.828275,-0.998551,1.94329,0.226403,-0.0603264,-0.972715,-4.03407,-0.212215,1.41554,1.90108,0.294638,-1.596,0.91113,0.119523,-4.34132,-1.32939,-292.312,-886.208,-339.648,25480,-27160,1960
5.13859,1.44212,0.829779,0.918998,-2.07976,-1.72078,-6.14545,-4.0105,7.44891,0.760448,2.26242,-1.31094,0.463979,-1.21268,-4.79476,-3.27881,-290.848,-887.672,-343.552,27860,-29120,2100
11.4936,9.43495,11.5205,8.01655,6.56642,1.05526,-0.145178,-0.183945,13.425,9.2484,8.50569,6.30738,6.18032,4.03443,4.10237,2.52124,-289.384,-888.16,-341.112,29820,-30940,2100
6.04309,1.7762,10.5313,1.043,4.25624,-0.649927,-3.08271,-2.01941,4.1127,6.28982,6.98367,3.86383,6.41989,2.21796,-0.293768,-0.138431,-283.04,-888.648,-350.384,29540,-31500,2240
15.6573,11.637,11.6841,8.43442,10.3227,3.20355,5.79144,3.73825,18.8698,11.6204,5.22012,11.8132,6.11792,5.5727,7.518,6.12902,-282.552,-890.6,-350.384,27580,-28700,1680
31.2363,31.3933,14.9914,27.4922,25.3424,12.3723,26.3557,17.7154,38.3425,18.948,-1.95691,27.4189,4.9311,15.7604,31.4156,20.0749,-284.992,-901.336,-352.824,24780,-26040,980
15.2208,16.3159,-2.81903,15.8798,10.8967,4.79686,17.6149,8.23067,23.9539,2.51616,-10.4348,14.5667,-4.39328,5.4555,23.6702,10.08,-281.576,-903.776,-353.8,21700,-23240,140
-3.85271,-0.489462,-10.2715,1.54935,-0.992404,-0.111103,3.9121,-0.381688,3.10486,-7.84221,-7.30321,-0.425064,-2.65946,-5.01752,8.10353,2.45018,-280.6,-901.336,-352.336,17640,-20160,-560
-17.7261,-20.4064,-13.7046,-14.6071,-15.9686,-2.6386,-9.69343,-11.0341,-17.144,-14.3367,-1.535,-16.6426,-0.413179,-7.83221,-8.42031,-8.05312,-278.648,-906.704,-357.704,14420,-17920,-840
-5.06018,-7.34003,2.79806,-2.78118,-6.36349,1.10834,-3.87856,-8.76617,-9.05209,1.00422,9.49376,-3.98421,8.49567,-2.20816,-1.10389,-2.11684,-277.672,-900.36,-359.168,9660,-15400,-1960
1.1654,1.1345,9.9974,6.62257,2.92177,3.18339,5.00684,-4.72737,-5.95714,7.46509,9.28895,7.67085,6.36988,1.76852,7.77721,3.86152,-274.256,-903.288,-351.848,7000,-14840,-1960
-0.303891,0.359596,6.49224,4.10764,2.04657,1.49944,6.82388,-1.84473,-7.90929,6.08758,5.27268,5.53475,0.978115,-0.396814,5.23923,5.10033,-277.672,-906.704,-346.968,3920,-12880,-1960
-4.35538,-4.60931,0.797026,-5.55079,-3.59608,-2.26328,-2.32798,-3.74176,-10.4294,2.33643,2.66572,-2.26377,-2.71259,-4.44344,-8.17232,-0.0882265,-278.16,-904.264,-344.528,2660,-13020,-1540
-8.09676,-10.7406,-2.88441,-14.511,-9.22927,-6.06533,-11.6798,-7.36988,-14.8811,-1.38316,1.74778,-8.64568,-6.38074,-8.02222,-18.9643,-6.72077,-267.424,-897.92,-347.944,2380,-14280,-1400
-5.84756,-6.82397,-3.06745,-8.75929,-5.44249,-3.08104,-5.00171,-2.90402,-9.23614,-2.43401,-0.272337,-5.84779,-6.31186,-4.41733,-11.6608,-3.2039,-265.96,-894.504,-342.088,1960,-15260,-1820
5.62764,6.21832,3.01555,-2.55553,2.58541,-0.190631,-2.742,2.06809,6.77646,8.15926,-0.325219,1.42894,-2.55256,1.32575,-9.55,-0.655723,-269.376,-894.016,-340.624,1540,-14980,-2100
8.18605,6.09438,-0.0523322,0.0130008,0.489672,-1.51146,-1.97632,1.41718,11.6728,2.64978,-2.27286,0.806588,-2.76231,1.03927,-3.22122,-2.60452,-273.768,-890.112,-337.696,1820,-14980,-1960
-5.29396,0.264899,-3.43534,-4.77732,-0.109788,-2.51667,-1.13698,5.39345,-3.49195,-6.76052,-9.41329,-7.69007,-5.83738,-3.80573,-1.1071,-1.80285,-271.816,-889.136,-335.744,2100,-17220,-1120
-27.1883,-20.419,-16.2064,-22.3812,-14.0305,-5.67551,-9.93789,0.65404,-27.5409,-23.9798,-17.0088,-25.4525,-10.8176,-10.0363,-13.0845,-9.92296,-271.328,-886.208,-335.744,2240,-18060,-560
-25.3922,-13.7727,-11.3394,-17.9145,-8.18951,-4.13832,-7.95834,2.40139,-24.2716,-21.2694,-13.6819,-21.1622,-4.99237,-6.47184,-10.6375,-8.29589,-273.768,-887.184,-336.232,2240,-18060,0
-5.05555,-1.13855,-2.6199,-3.7369,-3.69897,-0.118478,-3.09551,-2.81309,-2.40754,-5.98153,0.851344,-6.33334,6.19296,-0.41648,-1.79943,-8.52434,-275.72,-885.232,-334.768,1960,-18200,420
6.90836,7.98825,7.23896,10.2803,8.62905,4.06883,7.81561,0.789216,7.95667,7.49134,7.49176,6.36915,11.741,7.00683,10.3183,0.763409,-272.304,-885.232,-335.256,2240,-18340,1120
9.12779,3.32611,7.43862,5.59383,5.83499,2.85038,2.82233,-1.54922,8.32126,9.22675,10.9479,5.8384,11.9007,5.54779,2.93744,0.811876,-272.792,-884.744,-339.648,2520,-17500,1400
3.73497,-7.5069,-0.710678,-3.50713,-3.58938,-1.50567,-6.89776,-5.08534,0.629084,1.38107,4.80597,-2.9501,6.35439,1.18326,-5.02455,-5.03582,-277.672,-885.72,-336.72,2660,-16380,1540
6.08875,-2.18144,0.389809,-0.143444,-4.24048,-1.36632,-6.71854,-1.98428,5.49121,-0.983929,3.14619,0.948265,2.95773,-0.435332,-1.11166,-1.2833,-280.6,-889.624,-337.696,3500,-16520,1680
16.6577,14.6148,9.78044,17.7723,11.8597,3.76861,10.0171,5.47269,20.7215,8.13203,6.47681,14.2628,3.63414,9.23339,18.7843,14.3545,-277.672,-889.136,-337.696,4620,-17500,1960
14.289,13.3007,4.63349,21.8046,11.6195,3.92285,15.6905,5.83856,15.6751,4.10067,3.38772,13.8978,-1.65376,7.77855,24.6425,16.2056,-278.648,-894.016,-340.624,5600,-18200,2240
9.42199,7.45716,-2.33608,12.0975,2.8837,-0.199767,3.22082,3.08507,7.7485,2.55958,-1.4774,9.71813,-5.58658,0.442442,8.64967,4.50183,-280.112,-896.944,-341.6,5880,-16100,1680
6.06752,13.5449,0.835455,14.5134,9.03486,5.80169,8.67809,12.6487,7.88849,-0.493907,-7.09843,13.7281,-4.87678,4.55032,8.91032,10.7701,-281.576,-899.872,-343.552,6020,-15120,1120
0.168105,6.32409,-0.614948,5.64882,5.9208,6.21918,5.33196,9.97819,0.731422,-2.33256,-5.88331,10.8353,-4.21034,3.74658,-0.553411,10.8788,-275.72,-898.408,-345.504,6020,-12880,280
-4.1798,-0.974907,-1.23587,-3.52427,2.64249,0.779285,-4.1492,-0.428039,-6.43431,0.368785,-2.14205,5.32512,-1.29364,0.202194,-10.9866,1.96721,-278.648,-901.824,-349.896,5600,-11060,-560
-3.31969,-3.12536,-1.84021,-6.99179,-3.15472,-4.51205,-11.0049,-11.9855,-1.05926,1.29779,3.15365,0.619155,-0.266715,-2.97014,-13.3273,-9.20809,-280.6,-898.896,-352.824,4620,-8260,-1680
7.65116,11.5857,8.00334,3.70653,7.42255,-1.66827,1.73795,-4.41061,11.746,12.3754,8.51497,6.62435,4.43771,1.69175,2.47069,0.0897936,-279.136,-898.896,-353.312,3640,-5740,-2800
1.59682,0.841275,0.943898,-0.317747,1.58875,0.208396,5.98439,1.24017,2.5563,4.98856,2.79549,-2.06086,-0.468252,1.62273,6.30271,2.68242,-279.136,-895.48,-356.728,1960,-4200,-3220
-2.95799,-3.71958,-0.72176,-3.43693,-0.535787,0.629579,3.05216,4.61205,-0.964154,3.1687,-0.492348,-4.49949,-0.918644,-0.0501239,1.16234,2.74279,-277.184,-898.408,-356.24,700,-2100,-3640
2.11885,0.971119,2.07547,0.79338,0.156859,-0.54534,3.63944,0.463185,4.82645,6.18382,0.500237,-1.54904,0.647658,1.84011,3.29404,2.79079,-275.72,-892.552,-356.728,0,-560,-4200
-3.10831,-7.07363,-1.40979,-7.19233,-7.42129,-3.64442,-0.86416,-3.54902,-5.42718,1.38315,-1.44693,-7.78312,-1.17439,-3.15842,-2.69541,-2.06494,-276.696,-893.04,-353.8,-280,1400,-4900
-9.08558,-14.4976,-6.90428,-14.2062,-15.323,-6.19585,-9.18877,-9.67237,-12.0108,-6.27155,-4.70955,-12.8153,-5.09386,-6.7764,-9.22802,-13.2242,-275.72,-895.48,-352.336,-700,4200,-5880
-15.2205,-11.5808,-8.10385,-8.27337,-11.4995,-5.01745,-8.34556,-11.1519,-15.1032,-12.8088,-8.27852,-12.6675,-6.21238,-7.77797,-2.29548,-17.1263,-274.744,-896.456,-350.872,-560,5040,-6580
-22.7335,-19.2441,-8.63487,-12.9673,-14.6466,-2.64444,-12.0133,-10.5431,-25.8761,-17.3767,-5.81337,-15.0808,-2.636,-8.73775,-8.85905,-17.2972,-274.744,-894.016,-351.848,560,5600,-7000
-12.045,-15.5093,1.18736,-11.104,-6.78872,2.61384,-7.56426,-2.20873,-19.2983,-4.46545,1.8427,-6.65481,5.20973,-2.20626,-10.4384,-8.35252,-275.232,-894.504,-351.848,1120,5600,-7280
-1.99149,-9.97928,0.512147,-4.71076,-4.0267,3.30667,-0.111432,-1.38504,-5.77878,-2.01021,5.83202,-0.269638,6.38296,0.34074,-3.185,-4.45857,-273.768,-894.504,-353.312,2100,5460,-7420
18.7612,15.3272,10.9085,12.5552,11.0995,5.44183,11.276,8.32653,19.4346,15.772,9.49698,16.0809,9.25251,7.30889,10.4844,5.43556,-272.792,-890.112,-351.36,2800,4900,-7420
24.4884,21.5366,9.58325,17.4898,12.7198,5.69165,16.3668,12.8215,28.0407,16.383,2.29194,16.4682,4.62759,6.45963,15.3934,10.0942,-271.816,-889.624,-352.824,4200,4480,-7280
10.654,14.2251,-0.69949,11.8279,7.51596,1.1219,9.29439,9.72905,15.8195,3.06496,-8.16606,5.36668,-3.36578,-0.455388,8.11882,7.21022,-269.864,-889.624,-352.824,5460,4060,-7140
-8.53247,-1.82997,-10.7942,1.12342,-1.77062,-2.85232,0.0686619,1.85766,-4.90681,-14.032,-12.2899,-9.65915,-7.97155,-6.48315,-0.8653,1.63565,-274.256,-891.088,-351.36,6440,3780,-7280
-15.6849,-12.7162,-8.68909,-11.5633,-9.61349,-4.37121,-10.0276,-3.72332,-16.4032,-13.7497,-6.65255,-15.5671,-4.69925,-7.92026,-14.9171,-2.19967,-271.328,-890.112,-346.968,7840,3780,-7000
3.72956,-1.79346,4.4447,-9.10885,-4.55634,-1.41952,-12.0637,-7.20957,-0.34762,5.13648,7.83215,-0.351623,5.09735,-2.60609,-18.66,-2.28445,-273.28,-889.136,-348.432,8540,3780,-6440
20.5824,16.538,11.0941,8.53517,11.1486,2.69029,0.104677,-2.07015,20.6808,15.0556,10.84,16.4017,3.63703,6.75499,-0.937134,4.94374,-271.328,-890.6,-346.48,9380,3780,-6020
17.4996,20.9776,7.85559,17.9665,16.674,5.74487,10.5755,6.5878,21.2716,8.61953,5.23612,18.8395,0.340942,9.51349,15.0313,11.2345,-271.328,-887.672,-342.576,10080,3920,-5600
-0.064674,6.85549,0.323438,7.85011,7.78081,1.48084,4.99412,4.94131,1.24039,-3.09867,-1.36542,3.89884,-2.47556,3.4145,9.8498,5.6062,-270.84,-888.16,-348.92,10640,4200,-5180
-21.3515,-14.6202,-11.9782,-9.37079,-9.97069,-4.21619,-8.20578,-1.62374,-20.7575,-19.1761,-5.91387,-15.6916,-6.66765,-5.60577,-6.193,-3.64282,-271.816,-888.16,-349.896,11480,4340,-5040
-12.0814,-10.2213,-5.68316,-8.44965,-5.91748,-1.61083,-6.70667,0.360083,-12.4424,-8.69124,-0.863175,-9.9771,-1.4314,-0.332185,-8.53625,0.623609,-272.792,-888.648,-347.456,11620,4480,-4620
-3.09059,-8.01562,0.0308366,-5.35726,-2.37386,-0.199701,-0.0429789,-0.501367,-6.58512,0.113261,4.23828,-4.19385,1.57033,3.14491,-2.24391,2.87583,-273.768,-886.208,-349.896,11760,4900,-4480
-12.7543,-17.0414,-5.38202,-13.8751,-8.47697,-5.56794,-6.23638,-7.67632,-18.0861,-5.30133,2.91531,-13.0527,-1.37935,-3.52111,-5.95546,-6.06025,-277.184,-890.112,-345.504,11480,4900,-4200
-10.9759,-10.6738,-4.33176,-12.2872,-4.71198,-3.58389,-4.20112,-3.11775,-16.2698,-3.41536,3.78474,-11.8253,-1.32998,-4.43605,-2.96351,-5.61614,-275.232,-891.576,-342.576,11200,4620,-3780
-7.0514,-7.54804,-6.35673,-5.13738,-3.60231,-0.405456,3.19991,0.555233,-11.2346,-6.33532,-1.40582,-7.97512,-4.48951,-1.20745,6.93938,-0.724429,-274.744,-893.528,-343.552,10500,4340,-3500
8.38748,8.99812,6.92586,7.03035,9.34308,3.29822,7.96778,5.23531,7.1338,7.74025,2.51438,8.08056,1.45016,4.12731,8.9353,6.4647,-278.648,-894.992,-341.112,9660,3920,-3360
14.8843,9.35154,10.3357,4.71575,7.18697,1.88977,2.15882,-0.311844,17.6929,13.3311,9.36993,12.6823,4.67144,4.77327,-1.96484,2.45184,-278.648,-898.408,-338.184,8400,3360,-2940
18.0297,19.2328,11.8688,13.9509,12.2925,0.394993,5.744,2.56884,26.2191,14.8898,9.40136,18.1172,3.95738,3.3911,6.98148,5.82881,-279.624,-897.432,-336.232,7280,2660,-2380
13.8948,13.1089,6.17617,11.7208,5.11456,-2.92004,0.0135936,-3.10803,22.3491,9.92405,8.15683,9.81203,3.03596,-2.57285,5.96228,-0.751681,-276.696,-902.8,-338.672,6580,2380,-2240
4.24933,6.51577,3.5736,2.88404,-3.15666,-3.15082,-4.49293,-1.84434,10.6009,4.10767,3.85158,0.775436,3.49948,-5.11789,-1.42884,-3.45749,-280.112,-902.312,-339.648,5740,1820,-1820
-6.93391,-2.20312,0.359778,-2.39592,-8.02313,1.03274,-3.87662,3.55653,-5.33042,-3.98528,-4.71988,-5.03338,-0.205137,-2.20971,-3.29301,-1.08284,-281.088,-901.336,-336.72,5180,1400,-1680
-20.1643,-19.2917,-7.8472,-13.9491,-15.046,0.423464,-9.99574,5.4888,-26.07,-14.6035,-15.1309,-15.4708,-5.69474,-2.56449,-10.8103,-3.64821,-281.088,-899.872,-336.232,4200,840,-1680
-23.5773,-23.1175,-14.8913,-14.9198,-17.9038,-1.31358,-9.3941,2.18486,-27.6143,-22.7731,-19.2897,-19.2147,-6.65419,-4.69218,-10.1949,-5.53876,-280.112,-900.36,-333.304,3640,560,-1400
-12.3,-7.89799,-7.55925,-3.44971,-3.92005,3.26186,1.51692,4.67768,-14.1774,-9.02823,-13.9767,-6.96609,-1.31538,0.850957,-0.660444,1.10981,-282.552,-901.336,-335.256,3080,420,-1540
2.78134,0.397174,-0.780019,3.17261,1.37022,3.93053,6.10607,-1.09014,-1.6541,2.05439,-9.55986,5.27752,0.965701,5.92835,3.28235,1.68462,-283.04,-901.336,-339.16,2660,0,-1540
22.8453,23.7196,15.9173,21.5182,19.8608,6.0423,18.235,0.785743,20.162,19.2074,-6.26447,26.5995,7.15357,16.2806,15.0953,11.7042,-283.04,-899.384,-341.112,2240,-420,-1680
21.1805,24.904,13.4696,24.542,19.5164,6.56753,22.4142,1.00356,23.012,14.0905,-6.76455,27.7588,5.68386,15.6661,20.5196,13.0756,-281.088,-899.872,-341.6,2100,-700,-1820
15.4615,23.5041,6.32352,23.2408,17.9552,2.13481,18.3114,-3.83005,23.2799,8.43666,-8.17376,20.5497,2.81987,7.65361,20.8597,6.11335,-281.576,-898.408,-342.576,1820,-700,-2100
21.5867,18.484,0.507148,17.5194,14.6843,2.44432,10.8595,-5.4334,26.906,11.8546,-7.0057,15.9538,1.87729,2.83096,15.8111,0.232586,-280.112,-896.944,-346.968,1820,-840,-2240
13.1992,3.32107,-5.69563,2.85675,4.09634,-0.180301,-3.0661,-8.8238,11.9784,8.8448,-0.298099,3.70442,2.67459,-3.03499,4.2611,-5.64691,-281.088,-898.896,-343.064,2380,-700,-2520
-14.4444,-21.2699,-15.9386,-21.088,-16.2521,-7.62039,-21.0853,-14.629,-16.9859,-8.90581,9.09655,-17.8182,-1.25968,-16.7146,-16.2745,-17.3571,-280.6,-898.896,-344.528,2380,-420,-2520
-25.8108,-33.1112,-16.2779,-32.7761,-23.9609,-7.87007,-25.0533,-6.4963,-29.2198,-18.3,11.6098,-27.8178,-6.03296,-18.6329,-26.2409,-18.1272,-279.624,-899.384,-344.04,2800,-280,-2660
-13.4368,-13.4091,-2.54681,-12.2592,-7.22776,1.49375,-4.54284,8.36359,-15.4499,-8.78423,17.2676,-10.2737,-0.168234,-5.4274,-3.83891,-2.5734,-278.16,-895.968,-343.552,3080,0,-2800
-5.79377,-5.72275,3.56556,-5.4887,-0.017722,3.63656,-1.62061,10.0277,-8.28553,0.795925,18.5681,-1.67805,1.00824,-0.237737,-4.03376,-0.833544,-280.112,-896.944,-339.16,3220,-140,-2800
-5.82899,-10.674,-2.28624,-15.774,-7.67693,-1.98225,-12.9218,2.11407,-6.28146,-3.77751,12.5168,-8.27778,-3.71405,-6.23724,-20.5635,-9.28524,-277.184,-896.456,-341.6,3640,280,-2940
1.22478,-3.10743,0.193327,-6.94645,-3.75298,-2.81132,-5.41868,2.55438,3.04141,-0.103987,9.43796,-6.84315,-4.35847,-3.29248,-9.50646,-3.08014,-275.72,-894.504,-337.696,4060,560,-2940
3.29707,3.32724,1.46471,1.23206,-1.96428,-4.11097,0.271967,1.2831,5.82145,1.60015,8.0803,-4.2838,-1.8275,-0.863995,-0.0618053,0.48972,-276.208,-892.064,-339.16,4340,560,-3360
-6.15072,-1.83571,-0.629587,-1.89222,-5.56996,-4.50215,0.327663,1.09608,-3.5753,-4.98708,1.62416,-7.18629,-2.06973,-1.739,-1.04734,1.98871,-275.72,-889.624,-339.648,4480,420,-3640
-9.92038,-6.81795,2.12147,-9.3039,-8.46893,-4.57663,-6.43993,-0.771792,-9.03754,-4.49856,-0.673522,-10.4397,-2.62034,-4.39425,-13.1113,0.407848,-275.232,-888.648,-340.136,4340,280,-3780
-6.87137,-6.85848,1.76687,-7.78525,-7.31527,-3.32854,-6.84734,-6.22739,-7.0177,-4.94522,-3.00777,-7.4216,-1.33588,-2.95058,-13.0793,0.55614,-275.232,-889.624,-337.696,4200,420,-3920
1.01894,11.2375,11.8811,11.0358,12.6276,4.04306,9.1058,6.50319,0.466733,2.08939,-7.20445,8.0187,2.37942,6.89904,5.49191,14.8793,-269.864,-893.528,-338.184,4060,560,-4060
1.18554,5.98831,5.08095,7.96831,9.28478,4.01877,7.83546,6.62745,-1.27209,-2.68572,-10.8877,4.95232,-3.04167,6.37842,5.40994,10.1116,-272.792,-894.016,-330.864,3640,1540,-3920
14.1031,14.937,8.60993,15.1811,16.3041,7.53765,15.9838,12.2315,12.4863,5.8428,-6.00181,11.7661,0.792484,11.3502,15.9522,15.6702,-275.232,-896.456,-334.768,3220,2240,-3640
24.4951,21.9675,9.12297,22.9138,17.4947,5.83849,20.3427,6.45142,26.3946,11.5982,-0.495962,15.9172,2.61257,14.0241,25.3524,13.8594,-276.208,-901.824,-331.84,2940,3220,-3360
17.5374,17.2286,3.51609,17.3078,10.2735,0.501422,9.56792,-3.05945,18.8925,8.69763,0.307195,9.92783,2.43582,6.35155,22.0009,3.11191,-275.72,-904.752,-331.84,2660,3920,-3360
-7.93506,-3.97364,-6.48995,0.406666,-6.56232,-3.29784,-6.17561,-10.9208,-9.497,-5.06898,-2.0235,-6.87597,1.07531,-3.37018,7.73827,-9.97516,-275.72,-903.288,-331.84,2660,4480,-3500
-19.0221,-14.3945,-9.6713,-12.7216,-15.9295,-4.80612,-15.0586,-9.15765,-21.7317,-10.5468,-7.81573,-14.9644,-1.16416,-8.59243,-8.48376,-15.5244,-276.696,-901.336,-333.792,2800,5040,-3640
-16.3978,-14.9364,-8.21698,-13.6141,-14.2329,-1.41439,-12.0573,-3.06032,-19.9107,-10.5377,-11.365,-12.0374,-3.37087,-5.59635,-11.4982,-10.1491,-275.232,-896.456,-333.304,3220,4900,-4060
-10.476,-9.97828,-3.06087,-8.82103,-6.27074,-1.6257,-6.56734,-0.937315,-14.2752,-3.20869,-6.80516,-5.91602,-1.07599,-0.725277,-9.2643,-4.89517,-276.696,-894.992,-344.04,4060,4480,-4340
-6.47829,-9.3425,-3.10843,-6.40604,-5.67386,-1.04584,-2.19115,-3.86486,-8.75697,-3.65135,-2.20837,-1.23636,1.48079,1.65366,-9.16784,-1.65029,-276.696,-894.992,-342.576,4620,3920,-4620
15.0181,17.9848,18.2761,23.7529,22.987,8.25924,23.6636,5.77289,13.4897,21.5183,10.8939,25.741,12.4444,18.5166,20.2896,20.6047,-274.744,-894.016,-346.48,5320,3640,-4760
24.1805,18.0521,13.289,18.0367,15.3199,1.68307,10.6607,-7.4492,23.5051,27.1862,16.2125,25.629,11.2724,8.49116,9.65814,4.28805,-274.256,-894.992,-348.432,6860,3220,-4900
5.95029,-1.08553,-8.74747,-5.2307,-7.18061,-5.31237,-9.78903,-11.6691,9.54385,4.9752,4.0055,3.06028,-1.86072,-11.3844,-11.2227,-15.0176,-272.792,-895.968,-344.528,7840,3220,-4620
-5.89233,-13.393,-18.34,-21.3964,-19.9899,-6.96996,-21.4097,-7.77959,-1.59519,-6.64909,-0.0754817,-12.832,-6.61098,-20.7377,-23.775,-18.6636,-272.792,-894.992,-341.6,8400,3500,-4480
-6.13138,-12.9975,-15.0837,-16.6297,-14.4816,-0.0800089,-13.1019,1.3245,-3.64861,-6.98158,-2.37155,-12.3588,-3.08859,-10.8929,-18.2961,-7.12196,-271.328,-895.968,-340.136,8960,3920,-4060
-1.8321,3.9101,-2.13132,9.36632,9.01829,11.5074,15.7373,17.2788,0.569425,-2.77878,-7.8919,4.3789,2.46671,8.24294,12.5997,15.9622,-271.816,-895.968,-333.792,9240,4200,-3640
-7.17999,2.53984,-4.45736,8.7263,7.94222,6.40809,15.439,11.333,-3.70511,-8.9283,-8.76813,2.4081,1.34938,6.90006,12.6425,14.3669,-273.28,-894.016,-331.84,9100,5040,-2940
2.73048,6.90463,-2.62598,4.24964,3.02043,-0.486608,3.65128,1.92376,10.4617,-4.27848,0.764397,3.72236,3.35442,0.902391,3.37385,4.36484,-273.28,-894.016,-331.84,8680,5460,-2380
0.00560737,1.06488,-3.48635,-4.6435,-3.7607,-6.88852,-8.2471,-5.02779,6.29144,-5.20573,0.210524,-3.1233,-0.491813,-6.45189,-6.50233,-7.21738,-276.696,-894.016,-331.84,8120,5880,-1820
-7.67833,-11.1363,-5.90577,-14.2646,-12.1659,-5.50432,-13.4274,-6.67641,-6.95883,-8.68043,1.70525,-9.36727,-2.97271,-8.84352,-13.2296,-11.4303,-277.672,-895.48,-336.72,7840,6440,-1120
6.03177,-3.23658,9.93728,-6.12355,0.287472,4.10646,-1.70734,5.99383,1.79545,6.81673,3.15544,1.32397,-2.5129,2.19218,-3.21831,3.38191,-281.576,-893.528,-334.768,7280,6720,-840
6.88381,0.562206,10.3697,3.09313,7.23333,4.38606,9.55003,11.4477,3.95363,1.57799,-3.08618,2.86001,-6.59314,5.21106,10.336,10.4608,-285.48,-894.016,-335.744,6580,6580,-420
-3.6181,-8.35,-2.29561,-3.96346,-2.52122,-5.14897,-3.17618,0.200993,-4.80731,-10.3013,-4.71625,-7.52173,-9.09315,-4.49143,1.79954,-2.62527,-287.92,-895.968,-337.208,5880,6300,140
-11.5465,-9.81999,-1.95123,-5.77575,-1.20954,-5.33951,-7.61192,-1.95812,-14.148,-10.1993,-1.19282,-9.37697,-4.35881,-5.67638,-1.73405,-5.10721,-286.944,-896.944,-336.72,5740,6020,140
-7.67222,-5.51174,7.05508,-2.03146,3.70949,-0.282107,-3.7189,-4.00327,-13.4017,-1.62468,5.33825,-0.326567,2.28826,3.05253,-0.00439277,-3.49967,-288.896,-896.944,-338.672,5040,5320,280
4.99303,11.0333,19.3151,10.7287,19.5046,5.87068,12.0752,7.28402,-4.05224,13.5993,6.23881,13.515,7.40553,13.9067,11.8424,9.71097,-287.92,-895.48,-341.112,4760,4340,280
12.043,13.8835,10.9432,8.93073,12.9604,3.56198,9.20906,3.7385,10.2387,11.4771,1.52257,10.3937,2.26725,9.07981,9.41634,4.52756,-284.992,-895.48,-339.648,4340,3080,0
17.6967,25.2754,7.92588,15.8793,13.0374,3.50678,11.927,3.7178,23.9902,12.2721,1.69742,11.1923,1.05263,6.39783,15.3605,6.44142,-286.944,-894.992,-339.16,4200,1820,-140
2.25287,14.6745,1.46303,16.614,11.3047,4.20988,17.1821,4.07209,3.67119,2.42508,-0.809856,3.44408,1.20899,8.11143,21.9237,10.0247,-282.552,-893.528,-342.088,4200,840,-420
-15.9866,-11.7597,-7.19537,-8.85071,-8.96656,-2.42984,-7.12114,-6.2346,-19.9856,-4.57819,2.33774,-11.8991,-0.438049,-4.14049,-8.84913,-7.92955,-283.04,-894.992,-339.648,4060,-560,-840
-5.1287,-14.5378,-4.27748,-21.5751,-19.7242,-4.8972,-24.7869,-13.248,-7.56071,4.30829,10.0713,-12.0488,1.68959,-11.8208,-31.3897,-19.9978,-282.064,-895.968,-338.672,4200,-1260,-1260
10.8827,2.8,0.610848,-3.03215,-8.85992,-1.91396,-8.35245,-4.61193,14.6053,6.2873,5.32333,-1.50248,0.0091462,-6.10608,-9.20242,-8.30272,-276.208,-893.528,-337.208,3780,-2380,-1680
12.1088,11.4023,0.801519,13.3781,0.946402,1.97515,9.32693,5.55931,18.3835,1.36348,-1.13333,5.22114,-1.49785,3.24623,12.4059,6.16466,-278.16,-896.944,-337.208,3360,-3220,-2100
8.26507,12.2364,4.59865,15.9555,6.44409,2.99843,11.804,8.19854,12.4036,1.28745,-4.76083,6.74636,-1.99192,7.76058,12.2276,10.5756,-272.792,-894.016,-334.28,3080,-3360,-2380
1.5135,0.63379,-5.57102,6.52517,-5.89242,-2.53271,3.21595,-4.25833,3.10334,-4.9934,-3.25868,-1.37907,-6.42794,-0.513638,4.67636,-1.20097,-274.256,-893.528,-334.768,2100,-3780,-2660
4.00434,3.64071,-4.14002,7.82065,-1.64209,-1.97392,5.06933,-4.33512,3.46078,-0.522376,-1.61642,0.880148,-3.15318,-1.24895,8.28438,0.269042,-272.304,-894.992,-329.4,1680,-3920,-2520
-9.06178,-15.0717,-14.391,-10.2903,-14.8849,-6.72332,-7.93031,-10.3481,-12.3009,-11.8087,-4.91084,-11.6757,-6.29355,-9.4693,-7.27281,-9.01877,-269.376,-895.48,-331.84,840,-3780,-2660
-25.6435,-22.7274,-15.4414,-17.2139,-15.9603,-9.19098,-11.9986,-5.78487,-30.8677,-17.8985,-7.85569,-18.5527,-4.79637,-11.8569,-12.1404,-7.24759,-271.328,-897.92,-330.864,140,-3920,-2660
-25.0134,-14.8727,-9.75677,-10.3282,-9.12712,-4.96463,-8.05035,-1.45791,-26.4745,-16.0791,-7.21945,-12.3932,0.683415,-7.98914,-9.6618,-1.86626,-274.256,-897.432,-333.304,-280,-3780,-2800
-8.39083,-10.9595,-2.18651,-16.5756,-11.7338,-3.29594,-19.4114,-10.2076,-9.38531,-1.55147,1.72143,-5.32806,4.98967,-7.42193,-26.6745,-10.1985,-272.304,-897.92,-334.768,-700,-3780,-2800
-10.5574,-20.2062,-3.15219,-29.571,-17.294,-2.87948,-27.7964,-10.1599,-16.6145,0.294142,2.68413,-10.1954,3.96744,-9.30827,-40.1102,-14.2978,-270.84,-900.848,-335.256,-840,-3920,-2800
-1.8211,-10.5482,-0.94853,-15.5754,-5.57775,0.489629,-14.4467,-4.06192,-3.81354,2.79698,1.94207,-3.29633,5.29923,-2.08731,-20.9701,-4.66581,-269.864,-896.944,-333.792,-840,-3640,-2520
9.9773,8.48099,4.60547,7.60102,10.3265,4.74371,3.86576,4.12173,14.1534,5.34535,2.33798,9.202,7.94262,4.51286,5.52956,7.10213,-268.888,-897.92,-338.672,-420,-3640,-2380
11.2297,12.9552,10.2327,12.6425,16.6131,7.57047,7.7501,6.93885,12.8223,11.3809,4.80374,12.8741,12.2262,8.59826,10.5975,9.8214,-270.352,-898.896,-337.696,-280,-3640,-2380
5.25066,10.065,7.42375,11.0802,14.134,8.50894,12.3632,7.79257,6.47434,4.96879,1.4628,12.1014,11.6406,9.82373,12.7872,11.477,-268.4,-897.92,-338.672,-280,-3220,-2240
7.04886,10.5397,8.34127,12.1736,16.1546,9.41976,14.5575,9.62188,7.21686,5.9903,-1.46123,15.8714,7.89217,13.172,11.6612,14.4354,-266.448,-898.408,-338.672,140,-3080,-1960
12.6945,13.135,8.74846,16.2276,18.5186,8.60354,18.6929,12.2793,12.5933,7.99223,-5.42621,17.4659,-0.596166,14.2474,16.5469,18.1047,-268.4,-898.408,-337.696,700,-2940,-1820
1.30169,8.13412,0.0889404,16.5111,16.121,4.29253,24.8877,12.8385,4.59735,-2.93162,-11.6944,7.20614,-9.95416,9.40097,23.166,19.1713,-265.96,-897.92,-338.184,1260,-2660,-1540
17.6819,23.5638,12.3542,25.7045,25.6879,3.97546,32.6012,6.64536,23.5598,12.752,5.93253,16.6738,0.216396,12.4339,33.8424,20.7426,-267.424,-894.016,-340.136,1820,-2520,-1260
16.3043,13.9872,7.14144,8.81401,9.91513,-2.79877,12.9164,-3.90434,20.6944,11.5287,11.9914,8.48624,-0.352955,1.11492,16.368,2.20005,-268.4,-892.552,-336.72,2520,-2240,-980
13.1874,13.021,5.68262,2.58179,2.82025,-2.34251,1.34997,1.70468,16.6043,10.9473,11.6288,7.87351,-0.334024,-3.66986,8.50264,-3.97242,-268.888,-891.576,-336.232,2800,-1960,-840
6.46495,0.631806,-4.20979,-4.38516,-9.55939,-3.10706,-4.22986,-0.215625,8.31177,-0.0409436,4.49091,-0.258153,-6.5579,-4.54284,3.46379,-8.77174,-267.424,-892.064,-336.232,3220,-1820,-420
0.418372,0.0663126,-5.54219,1.72746,-4.20493,-2.30921,2.66495,8.10192,4.09953,-6.22711,-4.21256,-4.82364,-8.65861,-0.291638,10.1062,-1.33557,-270.352,-891.088,-337.696,3640,-1400,-420
-16.5822,-10.1589,-11.0464,-1.94597,-9.18593,-4.23672,-1.17881,6.32566,-13.1609,-17.0139,-11.1805,-16.6185,-11.5331,-3.78135,5.08564,-5.47124,-268.888,-892.064,-337.208,3780,-1260,-280
-28.8206,-22.7709,-13.741,-16.4354,-21.2797,-6.586,-15.8415,-4.82512,-30.7647,-21.5438,-8.91132,-25.5978,-9.38845,-11.4521,-14.3727,-18.3151,-266.936,-890.112,-335.744,3780,-980,-140
-22.6468,-28.3795,-10.5201,-28.5895,-26.602,-7.54227,-27.9748,-12.5267,-30.1802,-12.6224,-0.560723,-22.9449,-5.32326,-13.271,-29.3138,-27.6041,-271.328,-891.576,-337.208,3920,-840,0
-11.299,-21.693,-8.48976,-27.2422,-21.9003,-6.70361,-31.3132,-10.5496,-18.4928,-2.81583,1.04323,-16.8726,-3.85476,-12.8324,-34.9349,-28.0913,-268.888,-889.624,-333.792,3640,-420,-140
2.12638,-4.07083,-3.67021,-5.92125,-7.67554,0.950014,-10.264,-2.31953,-0.395477,4.01284,4.37355,-2.73032,2.71232,-5.67401,-10.9406,-10.2479,-274.744,-890.6,-335.744,3640,-420,-140
-3.33373,-4.80613,0.744851,-0.961895,1.70719,5.11747,2.73851,2.16121,-9.8874,2.98349,1.85468,-0.343133,5.20084,-0.0428222,-0.142798,3.41604,-270.352,-890.6,-334.768,3360,140,-420
-7.63008,-11.9331,-2.93122,-8.26891,-4.65203,0.0738193,-5.0812,-8.25365,-13.7977,-3.52565,0.264077,-5.16604,3.88224,-2.6419,-7.57995,-2.90444,-269.864,-891.576,-336.232,3360,280,-560
-8.25123,-10.9056,-2.15415,-10.8904,-6.383,-4.17585,-13.881,-10.5727,-10.9292,-3.43189,-3.30781,-6.01557,1.29553,-7.3501,-16.455,-8.16612,-272.304,-889.136,-335.256,3500,420,-420
-12.8941,-17.48,-7.90489,-12.8723,-12.4853,-5.56252,-15.152,-11.7996,-16.2073,-11.7288,-5.63011,-10.6599,-2.14242,-6.83637,-17.7852,-10.6956,-273.768,-890.112,-336.72,3360,1120,-700
10.5706,11.1192,9.07506,9.30483,11.3444,4.83508,5.18639,2.91398,12.6183,6.94461,0.0751068,13.3393,4.56689,10.1544,1.3078,11.1682,-268.4,-890.112,-334.768,3220,1120,-700
27.5758,28.5342,20.1923,23.4834,26.3569,12.5124,18.0204,10.7044,31.1102,15.9917,0.613859,28.4194,7.3215,20.1492,11.0491,25.6772,-271.328,-890.6,-335.256,3500,1400,-560
26.6981,35.1072,22.2879,32.1264,31.2062,8.59105,25.5312,7.9485,31.6004,15.1952,3.60984,30.5846,7.42597,20.6393,22.754,28.3834,-271.816,-893.04,-334.28,3500,1400,-560
16.4936,29.3278,12.8537,25.555,20.9692,-3.09257,18.1786,-3.56396,22.1236,9.22931,7.18651,19.0835,4.93774,6.06713,23.3332,15.4736,-268.4,-893.528,-337.208,3500,1540,-420
1.06551,1.45506,-5.15428,-5.2759,-10.7587,-14.9339,-10.1802,-19.656,3.4107,-0.799438,5.95752,-7.27941,-2.65678,-17.707,-0.569061,-14.1654,-269.376,-894.016,-334.768,3780,1680,140
-14.9786,-17.3432,-15.3775,-22.0824,-28.0417,-13.0032,-19.4304,-14.8042,-13.032,-10.9729,1.78745,-21.8146,-5.75321,-24.8141,-12.6765,-20.9058,-268.4,-894.992,-339.648,4060,1120,560
-16.0928,-13.7538,-7.96084,-11.7746,-15.1584,1.85334,-4.99105,7.00562,-15.008,-10.4816,-4.65696,-15.5032,-2.12531,-5.59252,-7.5543,-2.46197,-267.424,-892.552,-336.72,4060,700,1120
-4.14679,-1.5312,1.28679,-2.27348,-1.59397,10.734,1.37369,12.1138,-3.72788,-3.41452,-2.25508,-1.75869,1.6625,7.51623,-8.92924,5.24424,-268.4,-896.456,-337.696,4480,0,1820
1.24916,1.53826,3.05011,2.19648,4.76295,8.04816,5.51467,7.7451,-3.09472,2.36078,-0.672845,-0.127834,0.518121,7.71645,-2.93961,8.57019,-270.84,-896.944,-333.792,4900,-280,2380
3.49149,-2.34419,-2.04301,-2.27399,0.58594,1.93914,3.38369,4.04159,-1.39171,1.50273,-1.85736,-5.06719,-2.09339,1.99491,-3.64043,5.37051,-270.352,-896.944,-335.744,5320,-980,2800
9.09027,7.98126,1.68095,13.1244,9.86697,3.60978,16.7874,5.88615,7.53619,4.89477,1.51163,5.16857,1.76903,8.55416,17.8973,12.9298,-266.936,-900.848,-334.768,5880,-1540,3500
30.4963,40.5064,24.2764,47.2471,41.3429,15.1084,44.9469,27.1731,34.204,23.7481,4.68891,36.7818,8.68349,30.2724,52.8635,38.8374,-269.376,-901.336,-333.792,6580,-2240,4060
24.322,28.7141,11.6524,33.8697,26.2309,6.86677,27.1093,18.9377,28.9169,15.8068,-1.04484,29.3081,1.15552,18.3568,38.2444,20.4822,-267.424,-901.336,-333.304,7560,-3080,4620
3.83446,13.6376,-2.19148,15.2977,10.9109,0.314375,7.10265,11.2302,12.4376,1.82139,-6.07517,8.65037,-2.59501,1.08069,18.7455,4.65465,-270.84,-898.408,-336.232,7980,-3500,5040
-24.2817,-22.2142,-20.6254,-17.8084,-16.119,-9.03873,-18.8035,-5.54059,-17.9902,-20.6889,-8.88512,-24.258,-10.6842,-14.4193,-14.9409,-15.5,-270.84,-899.384,-330.864,8680,-4200,5600
-27.6168,-32.5931,-12.0757,-28.8243,-18.7288,-10.0799,-23.7854,-14.3952,-35.1133,-13.6956,-1.80903,-26.3079,-6.14039,-15.4177,-27.2103,-18.6078,-272.304,-896.456,-332.328,8820,-4340,5880
-15.6212,-27.2432,-3.88564,-30.5912,-16.0213,-7.64999,-25.9264,-17.7805,-27.9944,-4.60566,2.09655,-14.7584,0.580384,-11.0281,-33.0262,-21.3492,-275.72,-899.872,-335.256,8960,-4620,6440
-4.53302,-9.39296,-2.42466,-12.8248,-5.51221,-3.61964,-13.8829,-11.3222,-6.97371,-2.53435,2.50465,-4.33563,3.683,-5.09339,-14.2282,-14.8142,-276.208,-893.528,-332.328,9100,-5040,7000
-2.26617,-0.929059,-2.6724,-3.71439,-2.69344,-0.950169,-4.54421,-5.20781,0.0225111,-0.947566,3.8968,-1.66522,3.88835,-0.338767,-1.81897,-7.41668,-277.672,-891.576,-333.792,8960,-5040,7280
-8.99371,-12.0893,-7.66904,-14.1183,-13.8069,-3.91894,-11.5622,-5.65412,-10.4549,-4.55505,1.18313,-9.57163,0.301816,-5.97839,-12.6622,-11.724,-276.696,-888.16,-333.304,8540,-5320,7560
-11.1277,-14.8031,-10.2532,-12.4917,-16.1166,-2.16785,-9.09356,-4.34531,-12.7201,-9.1078,-2.23534,-9.36533,-1.87879,-6.48159,-10.1777,-9.90094,-278.16,-888.648,-332.328,7980,-5460,7840
-8.08074,-11.7494,-3.97039,-11.8262,-11.4106,-1.55011,-8.49853,-0.90211,-10.3397,-3.5672,-3.255,-7.04065,-2.45686,-3.46216,-13.2151,-7.82259,-279.136,-885.72,-330.376,7420,-5460,7980
-6.80962,-15.1171,-4.14272,-17.7631,-15.223,-2.15703,-12.788,-6.27475,-9.08465,-3.38206,-2.47254,-7.71416,-3.29409,-6.63466,-20.0045,-10.3651,-280.112,-888.16,-334.28,6720,-5320,7980
-3.48471,-1.83692,1.20515,-4.33537,-1.69614,1.50303,0.448805,-0.0934536,-1.62557,2.92619,-0.673726,0.723482,-1.78781,-2.57557,-2.5829,0.128524,-282.552,-886.696,-336.72,6300,-5600,7560
1.45989,3.98004,-2.22402,4.21772,2.71943,2.24632,7.49252,2.49199,10.5712,-0.123533,-2.56338,3.0201,-4.09369,1.00725,6.48272,3.27518,-282.552,-888.16,-340.136,5880,-5460,7560
9.86642,13.3119,5.18233,12.4615,10.1822,4.74635,13.8509,8.21865,18.6075,4.83966,0.0683813,9.41623,-0.0163276,6.66568,13.4701,8.74018,-283.528,-886.208,-341.112,5460,-5460,7280
12.5834,13.1588,10.5755,12.5829,8.77161,4.2099,13.8258,7.29883,15.2951,6.50759,5.30391,10.7621,1.95326,8.57605,14.2969,7.68138,-283.04,-889.624,-340.624,5040,-5740,6860
15.5313,14.4306,13.1638,11.3384,6.72041,4.46,10.1452,5.7589,16.2582,7.91748,7.64079,11.8556,4.91879,8.27963,11.0127,6.32078,-285.48,-890.6,-338.672,4620,-5740,6720
14.7972,15.2078,11.9962,9.33974,6.0374,2.40917,6.84297,2.51945,15.1127,8.50715,6.52022,9.93801,5.34457,4.16787,8.55171,4.03892,-284.992,-893.04,-337.696,4200,-5880,6300
11.3026,10.2748,6.78297,4.42987,1.56331,-2.79959,-0.849448,-8.47768,10.4152,6.42247,5.29813,4.38262,1.99296,-0.410029,3.20609,-2.2437,-282.064,-893.04,-336.72,3640,-6020,5880
10.5578,17.091,7.49521,15.4893,10.8609,-0.504167,9.27724,-4.3624,9.36078,5.2421,3.63838,9.22337,3.63978,0.671754,17.9265,6.59178,-282.064,-891.088,-335.744,3360,-6160,5460
1.24743,6.41097,0.511057,9.65944,7.60547,-3.13947,5.13349,-3.44884,-3.12896,-2.15694,-2.33383,1.53117,1.6385,-2.03205,13.1233,4.68841,-283.528,-895.48,-331.352,2380,-6300,4900
0.495929,-1.86656,-4.34386,1.21755,0.828328,-2.62978,-3.82466,-3.20579,-0.991347,-4.24995,0.126613,-1.97054,3.20238,-4.49664,1.32083,0.119026,-281.088,-894.992,-334.768,1680,-6580,4200
-1.31501,-6.44781,-7.46415,-4.62466,-1.86758,-2.29748,-10.0915,-2.36578,-1.07522,-3.62273,-2.05371,-3.57204,1.38973,-3.41795,-9.36456,-2.86152,-284.504,-896.944,-330.376,1120,-6580,3920
0.173823,-5.07803,-4.59528,-5.66824,-0.014179,-0.11939,-8.31439,-0.343375,-3.21157,1.32008,0.179237,-2.01773,2.47403,-0.548121,-11.6914,-2.79035,-283.528,-896.944,-330.376,280,-6860,3220
-2.74002,-1.16015,-1.42639,1.38583,9.59806,4.36513,4.17222,6.32833,-8.0806,1.29036,-1.63362,1.62303,3.45217,5.10469,0.589659,5.58153,-282.552,-899.384,-331.352,0,-7000,2800
-0.848006,8.00437,8.18664,17.9389,23.6218,10.5675,22.028,16.6858,-6.53225,3.15104,-4.22331,11.9945,4.68977,14.3623,19.1627,19.8858,-279.136,-895.968,-330.376,-700,-6860,2380
-1.80814,0.0442488,1.28438,6.69383,7.77949,3.14584,8.18677,6.33666,-3.52731,-2.35936,-4.02516,4.46507,-1.30065,4.4069,1.77103,7.31998,-279.624,-899.872,-330.864,-1400,-7140,2100
-11.1005,-12.2521,-8.29172,-12.5243,-11.3918,-6.77121,-11.1347,-3.06418,-10.7431,-7.72322,-5.25314,-11.1494,-7.25191,-8.78878,-20.3663,-6.28648,-281.576,-899.384,-333.304,-1680,-7140,1820
-14.716,-24.0687,-15.1752,-21.8643,-23.3152,-7.80341,-15.0723,-8.39183,-18.8624,-11.1684,-4.52655,-18.6044,-10.8158,-11.5357,-22.5331,-11.1639,-278.16,-896.456,-332.328,-1820,-7280,1960
-9.8877,-11.9437,-6.63903,-9.93207,-13.0918,-1.35589,-4.66705,-0.762856,-13.3579,-6.45768,-5.74456,-7.8629,-8.56771,-5.20808,-9.91654,-0.993794,-281.088,-897.432,-332.816,-1960,-7280,1820
-11.4472,-12.4182,-4.33497,-8.49047,-13.531,-1.63555,-6.32261,-2.89244,-14.8137,-7.39172,-4.28278,-6.2565,-7.49972,-4.95921,-8.42601,-2.02423,-278.648,-897.92,-330.864,-2240,-7000,1680
-7.40024,-3.43825,-0.315879,-1.1724,-6.37878,-1.5987,-2.87826,-1.82962,-2.97973,-3.23534,-0.631285,-2.928,-3.44203,-2.94309,-1.4558,1.85011,-278.648,-896.944,-333.792,-1820,-6860,1820
-0.553017,3.61825,1.49541,1.91826,-3.45518,-3.31369,-3.71499,-5.60353,6.89463,2.40319,4.84111,-2.32296,0.258061,-2.16431,1.00719,-1.43535,-280.112,-894.504,-332.816,-1960,-6440,1540
1.05022,5.60992,-0.0103637,-2.78289,-7.78672,-4.74157,-9.89172,-8.66576,9.24526,3.46013,7.93683,-6.12921,0.598599,-4.53304,-6.66365,-8.5943,-282.064,-894.992,-334.768,-1960,-5740,1680
1.69208,8.06619,0.293265,3.15072,-3.01343,0.709769,-1.20376,-2.64487,8.82747,2.06433,3.42316,-2.91044,0.395557,-0.257058,1.33298,-2.67578,-282.064,-894.504,-333.304,-1680,-5600,1400
13.1438,19.7255,11.9406,20.9508,17.681,11.6873,18.1602,15.6133,13.8674,12.5151,-1.50871,10.9741,2.97475,14.0849,21.4385,15.5786,-284.992,-896.944,-337.696,-1120,-5180,1400
15.0767,18.1414,5.74842,19.2728,15.9318,11.3425,15.9404,14.5083,20.0579,6.71264,-4.12058,12.0418,1.64914,13.5457,20.8126,12.0624,-285.968,-896.456,-338.672,-980,-4620,1120
8.28056,10.736,4.77479,5.35582,9.89862,5.81104,-0.00223469,5.73746,13.0378,5.82281,1.96998,7.80071,5.55914,7.75027,2.19767,0.144692,-285.968,-895.48,-342.088,-560,-3920,980
2.50566,0.0373539,5.4664,-5.06482,2.20299,2.85091,-5.96704,-0.00393395,2.87155,4.55321,7.55695,2.03434,6.81124,5.0574,-6.71453,-5.04394,-286.944,-897.432,-342.576,0,-3360,420
-2.00911,-5.01708,5.88,-11.1963,-0.795467,-0.943632,-6.84575,-1.28059,-7.27591,2.06234,5.40468,-2.67075,4.2115,-0.194657,-6.81633,-7.31404,-287.92,-897.92,-344.04,420,-2940,420
0.847298,-1.64553,2.05363,-3.37144,1.66682,-1.06116,3.78031,4.46769,-2.77271,-3.21264,-2.13454,-0.861689,-1.91863,-0.791496,7.36451,-0.208151,-287.92,-899.872,-343.552,700,-2800,0
-0.712137,-8.59831,-6.83224,-5.72694,-3.3074,-4.07581,3.02135,-0.0849786,-2.35589,-8.33133,-7.1865,-5.12965,-7.12841,-4.15942,9.63985,-3.56056,-287.92,-899.384,-346.968,1260,-2520,-420
-9.89858,-15.7156,-11.2073,-16.1422,-10.2574,-5.72102,-9.34264,-6.09743,-10.229,-12.5726,-8.54769,-10.4341,-6.23003,-8.07113,-5.74553,-11.7778,-287.432,-898.408,-342.088,1260,-2100,-700
-6.81302,-12.3779,-8.17892,-12.8744,-6.63203,-4.43294,-7.21288,-6.586,-7.77509,-7.96566,-2.91591,-6.25562,-1.20165,-4.45881,-6.03856,-9.73588,-290.36,-899.384,-339.16,1260,-1540,-980
-7.15736,-10.675,-4.91045,-7.38462,-4.86256,-2.56744,-3.15283,-4.43984,-10.7081,-5.433,0.128722,-2.28429,0.0269683,-5.29557,-3.42746,-5.84543,-285.48,-900.36,-339.648,1120,-1400,-1260
-3.79671,-7.03968,-4.76856,-0.556028,-2.12147,-5.15125,1.1742,-4.89375,-7.48452,-0.512541,-1.15747,1.53758,-2.49248,-5.47281,2.448,-3.24136,-284.016,-899.384,-335.256,1120,-700,-1680
2.93133,-2.28407,-2.94556,2.04796,-1.05177,-4.10421,3.57832,-7.27434,0.753186,3.02155,3.5091,4.64759,1.5002,-5.03652,4.27396,-1.65112,-285.48,-895.48,-335.744,280,-140,-2380
9.35142,8.21282,6.05282,9.83413,7.11922,-1.44457,8.3855,-8.31317,7.71547,11.0845,11.7114,11.2847,9.46433,2.21679,7.72907,2.26885,-283.04,-896.944,-332.328,280,420,-2660
30.3702,34.2025,22.9166,31.6498,26.6828,5.29161,22.6224,-0.113245,32.8171,28.116,22.7524,31.4546,19.221,15.0444,23.2848,13.9695,-282.552,-896.456,-334.768,-420,840,-3080
24.5778,30.8133,16.17,23.8412,18.1175,3.98545,12.0801,4.09602,30.2064,20.046,9.66123,27.0096,9.55051,6.4715,12.5885,8.86417,-279.624,-896.456,-327.936,-700,1120,-3500
4.96847,5.99957,2.14607,-2.28468,-2.46644,-1.08619,-9.07225,2.46566,7.03705,3.45171,-3.6035,2.77416,-1.98711,-4.81034,-12.261,-3.40081,-277.184,-896.456,-329.888,-1540,1400,-3920
-10.2823,-12.7301,-8.62095,-13.1461,-13.1472,0.729784,-10.6242,5.15899,-8.16942,-12.6355,-10.0751,-15.0232,-7.1629,-4.39831,-19.3915,-3.09748,-276.696,-897.432,-329.888,-1960,1540,-4200
-11.8957,-3.72463,-0.618346,-1.43631,0.442787,5.80232,4.34104,12.8361,-9.76191,-9.3838,-10.0956,-9.21328,-3.31199,6.13809,-6.71439,11.2284,-274.256,-894.016,-334.768,-2660,1680,-4480
-17.0488,-13.0812,-5.68602,-11.8075,-8.71988,1.55971,-7.39812,1.7325,-19.83,-13.2061,-8.53206,-14.0386,-4.15647,4.04548,-18.8588,2.46661,-275.72,-895.968,-333.304,-3080,1680,-4480
-19.372,-14.8091,-6.72489,-14.0166,-10.4093,-3.63825,-11.3928,-5.46101,-27.1179,-12.1909,-4.68395,-15.7656,-3.2907,-2.00561,-19.3106,-2.17975,-274.744,-896.944,-329.888,-3220,1400,-4620
-13.7877,-12.9602,-7.84637,-10.6496,-8.27096,-7.74985,-10.0385,-11.3122,-21.7349,-7.4622,-0.928301,-13.266,-3.89471,-6.14118,-13.6156,-4.21014,-276.696,-895.968,-336.232,-3780,1400,-4480
-7.24122,-5.41873,-7.80754,0.263832,-5.08197,-4.49834,1.075,-3.64986,-8.77368,-3.97814,-1.5525,-5.64349,-2.54127,-5.59993,2.11499,1.93454,-272.304,-895.968,-336.72,-4200,980,-4340
1.82327,-0.748582,-5.26787,4.30975,-6.33714,-0.362029,1.05444,-3.29882,4.30456,2.15699,2.05159,-0.915268,2.34014,-3.003,7.67047,-0.966392,-271.816,-894.504,-334.768,-4480,1120,-4200
7.39183,3.64576,0.158903,6.9304,0.132444,3.87952,4.09518,3.70643,10.3141,5.65047,1.59894,1.23346,1.83413,-0.984271,8.62529,2.37183,-272.792,-894.504,-334.768,-4480,980,-3920
-0.726309,-5.02543,-1.79022,-0.292984,-3.21066,4.62149,1.22587,5.46715,0.716119,-1.27452,-2.37261,-4.00431,-3.98873,-2.20382,3.41489,2.60605,-270.84,-893.528,-335.744,-4620,980,-3640
-2.68981,-7.68138,-0.352111,-7.10395,-5.54569,0.934642,-8.47641,-0.843666,-3.16398,0.854472,-2.64057,-5.61314,-5.76381,-3.39312,-6.08265,-4.15806,-273.768,-896.456,-332.816,-4480,1120,-3500
2.85268,-3.48864,-0.244844,-4.2871,-6.08148,0.270437,-6.67026,-5.67089,3.91087,-0.424831,0.577933,-4.42795,-4.07136,-1.71593,-2.09492,-6.99615,-272.304,-897.432,-333.792,-4480,1260,-3360
10.4677,11.0932,8.8102,4.26511,6.92429,2.04771,-1.44954,1.25405,14.9368,6.57393,2.89689,3.11303,1.3057,3.08666,4.72019,-1.67475,-272.792,-897.432,-330.864,-4620,1120,-3080
4.20808,9.54977,3.87232,4.90666,6.80255,-0.379391,3.06359,2.63842,10.837,-1.70677,-0.637949,1.38448,-0.196295,-1.7339,9.91701,-1.57038,-273.768,-900.848,-333.304,-4900,1120,-2940
2.83577,10.3302,3.03419,7.85231,9.16298,0.382929,8.49216,4.55178,7.4565,-3.11085,-1.45387,3.71543,1.20722,-0.0513991,15.0839,1.0837,-273.28,-899.384,-334.768,-5040,1260,-2800
-0.868078,5.03408,4.16639,4.07503,8.2423,2.25975,7.66099,7.86401,-1.95827,-1.18679,-0.357825,4.66138,0.0726157,3.23595,8.63773,3.74585,-270.352,-900.848,-337.208,-5040,840,-2660
-19.4349,-15.8864,-8.2823,-15.0663,-8.02717,-3.05988,-5.18205,4.19556,-25.0496,-11.811,-7.03646,-8.70134,-7.96271,-3.58962,-10.4897,-3.42271,-273.28,-902.312,-336.232,-5320,840,-2380
-27.6977,-24.3371,-12.0909,-20.9178,-16.4288,-5.65633,-11.3322,-0.218539,-34.2062,-17.1254,-7.21435,-15.8553,-6.72976,-7.14973,-18.0249,-7.17715,-275.232,-902.312,-337.208,-5180,560,-2100
-10.6108,-7.67398,-3.94268,-3.30405,-4.19133,-0.404916,-2.64176,-1.89079,-12.401,-6.26145,-1.16537,-3.04231,0.282797,2.67255,-5.12525,-1.35618,-277.672,-902.8,-340.624,-5460,140,-1820
32.0241,29.3852,21.2314,26.3773,24.3475,11.897,16.8886,9.04082,32.5052,26.2623,13.5027,31.7541,14.7068,21.1609,16.665,17.8075,-276.208,-903.776,-335.744,-5460,140,-1540
42.1827,36.9813,22.9007,32.3935,28.9212,10.5321,18.9537,8.26449,42.7649,30.6306,12.5846,38.5231,14.0846,21.6374,21.1029,17.818,-276.696,-901.336,-338.184,-5460,-140,-1260
30.6782,33.1993,11.5101,32.5659,22.77,7.98693,22.7183,9.0442,37.6802,15.3681,4.99098,28.5819,6.67284,14.178,31.094,16.129,-279.624,-903.288,-336.72,-5600,-280,-700
17.5843,16.5713,1.38692,13.2316,7.54058,-0.0309884,5.92555,2.68543,23.2068,11.1949,4.06955,10.8619,-0.496085,0.143736,15.7243,3.94845,-275.232,-899.872,-339.16,-5460,-560,-280
-12.2105,-18.3079,-16.3005,-18.5221,-17.8144,-9.83615,-16.2091,-12.6871,-15.6577,-11.2434,-2.1859,-16.0839,-8.68716,-14.3149,-17.7817,-16.4608,-275.232,-902.8,-337.696,-5600,-420,0
-23.7413,-23.5306,-10.6134,-14.9902,-12.278,-5.1202,-7.19794,-9.59379,-30.5414,-16.9497,-2.02173,-16.7712,-4.8877,-5.07264,-12.7194,-9.75677,-275.232,-903.288,-332.328,-5460,-560,280
-3.72251,-3.34534,6.12009,-1.35702,4.44921,-0.873336,-1.36858,-7.44493,-8.13828,2.60936,5.16404,1.43788,1.69197,2.87448,-5.02318,-1.81032,-277.184,-903.288,-334.768,-5320,-840,700
8.75927,-3.81161,3.0586,-9.38791,-2.86566,-4.94804,-9.6967,-13.1999,4.33312,7.87444,5.05977,2.97004,-0.278172,-3.15622,-13.6145,-8.22869,-277.184,-902.8,-333.304,-5180,-1120,840
3.82602,1.24313,-1.70583,-4.32065,-0.771789,-3.72266,-2.15641,-2.19773,7.61266,2.08072,-4.0312,-0.765375,-1.3802,-6.82418,-2.36604,-1.43425,-275.72,-901.336,-334.768,-5180,-1260,1120
-11.7559,-13.9813,-12.6505,-15.9342,-14.9873,-5.64226,-8.72365,-5.22351,-6.91284,-12.2982,-8.50111,-15.0017,-2.55527,-13.4676,-12.1855,-7.38003,-278.16,-899.872,-337.208,-5040,-1540,1400
-16.0909,-15.4115,-9.88989,-18.2873,-14.9567,-4.40158,-7.79506,-0.722762,-14.8921,-12.9891,-6.70879,-17.5727,1.05768,-10.1549,-13.7378,-4.21146,-274.256,-902.8,-342.576,-4900,-1820,1400
-18.8148,-15.395,-8.05304,-13.6069,-12.1149,-2.07083,-3.50375,0.125239,-19.9999,-12.0433,-5.18345,-16.5974,1.69792,-4.73873,-9.32237,-3.3166,-276.208,-901.824,-339.648,-4620,-2380,1960
-16.9325,-7.84231,-2.63841,-1.40761,-2.01934,2.2424,4.12937,4.79669,-16.1447,-7.19991,-5.51348,-8.59702,1.8188,1.10461,4.21883,1.86304,-275.232,-899.384,-336.232,-4620,-2380,2100
-13.0717,-9.80066,-4.24191,-3.39841,-3.75776,1.41888,-0.0476237,5.16402,-10.9161,-7.38575,-6.18124,-9.84904,-1.37104,-1.26787,2.13494,2.23478,-272.792,-899.384,-338.672,-4060,-2660,2380
-3.76678,-10.1241,-4.07399,-8.70516,-5.53473,-1.1738,-6.39392,-1.01055,-4.65459,-2.27702,-1.26058,-9.78647,-2.06066,-2.53549,-6.40947,-3.79567,-276.696,-897.432,-335.256,-4200,-3220,2660
6.15908,1.2717,1.05247,-0.918367,1.18315,0.4071,-2.8099,-3.37798,5.84222,3.75293,3.00696,0.5392,0.733455,-0.89505,-0.823914,-4.00906,-277.184,-896.456,-337.208,-3780,-3640,2940
12.3262,9.22588,7.45261,2.8384,7.21575,0.744086,-3.1532,-3.48999,11.9016,12.5499,7.61526,8.10041,4.71925,-0.21644,-4.34797,-4.89809,-276.208,-896.456,-336.72,-3640,-3920,3220
16.2332,8.4688,6.42349,4.48339,3.22189,1.86842,-1.27388,-8.07748,16.3462,11.9983,10.9037,8.81667,4.79733,0.794013,-2.04638,-6.80091,-279.624,-894.992,-340.624,-3780,-4340,3220
14.388,19.8208,11.5148,20.42,16.2074,4.36533,13.8807,4.10617,16.2845,14.899,6.81501,16.0083,3.69358,7.36402,17.9231,8.81227,-280.6,-894.504,-340.624,-3500,-4900,3360
6.42292,13.7053,2.79473,21.3958,10.4753,3.64938,17.6042,8.67629,9.20223,1.54375,-2.61653,10.169,-4.2532,6.82442,23.4192,12.1024,-278.648,-894.504,-338.184,-3080,-5180,3500
-0.718561,3.27269,-1.86703,9.09484,0.745097,0.434372,4.24776,4.03333,1.29394,-3.11665,-5.34346,1.93185,-5.70609,3.15414,6.85135,6.47783,-278.648,-894.504,-342.576,-2800,-5600,3640
3.01827,3.03593,3.3866,5.02582,1.20181,1.63715,0.970095,1.54604,3.59454,0.831347,-0.857467,4.27425,-0.871921,4.57452,0.947886,5.7594,-279.624,-892.552,-339.648,-2520,-6160,3640
6.0222,8.84933,7.54406,9.97724,5.74916,4.32273,8.02422,2.98624,5.2716,2.2449,-0.843878,10.1221,1.32037,8.11342,8.88519,9.30359,-279.136,-892.064,-339.16,-2240,-6440,3920
-2.26049,6.11672,3.59716,4.78952,2.57237,3.74254,5.14786,7.46417,-3.85986,-1.75566,-1.64656,5.14625,-1.50698,4.81222,5.75472,8.02182,-282.064,-893.528,-342.576,-1820,-6720,3920
-14.6827,-18.6726,-8.57742,-22.7726,-20.8567,-5.06656,-21.1579,-2.84674,-21.327,-11.8695,-1.93315,-15.4013,-8.34191,-9.82129,-23.3968,-10.8136,-282.064,-895.48,-342.088,-1540,-7420,3920
-18.2657,-15.9998,-9.57842,-19.1397,-17.2983,-4.20778,-17.2908,0.632649,-20.9023,-14.7914,-4.88232,-14.8916,-6.36249,-7.90353,-22.1294,-7.74461,-281.576,-894.992,-340.624,-980,-7840,3920
-8.70158,-4.58698,-3.19424,-3.81442,-2.66604,-1.30006,0.605693,6.2258,-9.4704,-5.63827,-1.74834,-6.30363,-2.06353,0.793848,-0.177117,2.20912,-283.04,-897.92,-341.112,-700,-8540,4060
-2.26724,-1.22126,0.0195935,0.420116,1.48888,-2.62821,3.6365,2.98051,-2.74707,-0.970376,3.44941,-2.77957,0.836994,-0.00111553,8.67159,1.53305,-283.528,-897.92,-336.72,-420,-8820,4200
-2.66177,-5.51989,-1.87249,-6.54487,-3.53731,-2.4526,-5.7668,0.085494,-4.86438,-1.68274,3.65627,-6.21608,1.87144,-3.62074,-2.16376,-6.12662,-284.992,-900.36,-338.672,0,-9660,4340
2.86602,-3.61042,-0.828751,-6.53979,-4.17733,-0.34064,-8.95964,-2.0665,-0.383764,0.664875,3.58462,-4.49889,3.26427,-2.85916,-8.79272,-8.90166,-284.016,-897.92,-332.816,560,-10360,4620
5.03482,-1.97453,0.606443,-6.7778,-2.17071,-1.03937,-11.4769,-4.83298,1.94276,4.22091,4.44815,-0.773339,5.26927,-2.44408,-17.215,-9.93806,-284.016,-897.92,-337.696,700,-11060,4620
8.70097,2.1149,3.57939,-1.18793,4.23738,0.67117,-5.06,-1.11566,7.97277,8.32219,2.52102,4.61618,5.16619,0.221998,-11.3943,-5.62126,-284.016,-899.872,-335.256,980,-11900,4900
17.4207,13.3302,6.15023,14.0896,13.5326,6.92497,14.0257,5.29208,21.8555,9.96133,-2.16601,13.324,3.85815,8.37225,11.3961,7.65259,-284.504,-899.872,-333.304,1120,-12880,5040
23.2531,31.4405,16.3011,30.6088,30.2245,10.7921,30.3618,9.92515,29.7687,14.8016,-1.4256,26.0146,6.93117,17.1185,31.5119,21.0845,-283.528,-898.896,-336.72,1820,-14140,5320
7.31861,19.6927,4.77957,25.0687,21.2052,4.24466,26.156,1.97699,14.6678,-2.07679,-6.16241,12.9266,-0.221732,10.0369,31.9493,13.0563,-283.04,-898.408,-337.208,2240,-15120,5740
-9.90448,1.05722,-7.15649,1.59883,1.24775,-5.34212,1.00612,-7.17685,-4.09739,-6.36582,-2.69659,-5.84939,-2.97119,-6.09559,4.9599,-4.02227,-283.04,-898.896,-334.28,2520,-16240,5880
-10.078,-13.8086,-8.67503,-20.0934,-16.4489,-10.1924,-21.4805,-20.7137,-12.7476,0.849834,8.12904,-13.916,0.285824,-13.4421,-23.7368,-17.768,-284.016,-899.872,-335.256,3220,-17640,6160
-1.91069,-4.88986,4.83967,-5.87524,-4.95673,-3.94512,-6.47787,-15.7025,-9.01275,9.97682,14.056,0.549598,6.31747,-1.66512,-9.82841,-4.47077,-282.552,-899.872,-337.696,3640,-18760,6440
4.63069,4.5779,6.27965,11.9481,7.22209,2.19051,11.8481,-1.62092,2.36156,6.01367,-2.14384,14.3353,-2.37748,7.4063,14.0862,9.09719,-285.48,-897.432,-334.768,4060,-19740,7000
10.4244,7.1171,-1.63743,8.78948,3.84005,1.77535,6.21817,5.31068,14.005,2.01012,-10.6139,10.9014,-7.64179,-0.302965,11.4194,6.39616,-283.04,-896.944,-334.768,4760,-21000,7560
5.15119,4.61992,-8.66495,0.654896,-5.18816,2.43698,-2.85662,6.95386,14.1028,-4.19596,-8.03571,-1.34587,-4.76767,-6.16549,0.398995,2.7881,-281.088,-897.92,-335.256,5180,-21420,7980
-13.6256,-12.5426,-11.8858,-10.587,-9.41199,3.2938,-5.25843,10.7803,-11.0153,-13.9486,-7.64421,-17.4162,-2.06706,-2.8544,-6.63095,6.74347,-282.552,-896.456,-336.72,5460,-22120,8680
-23.4308,-32.843,-13.2758,-28.931,-20.8672,-0.679339,-16.6513,-0.770676,-30.7715,-16.7295,-2.64016,-23.9821,-1.14718,-4.70032,-21.7942,-4.10503,-284.504,-895.48,-331.352,5600,-22540,9100
-7.68472,-8.94571,2.65176,-5.61112,0.517396,1.43425,1.68905,1.08864,-13.2433,-1.15477,1.00867,-1.62296,2.12547,3.69945,0.327954,7.18277,-282.552,-894.992,-332.328,5740,-23240,9800
17.9587,22.1939,15.0643,30.1505,23.0416,7.03379,27.3977,4.14238,20.173,9.49552,9.02254,23.8878,5.34729,15.3133,36.3547,17.811,-285.48,-896.456,-335.744,5740,-23940,10500
16.5242,17.0763,7.17226,13.2287,8.98514,-0.708711,6.28569,-0.130624,20.7863,8.12254,3.91416,16.5937,-2.6534,1.85608,11.4558,0.0631993,-284.992,-893.528,-334.28,5880,-24780,11200
-15.3332,-23.6922,-19.9141,-33.3711,-29.851,-14.715,-34.6227,-14.392,-14.7183,-13.8725,-4.08182,-20.0748,-13.7287,-23.5622,-40.399,-30.5736,-284.504,-893.528,-334.768,6020,-25340,11760
-24.2635,-30.8781,-22.1089,-34.9647,-32.8709,-12.2662,-30.1793,-11.1357,-23.6162,-17.7995,-4.64801,-29.7116,-10.9736,-23.1535,-35.1562,-29.5663,-285.968,-896.944,-336.232,6440,-26040,12460
-17.5294,-15.8964,-5.7479,-14.3204,-11.9116,-3.67492,-6.54973,2.25946,-16.7192,-8.83363,-0.872389,-15.4068,-0.889914,-8.5804,-10.1495,-11.7219,-283.528,-896.456,-336.232,6720,-26740,13020
-11.801,-16.2341,2.41175,-16.6551,-10.4119,-4.22431,-10.1432,-2.28036,-17.2613,-2.3719,3.71549,-8.10399,4.42942,-2.29667,-18.9867,-14.1907,-284.992,-898.896,-335.744,7280,-27440,13440
-6.71775,-5.39672,5.22215,-5.70905,-2.6222,-3.01592,-3.12995,3.11286,-10.8144,0.358307,0.842199,-2.95383,3.84139,0.157474,-7.92342,-4.01592,-284.504,-895.48,-334.768,7420,-28280,13860
-4.0283,-6.21106,5.95089,-5.22485,0.625543,-2.65357,-4.81142,1.18532,-13.5186,3.28777,-0.544221,-5.04628,0.658884,0.394451,-5.81027,-3.25267,-285.968,-897.92,-332.816,7980,-29260,14420
-6.719,-6.76256,4.5673,-1.80888,2.0937,1.38466,1.96313,3.63007,-17.3192,-1.39859,-3.26989,-4.68703,0.589033,4.51579,-0.244633,2.39697,-287.432,-898.896,-334.28,8120,-30100,14700
9.50344,11.4797,13.5226,20.0078,18.7786,10.1195,21.4791,12.6137,3.14716,8.04326,-3.32246,12.8122,3.10909,19.073,21.9634,18.9472,-287.92,-897.92,-336.72,8820,-31080,14980
49.1242,52.5725,31.2135,56.2088,48.8337,20.5965,46.3856,18.5925,54.9233,32.6135,4.93712,43.0189,10.7589,33.4343,55.5344,36.3085,-286.944,-898.408,-337.696,9380,-31500,15120
44.4788,55.3648,20.458,56.3546,45.6733,15.2557,40.6021,12.9567,61.8232,22.8272,1.45138,35.4944,7.52025,22.3209,53.4895,31.4585,-284.992,-895.48,-336.72,9660,-31920,15260
10.5863,17.2039,-0.539824,14.7161,10.6044,-1.3442,6.70756,-2.647,21.1933,2.41441,4.23541,1.57978,3.43771,-1.50933,10.234,6.9135,-287.432,-897.432,-339.16,10360,-32340,15540
-10.8014,-13.1528,-13.6537,-14.583,-17.455,-9.04148,-14.4753,-11.4072,-8.46526,-8.2552,6.44628,-19.7569,1.49166,-16.2776,-14.2346,-11.915,-288.896,-893.528,-337.696,10920,-32620,15820
-22.889,-18.7085,-12.8667,-20.2942,-17.5914,-6.10035,-17.3029,-3.9347,-25.7965,-9.3294,2.16142,-19.0823,-0.832353,-16.9746,-17.368,-9.21343,-288.408,-893.528,-334.768,11060,-32900,15960
-8.40646,-7.40195,-10.7793,-10.8346,-13.3676,-0.710872,-11.8772,-1.8176,-7.92013,-6.53005,0.632368,-5.98391,-2.60512,-7.51058,-13.0399,-4.98384,-289.384,-894.016,-332.816,11340,-32620,16100
4.97273,10.4475,1.06654,3.44044,0.820069,5.44705,0.181293,4.30945,7.47106,1.60544,0.39036,8.92995,2.17839,4.09066,-2.33928,6.59159,-289.872,-894.504,-328.912,11480,-32480,16240
-8.04478,-3.88264,-5.37547,-7.06696,-6.56788,0.52539,-8.0819,-7.08837,-9.04016,-8.60459,-4.4436,0.191389,-1.54019,0.238727,-11.3034,-3.19937,-291.824,-895.968,-328.912,11480,-32760,16380
-3.59581,-7.83924,-2.33461,-11.916,-10.245,-3.65345,-14.0675,-15.7628,-7.96375,-2.89873,1.77928,0.0915817,1.53076,-3.18598,-16.2911,-10.8205,-290.848,-894.016,-327.936,11480,-32620,16660
6.93241,-3.77613,4.93916,-7.78083,-6.78781,-3.67362,-10.6223,-17.5454,1.26264,9.20258,15.4233,6.60522,7.88601,-0.0757376,-10.9585,-11.7531,-293.288,-893.528,-327.448,11900,-32200,16940
13.0766,4.79282,6.40094,0.544503,-3.36249,-4.46683,-7.31361,-11.1815,12.6037,13.7056,13.6506,8.35359,5.07373,-0.656539,-5.02563,-12.7911,-290.848,-893.528,-329.888,11900,-32200,17360
7.94823,8.47191,2.71309,9.85228,0.622174,0.229268,4.89914,2.73962,10.856,3.69538,-4.32927,6.95061,-4.05294,1.00361,11.5158,-2.40166,-289.384,-890.112,-327.936,12180,-32900,17360
-8.3287,-4.44736,-4.41945,5.10544,0.298019,3.08108,8.93079,12.7692,-10.4855,-9.44947,-18.5961,-2.02263,-12.0664,3.17512,13.9332,2.81156,-290.36,-887.672,-328.424,12600,-33180,17640
-32.5055,-29.3468,-18.1,-17.3554,-11.9725,-1.65094,-3.95256,7.58885,-37.703,-28.1238,-18.8907,-21.9802,-13.136,-5.38099,-6.35371,-2.50424,-288.408,-888.16,-330.376,12740,-33740,17920
-27.9721,-25.7353,-13.6135,-27.1949,-12.862,-3.64462,-15.3474,3.3631,-28.957,-21.7713,-10.6536,-25.1267,-7.0382,-10.3617,-24.8616,-5.58235,-289.872,-887.672,-333.792,13580,-34720,18480
1.84558,-4.4801,1.08395,-11.3384,-0.929848,1.61413,-4.70666,3.65772,5.88277,0.622451,0.608904,-4.45905,1.32093,0.015525,-12.0818,1.8618,-291.336,-883.28,-333.304,13580,-35280,19180
19.2861,13.5018,13.6433,5.11133,13.3284,3.83446,9.02316,7.70117,20.7087,18.1387,5.32322,12.0642,5.4316,8.2247,7.36314,11.5687,-291.336,-885.72,-327.936,13720,-35280,19460
12.7065,10.6279,5.16175,6.92157,9.28704,1.78755,12.9704,10.5666,13.8145,9.20853,1.55391,5.35071,0.573892,4.65381,14.0533,13.1894,-289.384,-886.208,-328.424,13860,-35420,19880
20.2741,21.1374,5.29351,22.7899,17.0005,6.30765,25.173,16.8754,26.1897,9.83552,0.0724501,13.4349,0.620341,9.08234,31.2919,21.5096,-290.848,-880.84,-329.4,14000,-35420,20020
25.0902,28.045,9.47885,29.1202,20.6824,8.11972,25.4421,13.2624,32.5494,13.2078,-0.102586,20.5138,2.64062,11.8507,29.5578,21.0404,-289.872,-880.84,-327.936,13720,-35140,20160
2.56299,11.074,-2.79708,13.3793,8.56604,0.422073,4.28302,-2.4023,6.84608,-3.64983,-6.42919,5.56379,-2.56934,2.72372,4.94732,4.34802,-287.92,-883.28,-329.4,14140,-35420,20720
-9.4907,-0.458607,-3.65938,-0.5339,0.0149488,-2.45369,-7.21306,-8.61262,-6.70458,-9.24808,-3.38358,-2.97884,-2.7219,-2.57307,-13.9353,-4.6977,-291.824,-879.864,-329.888,13860,-35140,20860
-23.2994,-22.8567,-5.99496,-14.8618,-9.09282,-3.22959,-13.8814,-9.79178,-27.0583,-11.972,-2.43625,-13.7541,-4.60201,-4.65699,-21.4423,-9.3964,-291.336,-884.256,-328.912,13720,-34580,21000
-24.9961,-30.7696,-7.43001,-21.5744,-17.4626,-5.4365,-19.3016,-12.1522,-35.6089,-10.7919,0.262111,-16.5854,-5.48895,-10.7266,-21.441,-14.7863,-293.288,-886.208,-328.912,13440,-34160,21420
-5.68965,-8.85606,2.41963,-4.41498,-5.17966,-3.05628,-5.61475,-8.44725,-12.9326,2.20752,7.0665,-2.7403,0.566232,-4.5029,-3.69449,-6.56839,-293.776,-886.696,-326.472,13160,-33600,21560
-8.87378,-5.56595,-2.18844,0.443595,-3.26966,-4.23319,0.607461,-3.83052,-11.763,-4.33399,2.52074,-4.45073,-1.44775,-4.89543,3.65984,-4.6469,-295.24,-886.696,-329.4,12880,-33460,22120
-1.12245,-4.67229,-2.3684,-7.51672,-11.2095,-9.24085,-12.0515,-15.3203,-3.68362,2.63709,5.63991,-3.54999,0.814758,-9.06445,-9.33921,-17.4862,-297.68,-886.696,-328.912,12600,-32620,22400
11.286,14.0191,11.2008,7.92544,4.79159,-3.1992,-0.682635,-10.8135,10.9146,15.0285,17.8761,12.6558,12.5023,1.78693,3.74148,-6.61064,-296.704,-889.624,-329.4,12460,-32060,22680
10.4589,15.3998,10.9483,14.5972,8.87278,0.199631,11.5162,-3.29696,13.1533,10.7589,20.2243,15.9357,15.2128,8.51259,14.4137,0.754132,-298.656,-886.696,-334.28,12320,-31220,22680
12.632,12.9436,7.02521,6.39071,1.27461,-7.38283,0.435741,-0.652907,14.6843,13.5758,12.7946,7.77338,8.86746,-4.53905,2.12485,-9.21828,-298.168,-888.16,-329.888,11760,-29540,22400
3.69673,-9.0943,-12.4561,-13.3179,-18.5999,-9.55745,-13.0013,-1.19141,2.27191,-4.05558,-3.80158,-11.9422,-5.57482,-16.6015,-14.4472,-19.4672,-295.24,-889.624,-328.424,10920,-27720,22120
3.1724,-4.64059,-10.7885,-8.33133,-8.27707,2.5763,-3.34924,11.2833,3.96586,-6.59805,-15.5729,-8.24417,-7.55256,-3.50626,-5.2877,-3.17473,-299.632,-888.16,-329.888,9520,-26320,21560
-11.7647,-13.6265,-14.6986,-10.3934,-4.92207,5.15112,-1.29203,6.16299,-10.8039,-16.0431,-18.7594,-14.0454,-7.53802,-0.0930116,-4.72605,-0.694374,-292.8,-896.456,-338.184,7000,-23660,20440
-25.9323,-21.0588,-14.355,-14.4012,-6.05589,1.5903,-5.91944,-3.65833,-26.1841,-19.3687,-11.8926,-19.0178,-4.38426,-3.64676,-7.91484,-4.94781,-280.6,-890.112,-346.968,2940,-18620,17920
-20.5536,-23.6118,-6.61509,-22.3505,-14.049,-2.4448,-18.1415,-11.3242,-25.1002,-8.33306,-0.317566,-18.4244,1.34012,-6.78325,-19.267,-10.9387,-281.576,-894.016,-351.848,-6300,-4060,12180
-3.96043,-8.91649,6.7983,-7.1448,-2.9451,4.27675,-4.09721,-0.660729,-10.6881,5.78777,4.6723,-5.27014,6.61896,1.55314,-1.18682,3.27034,-297.192,-899.872,-352.824,-13300,7140,7980
4.83323,7.58158,12.9985,13.5043,14.5262,13.2263,18.4795,20.2918,4.88402,6.54115,-5.44855,7.8752,1.36691,14.2963,22.9977,26.1338,-300.608,-885.72,-346.48,-19180,7980,6860
26.9197,21.4049,16.2379,18.8163,21.0637,12.1022,19.0998,18.4364,29.9254,16.2963,-1.4671,17.3666,-0.236434,15.6748,22.7782,25.5282,-299.632,-882.792,-346.48,-21560,6440,7840
26.6586,21.6456,8.13051,17.1059,14.5279,9.05265,15.6269,8.53694,33.2736,9.69707,1.6089,15.7595,0.0604298,12.6455,23.4856,19.123,-302.56,-882.792,-340.624,-23100,6580,8120
15.7379,14.2599,8.45574,5.01888,9.57619,3.70964,3.11873,2.22209,16.323,10.8634,3.12741,10.3476,1.85584,6.6519,3.74434,10.7525,-298.168,-881.816,-332.328,-22680,6440,7700
4.16523,5.49653,4.23411,-2.31306,1.98367,1.33664,-4.47764,1.6105,2.45622,2.0856,-5.13514,7.32842,-4.50081,1.56082,-11.1373,3.52185,-300.608,-882.304,-329.4,-20860,5460,7140
-6.54802,12.1844,-0.745123,10.6713,9.37232,5.86941,7.42097,14.8429,2.06913,-11.5989,-20.7839,10.959,-9.64939,6.20242,1.82667,14.8846,-299.632,-878.4,-320.616,-16240,3920,6860
10.6707,26.0857,3.70811,23.6077,17.1952,9.12922,18.0633,13.802,25.8075,-3.86631,-7.85941,19.4548,-0.325315,12.3589,14.4265,20.3908,-296.216,-877.424,-321.592,-12320,1680,6580
19.4313,21.2379,11.518,22.5716,20.7897,9.68441,18.8717,5.38389,22.8052,10.6541,7.17125,22.6637,10.8133,20.0445,14.0317,19.0617,-292.312,-879.376,-324.032,-10780,420,6160
9.5491,9.91302,9.36012,11.8458,11.5271,-1.16064,6.68494,-7.68697,7.10839,10.1344,13.9148,14.4053,9.38115,6.90848,6.88559,5.19376,-293.776,-880.84,-322.568,-9100,-980,6160
-3.02881,-7.54976,-5.56828,-6.81781,-10.3978,-15.9708,-9.33957,-26.6268,-2.66897,-0.00248299,14.4425,-4.88217,0.0704665,-13.529,-6.75828,-15.7309,-289.384,-881.328,-320.616,-7840,-2520,6440
-12.1526,-12.3978,-10.4112,-10.5661,-15.2125,-19.2262,-7.83198,-23.1918,-11.0691,-2.88306,11.3291,-14.7017,-4.83313,-20.9676,-6.15128,-18.8257,-289.384,-880.352,-327.448,-6440,-3640,6580
-13.7239,-14.1118,-10.9583,-15.4999,-20.4543,-17.8737,-17.4946,-16.8347,-14.0344,-4.78251,5.15466,-17.616,-6.68125,-22.7569,-16.6527,-28.5399,-291.824,-885.72,-327.448,-5600,-3780,7280
-14.9049,-18.9944,-12.6903,-23.4094,-30.1605,-12.4409,-30.3727,-12.9811,-18.7947,-6.32239,4.30541,-19.6811,-4.59073,-21.923,-28.9368,-35.7324,-287.432,-886.208,-326.96,-5600,-3220,7560
-11.8889,-16.1774,-6.08733,-12.1031,-17.5225,-2.53011,-10.6302,5.08937,-18.2715,-2.22622,4.47159,-14.9662,0.206375,-6.94193,-5.99612,-15.2738,-284.016,-886.696,-331.352,-6160,-1540,7840
-8.92703,-11.6374,-3.87463,-0.900405,-5.08302,3.09985,6.04747,14.8039,-15.6629,-2.85568,-1.3991,-10.7871,-0.0736061,1.86918,9.37016,0.335092,-284.504,-886.208,-332.328,-7000,1820,8120
-17.2558,-11.8061,-7.41198,-0.704534,-3.14753,3.01936,5.0528,13.3222,-21.2322,-13.73,-10.9544,-11.7036,-5.40317,1.95875,5.65146,2.11873,-282.552,-890.112,-332.816,-7980,3780,8120
-24.3833,-16.5807,-7.82834,-5.67484,-2.68348,4.55854,1.00267,10.5286,-31.9857,-18.4482,-12.7321,-12.8898,-3.58613,3.00258,-2.14108,2.37964,-281.088,-892.064,-330.864,-8680,6720,8540
-16.243,-10.6887,-4.80629,0.623346,5.93486,9.3481,5.11099,5.40341,-21.1286,-13.918,-8.33601,-3.6696,2.36413,8.40618,0.20522,5.9431,-284.504,-899.872,-334.768,-9520,8820,8820
7.374,12.4899,11.4939,15.4358,21.7908,8.94517,13.2034,3.36149,8.01423,6.98013,1.69879,13.6303,9.84233,12.9952,11.8321,12.6534,-289.872,-900.848,-332.816,-10080,11340,8960
15.8171,11.4807,6.08927,3.62763,3.00165,-5.49914,-6.96012,-15.4156,21.0881,8.57958,4.05007,11.0409,4.68,-1.95118,-4.72851,-7.65034,-291.336,-905.728,-332.328,-9940,12320,9660
26.0775,20.0285,11.4391,6.59396,6.51466,-5.96725,-2.20576,-15.0647,32.2718,20.4589,11.5026,17.4487,7.77397,-1.04037,-1.4316,-4.33126,-293.776,-906.704,-328.912,-9800,13020,10500
14.5652,-4.46006,-1.19345,-19.0121,-11.949,-7.29883,-17.4445,-14.5443,15.5211,12.9987,7.51194,-3.53078,1.43712,-9.59026,-21.514,-12.2015,-297.68,-915,-329.4,-9660,13440,11200
-0.859084,-11.9516,-4.35137,-20.4074,-11.8242,-2.42669,-15.5355,-3.42095,-4.26824,0.234079,-0.997912,-10.1445,1.42317,-7.71629,-16.163,-5.77117,-296.216,-916.952,-327.936,-9800,13860,11200
-1.13749,6.03765,6.3729,6.16753,8.90042,9.05159,9.70254,12.1297,-2.96338,-3.18487,-2.96672,6.37229,4.44165,9.92593,14.4381,14.5165,-297.192,-915.488,-330.376,-11200,14840,10920
-7.22392,3.09792,7.09553,-0.705484,7.64309,6.60934,-0.744271,7.07399,-10.2421,-5.6014,-4.9564,4.35072,0.416845,8.24837,-5.90308,8.25044,-299.144,-914.024,-328.424,-12600,16100,10640
-19.8481,-21.274,-9.6346,-26.5607,-14.029,-2.90626,-18.3988,-1.41353,-26.1301,-12.8162,-7.33002,-16.2954,-8.1165,-6.34788,-28.2016,-6.81894,-299.144,-911.096,-330.376,-14980,17780,10080
-9.631,-14.202,-11.4995,-15.5905,-11.4726,-3.61285,-7.5822,2.84363,-13.0107,-3.98932,-4.00491,-15.497,-8.15128,-8.7506,-8.25985,-2.57631,-297.68,-909.632,-329.888,-16940,18900,9800
17.7414,13.3058,-0.817329,13.8571,2.3907,2.48032,9.80672,2.56457,21.4207,12.3708,7.39121,4.27532,-1.42817,-2.94231,17.8682,3.10741,-298.656,-910.12,-326.472,-18340,19320,9940
17.1449,14.7404,-0.218265,15.5049,5.37381,-1.76,9.54852,0.637358,22.278,10.8901,4.90949,4.20167,-2.90129,-5.2422,18.2253,0.609019,-302.56,-904.264,-326.472,-19740,19040,10220
-1.76019,-0.763864,-8.22627,3.16413,-6.34592,-6.88599,0.6732,-5.67179,1.6012,-8.16741,-2.92754,-5.80374,-8.71536,-9.67858,3.64605,-5.09113,-300.12,-901.336,-327.936,-20160,19460,10780
14.0024,14.4857,9.45205,7.64049,6.58037,4.49567,3.16355,2.49995,18.2782,2.84812,-6.14457,15.3276,-4.7765,6.46468,-6.84403,4.3445,-299.144,-895.48,-331.84,-21000,20580,10640
16.9203,16.7498,15.9221,11.584,13.7455,10.8105,11.1126,7.73607,17.8605,6.47038,-9.14585,21.7613,-2.36416,15.7643,-2.8069,12.9285,-298.168,-897.92,-332.328,-20300,21000,10780
-0.148274,11.1573,6.82595,21.5524,22.4234,14.4857,27.7294,17.5355,4.72907,-9.27978,-20.1302,15.3025,-6.59281,22.0072,19.8605,26.4685,-301.584,-895.48,-331.84,-19740,21840,10640
23.1749,35.0333,18.6691,48.9677,43.2531,16.387,50.483,18.3734,30.7459,12.6888,2.01238,30.6235,7.43212,30.6243,55.6946,39.916,-300.608,-888.648,-335.256,-19460,21980,10500
29.7265,35.9868,19.2307,45.5809,34.1369,8.06442,37.001,2.41369,35.5114,23.6822,22.9966,29.9551,18.4508,20.3528,54.7449,19.9201,-302.56,-886.696,-341.112,-19740,22540,10360
-6.49418,0.0852014,-1.44585,7.97857,2.69351,-5.6311,2.35258,-7.28606,-2.70262,0.216256,11.6037,-0.79429,8.1142,-5.76606,18.1472,-7.33517,-312.808,-880.84,-342.576,-20020,22960,10080
-32.5985,-42.0301,-23.6105,-39.0454,-36.6858,-17.5953,-34.7419,-15.7234,-37.7022,-15.6155,-0.32985,-35.422,-6.15572,-27.4287,-28.1816,-30.7544,-315.248,-881.816,-346.48,-20440,22960,10360
-42.9186,-54.2636,-31.7214,-48.6843,-44.4596,-13.9708,-34.6484,-7.55306,-48.4446,-29.7687,-13.9386,-45.0687,-11.5333,-25.5367,-37.2574,-25.1975,-322.08,-872.544,-342.576,-20860,23240,10500
-32.3071,-39.121,-22.0599,-35.7422,-32.317,-9.15151,-27.1459,-5.54789,-37.3656,-23.0297,-13.0609,-31.8151,-7.27248,-14.1666,-31.6417,-17.3812,-320.128,-869.128,-346.48,-21560,22960,10780
-18.9531,-26.4496,-7.22566,-26.8576,-20.331,-5.50435,-23.2798,-8.24288,-27.6995,-7.93441,-2.3446,-16.8768,-1.42456,-9.02063,-30.6148,-13.2712,-320.128,-865.224,-347.944,-22260,22960,10640
13.7178,2.20547,9.51838,-5.18724,-0.508101,-1.32413,-5.51526,-5.60828,11.3577,17.3147,12.2409,6.57456,7.68034,0.994318,-10.3558,-1.18143,-320.128,-867.176,-351.848,-23520,23380,10360
33.2473,34.7974,18.9015,22.5862,19.4565,0.357209,8.11718,-1.29971,44.275,26.5737,13.9564,25.6112,10.2413,8.76531,11.7379,5.33601,-317.2,-871.08,-351.848,-24360,24220,9800
11.0456,20.2216,6.58227,10.7164,5.0789,-5.55881,-3.13419,-4.39216,22.7694,4.82314,2.09798,9.54871,-1.10607,-2.42495,0.879268,-4.27708,-317.2,-875.472,-343.552,-25340,25060,9520
0.322954,10.7332,10.0005,4.71668,8.15435,0.393225,3.60361,6.0307,-1.83949,5.42559,4.06577,7.51409,4.55048,3.7958,1.60959,5.4865,-321.592,-879.376,-340.136,-25760,25200,9100
-13.6815,-0.819382,3.81367,9.16757,10.7232,5.80574,14.4665,6.72964,-20.8958,-7.90723,-1.32526,4.39638,3.34088,10.0439,10.2382,11.0912,-323.544,-880.352,-349.408,-26040,24080,8540
-2.0346,10.0332,10.6785,9.84275,11.2437,6.74506,4.01432,3.98578,-2.98262,0.167258,2.92839,11.5627,6.95946,7.78667,0.910036,3.2684,-325.496,-874.008,-355.264,-26880,23660,7420
10.9609,7.33388,5.66822,-6.617,-5.27995,0.843075,-14.1951,-3.4557,12.2288,8.52272,8.95473,2.41457,5.99016,-4.96192,-15.4042,-10.6158,-324.032,-871.08,-355.264,-27440,24220,6300
3.89646,-4.57107,-5.26741,-14.5134,-13.7535,-0.635755,-14.8027,-1.20994,3.05977,2.66601,2.96639,-10.9151,-0.666333,-8.39578,-14.7509,-9.94664,-324.032,-865.712,-355.264,-27860,24360,5320
-25.4095,-25.839,-19.6261,-20.6066,-17.6488,-2.29156,-12.5303,1.79357,-28.5672,-20.2797,-12.1163,-24.896,-13.3339,-9.59381,-16.4777,-8.83442,-321.592,-860.832,-355.752,-28420,24080,3920
-22.1523,-30.6616,-18.8964,-26.7983,-19.3979,-3.28461,-16.0538,-0.107921,-29.9878,-18.3985,-10.3433,-22.4904,-13.2596,-9.59887,-25.1688,-9.92841,-323.544,-860.832,-358.68,-28560,23520,3640
8.60791,-4.50474,-3.48953,-2.69475,-2.00162,1.4056,-0.385278,-3.65624,4.11586,2.21929,3.07041,2.26325,0.717163,2.13283,-2.85015,-0.730489,-321.104,-863.272,-354.776,-29120,22960,2940
23.242,20.1754,9.68977,19.7045,16.3345,3.24746,11.2667,-1.44797,25.6022,15.3652,6.75022,17.1883,6.51208,7.74026,17.4233,8.07903,-323.056,-866.2,-359.168,-29820,23100,2660
15.7046,16.3335,8.16771,21.2781,13.2521,5.68888,17.3731,1.70796,16.4091,9.57046,6.18912,14.9714,5.61876,8.40393,25.4672,10.0681,-320.128,-865.712,-350.384,-30240,23660,2520
8.54136,15.3721,6.48131,19.4254,15.4396,5.84725,18.4806,7.87892,6.20606,7.31706,-1.23742,12.4784,0.858252,7.66223,24.3864,12.279,-318.176,-865.712,-350.872,-30100,22680,2380
7.55581,12.3699,0.733261,20.523,14.6218,10.5395,23.0858,15.0599,6.67392,0.124847,-8.62929,9.24397,-4.28361,10.9391,27.5386,16.7129,-317.2,-868.64,-352.336,-30520,21980,2380
5.40239,12.5126,-3.29832,19.9798,15.0213,8.55735,22.9076,16.7141,8.49544,-2.93068,-9.18086,5.03307,-4.36295,11.2068,29.0891,17.1198,-312.808,-865.712,-346.968,-29960,21840,2660
3.84521,6.99344,-5.21164,7.11376,5.90309,-0.922309,8.77078,4.55857,6.71837,-2.23404,-3.15192,-1.72381,-2.0015,2.09973,15.967,5.98413,-307.928,-860.832,-347.944,-29400,21280,2800
-10.1875,-9.59602,-10.4483,-11.1242,-10.0994,-10.0898,-5.50926,-7.40485,-12.7524,-8.86075,-1.64626,-13.7041,-2.2353,-11.7448,-0.496037,-6.87667,-307.44,-859.856,-347.456,-29120,21000,2940
-16.7585,-16.6033,-7.1978,-23.6267,-18.5214,-12.6819,-18.2459,-13.5605,-25.2539,-6.72169,2.0996,-16.9842,-0.571831,-18.5093,-20.8987,-16.4215,-307.44,-858.88,-346.968,-28700,20300,3220
-19.4212,-25.8284,-5.80214,-37.378,-26.4662,-9.90903,-32.9249,-20.5129,-32.5744,-9.67265,-0.820177,-18.2483,-2.68429,-17.8288,-48.3197,-27.8238,-302.56,-853.512,-349.896,-28140,19460,3500
-14.5611,-20.3822,1.59622,-33.7407,-22.3574,-7.07302,-34.9268,-18.2691,-22.7447,-6.63592,-1.51187,-11.2597,-1.87508,-15.0934,-51.2657,-23.4231,-301.584,-854,-349.896,-28000,18900,3920
14.9548,11.5494,19.7919,8.88145,9.75231,6.55861,3.54948,2.43068,19.4086,14.947,2.03298,16.1505,4.919,8.4484,-0.287522,8.48603,-300.608,-855.464,-352.824,-27720,18340,4340
36.8899,34.5329,26.5454,37.6197,31.5373,11.7928,33.1877,14.561,50.0118,27.0722,7.41297,33.4002,7.82936,20.6755,37.3709,27.5575,-299.144,-854,-356.24,-27860,17640,4620
21.4952,21.836,12.0583,27.7559,22.0384,-0.00601084,25.403,4.67517,34.8624,13.362,5.42351,18.4231,1.07811,10.3158,31.1161,15.9468,-295.728,-854.488,-357.216,-28000,17500,5040
-1.33992,8.1318,-0.503247,18.7219,12.2585,-4.35656,17.3381,0.413254,11.0012,-3.42536,1.73977,4.51742,-0.466586,2.57151,21.8251,6.95041,-297.192,-854,-359.168,-28420,17360,5180
-9.04187,-1.21423,-3.47935,9.6756,2.26579,-2.92839,6.52272,-2.44225,-1.78151,-2.93355,1.51569,-1.46526,0.824931,0.572851,10.5088,-0.460072,-301.584,-855.464,-359.168,-28560,16520,5460
-10.1215,-14.7422,-8.34911,-12.3669,-12.27,-2.37522,-13.6727,-2.41252,-7.86617,-4.05996,-3.56903,-9.4703,-2.00257,-3.86318,-15.7267,-9.10153,-297.192,-854.488,-360.632,-29120,15540,5740
-21.071,-27.3643,-19.0526,-21.056,-21.6434,-1.543,-14.6765,0.203867,-18.572,-20.5847,-12.0662,-18.6202,-8.39332,-4.6165,-20.0545,-8.36046,-299.144,-855.464,-360.144,-29400,14840,5880
-15.199,-7.94606,-2.85431,-2.86997,0.402252,7.16526,3.13213,10.7844,-13.1973,-10.3694,-10.7894,-2.2496,-1.1678,10.405,-2.85911,8.34869,-300.608,-857.416,-361.12,-30380,15260,5460
-12.2567,-14.8288,-1.57763,-17.1545,-10.804,4.21696,-14.1047,-3.45496,-14.2867,-6.12127,-2.46847,-4.60033,2.46037,7.06437,-22.3379,-4.73936,-298.656,-855.952,-361.608,-31080,15540,5460
-6.79553,-6.87365,-0.186158,-15.1867,-9.60769,2.2818,-17.7367,-4.2692,-9.31226,-0.632188,1.25031,-4.97255,3.75697,1.17516,-24.2825,-5.2312,-299.144,-862.296,-363.072,-30940,15400,5040
6.8512,7.96938,0.667626,1.83557,0.619677,2.52312,-2.85173,-0.21552,8.69056,1.22346,3.39924,0.334462,2.88187,0.549832,-1.53132,2.43691,-305,-862.296,-364.536,-32340,16800,4340
13.1112,10.7879,3.70219,3.67869,4.01093,0.196988,1.92351,0.0665928,12.966,6.05644,7.45064,2.80653,3.70864,-1.18626,8.90756,3.24596,-305,-861.808,-366,-32760,17640,4060
17.3091,11.8809,5.50231,1.59697,2.79639,-3.11534,-1.48053,-2.37404,15.3953,10.4201,10.045,3.9089,5.66942,-6.05235,6.16634,-0.476297,-301.584,-860.344,-365.512,-33320,19040,3360
5.04843,0.907869,-4.5635,-7.56357,-6.12827,-8.19594,-7.32842,-6.47302,2.07873,0.904693,5.27169,-5.49751,0.783631,-13.6577,-4.02127,-9.24506,-304.512,-862.784,-365.512,-33600,19460,2940
