-2.44884,-1.8738,-2.15857,6.5889,5.87805,1.36128,5.34218,7.08578,-1.43696,-0.45808,-1.07756,0.114964,-2.34453,-1.74602,9.65048,11.1826,-169.824,-841.312,-488,1680,-1400,-4620
-3.29301,-2.62518,-2.20261,1.4955,2.5338,0.995499,-1.12843,7.22685,-5.05169,-0.220792,-3.34398,-1.10077,-3.05816,-1.65416,0.39054,6.94733,-171.776,-842.776,-487.024,1540,-840,-4760
-5.65507,-3.25989,-5.24534,0.163409,-1.27988,0.43581,-1.11129,5.07023,-6.7874,-4.27368,-4.14613,-4.40222,-3.9297,-1.88919,1.8702,3.57458,-169.336,-840.824,-490.44,1540,-420,-4480
-9.66614,-1.74418,-4.95417,7.68519,1.86507,0.849905,5.8236,5.70916,-9.36266,-7.33614,-5.15443,-5.42813,-3.54245,-0.403221,11.707,4.82623,-168.848,-841.312,-490.928,1540,140,-3920
-9.32585,-5.15413,-5.67609,1.09793,-4.29367,-0.970042,0.278504,-0.652272,-8.47585,-8.05041,-4.5071,-8.91024,-4.6292,-1.16237,3.29632,-1.56492,-169.336,-839.36,-489.952,1540,420,-3780
-0.349455,0.120266,-1.79702,-2.26298,-4.4017,-0.332899,-2.26612,-2.49289,0.45393,-4.11104,-1.56975,-3.79509,-1.83266,0.159598,-1.62478,-3.50142,-166.408,-841.8,-490.44,1120,560,-3360
7.13288,4.969,5.02016,-1.257,1.12917,0.358698,-2.88395,-2.71807,8.04884,1.60826,1.32329,2.96019,1.52687,1.73781,-2.7295,-3.01222,-166.896,-842.288,-494.832,980,1120,-3080
4.30278,0.919699,3.03407,-6.82657,-4.00639,-2.14895,-7.02728,-6.60392,6.46973,0.26941,1.45654,-1.24087,0.016957,-0.278782,-8.98569,-5.78835,-163.48,-843.264,-496.784,700,1260,-2660
8.341,7.5471,8.55083,-5.81865,0.2701,-2.05923,-2.97978,-3.62724,11.5563,5.95116,4.54921,1.67435,1.50105,-1.18891,-7.3303,-3.30626,-165.92,-842.776,-494.344,560,1400,-2240
3.99489,3.52158,6.90947,-4.82384,-1.49026,-1.33226,0.820104,-2.45691,7.4845,3.15243,2.54159,-0.724468,0.802408,-0.596155,-1.94338,-3.89835,-164.944,-842.776,-496.296,420,1400,-1960
-0.0396967,1.73532,5.5989,-2.5957,-2.34122,-0.636195,3.37919,1.97261,5.21979,2.03552,1.76009,0.0322837,1.50019,1.27429,1.20001,-1.86311,-167.384,-844.728,-494.344,-420,1680,-1680
-0.179023,2.55396,5.47456,0.666443,0.316862,1.60103,5.46238,1.63553,2.20614,3.07219,3.02371,2.78664,2.26301,3.87776,0.426899,0.355564,-165.92,-841.8,-494.832,-560,1960,-1400
-0.81265,5.32958,3.75352,5.89308,4.08601,2.81514,7.49741,-1.23769,-1.24677,0.597971,2.64245,6.50908,1.79763,4.98075,2.10496,3.31946,-166.408,-840.824,-498.248,-1260,2240,-980
0.0493175,5.99641,4.28569,8.9618,8.31176,3.06998,7.67571,-1.06501,-1.63659,0.925349,1.50736,6.94697,2.09306,4.6656,2.46433,4.78685,-168.36,-844.728,-502.152,-1540,2100,-560
0.855524,3.98422,3.39997,9.30322,5.54555,2.26378,6.28448,-1.09308,-0.855878,0.988019,0.273054,3.64619,2.32425,2.19967,3.59764,3.05173,-171.288,-843.752,-500.2,-1820,2380,-140
-1.46184,2.9487,0.219608,9.21571,3.26608,1.60792,5.56411,-2.63321,-3.79471,-2.46174,-1.81656,0.991171,2.54548,1.14311,6.08647,0.571716,-173.24,-844.24,-500.2,-2520,2380,140
-0.168757,1.26119,-0.992848,4.13672,2.4455,-0.899295,0.000344948,-2.17393,-5.39025,-0.393663,-2.06028,1.24364,2.31518,1.04403,-2.39952,-2.49947,-172.752,-848.632,-501.176,-2380,2240,420
0.235897,-6.95604,-6.71974,-4.3341,-7.75672,-4.90739,-8.31779,-2.90539,-4.3216,-1.19604,-0.940475,-1.25797,0.0325338,-1.61385,-11.3516,-8.74724,-176.168,-848.144,-506.056,-2380,2100,840
-0.710837,-5.8255,-4.8678,-2.7932,-5.185,-3.61837,-5.17727,0.31435,-4.91313,-0.422832,-1.50475,-0.741325,0.471053,-1.961,-8.29954,-5.64232,-177.632,-846.68,-506.056,-2240,2240,840
-5.04786,-8.14923,-6.12695,-3.5439,-3.86552,-2.41495,-3.35746,0.568128,-8.86566,-3.24966,-2.74435,-4.00636,0.0596913,-1.25405,-3.04766,-4.68951,-179.584,-851.072,-504.104,-1960,2380,1260
-3.55678,-2.25985,-6.75634,3.79511,2.9469,-0.254188,5.39037,6.83474,-4.79362,-0.268801,-1.55057,-2.71214,-0.179004,1.14856,11.2326,3.66175,-183,-848.632,-502.64,-1680,2240,1260
6.60516,4.69269,-2.71809,3.85686,3.26806,-0.297504,4.25944,7.34362,8.4269,6.56564,3.57605,2.00799,2.10855,-0.46822,9.61498,5.58215,-185.928,-845.704,-504.104,-1400,2240,1260
7.0227,2.37175,-4.50983,-1.35699,-1.88668,-1.84951,-3.93227,0.784415,10.9223,4.90364,3.22555,1.432,0.971118,-3.15139,1.02225,2.51461,-184.464,-846.68,-508.008,-980,2240,1260
5.83017,6.16479,-0.926076,2.70625,4.91824,0.811969,-2.18793,-0.12109,9.95924,3.45504,0.8869,3.69574,-0.147561,-1.74232,4.20435,6.79486,-187.392,-845.704,-506.544,-140,2520,1400
-6.26588,-12.7673,-5.30859,-5.54809,-0.0812558,0.462522,-6.93953,-3.47414,-10.7416,-5.20321,-2.40781,-6.4448,-3.62465,-3.92165,-2.21877,4.01911,-190.32,-845.216,-505.568,280,2520,1120
-7.41906,-18.647,-7.75738,-10.7269,-5.11206,-0.647905,-9.34726,-5.15703,-10.8917,-7.0925,-2.74501,-9.26602,-4.91208,-5.56517,-9.51492,2.12832,-189.832,-842.288,-503.128,420,2800,980
3.31107,-3.80064,-1.65886,-4.13731,0.490711,0.687339,-5.48028,-4.73394,5.62812,0.196704,-0.316465,-1.12818,-0.698215,-1.89929,-5.65846,0.00194937,-189.344,-842.776,-500.688,840,2940,840
-7.70342,-7.92749,-4.14999,-3.51401,-2.08826,0.705294,-2.41493,-3.70967,-7.99559,-6.42705,-3.49939,-3.2223,-3.03956,-0.633639,0.217881,-3.97503,-188.368,-837.408,-499.224,840,2940,840
-5.36877,-3.60532,1.90865,-8.89607,-4.65417,0.541234,-5.82365,-1.39258,-4.33158,-3.13316,-0.646152,-0.414819,-2.76233,-0.812155,-6.85975,-6.52485,-189.832,-841.312,-503.616,1400,2940,700
0.986224,1.32417,6.08348,-10.8485,-6.5671,1.22736,-7.35332,-0.1739,4.9135,2.15359,2.95678,2.74748,-0.338972,0.116048,-12.2879,-7.03723,-188.856,-838.872,-504.104,1820,3080,700
0.863634,5.11947,6.49378,-4.33483,-5.08361,2.04121,-2.21895,0.511736,6.338,1.36779,1.09768,3.47028,-1.30873,1.46721,-6.58879,-4.60881,-193.248,-835.944,-500.688,1960,2940,700
-5.96516,-0.128426,4.36989,1.92327,-1.57815,1.92584,4.83011,4.05901,-5.39401,-2.73694,-2.6343,-0.162435,-3.35087,1.04333,1.1399,0.237054,-192.272,-835.456,-503.616,1960,2940,560
-10.0667,-3.47349,-0.588972,6.57475,0.750561,1.27315,9.76126,6.13234,-9.8271,-5.55191,-4.281,-2.56523,-2.49551,-0.165341,5.94367,2.71732,-191.296,-833.504,-503.616,2520,2520,980
0.950777,6.61165,2.14516,7.44096,5.19991,2.28201,10.045,3.65012,4.67172,4.16995,1.27722,2.03767,1.97643,0.428439,7.91986,1.93748,-189.344,-832.04,-503.616,2520,2520,840
4.60385,6.7702,1.29135,3.04888,3.72288,2.08041,7.60868,-0.566874,7.71468,5.77303,4.19004,1.77624,3.12442,0.769973,9.0669,-1.31304,-190.808,-831.064,-503.616,2800,2520,840
9.66828,10.542,3.65457,3.21725,4.97348,2.44442,6.18423,0.742236,11.1819,5.72596,4.7082,3.44438,3.67927,1.07086,10.1348,1.9299,-190.808,-832.04,-504.104,2940,1960,1120
9.58921,13.2163,5.32176,8.31086,7.01118,3.42182,8.64874,2.73464,8.02164,4.41868,2.45229,4.45947,3.45394,3.41583,15.1872,6.96744,-188.856,-831.552,-509.472,3220,1820,1260
7.37372,16.5973,5.35023,13.4916,8.91883,3.63974,10.56,3.81383,4.78598,2.05761,1.3056,6.32212,2.86094,5.00212,17.4538,7.63104,-185.44,-830.088,-507.032,3640,1960,1400
2.11861,10.671,3.49426,7.68616,5.74341,2.03198,4.6014,3.73617,-1.91775,-1.33531,-0.476173,3.23103,2.01532,3.55301,7.07887,3.57519,-187.88,-827.648,-507.032,3640,1680,1680
-0.539931,5.03952,2.0724,0.484648,1.19641,-1.34019,-2.93692,0.952245,-5.00826,-2.54459,-1.45581,0.344629,2.45581,2.33183,-6.16536,-0.0146507,-187.392,-829.112,-513.376,3920,1680,1820
-5.95826,-3.16257,-1.15104,-8.06904,-5.49433,-4.19734,-9.4639,-1.13264,-10.1016,-5.94565,-4.00152,-4.37862,-1.54618,-0.170739,-15.2454,-2.30329,-185.44,-827.648,-513.376,4200,1540,1820
-2.4107,-7.01538,-1.7488,-14.1551,-10.4848,-6.27644,-16.5415,-4.19882,-3.733,-3.78241,-2.65671,-5.3657,-3.41371,-2.08962,-22.2614,-7.4879,-186.416,-827.648,-514.352,4760,1540,2100
-0.239528,-10.1644,-0.563384,-12.0547,-9.49698,-5.29728,-12.5454,-6.4113,-2.91937,-2.194,0.26603,-5.50354,-2.54826,-1.41863,-15.6369,-6.15179,-186.416,-823.744,-515.816,5320,1400,2380
0.0610165,-4.83692,1.94322,-1.16713,0.670188,-3.58317,0.608172,-1.45286,-3.74332,1.06802,0.50329,-2.15358,-1.13236,0.714015,-0.0844639,4.02165,-186.904,-826.184,-518.256,5880,1120,2660
1.60811,-4.3744,-0.672804,1.04986,1.11155,-2.96616,2.62799,-0.309198,0.149275,0.881661,-0.63937,-1.76068,-1.19523,0.849606,1.97296,5.74759,-186.416,-823.744,-517.768,6440,700,2940
3.4229,-4.82589,-1.37174,-4.73295,-2.42416,-3.63465,-4.84678,-0.749844,3.66446,3.04583,-0.96531,-2.17476,0.196555,-1.83277,-8.71811,0.686804,-185.44,-824.232,-517.28,6160,700,2800
3.35303,-6.18092,0.471891,-7.2119,-3.47693,-4.02389,-7.30158,-2.36318,3.36524,4.71036,1.18431,-2.95705,1.31268,-4.10151,-10.099,-2.82432,-184.952,-825.696,-517.28,6440,700,2660
-3.55671,-5.93109,-0.952154,3.49421,1.7482,-1.77372,6.82119,1.22059,-1.9021,0.686386,-0.731841,-2.25551,1.14587,-1.38867,11.0017,2.73689,-184.952,-825.208,-515.328,6720,420,2520
2.38387,6.00092,1.29493,13.2477,7.13526,1.90873,10.919,1.16537,9.15855,6.17214,1.40633,6.39819,3.58012,2.71129,14.7915,2.81142,-186.416,-828.136,-516.792,6580,840,2380
7.88845,7.52237,0.416232,12.3046,5.43396,3.13236,5.13441,-3.78515,15.8494,9.49344,5.28847,8.01766,2.7312,2.39491,7.42042,-1.9353,-184.464,-827.648,-511.912,7000,840,2240
6.46366,8.14076,-0.644493,16.9876,8.66867,3.64211,8.88762,-2.15022,13.0372,5.6976,3.78377,8.14086,1.61116,3.32003,12.3629,-0.398787,-187.392,-835.456,-514.84,8400,0,2240
-2.3184,-0.530199,-5.24565,9.81809,5.30018,2.22708,4.51119,-1.31603,0.19985,-2.53552,-0.755454,1.94846,-2.34761,-0.64235,7.31164,-4.14594,-184.952,-838.872,-511.912,8680,-140,2240
-4.99091,-4.98675,-7.73422,3.66774,-0.00930484,0.989071,-0.986432,-1.64541,-3.5507,-6.20072,-0.57155,-0.0742864,-1.9221,-2.31184,1.48266,-7.11908,-189.344,-837.896,-510.936,8400,560,2100
-6.44756,-6.58436,-5.58741,-1.10096,-1.09068,1.06085,-2.2141,2.80866,-7.27458,-5.18842,-0.464212,-1.95477,-0.584629,-1.23893,-1.94542,-3.6639,-192.272,-841.312,-508.496,9380,-280,1960
-11.4331,-14.4191,-8.82579,-10.6597,-9.18282,-1.03359,-6.88596,1.12671,-13.7856,-8.58149,-2.69359,-7.37359,-1.77274,-3.70766,-7.01502,-4.04228,-191.296,-847.168,-509.96,10360,-1260,2100
-9.04036,-10.2865,-6.5592,-6.97688,-8.35106,0.600668,-3.77185,2.31265,-12.437,-7.21989,-2.963,-5.13043,-0.894126,-2.81812,-3.10382,0.931537,-195.2,-853.024,-508.984,10640,-1400,2240
-6.25177,-6.89506,-4.64199,-5.97429,-7.58911,0.835947,-0.957752,3.60167,-8.99198,-5.61479,-1.45092,-4.6547,-1.3389,-3.35696,-0.137471,3.17478,-193.736,-851.56,-508.008,10500,-1540,2380
-5.60064,-3.55519,-2.49444,-7.55127,-7.63544,-0.740347,-3.09492,0.90151,-5.99947,-4.13435,-1.31321,-2.81807,-0.989549,-2.9304,-2.92608,2.98142,-192.76,-853.024,-500.688,9660,-980,2240
-7.74161,-1.41325,-0.721675,-9.84374,-6.6727,-1.59311,-6.17664,1.40876,-8.90408,-3.95085,-3.34623,-3.70581,-3.50688,-3.3617,-7.72599,1.30102,-195.688,-857.416,-508.496,9800,-280,1820
-4.92416,-5.50828,1.41461,-13.7163,-8.59615,-0.546982,-11.9377,-1.08706,-7.13051,-5.65148,-2.86842,-5.36702,-4.62654,-2.21154,-15.2153,-4.47856,-194.712,-862.784,-507.032,8260,1540,1680
3.94038,3.80445,7.93553,-3.451,0.967371,3.25772,-3.06179,1.17494,3.05181,1.06238,1.41635,3.86508,0.428069,2.08236,-5.19581,-0.284095,-195.688,-862.296,-502.64,8400,1960,1680
4.80001,7.84337,8.85814,0.496413,5.75124,4.52241,2.45746,-3.62937,6.10523,3.67285,1.91646,7.2672,2.87639,3.86143,1.56597,0.652709,-199.104,-865.712,-502.64,8680,1680,1820
6.13486,9.00263,7.39078,-2.10069,4.32821,3.77094,1.72504,-6.7553,9.00936,5.49261,2.28981,5.7896,2.43611,1.61718,0.730303,-0.224662,-196.664,-867.176,-503.128,8820,1820,1960
6.27905,9.72498,5.99354,1.51731,6.94804,3.312,4.85729,-2.85655,6.91593,6.57149,1.9365,5.15828,1.1903,1.0912,2.82984,2.08632,-197.64,-869.616,-504.104,9100,2100,1820
8.45483,6.40435,3.78414,-2.42035,3.6759,0.436103,-1.2798,-4.03867,6.17492,7.78787,3.4936,3.55775,1.5324,-0.380317,-6.76034,-1.85025,-197.64,-868.152,-502.64,9380,1260,2380
6.13617,6.12779,3.20933,1.90396,5.1554,0.320025,3.02594,-1.5828,0.636384,6.0789,1.32633,2.07759,2.53266,2.14509,-0.824233,-1.2019,-193.248,-870.592,-501.176,8400,1680,2100
6.42105,7.96786,5.16537,8.59212,11.3606,-0.0582,6.72688,4.33727,-0.355622,5.08035,-0.688937,1.78039,2.10927,4.16776,4.6505,5.06391,-196.664,-865.224,-500.2,7840,2520,1820
8.59937,9.1211,3.49825,8.47541,8.21929,-1.5971,3.73285,4.81689,6.61303,3.99246,-0.0698873,1.7429,2.1379,2.66954,3.74068,4.71574,-196.664,-861.808,-500.688,7840,2660,1820
3.11734,8.91604,2.72943,11.577,9.63486,-0.522532,10.0523,9.00319,3.79842,1.49438,-2.3197,0.544739,0.166277,4.02785,14.8271,10.5798,-196.664,-858.88,-499.712,8120,2660,1960
6.38393,5.52088,1.42978,7.70679,2.40285,-1.97328,6.83287,3.80789,8.37692,2.06411,1.70776,0.187462,0.256123,3.2831,13.4473,5.37642,-196.176,-856.44,-500.688,7980,2940,2380
7.01631,0.234145,-0.0593136,0.358696,-2.07303,-4.26335,-2.36008,-0.112923,7.44048,2.58731,3.37437,-0.075443,-0.445437,0.687897,0.668994,-2.11137,-199.104,-854,-498.736,7000,3360,2380
-3.75817,-4.28773,-2.859,5.77105,0.618746,-3.14242,4.68057,4.66451,-3.39818,-4.15862,-0.665829,-3.15626,-2.16275,2.10294,11.6526,3.94172,-198.616,-853.024,-496.784,6860,3360,2380
-6.61682,-2.88618,-2.5646,11.4162,2.21287,-0.527353,11.3773,5.22116,-4.72358,-6.41725,-1.73028,-3.43779,0.314394,4.13453,21.2563,7.99288,-197.64,-854.488,-500.688,6720,3360,2520
-5.96405,-3.69325,-5.07879,0.34785,-4.56719,-1.83462,1.31422,0.843197,-3.71592,-4.81058,-0.312314,-4.01991,-1.19642,-0.969959,5.77263,0.814735,-200.08,-852.536,-498.248,6720,3220,2660
-5.65054,-7.4878,-7.4739,-10.3827,-11.1815,-3.02261,-8.52242,-3.40406,-3.51688,-4.27892,-0.364435,-4.63455,-1.96645,-5.42137,-7.49469,-8.03097,-197.152,-849.12,-500.688,6020,3220,2660
-1.59413,-6.09814,-6.44675,-15.2757,-12.6179,-2.62094,-13.0113,-3.584,2.01663,-1.42291,0.140987,-3.21217,0.0251218,-7.07955,-17.525,-10.3122,-199.104,-848.632,-494.344,5740,2800,2940
-2.68882,-4.8071,-4.49696,-11.7896,-8.9227,-1.80863,-13.4345,-3.04603,-0.95231,-1.06246,-1.37573,-1.73981,0.409857,-5.03722,-23.5176,-8.55806,-193.248,-850.584,-496.784,5320,2660,2660
-2.29193,-9.2842,-3.53123,-14.4944,-13.7961,-0.932206,-19.5723,-4.82454,-1.41499,-3.03979,-0.424475,-3.26358,-0.632619,-5.03187,-32.987,-12.4724,-194.224,-850.096,-499.224,5600,2520,2660
-3.28086,-7.72146,0.0253273,-2.53451,-4.53014,2.40043,-6.46337,2.03324,-1.22437,-1.47519,-1.60499,-2.01139,-1.05239,-2.23967,-13.707,-5.87403,-196.176,-850.584,-495.808,5320,2240,2520
-12.8919,-9.38052,-2.02697,9.23464,4.14263,3.50067,11.3675,2.00319,-11.5556,-6.13475,-5.13676,-3.48139,-2.24611,0.835614,11.2537,1.52784,-196.176,-848.632,-494.344,5740,1540,2660
-9.8039,-3.46806,-1.62645,5.80089,6.09457,4.3123,11.0599,-3.48685,-8.35621,-4.2351,-2.78901,-1.23262,-0.583382,1.96978,10.2684,1.32739,-195.688,-849.12,-495.32,5880,1260,2800
-1.63443,3.05733,2.56822,6.47219,10.7393,4.74188,9.80035,-2.16974,-2.04967,0.173889,-0.111363,3.69617,1.05816,3.02482,12.3586,5.56678,-195.688,-852.048,-496.296,6020,700,2800
2.97319,4.08179,4.2134,8.89319,8.20281,4.36675,10.3393,0.475413,2.41531,0.63467,1.92822,6.55027,2.07387,4.66406,14.06,7.70911,-190.32,-846.68,-497.272,5880,840,2520
11.8318,9.79665,6.98752,4.75229,5.86221,1.27519,0.658222,-1.13794,11.0784,7.58798,4.72013,11.581,3.78048,1.94956,-1.06555,0.69764,-193.248,-846.68,-493.856,5600,980,2380
8.24424,3.46225,4.32023,-2.90553,-3.59306,-1.868,-7.74388,-5.027,5.51276,5.69047,4.00138,5.69815,1.12579,-1.22797,-9.83391,-7.15161,-191.784,-849.12,-497.272,5460,700,2240
1.65348,0.178843,2.02728,0.94737,-0.497069,-1.39583,0.0947588,0.612507,-2.69788,2.00726,1.46262,1.69468,-0.60038,-1.06239,3.16075,-1.24552,-194.224,-848.144,-492.392,5460,840,2100
-4.53168,-3.68228,-0.290963,-1.73978,-1.6571,-2.14606,0.77297,0.936989,-8.06875,-2.26484,-1.60674,-2.34534,-1.14568,-2.07892,4.60172,2.46173,-193.248,-850.096,-496.296,5600,700,1960
-1.11682,-0.109032,1.06585,1.20441,0.162366,-0.772229,1.93225,0.671302,-3.77817,-0.284565,0.605644,0.174983,-0.295065,0.197815,6.38855,4.81284,-191.784,-849.608,-497.272,5600,560,1820
3.49917,3.25947,1.2085,-0.390163,0.771128,-1.20317,-2.44162,0.384609,1.24954,4.17487,2.23832,3.05403,-0.84441,0.129099,1.69767,1.13062,-192.76,-854.976,-495.32,5880,280,1820
-1.82257,-3.93749,-3.10439,-6.10249,-4.33815,-2.30475,-6.01264,-0.577484,-1.87408,0.938272,-0.814162,-4.19453,-3.24563,-2.09861,-3.43667,-0.343942,-187.88,-854.976,-494.832,5880,0,1680
4.50814,-1.6036,-2.36664,-9.9016,-7.16047,-2.57008,-12.0675,-5.41761,8.39115,4.24456,1.89297,-4.44543,-1.27748,-2.56747,-13.8111,-5.29706,-187.392,-852.536,-494.344,5740,0,1540
4.72739,0.886329,-2.26161,-9.21113,-5.60364,-2.16896,-12.2056,-5.46898,8.25728,3.90906,1.60231,-3.74562,0.179198,-1.71034,-14.0613,-4.6292,-188.856,-852.048,-492.88,5460,280,1400
-6.62001,-4.01136,-6.94852,1.02119,-3.49822,-0.140918,2.23783,-0.862408,-5.91973,-5.8563,-3.03379,-8.36578,-1.73914,0.137076,7.15132,6.3234,-186.904,-849.608,-493.368,5460,0,1400
-2.50525,0.73135,-2.40253,5.17025,2.2772,1.5972,5.75607,2.19325,-1.33863,-1.69322,-4.32007,-4.50748,-0.161311,2.33382,9.64854,9.97562,-189.344,-851.56,-493.368,5460,140,1260
-1.91121,1.81177,-2.78164,4.13229,1.32634,-0.347575,2.51975,0.0244525,1.00417,-1.99743,-5.56252,-2.91559,-0.403231,0.880685,6.05103,4.34511,-183.488,-852.536,-490.928,5040,140,1260
4.76778,12.5549,2.8996,7.17243,5.59956,-0.914274,3.72837,2.35145,9.96609,2.38,-2.16011,4.91673,2.03194,1.43131,3.57574,2.63303,-185.928,-849.608,-492.392,4760,280,1120
10.6415,12.3555,4.623,4.42733,4.78065,-1.45528,0.161142,0.165791,11.842,4.03678,0.943737,7.13075,1.98449,0.197679,-1.74431,-1.13464,-183,-852.536,-491.416,4620,0,980
8.01411,8.11891,3.8859,3.18944,3.95588,-0.71457,0.0134146,0.00601532,6.65522,1.81993,2.4507,5.99446,0.451079,0.642984,-3.07468,-4.23143,-184.464,-850.096,-488,4340,0,700
0.542334,5.05871,4.85123,5.1223,8.8213,1.66282,6.08726,7.06144,-1.09555,-1.13719,0.225215,5.63721,1.72162,2.68161,2.35193,-0.00513263,-181.048,-852.048,-488.488,4060,-140,700
-12.2375,-9.38883,-1.72165,-2.26247,1.02495,1.03553,4.16108,5.91226,-15.6145,-8.19395,-3.28355,-3.6601,-0.747042,0.563044,0.900565,-1.58349,-180.56,-853.512,-488.976,3500,-140,280
-14.9241,-12.2058,-4.08177,-4.51912,0.34918,1.3939,4.666,5.91917,-19.322,-7.91064,-1.38505,-4.06399,-1.08493,-0.111226,-0.236433,-1.54685,-178.608,-851.56,-489.952,2800,140,-140
-13.0485,-14.9696,-4.846,-9.40042,-3.89176,0.736593,1.08837,3.1706,-18.6642,-7.41618,0.102666,-6.3813,-0.990473,-1.3945,-5.41558,-0.349172,-178.12,-853.512,-492.392,2800,280,-420
0.377844,-6.37983,-0.666094,-10.3677,-5.52021,0.885024,-5.49761,-1.99742,0.887832,0.24759,4.36843,-0.726509,-0.0673254,-0.551705,-13.5813,-2.47935,-177.632,-851.072,-495.32,2660,140,-560
5.32556,-1.05205,2.92163,-4.81546,-1.75842,1.93126,-4.72242,-2.06866,4.81372,5.02915,4.41013,1.73366,0.219829,0.796319,-9.19997,-1.75883,-178.12,-850.096,-499.712,2800,420,-980
0.780534,-2.58272,1.94502,1.4231,-2.06579,2.04459,1.06698,-0.954732,-1.01129,0.818796,1.15978,-2.00066,-0.435568,2.16695,4.35412,0.750553,-176.168,-846.192,-498.248,2660,560,-1120
0.0497428,-1.4227,1.82533,1.13942,-1.59496,1.36064,0.477419,0.39435,-0.201798,1.11674,0.394192,-1.78833,0.643672,1.53294,4.15851,-1.39179,-176.656,-844.24,-499.712,2380,280,-1260
-0.497843,-5.54644,-0.555772,-4.1514,-2.4839,-1.09914,-0.853298,0.119927,-3.3848,0.84388,1.07343,-3.97747,0.368875,-1.38077,-0.624527,-3.4649,-175.192,-843.752,-502.152,2380,280,-1400
2.89105,1.57967,2.02284,3.783,3.01419,0.630779,7.62893,0.360901,1.44564,2.02467,2.19891,3.0709,2.6042,2.20874,9.99262,-0.25462,-176.656,-843.752,-501.176,2520,280,-1400
13.8916,14.4233,8.07787,10.5461,10.032,3.32488,12.3818,2.25653,16.2204,9.01079,3.99383,11.3158,4.92894,3.37654,16.1034,5.96921,-179.584,-843.264,-500.688,2800,280,-1400
17.1711,18.5631,7.4293,10.6656,8.06855,2.07765,7.55799,-1.5004,24.9246,10.1913,5.15069,11.3704,3.51387,1.34329,14.7732,4.03164,-179.096,-844.728,-500.688,3080,280,-1400
12.3441,17.7677,3.22589,10.6307,6.82737,1.23947,3.1889,-0.0991142,19.7756,8.27658,3.87263,7.90791,1.5037,-1.38029,11.008,1.34441,-181.536,-844.24,-498.736,3220,420,-1680
10.7258,16.5532,2.18928,10.4945,5.15751,1.75596,-0.707736,-1.77641,16.0994,8.09654,1.84816,7.48491,1.53429,-0.658439,4.29743,-0.224148,-181.536,-845.704,-498.248,4060,140,-1680
3.0836,5.56581,-0.715485,0.525098,-2.72987,0.509993,-5.74742,-1.69573,6.55667,1.61368,-0.702604,1.53468,-0.371636,-1.72768,-6.29036,-2.59678,-183.976,-845.704,-497.76,4060,0,-1680
-10.415,-4.39103,-3.79379,1.10221,-0.469473,-0.844511,5.02729,2.90109,-10.1007,-7.51389,-5.59576,-6.49815,-2.15367,-2.03831,3.71254,4.07074,-186.416,-844.728,-500.688,4900,0,-1820
-12.7831,-8.84192,-4.62412,-2.27298,-3.30338,-1.62012,3.90417,-0.808606,-13.2435,-8.20443,-5.67177,-9.47066,-2.83915,-1.46461,1.52413,2.13781,-185.44,-845.216,-496.784,5040,-280,-1820
-2.58791,-3.05049,-3.21053,-4.06929,-6.46924,-1.76978,-2.53862,-1.93551,-3.37144,-4.20596,-1.3248,-5.34482,-1.91566,-2.06757,-4.53675,-0.802054,-186.416,-850.096,-500.688,5460,-280,-2100
-1.80724,-2.76378,-2.68246,0.59364,-3.06583,-0.486705,-0.974848,0.519491,-6.08772,-5.0528,-0.149525,-2.08158,-0.0325932,1.62224,-1.98064,2.57163,-189.832,-848.144,-494.344,6020,0,-2380
-0.0753722,-6.80517,-4.23655,-5.76184,-8.07442,-0.145379,-7.91954,-0.331144,-4.94056,-5.48291,0.410616,-0.350788,0.495318,0.807187,-12.2186,-1.15609,-190.32,-845.216,-492.392,6300,0,-2800
5.23027,0.729591,1.1434,-3.37228,-4.45276,-1.70305,-11.7345,-2.45245,3.02261,3.00129,0.862519,5.26313,1.91496,0.510823,-16.5021,-4.08786,-191.784,-839.848,-489.952,7140,-140,-3080
-6.91712,-10.1108,-2.132,-2.81123,-5.14531,-3.20457,-9.08625,-4.26135,-10.6518,-4.11637,-4.37405,-2.72255,-1.27481,0.82813,-9.94791,-4.08848,-190.808,-846.68,-491.904,7980,-560,-3500
-20.3014,-19.3069,-7.47983,-3.79036,-6.05639,-4.30633,-5.809,-1.95131,-24.6731,-11.8693,-10.062,-10.0256,-5.02268,-2.28909,-4.29864,-1.74302,-191.784,-845.216,-495.32,8260,-420,-3780
-22.6588,-23.5965,-11.6085,-10.3677,-11.417,-6.82704,-11.7344,-4.90807,-25.869,-13.1934,-11.6704,-14.3867,-8.53941,-6.92507,-12.391,-6.17822,-191.296,-845.216,-492.392,8680,-700,-4060
-19.646,-20.8666,-9.43875,-12.7217,-10.3505,-7.42989,-12.3,-5.59049,-20.5686,-12.866,-10.0126,-13.0492,-8.97453,-7.62763,-14.1359,-6.82073,-194.712,-845.216,-493.856,8260,-840,-4480
-8.56389,-16.1704,-5.416,-19.3455,-8.97631,-7.98422,-16.4349,-7.36911,-6.79212,-5.58558,-4.1372,-7.13709,-6.1108,-8.85554,-21.4675,-11.0114,-191.784,-845.704,-496.296,8400,-560,-4900
0.148299,-6.31169,1.19119,-14.1542,-2.48794,-3.46751,-11.8058,-5.07616,2.40601,0.437007,-1.48367,-0.91163,-2.36094,-4.13336,-14.8056,-9.18407,-194.224,-847.656,-497.272,7980,-280,-5460
-0.140956,1.83823,5.04159,0.801233,7.07644,2.42287,1.93969,0.998132,0.425319,1.67559,-0.830796,2.78256,-0.0347369,1.95199,6.79048,-0.0401158,-197.152,-843.264,-497.76,7420,0,-6020
5.81127,8.01616,3.60246,5.06235,9.11126,3.34957,3.03509,0.274648,5.45539,6.50913,3.1621,5.44651,2.51728,2.48754,8.71498,1.74783,-193.736,-846.192,-501.176,7280,0,-6160
4.62195,4.43252,-1.49073,-0.669363,1.44389,1.67123,-0.518727,-1.63178,5.04767,5.34731,5.91135,0.757195,1.34528,-0.779598,0.510572,-0.297893,-192.272,-848.144,-501.664,7700,-140,-6300
7.74722,9.2749,2.90259,7.4603,5.8852,3.35577,9.02093,4.20237,9.8345,9.27379,8.40871,3.68691,2.51564,1.77746,11.6128,6.64492,-189.832,-849.608,-498.248,8400,-420,-6300
11.8439,13.3786,4.31191,12.1087,7.70614,5.40653,13.113,6.16272,14.3954,9.96536,10.3652,6.60258,5.0972,5.81331,16.8257,8.20046,-190.808,-851.072,-490.44,8680,-420,-6580
12.587,16.8723,5.91084,12.7219,9.09198,6.19525,16.0151,8.75603,13.1704,8.12037,8.74306,8.71207,6.11472,8.17355,21.155,9.56591,-191.784,-852.536,-494.832,9380,-560,-6860
13.0136,22.4662,9.45056,18.0407,14.9908,7.25741,21.8913,11.353,13.2974,10.1796,6.81066,12.6223,6.23667,11.4345,28.0021,13.6292,-188.856,-854.488,-488.488,9800,-700,-7140
12.699,15.8845,8.19912,7.66515,7.35851,5.86,12.8294,7.13049,13.6809,9.87568,7.45178,7.92884,6.02674,6.99766,13.1108,6.17573,-189.344,-853.512,-493.856,10640,-560,-7280
12.589,13.2812,7.30825,4.30488,8.15812,4.49327,9.98928,5.30463,14.1286,9.61535,8.08087,4.73443,5.72227,3.83346,8.18394,4.24028,-186.904,-853.024,-490.928,10780,-420,-7700
7.9231,5.98234,5.36401,2.70883,6.10168,3.67129,10.9386,1.84034,9.22942,4.90168,4.49866,0.622958,4.65311,3.50281,7.26431,3.50189,-186.416,-855.952,-490.44,10640,-700,-7700
6.83821,4.2599,6.5473,-0.191808,3.33551,2.78128,7.50024,2.34101,7.29962,4.65406,2.1237,0.204443,4.54904,0.980853,0.914383,4.82421,-185.928,-854,-485.56,10920,-840,-7980
4.30801,4.76847,2.29696,1.79956,-0.831265,0.997309,4.28299,1.47391,5.01485,1.05481,-1.17824,0.646961,1.50867,0.454429,0.992673,4.49305,-184.464,-855.952,-486.536,11200,-1120,-7840
3.72164,6.46697,2.72099,8.0056,2.49479,1.26517,6.8051,2.81671,5.6967,-1.64559,-1.96835,5.41671,0.302626,2.90217,5.88045,7.46248,-183.488,-857.904,-488.488,11060,-1120,-7980
4.87706,8.24332,3.32258,10.99,5.68781,0.854721,5.54514,3.19777,8.88658,1.01246,-0.529464,7.3987,-1.02264,2.59071,4.47541,6.84685,-183.488,-859.856,-487.512,11200,-1260,-7980
1.55297,3.34296,-1.24576,4.14128,-1.2982,-3.25366,-8.40711,-3.64439,5.2798,-1.65054,-2.7655,3.48745,-1.97799,-2.19184,-10.4314,-3.51913,-181.048,-857.904,-488,10500,-1260,-8260
-9.82762,-11.2543,-8.88292,-6.60503,-9.84112,-7.04366,-16.3606,-8.55107,-11.5027,-9.08839,-6.08943,-6.89231,-5.03108,-8.26189,-17.4974,-9.00205,-179.096,-857.416,-487.024,10640,-1540,-8120
-13.623,-17.093,-9.0688,-9.9023,-11.4211,-7.05269,-13.9039,-6.42236,-17.6301,-9.20931,-6.47379,-9.62522,-4.92152,-8.48275,-14.8849,-8.38798,-179.096,-856.928,-488.976,10640,-1400,-8400
-14.5601,-18.6613,-7.98899,-9.86867,-12.5166,-5.42501,-14.0658,-5.9447,-16.0917,-11.6043,-6.36347,-9.35391,-3.79067,-6.55395,-12.8766,-8.80485,-178.12,-855.464,-488.488,10920,-1260,-8400
-7.16292,-4.10901,-1.21307,0.308291,-1.82331,-2.21501,-7.39713,-1.69692,-5.2727,-6.41769,-6.01558,-0.629375,-1.25306,-3.03998,-2.82748,-4.24587,-176.656,-854.976,-489.952,10640,-1540,-8260
-11.4121,-10.218,-4.33756,-4.62731,-6.30982,-0.614031,-7.22111,-3.26339,-12.8464,-9.74715,-6.42148,-3.52052,-2.57232,-2.67644,-6.89697,-6.87098,-175.68,-853.512,-485.56,10500,-1120,-8260
-16.2833,-15.5078,-5.72466,-8.12104,-5.38886,0.762338,-2.78474,-0.287939,-23.2577,-9.7579,-7.82316,-8.50556,-3.60972,-1.57042,-6.25711,-4.68968,-176.168,-854.976,-487.024,10360,-980,-7980
-5.55477,-10.9588,-2.64344,-13.4879,-6.76877,-1.62015,-10.0766,-5.53123,-10.3133,-3.44775,-3.48516,-4.79804,-1.83774,-2.817,-14.3943,-8.56404,-178.12,-854.976,-490.44,10360,-980,-7840
-0.0168299,-11.0557,-1.51993,-19.2941,-11.4674,-4.03449,-16.1068,-7.63612,-2.20757,1.27504,0.766056,-4.07852,-2.6629,-5.2705,-19.7113,-11.556,-178.608,-852.536,-486.536,10920,-560,-7420
-2.55011,-6.43795,-1.5905,-0.0708431,0.95523,0.587051,5.32548,2.54913,-5.43427,0.193099,0.538587,-0.85317,-2.53415,1.01026,10.8658,0.696975,-182.512,-852.536,-484.096,11200,-140,-7140
-5.63171,-7.94491,-4.08556,2.83617,-0.5778,1.56743,8.57105,2.2515,-7.90279,-3.88439,-0.427317,-3.02374,-3.90521,1.04911,16.3862,0.441273,-181.536,-852.536,-486.536,11480,280,-6860
0.997008,-2.70771,-3.60787,-7.12698,-4.70833,-0.922527,-5.39914,-0.921607,1.15212,0.733726,1.49403,-0.548613,-2.79652,-2.45383,-5.06111,-5.54402,-182.024,-849.608,-483.12,11480,560,-6720
5.47707,3.91303,0.00397788,-4.35334,-0.491505,1.07775,-6.44838,-0.332811,4.95434,4.05874,3.13677,3.43683,0.20133,0.526404,-9.64744,-4.70077,-182.024,-852.048,-487.512,11620,1260,-6300
0.908717,1.98853,-2.32713,-0.999537,2.43949,1.25399,3.52695,2.46111,-0.882705,-0.291258,1.8083,0.110279,0.525631,2.30839,1.49985,-0.723708,-183.976,-847.656,-485.072,11760,2100,-5880
4.30256,9.35894,-0.0958855,8.43378,8.214,0.771731,10.1823,4.1349,3.75801,1.90085,2.46999,2.06854,1.54448,3.74185,13.2311,2.79396,-187.392,-846.68,-487.024,12040,2800,-5460
10.5353,15.7092,2.08448,7.12278,5.65097,-0.211132,2.60712,-0.689245,16.1426,8.07264,4.90328,5.11681,2.68915,2.79751,3.97907,-2.6426,-185.928,-848.144,-480.192,12460,3360,-5180
10.8681,20.0956,6.64102,13.3045,12.1009,3.01402,9.02976,2.36578,16.9638,11.119,5.44318,10.8076,6.13009,7.49325,8.57663,5.65561,-185.928,-844.24,-481.168,11900,3780,-5320
3.13686,10.8861,5.18121,11.5506,11.1234,4.05138,11.8574,3.90636,4.08011,4.61232,2.17374,5.57401,5.41122,6.21569,10.2223,9.79096,-189.344,-843.264,-483.608,11620,4340,-5040
-5.14498,-3.12631,-1.68307,-0.982785,-0.977325,-0.265102,1.29228,-2.71273,-5.04304,-3.30938,-1.39923,-4.23847,1.32109,-1.20921,-1.79081,4.61504,-187.88,-843.264,-479.216,10920,4760,-5040
-1.15616,-0.272916,2.65993,-2.05034,-0.472565,-2.2889,-0.669104,-3.54094,0.833203,1.52703,-0.174393,-4.21401,1.8518,-3.96439,-3.75496,6.00295,-188.856,-842.776,-486.048,10640,4900,-5180
0.947127,-3.19299,1.30738,-5.62325,-6.33097,-3.83991,-3.90524,-5.54107,3.77625,1.70995,0.74326,-6.71271,1.35452,-5.02138,-4.5702,2.9212,-188.368,-844.728,-484.584,10220,5180,-5320
2.29118,1.71779,0.929238,1.22597,-2.68517,-2.19278,0.156496,0.686082,6.30121,2.82876,0.848821,-2.52426,0.295916,-2.52355,2.72749,5.59858,-190.32,-842.776,-488.976,9940,5320,-5600
2.63732,1.15138,0.332907,2.19578,-0.248694,-1.14718,1.13348,2.44633,4.9943,1.72354,1.68812,-1.41872,-0.0785313,-1.59065,2.89642,3.78261,-193.736,-844.728,-488,9100,5040,-5600
2.88255,0.846845,2.04443,3.01375,2.47499,-0.0132317,0.630218,3.69841,3.52321,1.2266,1.98712,0.553142,0.149892,0.879412,1.18123,2.51796,-194.224,-845.704,-481.656,8680,4760,-6020
3.8322,1.01358,4.35654,5.13489,3.87592,2.83388,-0.00545502,3.08895,5.31651,2.21417,0.292353,4.11566,-0.510903,2.57864,1.84722,1.68788,-192.76,-843.752,-485.072,7980,4480,-6300
6.28957,5.01419,6.25702,3.73173,1.48941,3.86254,-4.92729,0.184769,9.04213,3.37129,0.597853,5.93194,0.186339,1.18822,-3.63167,-1.92883,-193.736,-848.144,-484.584,8120,4060,-6440
-0.813304,5.41156,1.56906,5.96009,2.57353,3.51735,1.41331,3.67488,-1.69438,-2.98724,-0.804049,3.34097,-0.405123,3.25606,2.61978,2.6087,-195.2,-846.192,-491.416,8260,3920,-6720
-11.1488,2.51413,0.905497,16.2147,10.4162,5.41277,16.9984,10.3052,-20.2564,-8.98741,-6.20226,0.790364,-1.08481,7.1811,22.9847,13.7838,-193.248,-847.656,-484.096,8680,3360,-6860
-11.4107,-4.28807,-0.603876,6.8405,5.03963,3.74248,13.249,10.204,-18.231,-9.574,-4.73563,-2.29212,-1.89037,5.12586,16.0987,10.3669,-192.272,-849.12,-487.024,8680,2800,-7280
0.50945,-2.01359,4.4457,-1.97232,2.40158,0.464422,2.94237,5.83149,-2.2938,0.4662,1.01789,0.47252,-0.24818,2.3112,2.38462,3.84228,-191.784,-848.632,-483.608,8400,2660,-7700
7.82276,-3.93083,1.27838,-13.7528,-7.20069,-5.13995,-10.8604,-6.07705,9.53043,3.73323,4.12101,-0.884186,-0.447918,-3.42407,-12.2119,-7.76725,-189.344,-850.096,-483.12,8260,2240,-8260
8.64138,-1.64012,2.77576,-12.8283,-5.85059,-4.03665,-12.0767,-6.27767,13.387,5.55805,2.28501,2.99646,1.48994,-4.07163,-15.8168,-4.85649,-187.88,-850.584,-480.192,8120,2380,-8960
1.04184,-8.56723,-2.12444,-13.4318,-9.61307,-4.30725,-11.5127,-7.80673,2.83551,0.0809645,-2.32319,-2.7351,-0.793084,-6.85963,-16.8636,-4.92739,-187.88,-847.168,-481.168,7840,1960,-9380
-4.331,-10.1861,-7.76173,-7.90586,-7.83332,-2.95973,-2.60463,-4.73116,-5.85123,-5.03312,-4.03036,-3.94032,-3.47057,-4.19039,-5.49035,-2.12164,-185.44,-847.656,-479.216,7980,1400,-9800
-4.23946,-7.14875,-6.54747,-3.61318,-5.49239,-0.443058,-0.120578,-2.41559,-6.47366,-3.0222,-2.9682,-2.40941,-1.83161,-2.19423,0.451621,-0.483949,-183.488,-850.096,-480.68,8400,980,-10080
0.390522,-3.68214,-5.07961,-2.67969,-6.02855,0.320478,-3.54399,-3.96204,-0.78084,0.955436,0.229689,-0.454728,-0.445372,-0.357917,-0.303522,-2.38986,-182.512,-853.024,-477.264,8820,140,-10360
3.03858,3.54664,-1.72247,2.69416,1.27189,1.06757,-2.05285,-1.98191,0.903123,3.68254,2.234,4.87801,2.44903,1.76519,0.467399,-2.15489,-181.048,-853.512,-471.896,8960,-280,-10640
-7.60845,-5.01856,-4.3254,-6.87015,-4.38393,-1.50073,-5.2197,-4.66589,-11.2528,-1.96193,0.462931,-1.21865,0.624893,-1.50874,-7.47134,-8.61742,-183.488,-856.44,-475.312,9940,-700,-10500
-3.88995,-3.18252,-3.93857,-8.8582,-4.9003,-0.399836,-6.07679,-2.88587,-3.24223,-0.0836104,1.67333,0.0365498,-0.859613,-2.44488,-11.2304,-12.3634,-180.56,-856.44,-471.408,10080,-1400,-10360
2.47807,3.72687,-1.39553,-2.47824,0.907367,-0.223231,-4.62501,-4.13815,6.06394,2.46685,1.83115,3.62324,-0.182871,-1.836,-6.65644,-13.3683,-176.656,-859.856,-473.36,10360,-1820,-10080
-8.46365,-3.72424,-3.87479,1.66417,3.87081,-0.430824,4.21429,-2.17408,-8.64835,-5.10038,-3.57599,-1.9527,-3.2865,-1.13895,5.62179,-6.54057,-176.168,-859.856,-469.456,10920,-2240,-9800
-5.44174,-0.967532,-2.66307,3.67618,4.10746,0.152691,4.80136,0.012708,-6.09388,-4.29159,-0.461708,-1.51008,-0.628531,0.499474,4.67817,-5.5835,-178.608,-858.88,-468.968,11200,-2520,-9380
-0.00182479,6.11978,4.09848,12.5745,10.3653,2.77261,10.3166,3.4511,-1.75446,-1.02986,2.32223,2.02759,2.46753,5.04562,12.1917,-1.09803,-177.144,-860.832,-470.92,10920,-2940,-9100
10.8383,9.07861,6.43033,10.0821,8.26849,3.43938,7.30986,2.6114,12.7592,4.24852,5.84675,3.36879,3.89666,4.07335,7.98155,-2.45083,-177.144,-862.784,-471.896,10360,-2940,-8540
19.3959,20.3853,9.678,12.8033,9.74629,3.54507,5.72916,5.33823,24.4751,10.962,5.05659,8.18006,4.71804,3.12439,5.4998,-3.5278,-175.68,-860.832,-476.776,10080,-3220,-8120
3.73625,7.04579,0.148523,5.39445,0.712504,1.3249,2.27073,2.56731,6.00162,0.0993655,-0.958273,-1.43217,-0.752541,-0.633796,0.484906,-8.10227,-176.656,-858.88,-475.8,10080,-3080,-7420
-0.117613,9.94739,4.47343,10.0458,6.45697,3.17926,6.3292,4.97574,1.04064,-0.138375,-0.869204,3.00602,1.30615,2.82714,3.96985,2.63588,-173.728,-857.904,-476.288,9940,-3360,-7000
-10.7047,-1.62793,-0.968159,4.0805,0.156129,1.08307,4.99131,4.01551,-11.6227,-7.88261,-5.9034,-4.34057,-1.75264,1.47686,6.09021,11.5597,-172.752,-855.464,-479.704,9660,-3080,-6020
-7.25878,-3.17509,-2.66874,0.08643,-3.44493,-0.755215,-0.0458326,1.5194,-6.7931,-4.50456,-3.35403,-5.38817,-1.62773,0.55285,2.95362,10.4118,-174.704,-856.928,-476.776,9380,-3080,-5460
1.64103,4.07188,2.30513,2.02191,-1.20357,0.16821,-1.88034,3.04377,4.18957,4.85172,-0.174751,-0.75462,0.653342,1.21045,0.865745,9.12628,-174.704,-854.488,-477.264,9380,-2940,-5180
1.26576,-1.27401,-0.321498,-3.5618,-6.07014,-0.204349,-4.30281,0.381476,2.83809,5.32548,0.174324,-2.48608,0.0863728,-1.45242,-2.66035,6.14413,-173.24,-852.048,-479.704,8820,-3080,-4340
3.40984,-0.173988,-0.136682,-2.27539,-4.81624,-2.29715,-2.13662,0.294031,4.35901,5.83102,0.148564,-1.54179,-0.034661,-2.36539,-1.29017,7.15417,-175.68,-849.608,-478.24,8540,-2800,-3640
3.33154,-2.99892,-0.202912,-5.00454,-5.00329,-5.30139,-4.48016,-1.62621,3.35274,3.64072,0.698927,-2.90895,-1.24321,-3.36366,-5.80848,8.24555,-173.24,-849.608,-478.24,8120,-2520,-2800
-0.772554,-9.57093,-2.18579,-11.7262,-8.79648,-6.6645,-10.1749,-5.05964,-2.26551,-0.487204,1.23374,-5.71574,-2.65546,-5.16932,-13.2356,6.4831,-176.168,-845.704,-480.68,7140,-1960,-2100
-10.6623,-14.3088,-3.76951,-12.5852,-7.97662,-5.87744,-8.4637,-1.24075,-16.8602,-7.51747,-4.27573,-7.86474,-2.84068,-4.22845,-10.3615,9.37927,-175.68,-843.264,-480.68,6580,-1680,-1540
-16.9646,-21.3862,-6.26288,-15.2346,-9.88926,-3.61509,-7.51835,-1.63436,-24.5467,-12.6123,-5.80918,-9.42396,-3.66937,-2.93393,-9.06845,6.53318,-178.608,-843.264,-486.048,5880,-700,-700
-10.7912,-11.4358,-1.79193,-7.48275,-1.85232,0.286613,-1.73497,1.09816,-15.1235,-7.31648,-2.91537,-1.52072,-1.48945,0.346663,-2.33312,3.00578,-177.144,-842.776,-483.608,5320,-560,-140
-9.39347,-7.15124,-1.74078,2.92239,7.64166,4.02094,10.0937,5.13763,-15.4112,-7.66773,-3.42507,1.03936,-0.0805467,5.35324,14.0602,2.67934,-182.024,-843.752,-484.096,4620,420,420
0.570801,-4.61401,-1.67743,2.32163,5.54004,2.8478,8.21118,2.46038,-0.93303,-2.32929,0.408946,1.50642,0.0620852,3.08975,14.2378,-1.41057,-183.488,-842.776,-489.464,3780,840,1120
18.4184,11.4518,7.09548,10.6702,12.5188,4.06637,6.39698,2.06971,23.6462,11.266,7.17067,12.9372,3.59664,3.83704,13.8431,-0.760133,-185.928,-842.776,-483.608,3640,840,1820
20.9108,14.5367,9.82849,12.8758,12.0613,4.0012,2.42713,-1.85075,29.175,12.4437,8.04787,16.6391,3.97455,4.44125,8.78468,-2.35531,-185.44,-843.264,-488,2660,1120,2240
18.6586,17.7027,12.0942,12.3904,12.4225,3.93542,3.26326,-1.74365,27.3385,13.2044,7.34607,15.9452,4.81068,5.77033,5.22876,-0.0965619,-188.856,-848.632,-487.512,2240,700,2380
10.7232,6.41244,4.39795,-0.704231,2.82413,0.0939993,-1.31431,-1.81162,15.9871,6.86823,4.173,3.16557,1.71857,1.05347,-1.80766,-2.91878,-189.832,-847.656,-487.024,1680,840,2520
3.43357,-2.20584,-1.61561,-9.90157,-6.11397,-4.02004,-9.1597,-6.1414,6.15884,-1.68036,1.10945,-6.19047,-1.54358,-5.97239,-12.0798,-12.4498,-184.952,-849.608,-486.048,1260,280,2660
2.43396,0.277385,-0.760181,-9.85127,-6.8767,-3.5281,-12.0523,-9.46635,1.54749,-0.610985,1.40011,-6.54187,-0.567869,-5.76904,-19.5423,-17.2625,-188.856,-853.024,-488,980,-140,2380
3.46199,2.26942,-1.9453,-9.3633,-9.48713,-1.77657,-10.0479,-8.16623,0.775674,-0.222796,1.18944,-5.11392,0.835064,-4.73847,-18.1909,-14.0303,-189.344,-856.928,-486.536,840,-1400,1960
-1.69076,1.44022,-1.97297,-5.68726,-7.03486,-1.17329,-2.85941,-2.97973,-4.7381,-2.82078,-1.55523,-2.99817,0.629399,-3.50749,-10.6322,-7.3585,-184.464,-859.856,-487.512,700,-2100,1680
-2.75446,0.162109,-3.70905,-4.33101,-9.04602,-1.951,-1.39254,-3.07664,-4.00117,-3.33543,-2.33071,-1.94149,-1.08445,-2.86914,-8.40778,-7.8926,-181.048,-862.784,-481.656,840,-3500,1120
-8.20366,2.89944,-3.44626,3.48235,-2.23626,1.31108,3.94718,-0.0649085,-9.05163,-5.91426,-4.90998,1.97424,-1.68574,1.14042,-1.26935,-3.9705,-181.536,-863.76,-483.608,560,-4620,140
-34.0589,-6.51592,-8.11878,10.0323,6.43085,4.51492,15.6839,11.7191,-42.8555,-17.6344,-13.8673,-2.77727,-2.558,4.95586,14.6791,9.20533,-175.68,-868.64,-481.168,140,-5740,-840
-40.9697,-23.3933,-15.209,0.588614,-3.298,2.7421,14.3222,11.1555,-50.1285,-21.7826,-13.9239,-13.5695,-4.54544,0.911351,14.9422,9.02066,-175.68,-868.152,-479.704,-280,-7000,-1960
-7.17848,-4.90799,-3.88168,-0.527091,-3.14246,1.24154,4.71744,6.56688,-4.85237,-0.361038,-0.899762,-2.79486,-0.464729,-2.33814,4.74353,4.16247,-171.288,-868.152,-481.656,-140,-8120,-2520
7.31083,5.2145,0.550468,3.60252,-2.25201,1.47292,1.22362,2.91901,11.8789,6.62663,2.88997,0.573829,1.77229,-0.410005,5.06495,3.40368,-166.896,-870.104,-480.68,0,-9520,-3640
1.19375,6.55655,0.0977938,13.4951,5.60129,3.29126,8.34129,4.65307,3.85803,1.11912,0.715841,1.91793,1.56377,3.27889,16.1538,9.97435,-169.824,-871.568,-477.752,0,-10360,-4480
7.82298,7.91476,1.69423,9.21805,6.13681,2.9469,3.28033,1.67426,10.7217,6.56864,5.86357,3.83513,2.37558,3.0981,10.2066,6.40858,-165.432,-872.056,-480.192,-560,-10920,-5040
24.0785,16.0444,6.15309,3.99211,4.73898,0.669334,-5.82391,-2.6776,30.9691,16.2606,11.7836,8.4101,3.7483,2.61828,-1.68532,-1.17488,-162.992,-873.52,-479.704,-700,-11340,-5880
23.5047,20.5074,8.3185,7.96949,9.19908,0.610248,-1.73515,0.586843,30.6438,15.9774,9.6954,10.9669,4.05505,3.48506,3.95909,-0.324879,-162.504,-871.08,-480.192,-700,-11200,-6300
14.8611,12.3062,6.60216,7.4201,8.82267,0.00282594,1.58679,-0.656795,17.7394,9.91653,5.17805,7.65312,2.61448,3.6999,6.28928,-0.0740955,-162.504,-871.568,-476.776,-560,-11340,-6580
12.2844,1.1631,2.222,-6.83187,-1.77339,-4.07547,-11.169,-9.22514,14.833,4.69965,2.62708,1.92754,-1.12167,-3.61338,-14.1999,-9.58228,-165.432,-870.592,-478.728,-980,-10640,-6860
6.89754,-1.82732,1.89222,-8.50682,-1.71318,-5.50666,-12.6759,-10.6015,5.97346,3.47476,1.50006,0.239598,-0.297119,-5.82211,-17.5107,-10.1048,-163.48,-866.688,-481.168,-1120,-10080,-6860
-0.0733015,-3.89282,-0.684364,-3.216,0.181101,-3.84573,-7.14884,-8.61975,-3.80402,-1.7305,0.0979471,0.401045,-0.331301,-2.33732,-9.42604,-8.92116,-167.384,-866.688,-480.192,-1260,-9100,-7000
-0.918411,-7.37156,-1.19217,-9.66083,-1.52301,-3.19638,-9.13688,-2.95908,-4.93424,-0.645499,-1.73681,-2.45215,-2.90451,-2.52386,-14.3879,-8.29794,-167.872,-865.712,-487.512,-1540,-7840,-7000
-2.7277,-8.09319,-1.42828,-8.06923,-2.64432,-2.11556,-4.25938,1.3349,-6.0226,-1.2867,-3.66267,-5.29254,-5.52156,-0.217341,-7.20391,-3.15225,-165.92,-860.344,-489.952,-1400,-6440,-6860
-29.8063,-16.6113,-2.74305,12.6851,8.37632,4.42502,21.841,12.508,-43.0858,-17.3982,-13.9731,-9.39123,-6.91463,7.86615,26.2143,14.966,-167.872,-856.44,-488,-1120,-4760,-6440
-44.4942,-28.9781,-3.10603,8.0838,7.59338,5.41527,23.1201,16.0183,-64.3251,-24.7589,-18.1483,-14.5569,-6.59968,6.98087,23.4281,21.1927,-170.312,-853.512,-491.416,-1120,-3780,-6020
-17.5074,-30.7909,-4.60234,-23.8519,-17.1933,-1.61792,-11.3596,-0.594669,-23.7332,-10.9438,-4.94092,-15.995,-4.84581,-4.9019,-19.6963,-0.643511,-174.216,-852.048,-495.808,-560,-2100,-5460
10.2118,-4.62131,2.89986,-7.73922,-11.1496,-1.16589,-7.72275,-0.770044,16.2069,5.35326,3.74469,-1.46596,1.36754,-3.79024,-7.56566,2.51115,-175.192,-849.12,-496.784,-140,-980,-5040
16.4618,10.9913,7.50184,10.8321,-0.91413,0.925823,4.29755,1.19904,26.0498,7.99939,5.21665,7.70709,3.76987,1.84529,12.3774,9.9309,-174.704,-846.192,-495.808,420,700,-4480
14.8927,16.5054,5.41183,11.2684,0.920759,-0.692723,4.67064,-1.89898,25.3408,5.64747,4.39706,8.61847,3.64811,1.14136,11.6258,8.03836,-175.192,-843.264,-494.344,700,2240,-4200
17.1034,21.2266,6.37315,7.58984,4.52723,0.237348,5.84939,-1.02647,25.9295,8.64238,4.84199,11.1008,4.66467,0.839364,10.113,8.99284,-176.656,-843.264,-499.712,1260,2940,-3780
12.1815,13.1997,2.19802,4.3686,2.7956,0.242494,5.40208,-0.366894,17.9189,4.51065,4.86661,8.3719,4.01879,-0.317178,9.13642,6.8837,-177.632,-842.776,-498.736,1960,3920,-3500
8.05286,6.09833,-1.84872,-3.13703,-1.7789,-1.15509,-3.09877,-0.0135447,13.8584,1.70333,2.89278,4.38535,2.54603,-3.16733,-3.27115,1.2775,-176.656,-843.752,-499.224,2660,4480,-3080
6.33554,-1.20161,-3.8915,-14.6551,-9.09652,-4.35709,-14.2234,-5.68234,10.9955,3.20029,4.19099,0.757106,1.53741,-6.13637,-19.2239,-8.08796,-175.68,-846.192,-497.76,3640,4900,-2800
-4.75026,-7.7607,-6.9631,-15.4991,-9.88932,-5.46251,-14.3436,-7.78655,-5.86837,-2.57525,1.12101,-4.56789,0.400186,-5.5148,-20.0311,-10.9921,-179.584,-841.312,-498.248,4620,5320,-2660
-19.9654,-12.6435,-6.38215,-11.5048,-3.80593,-2.9836,-7.32469,-1.44237,-28.7625,-10.5654,-3.82114,-9.26611,-0.209443,-2.85584,-13.5877,-7.68323,-178.12,-840.824,-493.856,5600,5180,-2380
-22.5957,-10.7781,-6.34192,-9.51467,-3.41413,1.09505,-6.0698,-1.02509,-31.2368,-12.6233,-4.91404,-7.68389,0.0948085,0.68473,-12.7382,-10.8246,-180.072,-839.848,-496.784,6160,5180,-2240
-20.9777,-7.57164,-3.39934,-9.91813,0.305564,5.03108,-3.54789,2.4412,-28.2373,-8.88731,-3.09957,-4.10477,0.680337,1.63903,-12.0155,-8.8385,-178.608,-840.336,-500.2,6860,4620,-2240
-7.59245,-9.63388,-5.23816,-13.8,-7.72181,0.732195,-4.86795,0.156856,-10.556,-1.22945,2.17899,-7.92282,-1.5513,-3.23043,-8.95535,-13.0667,-177.144,-839.36,-499.712,7280,4480,-2100
15.0948,9.11183,1.61306,1.24406,-0.294062,1.41521,0.490451,0.233953,19.3424,10.7902,7.95009,2.6024,1.24318,0.330699,3.35713,-8.79533,-177.144,-839.36,-497.76,7420,4060,-1820
17.5637,14.5163,4.92986,12.0874,7.65022,2.45484,5.00814,-0.257038,21.3197,12.4104,6.96944,8.21206,2.12185,1.70624,13.9649,-3.34404,-180.072,-837.896,-497.272,8120,3640,-1960
17.9385,16.7565,5.69106,15.9141,10.6942,3.96055,8.2396,0.0364916,25.1027,10.5582,3.57432,12.1814,1.898,3.97934,16.7883,0.097239,-179.584,-841.8,-498.736,7980,3220,-2100
18.7135,19.8131,6.89231,17.6706,10.2599,2.34583,11.725,2.38055,29.1176,9.69066,2.03812,11.2478,0.668329,4.59181,16.2786,2.53401,-180.56,-840.824,-500.2,7980,2800,-2240
16.7618,21.6225,6.65774,19.1063,10.1645,1.57806,10.4852,1.45167,25.8552,12.0834,2.06976,10.6432,0.613398,5.43571,13.672,1.17429,-180.072,-840.824,-503.616,8540,2100,-2520
7.21579,12.7915,1.81919,13.9959,7.48279,0.658446,5.74328,0.242794,11.7613,6.68346,-1.24629,5.46265,-0.783588,3.19932,6.00612,-0.604957,-178.608,-841.312,-498.736,8960,1400,-2660
-9.16035,1.85697,-0.0264994,11.9518,9.46749,1.9767,10.2714,6.42546,-11.8687,-4.26691,-8.57038,-1.93294,-2.40273,3.76344,8.19387,7.1174,-181.048,-842.776,-495.808,9380,560,-2940
-20.612,-15.2545,-6.15926,5.97269,4.01942,2.30971,11.3983,6.96607,-27.8128,-14.1016,-10.0424,-11.0892,-4.16062,2.9136,9.28909,11.4909,-177.144,-844.24,-498.248,9800,280,-3080
-1.79313,-4.7032,0.641333,4.22059,2.29206,1.22389,2.50762,2.77694,-4.52125,-2.73231,-1.59693,-1.64747,-1.71311,0.319877,2.1973,8.57142,-176.656,-842.776,-498.248,9940,140,-3360
-9.35433,-11.4269,-0.348704,0.135665,-1.03952,0.511015,-1.16641,-1.38612,-17.6051,-8.17435,-3.94882,-3.97479,-2.21643,-2.20709,1.61461,6.14804,-177.144,-844.728,-493.368,10080,-280,-3500
-21.012,-21.0725,-6.71507,-6.51295,-5.06875,-1.93794,-4.53448,-2.37403,-33.3465,-16.4567,-8.86042,-10.287,-3.71854,-3.91892,-1.81657,3.90926,-173.24,-841.312,-496.296,10500,-560,-3780
-30.1739,-17.5644,-5.42631,1.7426,5.12685,2.04167,2.96229,4.24726,-45.8564,-21.6895,-11.9624,-6.47476,-2.22688,1.84398,4.80924,12.2239,-175.192,-842.288,-495.808,10500,-280,-4200
-20.7151,-26.7752,-8.64067,-18.608,-11.3776,-2.74383,-10.6815,-2.43116,-31.1432,-15.7581,-6.09609,-13.0921,-3.0388,-4.05116,-14.4308,1.58797,-176.168,-844.24,-493.368,10220,-280,-4340
8.85301,-5.67101,-0.547104,-16.9322,-11.0415,-4.98002,-14.3814,-5.86783,9.97422,5.4295,5.37906,-0.572884,0.747901,-3.93035,-18.3524,-1.71657,-174.216,-846.192,-494.832,10220,-140,-4480
14.0873,-1.89271,0.099608,-12.2721,-10.4413,-6.55493,-11.7231,-7.65488,18.0435,9.57359,6.47635,-0.585037,-1.19607,-4.54687,-14.8999,-2.05892,-175.192,-845.704,-490.928,10360,-140,-4620
24.3202,12.7883,6.36599,-1.14921,-3.68474,-3.14606,-2.74087,-4.76961,35.4489,15.6281,9.76281,7.95933,2.04799,0.464506,-6.89895,0.739622,-174.216,-847.656,-489.952,10500,-140,-4620
14.6951,10.6742,7.55008,3.43997,2.42221,-0.891337,2.82008,-1.20934,22.848,11.2143,6.44073,5.67895,3.03964,2.17264,0.347949,4.23227,-174.216,-848.632,-487.512,10920,-280,-4620
10.4696,3.32955,4.94925,-8.6641,-8.51474,-3.7371,-9.52784,-7.79633,17.5702,8.54565,6.55891,-1.14742,1.99492,-3.62029,-15.1443,-7.78913,-172.752,-850.584,-488.488,10500,0,-4760
12.1864,11.0282,8.66484,-1.04093,-4.48789,-0.480712,-3.65907,-5.1201,16.0839,10.6681,7.60015,3.14932,3.47489,-1.1911,-6.86349,-6.66844,-172.264,-850.096,-485.072,10360,140,-4760
5.64695,8.78047,4.02773,3.30338,-2.74933,1.63034,1.19922,-0.703536,7.54702,6.49875,3.52802,2.43906,1.44302,0.713684,4.8179,-2.44833,-173.728,-849.608,-486.048,10360,280,-5040
1.1426,10.7734,-0.280861,11.3845,1.99238,3.12145,8.00862,4.78004,4.51754,3.74359,0.421359,4.77309,-0.207528,2.96807,17.8017,2.71212,-176.168,-848.144,-482.144,9940,420,-4900
-1.61524,8.04055,-1.37356,5.07256,2.60102,1.23322,3.95091,6.25769,0.246162,0.388776,-1.72454,3.73303,-1.11667,1.09974,10.8088,1.59675,-172.264,-848.144,-473.848,9100,700,-4760
-5.88416,-1.00819,-5.11549,-4.35159,-2.22268,0.768917,-0.629809,2.57643,-9.35698,-5.23921,-1.73237,-0.700799,-0.300912,0.538652,3.28096,-2.67065,-172.752,-851.56,-476.776,7980,1400,-4900
-6.35289,5.15458,-0.402337,7.94303,10.7874,5.00034,10.2771,9.05193,-10.5604,-3.18047,-2.98102,3.78471,2.53472,5.9301,16.532,5.7521,-170.8,-849.608,-475.8,7000,1820,-5040
-6.42373,-2.46083,-2.46414,-2.73754,3.52749,1.8987,1.67994,3.76216,-7.63038,-4.84829,-2.15194,-2.13846,1.6877,0.963208,3.26073,-3.25448,-171.776,-850.096,-474.824,6020,2240,-5180
-6.50539,-3.58865,-4.5305,-7.00653,1.19506,-0.993774,3.12586,3.9812,-7.25465,-7.28099,-3.0564,-5.59196,0.0587516,-2.61132,0.152587,-5.0233,-174.704,-849.12,-476.288,5600,2660,-5040
-8.69502,-4.29126,-5.8689,-4.12801,3.6492,0.326137,5.47911,4.62731,-11.238,-10.3117,-4.89103,-4.61408,0.301683,-0.742492,-0.214913,-3.13448,-170.8,-845.216,-474.336,4900,2380,-4760
1.33442,-0.172373,-2.83265,-5.5887,1.79245,-0.309069,-3.8998,-0.520743,2.5047,-2.9354,0.541755,0.370481,2.05984,-1.53866,-11.749,-9.07442,-174.704,-848.632,-472.872,4480,2520,-4200
4.60998,-0.360642,-0.312786,-7.02245,-1.82079,-2.91831,-12.0428,-6.5821,7.59305,0.551484,2.59062,2.67223,0.712883,-4.31835,-19.8816,-15.0667,-173.24,-848.144,-471.896,3780,2380,-4060
0.170778,-8.76038,-1.31565,-7.484,-3.45039,-2.75708,-12.9046,-5.90128,-0.369565,-0.666935,0.00484447,-0.114097,-1.73051,-5.73757,-15.4731,-12.5955,-173.24,-852.048,-469.456,3080,2660,-3780
-4.99403,-4.52246,-0.948752,6.80396,3.65829,0.790847,0.589514,0.564765,-5.34856,-2.85535,-1.96278,2.56865,-1.14441,-0.136507,5.36389,0.0619554,-174.216,-854.976,-472.384,2100,3500,-3500
-2.21143,-4.51204,1.07138,3.88126,3.40144,1.08612,0.649736,1.28574,-4.72267,0.905777,0.694014,0.848697,-0.866942,0.865856,1.69134,1.97355,-174.216,-855.952,-471.896,1400,3640,-3500
3.03905,-8.55311,-1.01356,-5.91379,-3.93593,0.604817,-3.55411,-0.586558,1.70177,1.81506,1.61207,-1.90077,-1.98816,-1.23245,-7.83339,1.61269,-172.264,-859.856,-469.456,700,4620,-3220
0.22783,-5.59781,0.814715,0.14267,1.65086,2.20804,3.2596,1.87156,-1.89151,2.604,-0.082787,-0.138506,-0.0622265,-0.254318,0.563766,8.06428,-172.264,-862.296,-469.456,280,5040,-3080
-3.97619,-4.21408,-0.131553,8.85791,4.88562,1.58721,7.27967,1.04603,-4.59004,0.269644,-2.08994,-1.10084,0.288335,1.48796,11.4077,7.82942,-175.68,-861.32,-470.92,-560,5880,-2940
4.67243,-2.98356,1.48083,3.85382,-1.15488,-0.285426,0.593286,-2.82149,7.69973,3.29572,1.62927,-1.73457,0.15721,0.0884062,4.54846,1.48655,-176.656,-864.248,-467.992,-840,6300,-2660
13.9982,9.66164,7.75506,8.30912,3.08538,0.350834,3.61458,0.0382121,18.9125,9.20833,2.8027,4.07258,0.725878,3.01059,8.03899,4.99509,-178.12,-864.248,-467.016,-1400,6720,-2800
10.0588,9.89595,4.65027,8.73106,-0.290463,-0.0443761,3.84771,-1.86451,13.7426,6.07652,0.321138,4.29957,-0.272892,3.72163,7.17281,2.81038,-177.144,-861.808,-465.064,-1960,6580,-2520
5.89154,9.34181,6.71853,10.3878,1.10292,0.165439,5.19158,0.0313578,4.46057,4.52999,-0.309002,4.4356,-1.75872,4.14946,7.78735,4.20081,-178.608,-863.76,-466.04,-2520,6020,-2800
5.38312,4.5349,4.17185,2.1532,-4.04904,-0.523386,-0.549257,-1.63625,4.1148,3.36582,0.491246,-0.463637,-1.01158,2.10107,1.59863,0.894961,-187.392,-861.32,-466.04,-2940,4900,-2520
0.66022,8.00264,4.59007,6.19561,1.67368,0.78196,4.73826,0.162478,0.75331,-0.12401,0.114828,2.10154,3.2177,3.18167,8.82104,5.30869,-189.832,-855.464,-464.576,-3080,3640,-2240
-14.0332,3.9952,2.83359,9.28175,5.78515,3.02409,13.2436,4.91983,-17.6708,-7.2406,-3.78485,1.74236,2.40787,5.81944,14.7235,11.1031,-181.536,-859.368,-464.576,-2660,2380,-1960
-18.351,-2.41862,-3.71625,1.41838,-0.249044,1.96761,8.9973,1.974,-21.7068,-9.46414,-3.89469,-1.79248,0.0540347,3.30193,4.53978,5.56923,-184.464,-860.344,-461.648,-3500,1960,-3080
-26.9464,-13.1015,-10.053,-7.2311,-5.17546,-3.32146,0.35595,-2.76788,-30.1917,-15.3276,-6.23702,-12.9774,-5.13991,-1.85948,-4.87074,-0.739274,-180.56,-862.296,-467.992,-3360,420,-3360
-7.9944,-11.9013,-11.0811,-22.1731,-14.6864,-5.91678,-15.7977,-8.38196,-3.0911,-4.3534,0.983805,-14.6479,-3.97737,-8.6029,-24.5185,-12.3486,-185.928,-856.44,-467.016,-3640,-420,-4340
-1.97439,-5.11961,-8.69314,-11.9922,-9.88528,-1.92222,-9.37015,-4.13453,0.970184,-3.24985,0.724883,-8.01059,-1.40483,-4.57096,-12.8842,-5.34225,-181.048,-861.32,-468.968,-2800,-2240,-4620
-5.90139,0.240493,-2.8797,-1.41002,1.89682,2.06367,1.40063,5.26481,-6.12281,-5.10643,-3.30903,-2.97022,-1.2686,-0.909051,1.65776,6.33904,-185.928,-855.952,-465.064,-3080,-2800,-5320
-5.03136,-1.86548,-2.81107,-0.572564,0.209785,1.06844,0.369954,3.72761,-3.64554,-5.8356,-4.16168,-1.86986,-3.46911,-2.21153,3.38146,3.42728,-181.536,-856.928,-474.336,-2660,-5180,-5460
5.09044,-4.83083,-1.23556,-14.3,-7.82729,-3.31971,-13.307,-0.595089,4.57294,3.23083,1.48744,-2.34659,-2.59942,-7.40865,-14.7873,-4.08688,-181.536,-861.32,-469.456,-2940,-6020,-5740
19.3608,4.6493,0.458462,-11.431,-7.93632,-5.72507,-17.3272,-8.13953,22.0062,12.1071,6.86826,3.66733,-1.23668,-6.8069,-16.3225,-9.28288,-177.632,-861.32,-473.848,-2940,-7560,-6020
22.0977,13.7595,4.00104,6.63597,5.90475,-2.18681,-2.51587,-4.69797,23.9246,12.8015,7.43979,11.5535,1.22236,-0.205587,2.75697,-0.0852014,-178.12,-873.52,-479.704,-3080,-7000,-6580
26.5756,25.8647,12.5187,24.0399,21.2858,3.90775,15.4768,3.52553,30.256,16.6482,9.46005,21.2801,7.28228,8.00599,23.8611,13.2188,-182.024,-871.08,-487.024,-5180,-4900,-7840
17.2745,12.6478,11.4396,10.7187,11.4025,3.34907,6.20868,1.77661,19.0537,11.7807,7.5502,14.7545,8.44142,7.32685,9.31239,7.66483,-175.68,-877.424,-496.296,-9800,-3920,-8260
-3.52157,-4.82869,5.15977,1.62936,4.70324,3.03399,3.38294,7.43403,-8.06607,0.381112,-0.334603,3.98487,5.23606,5.62048,1.8904,7.02041,-175.68,-873.52,-495.808,-13020,-140,-9520
-11.7482,-10.2632,-0.920653,-0.119085,2.8792,3.46554,1.63983,8.02705,-19.2867,-6.46201,-5.40743,-1.01824,2.24485,4.07825,-2.78009,4.18245,-180.56,-865.224,-487.024,-11760,700,-10640
2.90975,-3.485,-1.32268,-7.41429,-0.83071,1.74003,-9.0462,-0.0211856,-0.419385,0.447779,-0.255941,2.80503,4.35235,-0.620332,-15.585,-6.20764,-178.12,-865.712,-485.56,-10220,-840,-10220
-1.8661,-8.42055,-3.80056,-7.64575,-1.7778,-0.29175,-6.90823,-0.703947,-6.69472,-0.938006,-0.628534,-3.81393,-0.645089,-2.70431,-8.66389,-8.44635,-179.096,-859.856,-484.096,-9240,-1260,-9940
-4.67655,-3.70587,-3.46628,5.9749,2.50784,1.8192,6.88338,0.623832,-7.72939,-6.22408,-2.90263,-1.99254,-2.34144,0.647015,11.5302,-5.11646,-175.192,-858.392,-479.216,-8820,-1820,-10080
-12.6609,-3.48789,-2.97748,8.16652,4.4498,1.61141,9.85915,1.47123,-16.0105,-10.4252,-7.26147,-2.12186,-2.60378,1.77079,11.4408,-4.20758,-177.632,-858.88,-475.8,-8120,-2800,-10220
-1.60517,-10.3295,-5.60547,-16.9068,-15.7575,-5.42123,-14.5921,-7.65799,-0.911295,-4.5558,-0.910233,-8.83875,-2.8406,-7.41081,-22.4512,-19.9355,-174.704,-858.392,-479.704,-7280,-4480,-9940
19.6232,4.2597,0.80039,-15.1951,-15.9961,-6.72459,-19.4268,-8.69397,25.1889,9.96291,6.67667,-1.5546,0.753069,-9.18411,-26.087,-23.9311,-173.24,-861.32,-483.12,-7140,-4620,-9800
9.57289,5.83425,2.06675,3.36905,1.12629,-1.47878,1.10608,-0.557989,11.0569,5.77118,2.53341,-1.66493,0.691185,-2.54915,3.6679,-9.83215,-174.216,-862.784,-483.608,-7700,-3780,-9940
-11.3275,-4.88413,-3.48989,3.42136,2.71871,1.48887,7.2926,1.77303,-12.4415,-8.6207,-3.19647,-9.42436,-1.4102,-0.491054,9.59629,-2.62492,-172.752,-861.32,-489.464,-9100,-2240,-10500
-17.6964,-10.4817,-6.68685,-11.0703,-5.60231,-0.678871,-0.991841,1.55143,-18.1486,-10.8902,-4.29683,-16.2266,-4.73045,-4.8748,-6.49155,-2.23408,-176.168,-858.392,-491.904,-9800,-2380,-10500
-6.8809,2.48766,-3.54413,5.78358,1.53747,1.00989,9.71102,0.759152,-5.39058,-3.13714,-2.49013,-5.483,-3.77078,-0.262563,16.5066,4.967,-173.24,-860.832,-487.512,-9520,-2660,-9800
-31.7249,-3.65021,-5.35791,25.9771,14.8894,6.00643,29.9059,11.7753,-39.5207,-15.2358,-13.2419,-2.68236,-6.34437,7.57669,42.9134,22.5991,-172.752,-861.808,-492.88,-9100,-2520,-9660
-34.5401,-13.9431,-2.94374,15.0843,7.28548,4.02748,19.9832,10.6098,-40.3055,-15.6409,-12.2821,-4.90206,-6.12062,5.72593,25.966,18.932,-170.8,-863.76,-488.488,-8820,-2800,-8820
-2.26635,-9.02979,4.21228,-12.7833,-10.7526,-1.72711,-7.8309,-1.37766,4.7866,1.40715,1.29934,-1.10837,-1.45446,-2.53523,-14.5202,2.67134,-169.336,-864.248,-498.248,-8820,-2100,-8680
15.2259,7.26986,6.78508,-5.94773,-4.58768,0.494058,-0.695916,2.05512,28.5666,10.3042,5.74017,7.17458,1.69003,1.10091,-6.58064,10.4416,-169.336,-861.32,-498.248,-9800,-1120,-8820
17.5917,15.0951,7.10278,-2.77162,-1.44805,0.446585,-7.13662,-2.92451,27.3843,12.8354,7.49313,11.1411,3.64047,1.71928,-11.7947,4.60915,-167.872,-862.296,-497.76,-10220,-700,-8540
20.5084,16.8384,6.83314,1.62222,-0.377065,-0.676868,-8.61095,-9.29897,28.6839,13.2823,8.59748,12.0035,3.95388,0.683845,-7.9351,-2.73468,-168.848,-857.904,-496.296,-9800,-560,-7980
28.8371,20.6701,10.3979,8.03762,5.21537,-0.194536,-0.305637,-8.90185,38.008,20.7585,13.0064,15.3317,5.7043,3.13014,4.62206,0.636454,-170.312,-855.952,-494.832,-9380,-280,-7560
0.957822,-1.50248,1.13319,2.71753,0.0748888,-1.33585,3.27144,-6.82203,-1.00146,2.08857,3.2012,1.55015,1.34184,2.4656,6.98008,4.46715,-166.896,-856.44,-490.44,-9380,0,-7280
0.343323,-4.14207,-0.0460931,-7.99631,-3.26775,-3.18981,-8.70241,-4.02394,-3.13798,2.28496,0.188476,-0.139505,0.37935,-0.278828,-14.1919,-1.11911,-166.896,-856.44,-489.952,-9100,140,-6860
-7.22218,-8.27453,-2.46773,-4.46369,-0.883258,-1.54003,-4.8843,-1.79926,-16.6061,-3.2084,-2.96155,-2.67625,0.944262,2.00636,-8.33867,-0.445113,-169.336,-857.416,-488.976,-9100,0,-6440
-19.6295,-12.6463,-3.93332,5.50178,7.44561,3.38456,7.817,9.08355,-30.5253,-12.9129,-8.21219,-3.87131,1.47415,6.45269,7.30672,8.20473,-169.336,-857.904,-491.904,-8960,0,-5880
-8.49206,-9.85654,-3.05706,-7.32367,-0.0773016,0.208183,-9.11596,5.69869,-11.6721,-6.73635,-3.0792,-2.5853,1.18557,-0.137235,-17.4873,-4.2946,-169.336,-856.928,-494.344,-9240,280,-5460
-4.21651,-10.3057,-7.43156,-11.3541,-7.70219,-3.60959,-11.3958,1.06755,-4.75571,-6.20481,-0.963131,-7.24022,-1.86138,-6.25501,-17.3728,-9.64994,-170.312,-855.464,-493.856,-9100,140,-5320
15.8267,12.6717,0.774139,1.49222,1.08171,-1.54148,-6.78829,-1.76348,22.6796,3.93794,4.38327,5.25001,2.46114,-2.97616,-5.36202,-7.22201,-168.36,-856.44,-496.784,-8540,0,-4900
8.89293,14.9411,3.42547,14.3281,8.84692,1.57245,3.86605,-1.58696,11.1944,0.979688,2.00005,6.13215,3.43065,1.61531,14.0086,-3.26586,-169.336,-854.976,-496.784,-8120,-420,-4620
7.13501,13.3763,2.7737,17.6674,11.5115,3.45816,12.6779,4.39775,8.23998,-0.785208,0.268673,7.24667,1.94548,3.92101,25.4017,3.85581,-167.872,-859.856,-495.32,-7560,-140,-4620
13.885,14.089,2.72739,9.73088,6.94239,2.49142,4.69769,1.49385,14.6908,3.54149,1.6863,7.87844,2.32057,2.11096,13.3259,0.752075,-167.384,-856.44,-495.32,-7000,-840,-4340
16.0075,8.22476,1.87289,-1.63991,-1.96417,-0.238077,-4.98169,-4.17798,16.0818,4.47458,3.62406,3.17131,1.92107,-1.86607,-2.89982,-5.43577,-165.432,-859.856,-494.832,-6020,-700,-4340
10.0477,2.30097,1.0183,-8.76327,-4.5261,-2.35868,-9.01618,-3.81828,5.9387,5.27838,3.63797,-3.54895,-0.0238039,-5.51624,-8.41895,-3.49281,-166.408,-858.88,-491.904,-5180,-420,-4620
8.67135,1.89246,-0.915184,-14.1923,-6.67841,-3.06077,-6.57531,-3.04114,6.96078,7.65414,2.56608,-3.4068,-1.5613,-4.16805,-10.0588,0.738612,-171.288,-859.856,-493.368,-4480,-980,-4760
16.6724,16.7559,4.56121,2.84385,2.76962,1.1933,3.96959,0.457476,22.1383,11.7232,3.37471,8.32105,1.17542,2.15812,-0.788058,7.23563,-170.312,-861.32,-493.856,-4060,-840,-4760
-4.59647,1.3732,-0.849197,3.05647,1.8781,1.9376,3.3075,4.15578,-8.13213,0.733418,-2.18957,-1.07316,-1.99685,0.96665,-2.13414,6.15835,-174.704,-859.368,-494.832,-2660,-1820,-4760
-43.1492,-47.3219,-18.5599,-33.7615,-22.7191,-4.91521,-12.6156,2.73906,-61.9809,-23.0163,-11.7787,-31.8334,-10.9837,-10.2237,-21.4166,-5.79819,-174.216,-856.928,-492.392,-1540,-3080,-4620
-42.5233,-51.298,-18.7068,-41.7389,-27.9627,-6.89684,-21.6708,-0.666443,-56.9347,-22.8155,-12.086,-33.8728,-9.83562,-13.038,-33.058,-15.1531,-176.168,-853.512,-500.2,-840,-3080,-4620
-23.359,-17.5471,-4.27163,6.80273,3.25972,1.04588,13.3876,0.524836,-25.9294,-11.6214,-7.98873,-7.14739,-4.27859,2.75107,16.5798,2.68585,-169.336,-848.632,-499.712,-1400,-2100,-4900
-4.76424,5.60224,5.88289,25.0633,16.7813,4.44465,20.7085,-0.152235,-1.36665,1.57235,0.245408,10.1488,0.228184,7.25829,27.2198,8.53703,-162.992,-845.704,-497.76,-1540,-1960,-5180
-4.28925,-3.15248,4.01252,9.78004,6.36132,1.90865,9.24247,1.48947,-3.00595,-0.0807208,-0.0676903,5.94293,-1.44608,3.51312,9.56765,3.42251,-159.576,-843.752,-505.08,-1540,-1260,-5740
-9.86151,-16.348,-2.30095,-2.2584,-4.87789,-0.476143,5.58952,3.31702,-8.20829,-5.1913,-0.507944,-5.02002,-5.27841,-1.69997,6.52007,1.18712,-159.576,-841.312,-504.104,-2240,-1120,-6440
5.0468,12.1474,6.73784,15.0736,7.70796,1.32993,9.75028,2.47478,11.8023,4.26912,0.771286,10.5115,0.46449,3.02933,16.8674,1.92193,-159.088,-841.312,-508.008,-2240,-1540,-6860
-4.28654,5.17423,2.77282,7.90581,3.64087,0.200278,4.85423,1.78492,-1.64676,-3.41474,-4.93865,4.0802,0.108518,0.682918,7.0361,-1.63548,-157.624,-840.336,-506.056,-1540,-1540,-7140
7.62536,16.0679,4.34802,17.6808,7.69148,3.13576,11.479,3.2757,18.5894,2.43242,-1.92963,8.71037,3.59116,4.60042,16.0566,2.01194,-159.576,-839.36,-506.056,-980,-1120,-7700
20.1337,17.9531,7.29663,13.4507,7.94979,2.72997,8.61544,-0.71407,31.1269,12.3366,3.95858,8.78485,4.973,4.32082,13.3132,0.550927,-156.16,-841.8,-505.568,0,-980,-7840
28.6659,14.3557,4.73117,-4.08719,-2.91579,-0.105585,-7.63289,-7.83877,38.7915,15.4394,10.0177,6.56299,5.67865,-0.0291426,-10.0353,-9.53488,-157.624,-843.264,-506.544,980,-420,-7980
28.4648,18.2424,4.95678,-5.86629,-1.58663,-0.485543,-9.06905,-4.87367,35.7363,16.929,10.5845,8.87618,6.71771,0.208363,-15.4395,-6.99652,-154.208,-837.896,-502.152,2380,140,-7840
13.9721,4.50079,-5.22289,-21.023,-14.8802,-4.41314,-22.4989,-9.98495,16.0339,7.16098,6.97183,-2.53291,2.91329,-4.73734,-32.2008,-13.8163,-151.28,-837.896,-498.248,3500,840,-7700
5.43242,17.7283,1.97193,5.62494,4.41164,1.7976,-0.519788,-0.215045,5.23862,2.79503,3.24833,6.47386,5.92707,4.50848,-0.929791,0.0284784,-152.744,-836.432,-495.808,4060,1260,-7420
-13.0668,5.4008,2.69091,17.2243,11.7122,4.6512,18.0564,10.208,-21.1569,-6.90321,-3.60444,-0.737406,2.58422,7.33655,23.9283,13.0949,-147.376,-831.552,-496.784,5040,1960,-6440
-19.987,-7.66393,-0.872878,6.10237,2.82026,2.29672,7.68378,7.66196,-31.2313,-11.9426,-4.91221,-7.92813,-1.47625,2.32774,10.3214,10.0127,-146.4,-831.064,-498.248,5740,2100,-5600
4.60234,-0.214779,3.06438,-7.90137,-5.99118,-2.72702,-14.0002,-4.88253,3.08235,4.18592,5.35757,-0.735585,1.33521,-4.64252,-18.3833,-3.10291,-144.448,-828.136,-498.736,6580,2380,-4200
-2.59619,-6.51336,1.28653,-1.69299,-1.82942,-2.14624,-7.44227,-4.97339,-10.758,-0.31128,2.14019,-1.22465,0.155551,-3.26929,-9.11202,-0.0181917,-143.472,-825.208,-498.736,7280,2380,-2520
-29.1048,-16.5836,-4.3959,9.66843,7.00833,2.01518,11.4308,5.81496,-43.2564,-17.3163,-6.40449,-6.49079,-3.97758,0.407019,10.4687,12.7187,-145.912,-820.816,-497.272,8120,2520,-840
-15.2984,-13.3761,-3.89802,-4.40308,-1.42638,-0.221171,-1.34719,3.79507,-17.4777,-9.29212,-3.54552,-6.05678,-3.35125,-2.00056,-8.14334,6.03894,-145.424,-822.28,-497.272,9380,1960,1120
4.11838,-3.20176,-1.71461,-5.37554,-2.76435,-1.29057,-6.35874,4.38422,11.7066,0.76912,0.556082,0.810016,-1.62409,-1.88774,-8.68981,3.47517,-145.424,-823.256,-494.832,10360,2240,2660
19.9691,5.12926,-0.458589,-13.168,-5.23834,-4.56297,-15.417,1.3308,29.0488,11.6831,3.68655,4.23838,0.774738,-4.58206,-19.1369,-4.01593,-148.84,-823.256,-499.224,11200,3080,4480
29.9463,8.92058,-1.32448,-32.0166,-18.3797,-6.92781,-40.8275,-12.282,37.4464,16.6389,6.86454,4.44364,2.43106,-10.2607,-55.9455,-21.1802,-149.816,-820.816,-494.832,11200,3080,4480
26.9358,20.8007,2.89157,4.54539,2.61913,1.87559,-5.94422,-6.41385,31.9262,12.8849,5.58666,14.4784,2.71772,0.955483,-0.803491,-0.717363,-152.256,-816.424,-489.464,11480,3360,6440
-4.14868,1.58711,-2.34525,13.9509,10.5623,5.54384,21.5041,5.35187,-7.42234,-3.81253,-4.80441,3.00913,-3.75718,5.68601,35.6219,17.9875,-153.72,-814.96,-488.488,12600,2800,7980
-13.474,-2.36,-5.18911,12.0507,6.75171,4.52072,19.8798,5.59717,-11.4757,-12.5073,-7.83605,-0.0180342,-4.90694,6.23984,30.2294,16.6828,-155.184,-817.4,-483.608,12600,2800,10080
-5.05842,-3.75685,-0.980437,-1.98747,0.134159,0.881478,3.20796,-0.874363,-0.897851,-4.4181,-2.95438,-0.305847,-2.1287,2.16543,5.52271,1.89925,-158.112,-823.256,-491.904,13300,2240,11340
-21.4093,-11.159,0.920667,-2.51799,-0.717219,-0.206481,-1.10878,-2.16255,-23.1669,-12.0932,-8.80283,-3.85295,-2.14621,1.36498,-2.03753,-4.77708,-151.768,-816.424,-495.808,14140,140,13020
-38.2255,-30.8313,-2.94055,-6.33616,-3.34354,-0.503105,4.70339,-0.0131602,-46.8949,-21.9986,-12.8965,-16.162,-4.54799,-0.893243,6.57396,-3.46794,-150.304,-827.16,-500.2,13020,-280,14140
-10.568,-20.1352,0.517254,-8.00775,-6.5021,-1.85743,2.51046,-5.01964,-10.296,-2.32707,-0.611935,-11.1373,-0.990926,-1.96366,8.89255,-9.35111,-150.792,-826.672,-499.712,11060,2100,14420
-2.51624,-3.6636,1.27466,9.21157,4.29591,-0.334678,11.1299,-1.70534,-2.93655,2.00127,2.7105,-1.30961,1.4386,3.14053,24.2694,-6.99136,-152.256,-829.112,-498.736,8120,3780,13860
-15.2662,-16.6757,-7.40446,-8.03995,-2.37516,-2.71047,0.24052,0.984927,-21.3822,-4.91987,-2.04979,-10.6672,-2.54168,-2.08453,4.99311,-10.756,-152.744,-833.504,-492.88,7700,3920,13440
2.8971,-3.45349,-2.5955,-11.2758,-4.87542,-2.99561,-5.61847,-1.72031,5.38661,5.13241,3.32566,-3.94232,0.47976,-2.8207,-8.44005,-11.4958,-151.28,-839.36,-491.416,9240,1540,13440
20.9338,14.5391,6.00702,4.85701,2.95158,-1.07414,1.19322,-1.17709,24.8467,14.5552,8.92957,6.96063,3.25762,1.6581,-1.88484,-4.95808,-153.72,-843.264,-482.144,9660,-280,13720
22.5039,24.4131,10.8696,18.1421,13.3969,2.33511,10.0321,6.59055,25.5329,14.1033,5.88395,12.8987,3.41532,4.91986,7.6251,8.01576,-156.648,-849.12,-480.68,9940,280,13440
16.8576,13.1305,4.47722,8.15327,2.52413,-0.840292,2.96423,4.12831,18.2448,7.62233,5.15644,4.0475,0.297313,-0.120417,1.12583,3.16273,-158.6,-840.824,-471.408,12460,-1400,13300
23.6876,21.937,8.78276,10.9108,5.28868,-0.871737,3.1353,1.9362,23.2353,12.3256,7.57718,8.33502,2.44864,0.398242,3.8432,-0.315386,-158.6,-842.776,-466.04,14140,-2940,13440
9.71343,11.8989,3.33588,6.32412,2.70506,0.508034,3.54138,-2.33575,6.58761,1.81401,0.901398,1.69003,1.39489,-0.446938,3.56101,-0.146241,-153.72,-847.656,-469.944,18620,-5740,14000
-1.72554,3.909,-2.33588,0.988614,1.06301,1.42709,-1.15901,-0.87658,-6.65369,-5.40913,-4.45453,-1.79703,-0.551822,-1.93071,-5.83135,2.98643,-154.208,-846.192,-469.456,19740,-6020,14420
-1.67323,3.21199,-3.185,-2.36522,-2.30315,0.825965,-7.3633,-1.81068,-3.0408,-6.83103,-4.02233,0.690052,0.0779555,-1.93485,-15.7048,0.874466,-158.6,-844.24,-470.432,18620,-5180,14000
2.20404,1.68492,-4.43966,-4.0314,-6.74521,-0.168668,-10.6854,-3.69509,5.88348,-3.7684,-1.57458,2.22264,0.87566,-1.39283,-14.0403,-1.69035,-159.576,-854,-478.24,17920,-5320,13720
-3.92244,-4.62858,-5.7489,-11.2236,-5.79455,1.7058,-10.3174,-1.21384,-5.27787,-2.10993,-0.330539,-0.464486,1.0892,-2.70148,-16.0334,0.622796,-164.944,-854.976,-474.824,17360,-4900,13720
-18.2885,-16.4901,-9.04125,-15.0038,-9.29254,1.10388,-6.71362,-0.854976,-25.9665,-7.38027,-2.4696,-9.66333,-1.40215,-4.39631,-10.3242,-0.871305,-162.504,-854,-480.192,13720,-2660,13440
-13.4527,-16.772,-7.78415,-23.6436,-15.7895,-0.953429,-16.5443,-3.555,-19.2819,-4.57099,0.0784066,-11.6292,-1.69542,-7.17582,-24.2067,-8.15388,-162.016,-868.152,-487.024,12040,-4480,13580
-25.5937,-27.2359,-13.0185,-23.514,-14.6319,-3.41876,-14.9509,-1.05229,-36.3245,-10.6957,-5.4629,-17.7039,-4.78648,-6.98923,-22.2776,-6.12172,-164.456,-872.056,-488,11620,-4340,13720
-27.4504,-18.6126,-11.6344,0.519118,1.42822,-0.49548,5.82515,5.75441,-36.2718,-15.0531,-9.02579,-8.59281,-5.21967,0.996548,9.27682,9.02598,-169.336,-871.08,-488.488,8680,-980,13160
10.3763,12.1,5.15072,13.8962,11.125,2.15895,7.43253,3.33699,14.2911,8.01998,3.58095,14.6235,2.91757,5.68534,11.7717,11.5869,-167.872,-868.152,-485.072,7000,280,12460
22.2126,24.776,11.3764,24.3247,15.9176,3.15786,13.9667,4.41189,30.1499,15.0917,6.93961,21.0561,5.92892,9.38401,20.9689,13.5018,-173.728,-867.176,-477.752,6020,1540,12180
14.3902,17.7868,10.9068,20.5184,14.8384,3.48623,15.4228,6.16108,19.308,9.81289,5.44555,14.3526,5.25711,7.95399,20.3206,10.4445,-173.728,-862.784,-470.92,6300,980,12600
6.85977,1.76812,8.31093,4.90802,6.57166,1.6588,9.36746,6.49617,10.0048,5.8651,2.87588,3.61488,3.14757,4.60934,11.7245,7.35412,-172.752,-862.296,-462.624,7000,560,12880
9.08741,-0.443316,6.92672,-5.20084,-1.1548,-1.22794,-1.86127,1.86945,17.3667,6.97238,3.16678,0.707525,1.4369,1.69898,-5.88294,2.25504,-171.288,-868.152,-460.184,8400,-980,13300
11.7763,9.36,8.68433,4.26713,3.74405,-0.698857,-0.480103,4.20086,21.5777,6.54865,0.870309,5.58951,1.00198,3.19603,-4.38041,3.5066,-166.408,-872.544,-460.184,8680,-1400,13440
-2.24919,3.39884,5.1664,19.1507,10.3865,2.02158,17.9606,9.58902,1.09311,-6.17693,-5.91738,2.92245,-0.181051,7.29931,27.5378,14.0999,-166.896,-871.08,-461.648,7700,-1120,13580
-3.7684,-2.20814,1.21927,3.77758,-2.49362,-2.03807,-0.919843,0.964987,0.66762,-6.48358,-3.76351,-0.845133,-1.41443,-1.02594,5.6509,-0.792887,-164.944,-873.032,-463.6,6160,-1400,13860
-0.312227,0.204153,-1.11576,-0.427719,-6.89055,-3.90325,-12.404,-7.76323,5.25136,-3.23734,-2.21146,-2.59618,-3.68714,-5.79026,-6.25586,-14.1477,-162.016,-868.152,-464.576,4480,-1260,13580
2.27773,0.245588,-1.00204,1.99014,-5.87547,-2.47485,-5.70546,-13.8604,8.32189,-0.0963065,0.357857,-3.88672,-4.03638,-6.40288,1.90114,-15.42,-159.088,-867.664,-464.088,1960,-1540,14140
-6.59089,-6.56308,-2.38345,-1.85443,-7.5656,-4.04219,-5.59401,-17.507,-6.83615,-1.72688,-0.440744,-9.54905,-4.04355,-7.28693,-3.02484,-16.3945,-161.04,-866.688,-464.576,420,-1260,14560
-21.3525,-14.6725,-5.0108,-2.11236,-5.0493,-2.87439,3.05331,-13.2515,-30.1245,-10.156,-4.6186,-13.5068,-3.01662,-4.25916,0.819673,-12.7631,-159.576,-866.2,-467.016,-1960,-280,14840
-0.0168912,-0.557454,1.57006,-7.8334,-4.65676,1.52058,1.32691,-7.28161,1.85452,-0.00966811,3.97597,-0.349568,0.771593,0.60526,-9.10952,-11.4871,-163.48,-868.152,-469.456,-4060,-420,14700
4.51846,-1.43326,2.51483,-8.4535,0.0153946,4.23435,1.2576,0.889153,3.12461,5.79002,7.3682,1.78565,2.00962,3.818,-9.42884,-3.84131,-162.016,-864.248,-466.04,-5880,-420,14980
-7.97804,-10.815,-7.79264,-5.56577,-2.29639,2.92443,5.57916,3.47148,-13.9369,-5.28889,1.21283,-5.55866,-2.42834,1.7717,1.65669,1.17337,-167.872,-860.344,-472.872,-8120,-560,14840
-4.85081,-4.10546,-6.98366,-7.53396,-1.83302,-0.0875459,-3.07472,0.579143,-9.79324,-2.68639,-1.31283,-5.42961,-2.14525,-3.86147,-3.37319,-1.3532,-168.848,-862.296,-472.872,-8540,-1120,14840
-7.72837,-2.4391,-8.55927,-7.2352,-2.07335,-0.66373,-3.9418,-3.68947,-7.81807,-5.12084,-3.18113,-4.69384,0.0830699,-3.48386,-4.20191,-0.161055,-166.896,-863.76,-476.776,-9240,-2380,14700
-2.00555,5.63043,-2.80116,-0.840163,2.49624,2.40276,-0.635753,4.27647,2.2227,1.06616,-1.99023,2.20551,3.17979,1.16559,0.720686,7.36092,-171.776,-864.248,-481.656,-10640,-4340,14420
-3.40122,-4.18025,-6.05719,-10.0556,-4.04162,2.14313,-5.138,10.9736,-3.92953,-0.994879,-4.98786,-3.11307,1.04974,-0.2847,-3.69692,9.00156,-170.8,-865.224,-482.144,-12880,-3780,14000
11.9858,7.97802,-1.70011,0.66411,2.58129,1.09372,2.04567,10.3757,10.9935,5.74377,0.661471,5.87207,2.79281,1.14871,2.35738,9.98256,-176.168,-865.224,-481.168,-15540,-1820,13020
22.7242,26.54,8.70661,21.227,17.3758,0.759755,12.5152,7.02408,22.7611,11.8866,4.5207,18.1621,6.2914,5.17592,15.0812,14.5389,-177.632,-863.272,-482.144,-16660,-1680,12460
11.6401,16.6566,4.59065,16.2509,11.2579,-1.54059,10.4065,-0.46919,8.26573,3.57432,2.01734,11.7568,3.37464,2.72256,12.788,10.4068,-175.68,-860.344,-478.24,-17360,-840,11900
1.20609,-1.20201,-1.59696,-7.04096,-2.94624,-4.33394,-4.27088,-4.03183,-3.05591,0.227754,1.87475,-0.35831,-0.348142,-4.10302,-7.76607,-0.0495345,-179.584,-865.712,-476.776,-17640,-280,11760
5.50147,0.673681,3.12277,-5.43842,-0.388654,0.24433,0.193934,1.07123,2.71292,4.66451,3.9254,3.20992,0.572989,0.346392,-1.2143,0.048665,-182.024,-867.664,-478.24,-17780,0,11340
9.72603,3.87397,7.29791,-5.83664,-2.79047,2.98993,-3.97923,1.86335,7.00216,6.63862,4.13048,5.92386,2.3024,2.07332,-8.02832,-5.16391,-182.512,-861.32,-479.216,-17640,280,10920
1.1884,-1.72892,7.57629,-6.8555,-3.69133,2.16048,-9.10972,3.40966,-7.69515,3.01974,-1.11305,0.681781,0.319527,1.20766,-12.3869,-6.28689,-184.952,-854,-479.704,-17920,280,10360
-16.7004,-19.6876,-0.190287,-3.18637,-3.77491,1.16017,-4.55415,5.40906,-27.2302,-9.09047,-6.20121,-9.86481,-3.86023,-0.66537,0.301255,-5.31128,-187.88,-847.168,-475.312,-17920,840,9520
-21.647,-20.8799,-5.16541,-1.23907,-5.19355,-0.88305,-4.33334,5.19035,-17.9783,-14.1885,-7.86191,-11.125,-6.08767,-0.713524,-1.72083,-5.02111,-190.32,-833.016,-460.672,-17780,420,8820
-8.03914,-11.2579,-2.20098,-6.09288,-7.26028,-2.36496,-12.1422,3.1188,-2.68733,-3.34917,-2.88982,-6.3968,-3.43352,-2.46298,-12.9699,-8.6894,-193.248,-829.112,-456.28,-16240,-1120,8260
-8.64224,-15.8068,-6.70662,-16.6876,-14.3722,-5.13002,-16.703,-2.60882,-6.807,-6.13171,-2.51081,-13.1387,-4.81051,-7.09006,-19.3147,-16.2774,-196.664,-844.24,-467.016,-10780,-8120,8540
7.17075,8.28364,4.45917,6.47536,5.47582,-1.95138,1.90172,-0.929151,11.3936,4.82466,2.14537,3.27129,0.169962,2.44429,7.83308,-3.3162,-185.928,-862.296,-480.68,-6720,-12040,9240
19.239,18.4769,6.05395,14.1029,10.0153,-1.45824,4.63973,-7.16774,27.5873,9.79478,5.72282,12.1214,3.16551,5.25179,12.1187,2.86846,-192.272,-861.32,-490.928,-8260,-12320,8960
9.77778,6.95131,0.0114686,8.4333,7.16457,-1.34057,6.95192,-5.06998,10.057,4.49599,5.04072,5.36749,2.6938,3.33804,9.5936,4.34115,-183.488,-864.736,-497.272,-10360,-9800,6860
5.09333,0.896347,-2.33086,5.64564,3.01308,-2.51609,5.61175,-6.09353,1.69062,3.15416,4.2874,0.774029,1.17321,0.22789,7.86104,-1.25971,-188.368,-855.952,-504.104,-15680,-7840,5740
-0.146387,4.3143,-3.35853,9.76809,2.61045,-1.26712,4.59338,-11.9633,0.829383,-1.21595,0.48567,-0.118218,-0.361887,-2.68627,5.69822,-3.59634,-185.44,-842.288,-496.296,-18620,-4060,3920
3.55413,17.263,5.29412,23.2318,14.329,5.19465,17.0522,-2.21666,9.49448,2.229,-0.759404,7.83472,2.03952,4.86599,20.4863,14.4846,-182.024,-849.12,-488,-20160,-3500,3780
-10.8647,-3.76522,-1.22536,-2.1663,-1.74962,2.53464,2.40135,1.75265,-9.12559,-6.97917,-4.15536,-6.29408,-2.36208,-0.299555,-5.76468,10.43,-183.976,-856.44,-490.928,-19460,-3920,3640
-26.0851,-28.7061,-13.1768,-24.3647,-18.7724,-1.84153,-9.51061,3.78999,-29.6364,-17.1477,-6.52506,-21.3763,-7.55563,-8.37721,-20.053,2.84851,-180.072,-859.368,-494.344,-18200,-5040,3780
-8.55641,-9.41527,-4.86634,-9.1259,-7.74901,1.39466,-0.344959,6.68406,-5.59125,-5.51246,-1.89898,-4.95787,-2.15749,-3.14635,-6.75515,6.79121,-180.56,-859.856,-495.32,-18760,-4200,3920
-1.27091,-3.2863,-1.98831,-5.42177,-2.73002,2.86887,-0.686914,0.973286,2.09764,-1.12925,1.42581,2.27696,2.37018,-1.19592,-6.23585,1.52037,-177.632,-865.224,-496.296,-19180,-3920,4200
8.3815,5.15867,4.82219,-2.00516,4.47685,2.32317,-0.609778,0.335977,8.66985,6.92767,3.02108,7.84425,4.33433,1.25965,-5.14581,1.69472,-175.192,-857.904,-501.664,-19180,-4620,4620
14.3333,15.1126,8.60834,7.62481,6.84066,2.92229,6.40485,-0.937788,16.3062,9.29457,3.97503,11.6011,6.1455,5.21993,7.07159,4.01157,-170.8,-852.536,-501.176,-21840,-3080,5040
2.85016,13.3837,5.16173,14.7154,8.01572,2.27638,16.8037,4.41728,7.89009,1.82529,-0.287563,7.29008,2.99366,5.87735,23.0061,10.2509,-175.192,-855.464,-496.296,-22960,-1260,5040
-10.9501,-0.260142,-0.136043,5.8839,2.46528,-0.574251,12.9096,5.31525,-11.2001,-5.38967,-5.7218,-3.47135,-1.47724,0.897032,18.6497,5.34635,-177.144,-859.856,-490.928,-22540,-140,5180
-15.9467,-13.833,-6.06076,-9.12081,-7.35485,-3.58229,-1.54305,-0.523081,-20.0375,-9.54976,-6.95405,-13.5692,-5.5975,-6.01425,3.9354,-6.32985,-173.728,-859.368,-489.952,-20720,-1400,6160
-6.27061,-2.53334,-1.61818,-0.890313,0.00274463,-1.51747,-0.768806,-0.519897,-8.09363,-4.44074,-3.90906,-4.82612,-3.54715,-1.95099,2.58621,-6.1403,-174.216,-858.392,-484.096,-19180,-1680,6860
8.42845,10.0389,2.97216,6.62208,5.43289,1.7909,-1.5588,-4.53561,12.1009,5.38596,1.31309,7.54699,1.3265,2.32349,-0.497456,-7.61586,-178.12,-858.88,-482.144,-17220,-2380,7560
20.8017,19.9484,5.87478,6.82756,7.21649,4.75864,-6.29707,-4.91252,26.2489,13.7647,6.73499,16.2344,5.78667,4.38556,-7.6147,-7.29325,-178.12,-860.344,-479.704,-15540,-2800,8260
26.0775,25.0938,9.02571,12.2419,10.1032,5.33751,-2.09388,-0.78112,31.5301,16.6671,10.0517,18.4194,7.3618,7.23213,3.08198,0.243363,-182.512,-861.32,-478.24,-13300,-3220,8960
6.89108,1.23929,-1.38691,-3.33104,-3.69111,-0.615144,-11.6918,-1.09231,6.31585,3.24,3.8553,0.678739,-0.700817,0.123703,-9.45269,-3.19424,-178.12,-866.688,-479.216,-11760,-3500,10080
-6.13216,-12.7912,-6.16649,-21.073,-12.5293,-5.38426,-23.5543,0.413921,-12.4874,-4.63046,-1.79464,-10.706,-5.45123,-5.33066,-32.7979,-4.86845,-174.216,-883.28,-488,-11200,-4760,10920
-2.50346,-9.67773,-1.71375,-20.122,-9.71436,-4.32067,-19.2361,1.03093,-8.97428,-1.58427,1.58753,-6.99213,-0.662677,-2.2447,-26.7936,-2.94698,-176.656,-890.6,-496.296,-10780,-5460,11900
-4.39528,-15.4422,-1.80511,-21.4769,-10.4429,-4.28045,-12.6342,-0.663668,-15.7486,-1.61626,3.48083,-9.85841,1.99668,-2.92629,-14.8354,-2.78885,-174.216,-886.696,-492.392,-13440,-3080,12320
-11.476,-28.3246,-5.49119,-30.1355,-18.1558,-7.07133,-14.5666,-7.553,-26.984,-5.71681,0.56882,-18.1403,-1.60513,-9.23134,-17.9277,-8.84903,-171.776,-885.72,-488.976,-19460,-280,12040
-5.16168,-18.7661,-2.58124,-13.7453,-12.6732,-5.02626,-4.31906,-7.24316,-14.7168,-2.57316,0.985456,-9.99686,-0.960963,-5.13532,0.262805,-5.72215,-175.192,-886.208,-485.072,-21980,-140,12180
-1.60887,-1.18283,4.12392,8.83068,4.65401,-1.26983,11.5236,1.89878,-5.5672,0.372203,-0.78446,1.21988,-0.130142,0.0416624,24.2227,3.83187,-173.24,-886.696,-476.776,-22400,0,12740
-14.7953,-7.11979,-0.937749,15.1046,4.72574,-1.15383,15.2145,1.52732,-18.1982,-9.30611,-8.69143,-3.07997,-4.8447,-0.0412202,27.7484,1.76139,-171.776,-886.208,-469.944,-24360,700,13580
-9.20591,2.43363,0.470369,24.7676,11.6239,3.43623,19.5574,7.0253,-5.06548,-5.91498,-8.12983,4.37185,-3.17851,2.99498,24.3463,6.53806,-169.824,-880.352,-468.48,-25340,0,14140
5.83023,17.4357,4.11875,32.5495,19.9775,8.22893,23.8704,11.1367,18.0406,1.61186,-3.58489,16.334,1.19153,8.66262,25.2131,11.6254,-169.824,-879.376,-463.112,-27720,420,14700
3.96176,7.53373,-2.02972,11.816,7.51568,4.67454,9.24141,5.06972,12.1022,0.119096,-4.05652,8.50299,-1.7111,3.05061,2.69388,5.25885,-167.872,-881.328,-461.16,-30520,0,15260
-2.69733,-5.27892,-5.12685,-6.05793,-2.93098,0.670169,-1.17165,0.698903,-1.18521,-1.07629,-3.15099,-0.303513,-4.19023,-2.95866,-14.0706,0.798414,-171.776,-878.888,-458.72,-32760,280,15540
7.38918,8.84462,1.04517,13.8634,7.3514,1.62417,8.84045,1.15493,14.1435,6.53173,1.87611,9.58965,0.660271,3.54073,8.16381,4.57797,-173.24,-877.424,-461.16,-36400,560,15680
17.4848,26.1571,6.77662,30.6229,17.0589,3.15865,14.1928,-0.34269,30.1928,9.97617,4.33338,17.2583,4.38792,6.93787,20.3088,3.3728,-173.728,-880.352,-463.112,-38920,700,15820
12.2696,22.6501,6.08093,18.6252,10.1659,1.83605,2.58424,-4.0077,21.2813,7.31747,3.948,11.1745,4.49412,2.87885,1.58859,-2.10168,-180.072,-874.496,-465.064,-42560,1960,15680
2.03544,-0.578573,-3.62857,-22.6417,-14.2775,-4.03814,-23.2357,-9.38221,2.37683,2.45186,5.01801,-6.41065,1.93272,-6.95088,-42.7172,-15.4913,-177.632,-870.592,-465.064,-46200,3080,15400
-0.781082,-8.69983,-3.88421,-41.5292,-20.6927,-6.62644,-27.7051,-6.73685,-5.81328,3.63551,5.59667,-13.9665,2.28337,-8.72114,-51.2805,-16.513,-181.536,-869.616,-469.944,-48860,3360,15260
-8.46318,-12.4959,-5.0595,-31.3918,-13.9984,-3.69301,-9.35668,-1.55732,-14.5835,-4.31279,1.85803,-17.4998,1.52724,-4.17753,-18.8421,-8.48728,-187.392,-865.224,-469.944,-52080,4200,14700
-7.12926,-5.77576,-1.85693,-6.80525,1.94013,0.949532,12.4876,8.11961,-13.9485,-7.00541,-0.511985,-11.3027,-0.438821,1.43722,16.1694,5.11831,-188.368,-866.688,-468.48,-54740,5600,14140
-5.22023,-3.11594,-0.393701,5.42867,5.62265,1.69062,13.3354,8.90463,-10.6155,-7.21199,-1.23882,-6.38096,-1.83561,2.88356,23.9973,7.3758,-193.248,-866.2,-479.216,-58520,6580,13300
2.08877,0.0863415,1.34922,10.7185,4.94908,2.9339,12.0113,6.08727,1.69009,-1.62526,1.59017,-1.27446,0.285801,3.97652,25.0333,5.72388,-194.224,-869.128,-479.704,-62160,7700,12180
6.91584,12.1035,8.3215,24.8907,14.7622,7.02055,22.5663,9.48284,9.49349,2.79888,0.934074,10.2588,3.04118,9.27321,38.0153,14.4251,-196.176,-862.296,-483.12,-64540,7840,11900
-2.04753,-0.144255,3.43337,12.8342,6.11674,4.50123,13.8223,2.47297,-2.48215,-3.71845,-2.46025,6.12907,1.03203,5.73809,24.8737,10.0829,-195.688,-860.832,-485.072,-67900,7980,11480
-4.32952,-2.7342,1.96055,7.62868,2.61402,3.2405,3.2544,0.776463,-4.3522,-3.87927,-2.92326,4.44018,0.569689,2.53854,9.65775,8.03556,-197.152,-859.368,-491.904,-69720,7840,11200
8.33254,13.8508,2.65263,13.1464,4.93026,1.66153,-3.58402,0.272652,16.8134,3.84486,0.198514,11.1575,1.41937,1.10961,2.51125,6.34547,-199.592,-858.392,-490.44,-71540,7700,10920
10.3539,17.8708,-0.706545,14.3799,3.28861,-1.4011,-8.7108,-4.33366,20.7256,4.78678,0.760864,12.6451,0.562275,-1.57941,-1.99944,2.16835,-199.104,-857.416,-501.664,-72380,7140,10640
-8.96223,-7.09951,-4.01508,-5.96165,-8.28028,-4.77937,-20.9383,-7.02382,-10.0736,-4.56523,-3.27692,-1.96298,-2.36536,-7.00374,-21.7575,-6.19573,-200.568,-861.32,-507.52,-72660,6720,10500
-18.8017,-38.5561,-12.9842,-48.4988,-32.1966,-11.6841,-48.0286,-17.9158,-28.8874,-7.89535,-1.99059,-22.6196,-4.63964,-17.4763,-61.3921,-26.9975,-200.568,-859.856,-513.376,-72380,6300,9940
-8.54806,-22.692,-4.14768,-39.6068,-21.5709,-6.92471,-37.3483,-14.4008,-14.8148,0.0796893,3.46791,-14.1818,-1.58962,-11.2394,-48.7849,-22.1924,-206.424,-855.952,-518.256,-71820,5600,9100
-3.9893,-6.93356,1.75433,-14.3755,-3.68955,0.858494,-9.79896,-3.79176,-5.18619,1.95675,2.61241,-4.95195,-0.406405,-1.06146,-13.3637,-2.68832,-211.304,-851.56,-527.04,-70280,5460,8120
-7.56896,-15.4653,-2.36823,-16.1352,-5.46047,-0.221442,-1.35799,0.249486,-11.0594,-3.53867,-1.90698,-10.2905,-2.717,-1.32058,-4.20489,6.19484,-218.624,-842.288,-533.384,-68320,5180,6860
-4.32333,-11.8123,-1.30134,-9.47495,-0.420159,-0.0414494,6.79132,5.80587,-10.7491,-2.02426,-3.32275,-7.351,-3.17666,-0.1606,5.28732,11.7499,-222.528,-845.704,-536.8,-66920,4760,6300
2.12546,-0.358848,-1.91234,10.2906,6.84188,2.23474,13.7387,5.17588,1.45228,-0.214012,-3.32613,0.318163,-1.46534,4.40108,19.8148,13.3757,-222.04,-843.264,-539.728,-65240,5600,5460
11.9832,12.31,3.42305,15.2743,7.89939,3.79087,5.38181,4.6664,16.0578,7.0688,0.0236858,7.45413,1.88975,4.15655,9.70329,10.2787,-225.456,-846.192,-539.728,-63700,5600,4060
6.25337,4.10557,-0.551236,1.31328,-2.98268,-0.126322,-7.98138,0.541365,4.60034,3.96269,-1.49803,0.425144,-1.06312,-0.202782,-9.83329,-2.74944,-225.456,-845.216,-538.264,-62160,6020,2800
7.98917,9.58112,0.173914,7.81037,-0.117198,-0.432311,1.32087,0.13718,8.11623,4.50146,0.692775,6.43925,-0.828415,1.45862,0.633567,-6.31537,-224.968,-842.776,-542.656,-60060,7140,980
11.8,18.7702,4.97982,21.3237,8.70036,1.50738,16.1309,-0.204768,15.4941,6.4427,2.16191,15.721,0.809008,5.56251,18.1737,-2.11312,-223.992,-842.776,-545.096,-58520,7840,-140
5.24557,13.7422,4.41965,15.4815,7.0638,1.26968,16.1432,0.522296,10.1014,2.60112,1.55824,13.3936,1.06565,4.7786,15.8082,-0.272749,-223.992,-841.312,-546.072,-56560,8540,-1960
0.347368,13.5549,3.39377,14.0698,9.74598,2.07304,16.6087,4.87097,4.62907,1.12016,1.51116,11.1778,1.63811,5.14661,16.1492,1.11784,-223.016,-838.384,-545.584,-54460,8680,-3780
5.52397,23.3247,8.92987,27.25,17.8572,2.08197,22.2252,8.3587,11.5811,4.57936,2.19115,14.9956,4.46402,9.82403,27.9636,4.00938,-229.848,-835.944,-547.536,-52640,9100,-5040
10.047,23.1459,10.2521,31.1042,17.7462,3.528,25.2436,8.48979,18.8781,3.54604,1.56492,15.1459,5.55648,10.5511,35.8722,4.62018,-229.848,-832.04,-547.536,-50680,9660,-7280
5.58595,15.0915,9.54183,21.1161,17.2018,4.45434,24.609,8.62179,9.49238,2.49221,-1.09212,8.6546,4.29031,7.75811,32.098,6.65306,-230.336,-829.112,-549,-49140,8960,-8680
-5.6218,-5.95335,-0.0452982,-5.24749,0.68978,0.0293316,5.13609,0.116326,-6.88595,-4.12948,-2.66755,-6.01008,-0.0699297,-0.879131,2.40832,-1.95598,-231.8,-825.696,-549,-47320,8820,-10780
-18.863,-31.4184,-10.9577,-37.1908,-18.3907,-7.87016,-18.3817,-8.64998,-27.8258,-12.0205,-5.31611,-22.916,-6.66689,-12.9793,-32.3922,-13.7618,-227.896,-826.184,-550.952,-45500,7840,-13300
-22.8219,-39.484,-16.5543,-47.3314,-25.5347,-8.81173,-26.8333,-11.6397,-33.3384,-13.9459,-5.53381,-29.6544,-8.69881,-16.6188,-44.4145,-18.3022,-229.848,-820.328,-550.952,-44380,7140,-15120
-12.2129,-20.5867,-10.2507,-28.4418,-16.2606,-3.64975,-18.9157,-11.6344,-18.0443,-9.9957,-1.8893,-17.6236,-4.70024,-10.0613,-31.6421,-13.5194,-225.944,-815.936,-550.952,-43120,6020,-18060
-2.47004,0.421338,-2.96995,-6.64778,-2.60892,-0.284257,-8.36854,-6.80815,-2.58836,-2.81339,0.996854,-4.14507,0.476251,-3.80393,-13.0203,-3.2506,-225.944,-813.008,-548.024,-42000,5040,-20580
2.39668,4.19679,-3.16426,0.114588,-1.39051,-1.51852,-5.15542,-6.53419,3.75147,1.64136,2.9333,-2.17531,1.27781,-3.12252,-6.55491,-0.0514381,-222.528,-808.128,-547.048,-40740,3780,-23520
-0.39858,1.13461,-3.69444,-3.63152,-4.11477,-1.66617,-3.03661,-3.80155,-1.43089,0.20847,1.77482,-5.07907,0.754605,-4.72011,-6.41647,3.53103,-217.648,-806.664,-544.608,-40320,2800,-26460
-5.93252,-2.34797,-3.47905,5.00232,-1.16344,0.626959,5.8503,1.12212,-9.91137,-3.61566,-2.33827,-6.12731,-2.54108,-0.56066,6.37359,8.31136,-212.768,-806.664,-547.048,-39760,1680,-28980
-0.262096,5.89279,3.25259,23.1777,9.29284,4.44344,19.9297,4.63995,-0.920751,0.220731,0.0748334,5.6726,-0.559014,7.14524,29.774,14.9872,-211.304,-807.64,-544.12,-39480,420,-31780
11.9383,11.5437,8.73838,18.5855,12.1076,5.87713,17.7396,7.96102,15.1186,10.0067,5.16304,12.9348,4.63984,9.01838,23.8119,14.6047,-208.864,-806.176,-543.632,-39200,-700,-33460
15.528,7.68127,7.6942,6.39591,4.18651,4.7203,6.01978,8.31698,19.7187,11.3706,6.86696,11.3669,4.9052,6.87461,3.56742,5.80482,-199.104,-807.152,-545.584,-39200,-1820,-35560
15.3819,3.12688,4.97519,-3.36911,-2.69028,2.80172,-7.24766,7.91071,19.5964,10.5608,8.26453,6.92113,5.54195,3.11544,-11.5661,-2.05478,-198.128,-803.736,-546.072,-39200,-2520,-37380
15.2837,11.6419,7.10808,4.67331,3.1249,3.36066,-8.70278,6.24517,20.3414,11.7511,6.77922,9.59524,7.11507,3.59475,-8.65139,-2.49271,-194.224,-801.296,-553.392,-39060,-3220,-38640
-1.15502,2.25996,1.35414,5.48161,1.33879,2.95365,-7.61748,4.78213,0.0969011,0.925926,-1.51437,2.67437,2.85952,0.800599,-5.49301,-0.906361,-185.928,-801.296,-550.952,-38220,-4340,-39900
-6.23395,-11.1947,-1.53054,-5.85402,-4.38296,-0.0841778,-11.0115,3.0018,-12.7356,-1.71543,-3.39967,-6.14433,-1.19353,-3.23366,-13.2889,-2.11005,-176.656,-804.712,-547.536,-37240,-6580,-40880
-4.17208,-13.2544,-1.57027,-13.9729,-9.53546,-2.98065,-13.1415,-2.36741,-9.00394,-3.78923,-1.71419,-7.72292,-3.76049,-5.59637,-15.2883,-5.58175,-172.752,-809.104,-546.56,-36680,-6860,-41440
-0.0112369,-10.2192,-1.89105,-19.4755,-9.09351,-5.54427,-14.0509,-0.669231,-2.16014,-2.28008,1.44039,-5.58705,-3.22912,-6.568,-13.7643,-6.59995,-165.432,-816.912,-546.56,-35280,-6160,-40880
0.915243,-4.09157,-0.47255,-7.48086,-1.02062,-1.98916,-6.66862,0.828656,1.26229,0.311717,3.21386,1.00721,-0.304549,-0.203578,-0.584658,-4.81324,-162.992,-813.008,-538.752,-34720,-8260,-40460
2.72925,5.70108,3.22782,4.0438,3.68225,0.838711,-6.21714,-4.45813,7.48138,1.55406,3.55764,7.80681,2.6792,3.30411,1.22859,-4.89243,-165.432,-812.032,-535.824,-33600,-9520,-39900
-3.79929,7.19254,1.06316,8.55432,8.36466,0.747112,0.825511,-2.30703,-1.43739,-4.27464,-5.35536,7.18711,-1.28717,2.66319,7.96537,2.98193,-166.896,-808.128,-536.312,-33740,-7000,-38640
-16.5148,-8.49528,-8.30364,-1.26394,1.87456,-3.57558,5.68207,-1.21395,-21.1297,-14.8667,-12.9647,-5.52166,-8.98019,-1.55078,10.3355,5.64025,-169.336,-811.056,-537.776,-34440,-5600,-37660
-9.74504,-3.44592,-5.01652,0.646316,2.18037,-0.459625,11.6483,0.867514,-12.6912,-9.65208,-4.70583,-4.22037,-2.90221,2.27992,17.4828,9.46912,-171.776,-811.056,-537.288,-35980,-5460,-36820
3.50155,13.5173,5.98186,15.5141,14.8036,6.01578,23.66,6.05549,4.87718,4.15343,7.28183,7.22668,8.28905,9.90493,37.2237,17.5238,-174.216,-807.152,-538.264,-36820,-4760,-36680
9.2779,18.0401,8.9426,27.8378,17.2545,7.21137,25.583,3.19286,12.7999,9.5479,9.53508,12.8749,11.6852,12.5923,44.0244,14.9062,-171.776,-805.688,-541.192,-37240,-3780,-36540
14.2998,21.0045,9.81857,22.3785,13.3072,4.41651,10.5781,-0.178388,19.4254,12.1748,4.23945,16.0694,8.36395,6.59889,16.1048,6.29901,-173.728,-806.664,-541.192,-37100,-3360,-36400
7.27414,7.20139,-2.42134,-3.65142,-7.07318,-2.53721,-13.6582,-10.144,11.0453,3.10624,-2.08331,3.73801,-2.18344,-3.93849,-23.2068,-8.62691,-174.704,-806.176,-540.704,-35980,-3220,-35840
-8.6949,-14.0654,-7.5036,-22.4323,-18.288,-4.35153,-23.0966,-11.2496,-11.9934,-5.01728,-3.96656,-9.28307,-5.35731,-8.82648,-37.9886,-14.0166,-175.68,-807.152,-538.752,-35280,-3080,-35420
-26.0701,-35.874,-13.2341,-34.2492,-25.8075,-7.31192,-23.7988,-11.4977,-36.3771,-14.7701,-7.68985,-23.1018,-7.67681,-12.5205,-38.5187,-15.9487,-173.24,-805.688,-547.048,-33740,-2660,-34580
-32.1272,-49.2892,-23.9427,-46.5115,-37.6541,-16.4226,-34.4463,-18.6701,-43.5023,-20.332,-14.835,-34.0178,-17.0325,-22.0382,-50.5357,-25.5771,-172.264,-808.616,-551.44,-32200,-2240,-33740
-13.3628,-28.835,-18.4326,-25.8673,-23.4485,-18.2878,-22.6388,-16.8679,-18.1149,-11.4766,-15.6043,-23.0697,-17.7061,-21.3787,-30.0943,-20.4557,-173.24,-805.688,-552.416,-30380,-1680,-33180
0.517812,-3.59405,-15.1819,4.50304,-4.41961,-11.7794,0.580802,-5.49573,6.05447,-12.2526,-24.2283,-10.4284,-20.7523,-12.7027,4.49924,-5.51338,-174.704,-809.104,-553.88,-28000,-1120,-31780
15.5447,22.1868,-5.13899,14.4542,7.10119,-4.20575,6.61803,8.31504,30.2613,-3.11353,-19.5048,4.27168,-14.6579,-4.79214,9.76461,3.9907,-176.656,-811.544,-556.808,-26040,-560,-30100
17.5019,24.8733,7.93614,19.9132,15.3908,7.25983,15.0763,15.7748,26.4379,8.64413,1.92782,8.20637,2.29663,7.46326,19.984,12.6434,-175.68,-808.616,-559.736,-23100,-280,-29120
-0.335404,3.62012,10.0533,4.96516,7.86551,13.1122,9.67209,13.1803,-1.06692,4.67268,14.5096,-1.2282,10.2766,9.78089,8.75548,7.46349,-179.096,-808.616,-559.736,-20160,-560,-27860
4.49873,13.5877,20.5819,10.8531,14.2608,15.2037,14.7097,11.0138,3.62407,12.754,22.0007,9.5823,18.4157,15.7778,13.3422,9.22674,-179.096,-807.64,-559.248,-18060,-560,-27300
18.3827,25.8587,25.3603,23.6655,22.03,12.9672,19.9294,5.34006,16.6188,22.7216,26.6724,24.8551,22.091,19.6636,23.2287,9.79547,-177.632,-809.104,-566.568,-15400,-1540,-26040
8.84609,10.7334,13.7813,10.9885,12.8666,9.39421,14.731,5.72551,4.1857,14.2252,17.6094,16.4563,16.3149,13.6776,16.3223,8.5003,-178.12,-810.08,-562.664,-13580,-2100,-25480
2.22158,9.19158,6.93061,18.3662,13.7956,8.14895,20.7846,10.625,-1.81471,6.00755,7.18594,12.3758,9.58248,10.574,30.1542,14.1761,-172.752,-808.616,-564.128,-10920,-3080,-24920
8.87949,25.6562,10.6562,32.9085,20.0726,7.22609,23.8645,9.95596,14.432,7.16722,4.6878,20.7268,6.31563,12.2121,37.0862,13.3364,-169.824,-803.736,-568.032,-8820,-3920,-24360
13.6867,23.7453,11.7801,13.613,13.1578,4.96126,6.92002,5.02844,23.2331,10.2724,5.29711,17.067,5.3008,6.81574,6.88203,4.78988,-168.848,-805.2,-565.104,-6440,-4620,-24080
0.378165,-6.96127,-2.12895,-23.8162,-11.6419,-2.85668,-15.9206,-3.01795,4.88231,-0.651251,2.96032,-4.76438,-1.04319,-6.27368,-28.2811,-8.61767,-165.92,-803.248,-566.08,-3780,-5460,-23940
-11.2204,-28.3847,-8.89293,-36.0149,-21.6348,-6.7582,-21.7182,-2.86494,-16.0973,-7.6233,0.707246,-17.1584,-4.58122,-13.0393,-33.6771,-13.2484,-162.504,-800.808,-568.032,-1400,-6440,-23380
-3.1801,-11.4219,-4.16336,5.71616,-2.24845,-2.98685,0.391661,-2.04823,-9.5918,-3.21815,1.74075,-5.23807,-1.30892,-3.55441,10.4084,-5.00224,-161.04,-804.224,-567.544,840,-6860,-22820
12.3362,14.8511,2.569,28.6701,11.9807,2.0374,10.7876,-0.845381,15.4571,5.20881,2.18418,9.60845,2.20225,5.14075,21.993,1.19723,-157.136,-805.2,-568.032,3500,-7140,-22260
12.1959,9.2325,0.262447,3.77609,3.70991,0.320007,-0.826015,-1.99303,13.4515,5.18753,-1.14917,4.43739,0.326783,2.15967,-7.86723,-1.4334,-155.184,-803.736,-566.08,4900,-7000,-22120
-8.69753,-18.1688,-9.27331,-21.7091,-11.8685,-4.51333,-10.458,-3.81505,-20.4945,-5.55761,-6.56406,-12.5454,-4.99348,-4.69789,-23.2698,-7.66431,-151.768,-804.224,-566.08,7140,-7000,-21560
-26.6033,-39.6939,-18.0117,-41.9751,-27.0188,-8.94921,-21.8837,-4.08794,-45.2346,-17.9897,-11.8917,-28.1511,-10.2604,-13.4788,-39.0512,-15.3324,-151.768,-800.808,-561.688,8960,-7000,-20720
-23.0227,-31.5067,-16.0306,-33.3577,-22.8616,-10.1072,-16.019,-3.82944,-28.0133,-19.5163,-12.8805,-25.3139,-10.5394,-13.2539,-29.9643,-11.728,-150.304,-803.248,-564.128,10640,-7140,-20020
-2.43198,-2.05604,-4.23843,-4.33047,-5.0571,-6.08209,-2.5441,-5.73628,8.83564,-9.50294,-8.3876,-3.16147,-4.8624,-6.90968,-5.58662,-3.94008,-147.376,-802.76,-558.76,11760,-7420,-19180
15.2867,22.6455,6.83236,14.3352,9.87089,-4.20552,3.87594,-7.08955,33.0211,5.6152,-3.15463,14.6369,1.32574,-1.76431,6.90078,1.77655,-142.984,-801.296,-561.688,12180,-7280,-18620
16.2326,30.8799,6.91465,26.3617,15.3707,-2.12383,8.35092,-8.83253,33.4948,8.54788,-1.40894,19.2792,3.05095,2.23007,18.2368,2.53217,-142.496,-799.344,-559.248,12600,-6860,-17920
-6.6351,6.56767,-2.52912,12.5787,7.24498,-1.65384,6.55156,-0.63487,-3.50669,-3.68298,-6.34451,-0.0106299,-2.36884,-1.76259,16.551,5.20008,-139.568,-799.344,-559.736,12740,-6580,-17220
-10.2864,-2.51299,-1.89776,9.72744,3.04845,0.707552,4.70835,3.21684,-14.3588,-5.17279,-3.44259,-4.12622,-1.73952,-0.410722,14.2868,7.1946,-140.056,-797.88,-559.736,13020,-6020,-16100
-5.27673,-2.05991,1.3625,8.89648,4.02867,3.98968,3.99097,3.35588,-9.48147,-1.24692,0.87153,0.902835,2.24795,3.63224,9.15051,9.3121,-138.592,-806.664,-560.712,13300,-5040,-14980
-12.0111,-20.4552,-3.84274,-18.7178,-9.67772,1.65546,-8.28409,0.975436,-20.8044,-4.90043,-0.16063,-10.0723,0.484688,-0.360307,-15.5028,5.92599,-135.664,-812.032,-555.832,13300,-4900,-13580
-11.2357,-25.0123,-3.49527,-25.4595,-15.5395,2.36657,-11.1792,-1.26813,-24.908,-4.01048,2.4076,-12.5195,0.0971848,0.996715,-19.2366,4.3866,-140.056,-812.032,-548.512,11760,-3920,-11760
-10.6081,-26.0291,-5.26502,-29.0008,-17.7857,0.532755,-15.2215,-1.55677,-25.5027,-2.13036,2.85334,-15.5475,-2.1647,-2.25863,-20.8851,-2.98343,-136.64,-810.08,-543.144,12740,-3500,-10500
0.861771,-6.47448,-1.80767,-9.1689,-4.26595,3.39392,-5.01042,0.257967,-5.65206,3.26241,1.31365,-4.02659,-1.87638,2.88527,-2.95502,-1.4612,-139.568,-806.176,-534.36,14280,-4340,-9100
6.78549,7.90816,1.4971,10.3367,7.16435,4.86865,9.68281,1.94786,10.4901,4.05601,1.22158,4.8556,-1.85799,5.83463,18.5828,6.12357,-142.496,-810.08,-530.944,15680,-5180,-7280
11.6961,17.981,6.10957,23.7475,14.5914,4.66029,18.8081,5.07773,18.5355,5.79214,0.944393,10.8213,-1.38187,7.18322,29.461,12.3843,-144.448,-813.496,-524.112,16660,-5180,-6580
15.5756,26.1963,7.11681,29.5267,16.2043,3.79397,16.5761,2.10635,27.4434,7.13392,2.39261,16.3854,-0.0571139,7.69824,28.1072,9.09984,-145.424,-821.304,-527.04,14980,-4480,-5460
21.2613,36.8711,10.5471,32.844,16.7229,3.40337,10.351,-0.477769,36.8234,11.7613,4.97233,22.1412,3.92593,7.60501,22.6269,4.5426,-148.352,-824.232,-519.72,12180,-4200,-4620
14.7187,23.1742,9.30052,12.5305,9.68366,1.90333,-2.85977,2.35072,22.8745,10.1067,4.77409,14.93,4.06379,3.53518,-1.22356,0.78476,-149.816,-825.208,-520.696,8540,-3780,-3220
-6.08027,-16.7919,-6.17206,-27.2167,-13.4429,-5.88278,-24.0893,-2.94881,-10.7321,-3.05843,0.715137,-8.76388,-2.87048,-11.2348,-34.0818,-15.0927,-149.816,-827.648,-517.28,5180,-3500,-2380
-11.7797,-26.2271,-8.40496,-30.7293,-15.5246,-7.22678,-24.7603,-3.21887,-21.824,-4.90575,0.0658658,-14.3175,-3.04905,-13.6944,-35.8202,-18.9889,-148.352,-829.6,-515.816,3500,-3220,-1400
-16.5817,-27.3387,-9.46382,-25.4562,-16.3776,-6.88999,-18.6035,-3.71542,-24.8722,-10.9293,-3.0928,-15.5695,-2.64239,-10.2695,-30.2705,-19.3984,-150.792,-832.528,-520.208,1540,-3780,-420
-8.81085,-13.6729,-3.95036,-8.33752,-5.28468,-1.40122,-0.0703084,4.73741,-14.9239,-5.56937,-3.25094,-5.46111,1.43225,-2.54177,-7.89388,-7.25343,-152.744,-835.944,-515.328,280,-3360,140
0.798205,-3.84794,-2.2674,-1.87764,-2.43965,0.114957,5.50641,3.34469,-0.222406,0.00515199,-1.49041,2.68173,2.16199,0.066307,1.40584,-4.38899,-155.184,-834.968,-513.864,-1680,-3360,700
7.60116,10.5665,0.0887052,11.3407,5.15208,0.838412,14.4204,2.66267,12.0777,4.7475,0.482403,9.24212,3.39925,4.07983,18.9642,0.965997,-155.184,-835.944,-516.792,-3500,-3360,980
4.15358,18.4092,4.15565,21.7945,12.6263,2.63945,20.9977,6.68816,10.1109,3.84357,0.70243,9.13282,3.81034,6.89368,31.963,8.06196,-158.112,-833.504,-514.352,-4200,-3500,1260
0.473727,12.9414,5.03318,10.7871,5.86403,0.796611,11.2941,2.67519,7.89182,0.00286322,-0.197831,3.49555,1.61616,2.90176,13.4396,3.05922,-159.088,-836.92,-515.816,-5880,-3640,1400
3.77822,11.0315,5.66002,6.36097,3.82421,-0.34852,7.0845,-2.10823,8.8066,2.19303,2.67891,1.48979,1.0148,1.36155,7.9741,0.768901,-158.112,-839.848,-517.768,-7140,-3640,1400
11.6267,25.6723,12.6306,29.7501,20.1274,3.82394,24.622,1.12908,17.4803,6.67436,4.71726,10.6518,2.91612,9.12652,40.6494,11.3692,-156.16,-836.92,-522.16,-9100,-4060,1400
14.9611,30.6861,14.2644,39.8341,25.6849,6.57756,28.4073,2.4409,21.6475,7.6733,7.0771,16.7054,5.06047,13.0975,48.5372,16.2538,-154.696,-838.384,-519.72,-10220,-5040,1260
4.10066,7.86655,6.92327,2.69496,2.75303,0.58331,-3.12101,-3.67723,4.21373,5.13018,4.73208,2.3608,3.19161,1.94976,-7.29552,1.74691,-154.696,-838.384,-519.72,-10920,-5880,1120
-12.719,-25.5767,-6.69878,-38.2511,-24.8003,-6.00451,-28.8953,-8.86412,-16.7247,-6.03884,-0.884343,-17.2804,-3.45027,-9.85447,-52.792,-11.6898,-154.696,-838.872,-524.6,-12180,-6720,560
-12.2323,-25.6126,-7.74211,-29.4353,-16.2995,-1.84777,-16.8979,0.707879,-18.1666,-5.05055,-3.35405,-13.4219,-3.87857,-5.98527,-34.8618,-0.236803,-151.768,-835.944,-525.576,-12460,-7420,140
-9.9003,-20.5704,-5.8776,-13.1881,-5.67121,2.36932,-6.91731,3.87188,-15.513,-5.94038,-4.92606,-9.62117,-2.94208,-1.55726,-14.7626,5.48428,-152.744,-835.944,-527.528,-13440,-8260,-560
-11.1055,-19.7534,-8.11391,-8.22938,-3.91513,0.802029,-8.0327,-0.289219,-14.6187,-11.5393,-6.92311,-10.6975,-4.16265,-3.24863,-10.2704,0.653029,-146.888,-835.944,-528.016,-14280,-8960,-1120
1.28017,-0.828362,-0.969874,3.08132,5.48764,3.47708,-6.44362,-0.979408,2.16788,-1.41378,-2.04044,1.10952,0.215104,0.596859,-6.14657,-0.085029,-142.496,-835.944,-525.088,-14840,-9240,-1260
5.06723,-1.37799,-0.766857,-3.67604,-1.0848,2.79051,-11.9584,-4.16585,4.18784,2.49228,2.54046,2.86951,2.14052,-0.167702,-15.4329,-3.7191,-142.496,-833.016,-526.552,-15960,-9660,-1820
2.09886,-4.41619,-0.987706,-6.623,-5.20422,0.19681,-8.89101,-3.01542,-3.7884,2.40631,2.42429,0.281435,3.3221,-3.37398,-13.2833,-1.72913,-138.592,-835.944,-524.6,-16240,-10080,-1960
-7.23246,-7.14893,-4.96398,-1.65652,-7.28273,-1.94794,-1.73502,-3.19357,-11.4119,-5.92508,-2.78693,-5.97894,-1.26859,-4.58654,2.30197,0.207112,-136.152,-837.408,-525.088,-17360,-10080,-1680
-2.17524,1.02445,-4.50889,5.7803,-0.910049,-1.66662,7.61821,1.06094,-3.53762,-4.1105,-2.79271,-3.55041,-2.13207,-1.59693,18.8549,5.79222,-136.64,-836.432,-523.624,-18340,-10360,-1120
6.17939,7.53897,-0.701304,-1.18681,-1.03927,-3.50723,-0.893874,-0.501762,5.22202,2.75041,0.569956,-0.392536,-0.143485,-3.44234,3.32513,1.46539,-134.2,-836.432,-521.184,-19040,-10360,-700
5.318,3.36068,-3.2278,-10.0018,-6.82378,-5.28881,-7.09363,-3.0462,6.59964,1.81125,-0.744465,-0.433338,-2.27385,-4.88925,-10.4415,-5.37805,-135.176,-841.8,-526.064,-19180,-9800,0
8.18398,8.96838,0.102481,-0.842308,0.859039,-2.02609,2.87249,2.89338,8.30469,4.92734,-0.229625,6.46013,-0.61387,2.08774,2.52147,0.73266,-133.712,-842.288,-530.944,-18900,-9660,700
3.29457,6.92931,1.13205,3.65245,3.13274,-0.784666,5.86892,3.81746,0.0390997,2.2093,-1.91373,5.69618,-1.19971,3.88298,8.64688,0.809772,-135.176,-836.432,-527.528,-18480,-8820,1820
-6.82917,-3.64482,-1.18994,1.02575,-1.03457,-1.61695,3.28026,2.13348,-11.3715,-3.22742,-3.95976,-2.16974,-2.55121,1.71116,6.75311,-3.03922,-133.224,-838.872,-527.528,-17500,-8680,3080
-9.2529,-6.59936,-0.560018,2.61916,-0.884748,-0.929348,2.17111,0.672873,-11.5386,-3.15822,-1.58212,-3.26944,-0.714609,1.59351,6.24577,-5.60771,-133.224,-834.968,-537.776,-17220,-8260,4060
-5.11795,-5.22661,-1.51388,6.51147,-0.379012,0.198139,3.80159,-2.79435,-3.04575,-4.46301,0.80916,-0.9058,-1.11739,2.54979,10.5439,-8.42404,-133.712,-833.992,-538.264,-16660,-7980,5320
2.38576,7.59342,2.26138,14.8087,8.6104,1.85184,9.82322,0.672289,9.12084,0.019401,1.73335,6.31984,2.48693,3.69178,14.5512,-0.836535,-135.664,-830.576,-540.216,-16380,-7700,6020
-1.2404,2.62427,-1.37277,5.94669,4.78299,1.01995,5.7475,1.40215,4.98224,-1.77189,-0.894594,1.70574,1.0289,1.02781,6.0919,0.996016,-132.736,-833.504,-543.144,-15540,-7280,7280
-2.16257,-0.933715,-0.204149,-2.00565,2.33213,1.31202,1.79772,2.12147,0.837973,-1.1746,-0.281651,-0.176821,-0.394068,-0.150925,0.416266,2.16802,-130.296,-829.112,-547.536,-14840,-7280,8400
5.88192,7.28669,7.5668,4.30286,7.04012,3.6871,2.43544,2.67012,7.68093,5.54835,2.6056,6.60622,2.39436,2.76202,1.41428,3.19653,-133.224,-824.72,-550.464,-14140,-7000,9100
8.53559,9.30232,7.36906,4.95477,6.28614,4.1018,1.81185,0.704729,10.8056,7.14394,5.21141,7.4014,3.86733,3.1844,0.590312,2.2261,-135.176,-824.72,-555.832,-13020,-7420,10080
7.96737,9.74649,6.37269,8.39013,8.08867,3.83605,5.5712,-0.648617,12.8026,7.78943,5.95956,8.99127,4.39033,3.68448,5.34668,4.61225,-137.616,-818.864,-562.664,-12320,-7420,11200
7.55078,8.17283,5.85371,9.01198,7.65696,1.73341,5.56276,0.70384,10.541,8.96973,4.33843,8.30668,2.99349,3.26356,3.68106,5.20939,-134.2,-817.4,-565.104,-11060,-7700,12460
-2.68935,-6.50771,-0.41187,-5.46518,-5.02291,-1.60097,-2.3504,-1.84524,-3.90214,1.30938,1.22146,-2.63204,-1.10906,-3.08154,-6.30244,-1.11334,-137.616,-813.008,-565.592,-10780,-7420,13580
-13.496,-16.4743,-2.44598,-11.0829,-9.51094,-3.11117,-4.23548,0.607447,-17.9899,-6.42686,-3.94499,-11.1845,-6.23175,-6.79678,-6.22787,-3.67758,-137.128,-803.248,-569.496,-10500,-7700,14560
-11.55,-21.2315,-5.26988,-16.5194,-15.6771,-3.80281,-12.2722,-2.30754,-16.3873,-7.87278,-2.66178,-14.9383,-5.86021,-7.01442,-15.4065,-10.025,-142.496,-800.32,-573.888,-10360,-7140,15820
-4.47267,-13.9229,-4.83251,-19.2045,-15.1963,-4.21547,-16.9229,-2.54406,-6.19578,-4.27534,-0.888526,-11.0858,-3.18622,-6.42965,-22.7205,-8.72669,-142.496,-797.88,-577.304,-10500,-6580,16520
-2.27371,-8.40662,-7.61038,-18.7686,-13.928,-5.26968,-16.2099,-4.51337,-2.37827,-5.22442,-0.943596,-9.28677,-3.11554,-7.55289,-21.8028,-6.93486,-147.864,-792.024,-576.816,-10080,-5320,17360
4.90344,3.7215,-3.93707,-3.26566,-3.57067,-1.55669,-4.36199,-3.01123,7.21669,-0.0221197,0.794982,-0.78135,-1.07762,-1.38234,-2.78302,1.48223,-150.304,-790.072,-584.624,-9660,-3780,18200
10.5325,15.5556,3.95169,10.2306,8.15214,0.819647,5.0993,1.80049,13.1556,6.02971,1.36828,7.9736,1.25297,4.12683,9.9491,9.59884,-157.136,-784.704,-587.552,-9520,-2940,18900
5.25206,11.6288,3.85462,8.53942,7.37649,1.87044,6.18991,3.18059,5.81876,2.58592,0.312583,6.75927,1.41506,5.15732,8.485,8.23873,-157.136,-779.824,-589.016,-8400,-2660,19880
-1.2646,10.7834,4.65433,10.4019,11.4263,4.48063,12.6803,6.45926,-4.06649,0.726486,-2.82646,6.59596,2.29019,6.96714,11.9635,11.6377,-162.504,-777.872,-588.528,-7560,-2100,20860
-4.34476,1.94346,0.237121,4.63396,7.27971,2.98517,10.3941,2.83561,-10.8618,-0.675699,-4.53797,1.96544,1.66336,5.84008,8.40143,9.4318,-162.504,-775.432,-590.968,-6580,-1400,21840
4.65984,7.91838,1.35723,10.2772,9.56017,3.09273,12.9775,2.51659,5.36919,2.23051,-1.01822,5.91719,2.59583,6.06648,14.9237,11.4788,-168.848,-775.92,-595.848,-5180,-840,22820
14.738,15.418,8.42926,14.4729,11.9972,2.16958,10.6159,-1.0039,20.3384,6.68219,2.40546,8.3759,3.33623,4.80309,15.7345,9.84008,-170.312,-772.016,-597.312,-3640,-560,23660
8.65203,5.52114,5.64923,5.11987,4.09825,-1.02004,1.42928,-4.0298,12.4323,2.47475,1.64121,2.14726,0.252977,-0.060627,6.69388,1.71516,-171.776,-772.016,-600.24,-1260,-700,24780
2.26015,0.0752916,2.80735,0.961707,1.86682,-1.86052,-2.72025,-1.01788,3.8122,1.82327,0.162801,0.287907,-0.586072,-2.98493,0.0621388,-2.30095,-172.264,-777.872,-593.408,980,-1400,25480
8.93665,9.80438,3.83327,6.88496,6.03919,1.27628,-0.327971,2.05726,12.7558,8.49429,5.01126,6.15261,4.72251,1.01603,3.00658,-3.77696,-171.288,-782.264,-598.288,4060,-2660,26460
3.57,1.23338,-3.78331,-5.32921,-5.14031,-0.0888991,-12.1144,-3.69535,4.62932,3.76515,4.56303,-1.43928,4.59866,-2.83342,-13.0719,-14.3102,-171.288,-789.096,-591.944,6160,-3920,27160
-10.9163,-10.6546,-10.5117,-14.8198,-11.1669,-1.77567,-15.6351,-4.75147,-16.2516,-4.51255,-1.01703,-10.4449,1.27147,-6.41454,-22.7579,-15.6679,-171.776,-798.368,-586.088,9380,-4620,27300
-23.2009,-19.0653,-13.5866,-10.0471,-11.6113,0.518492,-4.94339,-1.82447,-30.9936,-15.9439,-4.98415,-14.3379,-2.61297,-2.9841,-11.7142,-8.88163,-171.776,-802.76,-587.064,12040,-5460,27160
-19.7279,-12.7464,-5.61654,-2.1726,-4.24818,3.01449,4.12666,2.7397,-27.6908,-12.9429,-5.36406,-5.77071,-3.16445,0.224394,-3.56876,-2.06081,-167.384,-803.736,-580.232,13580,-6300,26740
-29.0516,-31.123,-11.4812,-16.7987,-14.392,-0.869798,-3.19324,0.547681,-38.6369,-19.2333,-9.73515,-15.4757,-7.16326,-5.39829,-13.6408,-7.34804,-164.944,-813.008,-575.352,15260,-6720,26040
-21.1917,-34.2116,-12.3941,-25.7582,-20.2974,-5.31022,-12.2213,-0.75263,-25.0491,-14.0134,-6.75062,-17.8127,-7.603,-10.5619,-22.6145,-11.6854,-163.968,-813.984,-566.08,15540,-6440,24920
13.5322,3.31947,4.47771,-7.33396,-5.35992,-2.78386,-7.40584,-0.0338291,19.7693,9.87461,6.32507,4.49493,1.86385,-4.28122,-10.0131,-7.00348,-163.48,-815.936,-554.856,16380,-6720,24220
19.7327,14.9453,8.04371,10.6111,3.49619,1.16549,2.516,2.18801,26.0128,10.0562,6.60598,10.8437,2.97453,0.86041,9.8417,-0.0338783,-165.92,-823.256,-558.76,17080,-7280,22960
10.5069,13.035,5.06483,21.5631,8.71526,3.4726,11.3461,5.03838,14.7017,1.97578,0.201085,9.29188,1.46037,3.61965,24.1335,6.44717,-161.528,-831.064,-566.568,18480,-8260,22120
5.32192,9.19173,3.3243,20.1175,9.32984,3.33101,10.0382,3.98096,7.69606,-1.03296,-1.78409,6.15713,1.58649,4.56496,23.4568,8.70769,-164.944,-835.944,-570.472,20580,-10080,21000
5.2211,7.68965,3.35886,11.8184,8.32281,1.78382,3.23931,1.38112,8.50268,2.27865,0.954613,4.21773,1.29394,3.48977,14.7968,5.13404,-166.896,-833.992,-567.056,22400,-12040,20440
2.69072,4.62086,3.29642,3.07267,5.77498,-0.391405,-2.76793,-0.657425,5.42793,5.33998,2.68019,2.03913,1.21851,2.78609,6.30644,1.35532,-168.36,-828.136,-561.688,23940,-13300,19740
-0.739796,1.87603,0.285559,-1.90314,-0.639749,-2.23365,-6.23427,-6.13746,2.40213,3.68971,2.66337,2.27729,-0.609586,1.73766,2.79409,-0.967088,-168.36,-829.6,-569.984,24220,-13580,18340
1.53806,9.10855,4.42618,1.72036,5.00698,-0.708304,-1.11417,-3.86223,4.23405,5.95115,1.98071,7.53213,0.133591,4.03214,5.70416,5.16687,-166.896,-828.136,-564.616,24220,-13720,17500
0.855219,3.4994,3.12837,-3.47055,3.53529,-1.17342,1.3741,-1.70734,1.00874,1.95988,-0.280115,2.24268,-2.228,3.31312,1.79646,6.38311,-169.824,-824.72,-567.544,24080,-13440,16240
8.01013,8.72236,6.08646,0.908734,6.17795,0.46305,5.89207,0.352463,9.77512,4.2576,0.633084,5.34834,-0.788037,5.77296,3.29946,7.38962,-172.264,-824.72,-568.032,23520,-12600,14980
12.2589,13.7138,7.06496,9.42637,10.2342,1.12605,11.5308,2.73326,14.1409,7.4573,2.76857,9.44401,1.72773,6.77398,10.079,10.0524,-172.264,-820.328,-565.592,23240,-11760,14420
8.4413,5.89411,0.678432,2.5966,1.70702,-3.25787,4.77541,-0.432988,9.46387,3.30975,3.00527,2.00758,-0.121121,0.735832,-0.633492,4.59445,-174.216,-816.912,-568.032,23520,-11060,13580
5.7312,-0.0936037,-2.92833,-9.7037,-5.95855,-5.99914,-4.46668,-1.96166,5.66516,3.29245,3.0027,-1.61237,0.395676,-6.18332,-18.5551,0.736891,-177.632,-820.816,-565.104,23940,-10080,13160
-5.6646,-19.4534,-10.3042,-29.0414,-20.0331,-8.91128,-17.0551,-5.68979,-12.2469,-3.50678,-0.844232,-14.1386,-3.67231,-13.1797,-33.9136,-9.36453,-178.608,-820.816,-565.104,24780,-9100,12040
-6.42519,-19.5411,-8.28457,-25.1544,-17.3968,-6.08611,-14.4327,-4.42685,-14.2094,-5.74177,-1.56201,-13.2568,-3.76371,-10.3675,-27.9454,-11.5002,-183.976,-817.4,-565.592,25760,-7420,11480
-5.94698,-7.7952,-2.07799,-4.22224,-1.36566,0.735552,3.52979,2.14931,-11.8956,-3.80309,-4.5206,-6.13548,-1.05842,-2.10401,-4.38239,-2.17702,-186.904,-820.816,-558.76,26880,-6300,11060
1.9933,7.10741,2.60626,15.2693,11.3221,6.77725,16.1686,6.42532,1.52425,2.85873,-2.09759,3.48849,3.19065,4.923,14.8877,5.59729,-189.344,-813.984,-557.784,27020,-4620,10360
7.20868,15.0056,7.46999,22.4756,16.8882,8.565,17.5646,7.05221,7.86304,6.68551,1.01188,10.2771,6.69453,6.42351,20.8662,8.12664,-189.832,-818.376,-557.296,26600,-3080,9380
-0.822112,10.7335,8.17979,22.594,16.6169,9.47243,17.9721,5.85431,-4.33929,0.724322,-0.519064,9.69755,5.28879,7.96856,22.5515,8.42771,-192.272,-819.352,-551.44,26040,-1260,8540
-10.1141,-4.0224,1.58698,10.5832,6.77217,8.11115,9.95433,2.03649,-14.1073,-7.06078,-3.20638,-0.0454426,1.28433,6.01971,10.9794,4.93305,-189.832,-823.256,-550.952,25480,-140,7840
-4.39902,-8.46759,-1.12554,-5.40385,-4.24962,2.07516,-7.09299,-3.3721,-4.63173,-4.38547,-2.83515,-5.04695,-1.98056,-0.0744016,-8.98134,-3.75223,-194.224,-826.672,-549.976,24360,1260,7140
-0.981654,-8.28327,-3.94158,-13.5428,-11.444,-2.13856,-20.4358,-11.539,1.13345,-3.29626,-0.397622,-5.51518,-2.87902,-5.07223,-21.7993,-14.0017,-194.224,-833.992,-549.488,24080,2380,6440
-5.71632,-9.50563,-5.79757,-13.2266,-10.145,-2.90418,-15.0469,-4.79804,-3.9065,-5.06395,-0.928815,-9.07589,-2.94259,-6.83564,-13.9056,-9.85185,-198.128,-835.944,-543.632,24360,2660,5880
-9.11453,-9.01977,-6.42878,-6.98569,-10.6832,-2.7474,-4.14839,1.77577,-6.92475,-7.17613,-2.1009,-8.60826,-3.84549,-4.94796,3.49152,-5.17836,-199.592,-840.824,-543.632,24920,3220,5460
-16.2424,-3.45382,-1.97239,13.1754,1.98455,1.87671,13.2347,11.0142,-16.7982,-12.2492,-5.23982,-2.47579,-3.19873,2.55024,27.5062,9.65307,-200.568,-846.192,-547.536,25200,3640,5180
-9.54678,2.31142,0.00344909,16.5899,6.97998,0.940237,13.9888,9.04439,-7.99072,-6.72182,-3.62889,1.50686,-2.96255,4.89683,26.8856,11.3591,-204.472,-852.536,-543.632,25620,3500,5040
7.39086,14.8892,2.77519,5.16812,3.98556,-2.04374,-6.24298,-1.49253,13.8559,6.64808,3.15182,9.68958,2.02974,3.01859,-8.38179,-2.62909,-209.352,-851.56,-544.12,24920,4200,4760
10.4578,5.36296,2.21768,-21.2833,-10.2114,-4.42428,-29.3272,-9.1882,14.5377,10.5005,7.52508,5.93191,5.72239,-3.28326,-45.673,-16.7914,-209.84,-847.656,-550.952,24220,4340,4760
1.64385,-12.6945,-4.11005,-32.4605,-19.8439,-8.20203,-29.11,-9.65823,5.21355,4.88252,3.98048,-8.19626,0.472464,-11.1778,-37.6032,-18.9477,-206.912,-842.776,-548.512,23800,4340,4620
4.38727,-6.92846,-4.21629,-12.4345,-9.71667,-7.40944,-7.47733,-1.96397,12.5305,5.15102,5.31572,-4.83785,-2.07201,-8.6838,-5.10689,-6.85124,-210.328,-843.264,-547.048,24780,3640,4760
14.3318,16.6043,6.06862,11.1907,9.55885,-1.32716,7.41831,5.30712,20.4528,12.9128,5.87697,11.9078,3.52744,2.64165,10.5387,5.9783,-215.208,-842.776,-554.368,27580,2240,4200
2.70182,17.2095,8.37545,25.6037,19.5102,6.05667,20.249,8.23314,-0.261508,4.69987,0.256704,16.1342,4.77584,11.54,27.7078,16.1782,-214.232,-837.896,-553.392,28700,3780,3500
-8.0615,-1.43815,1.14323,11.3273,11.1856,4.54872,17.6305,9.4055,-14.3352,-3.2524,-3.97868,3.08511,0.557369,7.13997,26.7697,14.3117,-213.744,-834.48,-556.808,29260,3780,3080
3.17055,2.87438,-0.259965,1.17314,1.54828,1.76088,5.59463,3.66682,2.81245,0.57538,-0.535873,1.529,-0.157774,2.08668,11.0502,3.6476,-217.648,-827.16,-549.976,29820,3780,1820
-2.95851,-14.1941,-5.99578,-22.5798,-15.9659,-2.92656,-14.9355,-5.13757,-7.74019,-5.4745,1.28162,-11.2452,-3.45462,-6.53027,-20.0374,-10.9851,-213.744,-819.352,-544.608,31500,1540,1540
-7.96921,-20.448,-10.0701,-23.3503,-18.8876,-5.66759,-13.624,-6.38601,-13.4063,-9.89325,-1.0835,-18.3731,-5.74315,-10.5429,-16.56,-10.3837,-210.328,-829.6,-552.416,33600,-140,980
-2.81634,-4.70844,-5.16686,4.59883,-2.19717,0.959302,9.78844,-2.02999,-3.36048,-8.15383,-1.98151,-8.40283,-2.88583,-1.27012,15.0633,1.89409,-208.864,-819.84,-551.44,32200,1820,-560
11.1035,15.8008,8.41028,20.7028,13.2792,7.33823,17.7941,2.7933,13.7608,3.89609,1.71538,6.45766,4.62417,8.53847,21.0077,9.39566,-206.912,-818.376,-550.464,31780,2100,-1400
24.1027,25.4079,12.9737,22.9762,13.8156,6.48452,10.9505,-3.28761,29.932,15.353,4.83895,15.0882,6.77595,8.84728,12.5329,4.687,-200.568,-815.936,-549,33460,-280,-2520
22.4354,22.9538,8.26258,15.7194,9.23671,2.53626,1.60764,-8.47495,28.0127,13.0638,3.98275,13.1586,4.54421,4.52802,1.84447,-3.01461,-203.008,-814.472,-546.072,33880,0,-3220
12.7289,10.2172,3.48033,4.88953,3.97909,-0.176543,-3.53908,-8.08022,13.0385,6.64573,0.581842,3.92778,1.01222,-0.119576,-5.14739,-5.92614,-198.128,-819.352,-552.904,33740,-1680,-4200
-17.1408,-7.65549,-4.79012,-0.884165,4.0996,-0.421983,-1.15986,-4.02705,-29.4404,-11.7136,-8.28251,-5.80848,-2.56949,-1.32301,-5.4564,-1.68896,-196.664,-818.376,-552.904,33460,840,-6020
-63.9039,-50.5231,-20.4532,-20.8313,-9.98763,-4.92509,-4.66308,-0.470963,-90.8212,-38.9012,-20.9061,-32.0912,-12.3594,-10.0354,-13.5141,-0.705839,-191.296,-811.544,-545.096,33180,1400,-6860
-34.4088,-48.3558,-17.6008,-34.2382,-21.4066,-8.72894,-14.5818,-2.9167,-45.3276,-19.6009,-9.63915,-30.1325,-10.957,-14.8262,-22.79,-7.76533,-188.856,-811.056,-545.096,34720,-280,-7700
24.3884,9.59791,4.45083,-3.57014,-4.01492,-1.55738,-5.78324,-4.26914,36.2496,16.7898,7.87826,10.6326,2.79621,-1.03947,-4.88324,-3.60712,-189.832,-817.4,-536.312,36680,-980,-7980
15.3277,21.6471,9.10596,19.2422,15.0793,5.35098,9.92839,6.00641,20.386,12.6462,1.31456,19.1782,4.442,9.88384,13.0002,9.75795,-187.392,-818.376,-539.728,37380,-3220,-7840
6.10685,15.2315,5.68884,22.0124,17.6345,7.48962,17.0362,11.5783,8.39846,3.85942,-1.68503,13.2182,2.60994,13.4229,20.7328,14.0719,-187.392,-811.056,-528.504,37520,-4620,-7700
15.8843,22.6244,9.58695,20.8675,19.1529,7.82305,17.2836,14.4799,23.2439,10.5214,2.53816,16.615,4.95029,11.8642,18.6645,15.9205,-181.536,-812.032,-525.088,38920,-6720,-7000
12.7449,17.0888,5.31622,9.94095,8.25053,2.98812,7.47062,8.7187,20.7098,9.2077,4.7103,11.2549,5.1778,6.52352,3.87589,7.96498,-183.976,-817.888,-519.72,41160,-7700,-6860
-3.71021,-3.2924,-3.45929,-4.39025,-6.77559,-2.53627,-0.0461702,6.99301,0.579428,0.21902,2.31943,-2.70338,0.190431,-3.22331,-6.31374,3.41435,-181.048,-823.256,-527.04,40040,-7140,-6720
-8.74511,-11.1345,-6.35409,-6.4491,-10.805,-5.85731,-3.14957,3.85453,-8.58002,-4.71293,1.32403,-7.76772,-2.58127,-6.79814,-5.33371,0.989218,-179.096,-831.552,-530.456,36540,-5040,-6860
-8.98777,-16.6792,-4.95688,-13.7767,-15.2021,-6.12312,-11.6243,-4.52543,-10.9285,-7.59597,0.685151,-8.38996,-2.83376,-7.1376,-17.4665,-7.4734,-183.976,-833.504,-532.408,32480,0,-7560
4.27129,-10.0212,2.79098,-29.2904,-17.3044,-5.51294,-27.6457,-11.3422,5.72612,3.05258,5.82334,-1.53284,-0.341491,-8.7391,-44.4789,-17.7151,-177.144,-838.384,-535.824,31360,140,-7420
14.3044,9.28722,7.56735,-8.03123,-2.56963,-0.15521,-11.7791,-8.02605,19.5769,8.70454,7.88777,9.8901,1.55687,-1.93165,-17.9078,-9.03597,-182.512,-834.968,-533.384,29960,2800,-7420
4.17366,11.7217,5.62467,10.9726,7.9859,4.97479,10.0489,0.854982,6.69817,1.48646,3.57661,9.4575,0.390125,3.49535,14.3906,6.22519,-190.32,-823.256,-518.256,30100,4340,-6860
-8.21963,-3.32729,2.6759,3.19451,4.5941,3.43638,10.043,3.80274,-11.5359,-2.3441,0.00205904,-2.90631,-0.504244,2.57641,16.1296,7.66089,-180.56,-828.624,-510.936,35980,-3500,-4480
1.2365,-4.22546,1.88892,-2.21069,0.495715,1.40365,2.18562,-1.18744,1.13523,1.4742,3.71512,-3.52459,1.79828,1.94244,9.48147,1.13932,-183.976,-839.848,-512.4,38360,-3360,-2800
14.082,9.91668,4.38687,1.19973,1.8779,-0.543755,-2.2945,-4.28205,15.5342,5.80691,4.28403,3.16364,2.68872,0.137565,5.44445,-3.33912,-183,-836.92,-511.912,35840,420,-2660
4.90539,4.83469,0.609437,-1.82801,-1.62473,-0.721836,-5.50477,-7.20956,2.74948,0.050594,-0.00650311,0.585726,2.46068,-2.04686,1.98716,-6.32083,-178.608,-855.952,-519.72,32760,4200,-3080
-12.6007,-12.422,-8.66219,-8.67807,-9.71251,-3.621,-9.01365,-8.18437,-18.3728,-11.1752,-5.2711,-12.0497,-2.57268,-6.78772,-0.299792,-8.16038,-185.44,-847.168,-520.208,29960,7560,-3920
-30.1341,-24.3579,-14.9362,-9.58618,-11.12,-6.60861,-7.95189,-2.35483,-41.0174,-20.3752,-11.0288,-23.3937,-7.97634,-11.1228,2.2447,-6.8192,-188.368,-841.8,-523.624,27580,8400,-4340
-24.2962,-30.6743,-15.4704,-22.6935,-17.296,-7.48068,-15.3798,-1.11871,-33.2749,-14.6175,-6.99015,-24.3811,-6.50296,-12.3508,-14.6181,-10.9845,-186.904,-833.504,-509.472,28700,5600,-3360
11.7211,7.59748,0.758452,-1.68915,2.40801,-1.70108,-2.3837,3.80507,17.506,9.30003,0.70355,4.76778,3.37556,-0.50342,-2.34708,-1.19345,-186.904,-832.528,-509.96,32340,2100,-2380
12.9128,26.174,8.87601,24.6222,19.6256,5.11822,16.9434,7.55817,21.5234,11.0357,-1.59066,18.831,6.53408,11.3064,22.8403,10.2585,-190.32,-837.896,-508.496,35560,1120,-1540
4.92789,10.8361,4.69624,15.5957,10.924,3.12502,11.7148,5.51112,10.5886,4.29984,-1.72142,6.73009,2.75238,6.47056,14.7798,6.68317,-191.784,-850.584,-518.744,34440,2240,-1540
12.7835,13.086,7.20572,5.64651,6.03412,1.11916,-2.89533,-1.21032,17.0553,9.475,2.96016,7.13699,2.57546,4.17468,-4.09537,-2.66472,-188.368,-853.512,-525.088,31500,3220,-2240
4.84228,4.11576,1.18767,1.4057,-0.206349,0.381839,-5.71804,-3.17075,6.70524,1.10021,-0.0382359,3.45359,-0.511118,3.72935,-8.38795,-6.57912,-188.856,-838.872,-523.136,27720,4900,-3080
2.80645,1.71394,-0.112499,4.01685,0.119565,1.45385,0.6987,1.51022,6.00903,0.931902,-0.668319,3.31191,-1.3504,4.03747,-1.53674,-3.42221,-193.248,-823.256,-516.304,28140,4620,-3500
-16.7599,-12.161,-6.28928,1.79337,-2.19818,2.4564,8.89139,7.82095,-23.1824,-9.67288,-6.7773,-6.8312,-4.84205,2.70778,4.29838,5.0995,-187.88,-815.448,-516.304,30100,-280,-2800
-25.8309,-16.8158,-9.58585,3.39761,-4.29954,0.703462,12.1818,5.51087,-34.0812,-16.4227,-8.23193,-11.4892,-4.97947,0.918526,7.296,9.42459,-188.368,-823.256,-511.912,31220,-1820,-2520
-15.1174,-8.82631,-3.41612,0.281353,-3.47183,-0.36866,3.34523,0.733784,-19.0203,-5.30276,-1.94675,-6.22343,-2.57332,0.240374,-5.19886,4.20346,-185.928,-824.72,-517.768,29540,-2660,-2520
-1.92687,-4.64908,0.110159,-0.763148,-1.82905,1.44039,1.19678,-2.63759,-4.76081,1.22034,2.8596,0.265752,0.275065,3.15225,-7.91014,0.234931,-181.048,-822.768,-516.792,26460,-3500,-3080
10.6283,7.74405,4.40937,5.32497,6.2279,2.29822,7.25952,-0.0463722,11.9911,7.25914,3.80617,6.81682,0.999583,3.09649,2.86701,3.33071,-180.56,-827.648,-525.576,26600,-3780,-4060
16.1955,12.3576,4.43152,4.29633,3.73549,0.964842,3.80073,-3.43481,22.45,8.65204,4.49226,7.5567,0.383083,0.230528,3.37587,0.0508555,-175.68,-830.088,-528.016,24360,-1120,-6160
18.9344,17.2563,4.40406,10.1093,6.2617,2.45124,4.85608,-2.10127,25.8181,8.75278,5.72499,8.88484,3.03759,1.29231,10.4142,1.72355,-172.264,-838.384,-537.288,21560,700,-7840
29.1476,26.7703,8.00616,10.6699,7.74204,2.26507,2.33584,-1.68225,36.5881,16.3885,9.13606,14.0206,6.22486,1.78288,7.87152,0.64075,-177.632,-836.92,-537.776,17920,5740,-10360
20.1864,21.8255,7.98818,9.66003,8.98233,2.44477,5.57478,0.197497,23.5795,10.5155,5.15231,12.9196,5.90116,3.48848,9.22243,3.76785,-175.68,-829.6,-537.776,15820,8400,-12460
3.46236,7.85744,5.16173,8.71182,10.7455,3.6611,8.58888,5.35877,1.02322,0.163009,-0.0978919,6.62305,3.16154,3.89524,13.2522,8.0175,-171.776,-813.984,-531.92,17080,6720,-13440
0.318361,-2.15152,4.43911,-5.21842,2.43881,2.44953,-5.33588,0.456053,-2.3526,2.21553,1.26045,2.91783,0.889211,-0.3265,-6.28844,0.233439,-172.752,-813.008,-524.6,21140,2660,-12880
-6.62311,-12.2933,0.277399,-16.63,-7.93805,-0.107006,-13.8075,-3.29912,-7.83342,-2.23545,0.948693,-4.97305,-1.4005,-5.90104,-20.3503,-4.59869,-172.264,-814.472,-520.208,22820,1540,-12600
-23.0883,-30.6273,-9.8359,-26.8011,-16.0465,-5.31712,-14.1807,-1.42247,-30.5184,-13.3391,-5.29349,-20.7289,-7.10401,-12.5847,-20.3249,-3.80824,-165.432,-819.84,-523.624,24640,0,-12460
-12.2513,-23.687,-9.25537,-22.8688,-15.7424,-4.88929,-13.1581,-2.42715,-16.8991,-9.20345,-1.14861,-14.8526,-5.40117,-11.4156,-17.7719,-2.9196,-167.872,-815.448,-525.576,24780,-840,-12880
9.12994,-2.81339,2.17329,-9.90658,-5.59294,-3.20595,-12.1042,-4.47848,8.00295,6.15834,7.09485,1.76299,-0.0953412,-5.08014,-16.5796,-4.55357,-165.432,-822.28,-524.6,23940,-420,-13160
-3.43763,-14.4641,-4.43455,-18.5446,-11.6618,-5.65372,-15.4987,-6.91468,-9.14447,-1.88839,1.58827,-7.17755,-2.74832,-5.70388,-20.6003,-8.90942,-163.968,-809.104,-519.72,23660,-840,-13160
-16.2773,-13.8579,-10.2275,-11.8771,-9.81024,-3.66751,-5.77689,-4.0323,-18.8105,-13.0668,-6.17842,-11.6135,-1.94163,-4.21345,-4.76495,-4.4158,-162.992,-814.472,-524.112,25900,-4200,-12180
-14.0786,3.39132,-5.3278,9.78947,5.27991,1.04585,11.763,4.10447,-11.7406,-10.7101,-9.00906,-1.22949,1.4533,2.82164,18.8312,6.77259,-166.408,-807.152,-514.352,26600,-5040,-10780
-17.9276,5.33556,-1.57457,22.4086,12.6018,4.43223,24.8111,9.0693,-19.2714,-12.7922,-9.67155,2.17302,1.90577,8.20128,34.3343,12.2209,-163.48,-809.592,-518.256,25760,-3640,-9940
-18.4973,-8.53821,-5.18168,3.96738,2.6745,0.327819,9.77384,6.67064,-21.4241,-10.071,-6.78318,-6.34249,-1.55819,0.238601,14.0753,1.99613,-164.456,-809.592,-518.744,26460,-4620,-9520
8.66518,0.47943,2.03357,-9.39045,-6.06761,-3.49016,-11.1976,-4.37448,14.8245,5.65639,3.60641,2.54732,0.0995363,-1.37376,-11.7261,-10.411,-163.48,-813.496,-520.696,27300,-7000,-7980
