4.48449,4.9636,5.32563,2.13253,1.89876,0.125868,-0.240274,3.06239,9.14209,4.80722,2.73821,5.3732,0.574019,-0.332946,0.360453,0.282406,-101.992,-848.632,-490.44,3500,-9240,-8400
1.26742,3.25485,1.95858,0.746007,-2.1123,-0.686251,-1.05691,1.3927,4.90798,-0.90117,2.67212,2.01061,0.878867,-0.796588,-2.04632,-1.06124,-96.624,-849.608,-501.176,3780,-9240,-8960
-2.7291,-0.171243,2.09047,-3.2297,-5.03385,-3.83727,-1.31691,-1.7377,-4.97314,-2.81244,1.74757,-1.53735,0.120205,-2.72387,-2.55841,0.884039,-95.648,-852.536,-504.104,4620,-8960,-8680
3.30886,8.26677,5.24661,2.33149,-3.7324,-3.51817,1.42797,-5.24981,3.73888,-0.532117,2.20258,1.91274,0.127169,-3.8289,0.30102,3.2957,-95.16,-852.536,-498.736,5600,-8680,-8960
4.26472,8.76718,3.57609,3.2483,-3.79975,-3.67143,-0.0696484,-7.8393,7.40767,3.10873,3.35754,1.24358,-0.619377,-3.02468,-0.533937,3.46224,-93.696,-852.536,-503.616,5880,-8400,-8960
0.478129,3.34648,2.7209,-1.85671,-3.11744,-1.32445,-1.72409,-2.77144,0.519228,4.27494,2.21058,-0.453398,0.697173,-0.0657742,-4.22606,3.35573,-95.16,-854.976,-494.344,6440,-7700,-8960
-2.63496,-7.66265,-3.1056,-8.22938,-6.98905,-1.19473,-4.10671,-2.72475,-6.67282,-0.076021,-0.771091,-6.38985,-1.58636,0.0690956,-8.0161,-1.61595,-92.72,-852.536,-489.464,6580,-6720,-9380
-0.0144249,2.03436,3.80508,4.83222,7.6647,3.82661,5.51727,5.38574,-1.78185,2.8003,-1.29262,2.92834,1.55272,8.71986,4.05086,5.00354,-94.672,-853.512,-499.224,5600,-5740,-9800
-1.88002,-3.35519,-0.832039,2.56942,6.58444,3.05533,1.80522,4.04915,-5.12685,-3.98514,-4.02781,0.25432,-2.15551,6.8231,2.38193,-0.375732,-93.208,-854.976,-501.664,5880,-4620,-9800
1.90687,-0.978226,-1.16439,3.11792,7.37462,3.85858,0.489561,7.83307,-0.111447,-0.382273,-0.515965,2.46651,1.30064,5.35639,2.31152,-0.0845874,-92.72,-855.952,-499.224,5740,-4060,-10080
6.78782,3.52712,-1.27521,7.58685,11.4642,6.21422,2.72344,10.1696,7.57713,6.07832,2.03623,6.91344,2.70997,7.86318,5.71388,2.03214,-91.744,-857.416,-500.688,4900,-2940,-10220
3.3114,5.2533,-1.43082,9.71022,13.1301,7.9019,6.4398,13.7683,8.06875,2.06161,0.380593,7.07919,2.98255,8.58068,7.26552,4.32898,-95.16,-858.88,-494.344,4480,-1960,-10220
1.52863,-3.7763,-4.98412,-0.0341397,4.64801,6.04328,0.221308,9.22708,4.02771,0.39944,0.0209074,1.79116,2.1975,3.66896,-1.82252,0.586616,-96.136,-857.904,-491.904,3640,-1120,-10080
1.61803,-5.3024,-5.08647,-4.57112,-0.433555,4.52017,-2.28353,8.08787,-0.640576,3.56141,1.4209,-1.21222,0.582306,-1.26916,-7.83034,0.152358,-96.136,-859.856,-498.248,2100,-560,-9940
7.67995,3.24517,-0.699603,4.58446,1.11945,6.17926,5.90641,6.40495,6.11259,5.84386,5.5903,3.69477,2.7395,-0.303767,2.11889,4.87328,-98.088,-860.344,-500.2,1820,-140,-9800
12.3873,18.8524,9.09716,20.6158,15.8433,6.64345,16.7646,9.73912,12.7117,11.1107,3.23599,10.9495,4.89269,5.35657,18.9838,11.9243,-99.552,-859.856,-494.832,1960,280,-9520
-4.91675,-5.2939,-3.01762,0.415581,-3.49125,-0.407999,1.59156,-1.91243,-9.13046,-6.06682,-2.37978,-6.09197,-2.23238,-5.49068,2.47128,-2.71006,-97.6,-859.368,-500.2,1400,420,-9100
-21.983,-21.3993,-7.04171,-19.3378,-16.0901,-5.21603,-11.3852,-6.38457,-32.1145,-15.5197,-7.12332,-17.5329,-5.18989,-9.86442,-14.4067,-9.36897,-100.04,-856.44,-493.368,1120,700,-8960
-17.6305,-17.4806,-7.84519,-16.2533,-17.2441,-5.90181,-8.83372,-11.7759,-22.3081,-16.6561,-9.66815,-14.9733,-6.65274,-10.6044,-10.2408,-9.45974,-98.576,-859.368,-486.048,980,420,-8540
-0.384735,4.74009,4.1189,1.45602,-1.31547,-1.5697,2.89777,-6.64062,4.67224,-1.39977,-3.10541,1.92423,-1.62319,-3.01274,5.63955,1.49267,-99.552,-862.784,-490.928,420,560,-8540
0.967165,2.88474,4.68588,-0.811315,-3.17197,-1.69438,2.02689,-5.78875,5.2561,0.0754162,1.43313,1.90213,-1.59139,-0.842058,4.53146,2.85401,-99.552,-864.248,-492.392,420,560,-8260
5.55277,4.23085,4.83957,0.558702,-2.17623,-2.31381,1.14235,-6.72702,8.18372,3.6139,3.85136,3.10249,-0.772937,1.91856,5.54038,1.41,-100.04,-864.248,-494.832,560,280,-7980
11.7136,12.4191,6.20775,6.33473,3.87665,-2.50472,1.91568,-5.99606,17.5799,9.2195,5.46563,9.29821,3.25839,8.3645,10.0835,2.43914,-98.088,-864.736,-492.88,700,-560,-7980
9.19341,13.9874,7.38247,4.88686,5.66255,-2.99412,0.181059,-3.80154,12.7266,11.5421,4.85437,9.77345,5.1036,9.33613,7.77597,2.3942,-96.136,-864.248,-493.856,840,-980,-8120
-0.10366,3.02838,1.63074,-4.09961,-5.41445,-4.70017,-6.00949,-7.45291,0.325164,2.85841,3.68183,1.40679,3.49859,2.09032,-2.57491,-3.61615,-98.088,-864.736,-482.144,700,-700,-8120
-3.05457,0.56767,4.00696,-5.20212,-3.61563,-4.69231,-6.66618,-5.72126,-5.27967,6.80123,5.41323,-0.64698,4.47839,1.68831,-5.37787,-2.11349,-100.04,-859.856,-485.56,-420,-280,-8540
-1.21758,1.36208,1.03484,-4.35312,-4.00115,-2.86785,-4.02098,-4.17458,-0.259884,3.24786,4.70292,-0.134406,2.29834,-0.779608,-5.31559,-0.586942,-96.136,-860.344,-491.416,-1120,-140,-8960
0.946433,-1.13155,-0.0429818,-5.26928,-2.17211,-2.96304,-4.23561,-2.43237,0.802447,2.46874,0.395388,-0.865056,0.765911,-1.8333,-7.24604,-1.50528,-91.744,-862.784,-491.904,-840,-140,-9240
-4.07456,-5.60126,-0.299132,-2.42331,0.653332,-1.81499,0.651845,0.315229,-5.8009,-4.82884,-3.57643,-2.51092,-2.41805,-3.95491,-3.70113,-1.51799,-91.744,-861.808,-489.952,0,-420,-9520
-1.41271,-1.88246,-1.51165,2.88088,4.26603,-1.25438,2.33499,1.90485,-1.00328,-7.30672,-5.64078,-0.223477,-5.13887,-4.10185,0.283359,-1.45935,-90.28,-860.832,-488.976,280,-560,-9940
-6.75843,-10.5081,-5.88818,-3.91822,-1.7733,-2.82553,-4.29799,3.87097,-8.07913,-11.1133,-7.69185,-6.42175,-6.82883,-8.66095,-9.03177,-4.57349,-89.304,-857.416,-492.88,560,-280,-9940
-15.8052,-26.5193,-13.8475,-16.0082,-14.0794,-5.41132,-14.1578,-1.90273,-20.5702,-18.1731,-9.39629,-17.1662,-9.85011,-14.8807,-22.7763,-11.8542,-86.864,-855.952,-484.096,840,-280,-10220
-6.8863,-8.23659,-6.30272,-1.7795,-1.19879,0.283961,-3.18332,5.93651,-8.87564,-8.08408,-4.02428,-4.19976,-2.3618,-4.22292,-9.90678,-1.68929,-86.376,-851.072,-483.608,980,140,-10500
3.75914,3.62114,-4.10731,9.47337,5.34881,3.96386,6.91553,6.66226,3.18952,-4.05561,-1.87267,2.56442,-0.0188145,4.08809,5.40873,5.49511,-86.864,-856.44,-486.536,1260,0,-10640
18.6156,26.5415,8.17002,28.6899,19.2198,11.9592,22.8811,13.6391,25.6223,7.98983,3.93332,19.6226,8.25958,15.282,26.5333,17.8299,-85.888,-854,-491.904,1680,140,-10640
18.5489,25.218,9.22897,24.0152,16.2411,11.3952,19.2193,9.38647,25.7866,11.3789,5.79282,18.8469,6.15482,12.4665,22.6187,12.5067,-86.376,-857.904,-488,1960,-140,-10500
12.4559,16.9179,7.01148,14.1656,8.44651,6.84714,10.1029,5.02101,15.758,12.0983,4.12309,10.3146,3.25411,5.63701,13.8887,6.3135,-88.328,-854.976,-490.44,1960,-420,-10080
5.235,0.741324,1.67481,-0.571937,-4.83779,2.4968,-0.423327,-0.384896,3.78581,8.79889,5.246,-1.69462,2.29376,-0.7475,1.09967,-1.80003,-87.84,-856.928,-486.048,1820,-560,-9660
0.7373,-4.04491,2.90565,-7.92646,-6.15717,0.233381,-6.25357,-2.4511,-2.96371,5.96797,4.64698,-6.4065,3.3806,-5.31488,-8.35714,-5.93073,-88.816,-856.928,-479.704,1960,-980,-9100
-15.0883,-23.9022,-8.96701,-27.2883,-18.7112,-5.35213,-20.3106,-9.34691,-20.7753,-7.52564,-3.73051,-20.4744,-3.60539,-14.4902,-27.75,-18.0275,-88.816,-863.272,-483.608,1260,-1400,-8680
-20.6658,-23.1103,-8.55284,-27.2515,-11.9672,-4.43661,-18.3518,-4.12047,-27.8945,-7.72354,-8.49122,-20.568,-6.60966,-11.0957,-22.8981,-12.9061,-86.376,-866.2,-486.536,1680,-2240,-7700
-2.77265,-5.71355,-3.30282,-6.11353,-0.84273,0.817107,-1.23488,-0.423498,-2.80439,-2.61288,-2.11247,-4.61207,-3.47561,-1.14259,0.98321,0.231105,-87.352,-869.128,-486.536,2660,-2660,-6860
6.14738,11.6468,5.58641,13.1308,16.1627,5.3137,13.3911,7.82855,9.37346,3.18112,1.95882,7.4921,3.21807,8.96661,19.8566,11.1308,-89.792,-869.616,-484.096,3500,-2800,-5600
-11.1988,-11.1553,-6.27996,-4.37605,-2.1431,-1.82592,0.329311,-0.274526,-14.1399,-11.0686,-2.60321,-10.1513,-3.24033,-0.444074,4.68535,-1.64378,-88.816,-870.592,-488.976,4200,-3080,-4760
-15.9339,-18.3176,-9.58239,-14.4881,-7.8913,-4.39135,-8.71813,-1.18602,-21.2511,-10.1157,-4.04806,-12.6673,-4.16833,-2.36156,-8.68681,-5.56108,-88.816,-868.152,-487.512,5040,-2940,-4200
-2.92167,-5.95143,-6.38762,-3.04103,-1.49737,-2.14387,-2.43855,-3.89929,-3.3852,-2.73913,-0.417081,-1.06268,-1.47403,3.1383,0.49564,-2.66704,-87.352,-865.712,-485.072,5600,-2240,-3500
4.9219,4.64408,-0.287158,5.25569,3.31394,-1.69719,2.08851,-5.83144,7.30248,3.75395,0.860808,4.74388,0.484801,6.52076,5.39039,-0.980036,-87.84,-861.808,-491.904,5180,-2100,-3220
4.58134,12.3973,4.76192,11.5503,9.14864,-0.480629,6.65113,-2.70795,8.47198,10.2395,3.52768,10.7671,4.97454,10.6323,10.9019,5.42608,-83.936,-860.344,-501.176,5600,-1260,-2800
8.45095,15.7728,8.57231,13.7384,10.2129,0.121005,7.85969,-0.849899,12.5389,11.8717,4.70118,12.8246,4.76827,9.65328,10.1348,8.25159,-87.84,-858.392,-503.128,6020,-980,-2100
15.6835,15.5649,9.21727,10.8009,5.3716,2.96865,6.69056,1.83506,20.9505,10.2262,7.6148,14.7046,7.88248,5.82834,4.34079,7.49906,-85.888,-858.88,-505.08,6160,-420,-1820
17.1153,13.3976,10.4967,9.50344,5.26676,0.880913,2.94384,1.36842,19.2522,14.2025,7.38448,14.2187,7.61195,2.63059,1.44532,4.76697,-91.256,-858.392,-506.544,6300,140,-980
9.55716,9.84446,6.90099,12.3822,4.37975,0.259454,7.20188,2.61908,11.8651,4.28989,2.4708,11.7745,2.48631,0.513096,6.72658,5.67005,-92.232,-858.88,-505.08,6300,700,-560
3.7386,6.05639,6.68872,7.37657,1.49263,-1.10299,5.10065,2.40483,3.56924,1.01446,1.01588,7.17459,0.368324,-0.347443,5.14144,3.02001,-94.672,-854.488,-494.344,6160,1960,-140
-4.1597,-3.79837,-0.924425,-4.23235,-8.43881,-4.24781,-4.08239,0.210557,-5.69802,-8.55728,-3.37708,-2.25371,-4.286,-6.76759,-4.89121,-4.20632,-91.744,-859.856,-495.808,5180,3500,-140
-14.927,-16.7617,-10.7508,-18.7712,-18.0844,-6.22842,-15.9116,-2.21077,-17.2763,-16.0734,-8.88067,-12.6258,-8.70964,-12.7013,-21.5198,-8.10549,-97.112,-860.344,-496.784,4200,4900,0
-21.5882,-23.3665,-11.9279,-25.6516,-20.6684,-4.89721,-21.6435,-2.85478,-25.1263,-16.5602,-9.29676,-17.454,-8.82546,-13.9251,-30.7183,-8.64808,-98.088,-866.688,-499.224,3360,6720,-280
-16.333,-22.9715,-10.1311,-19.32,-18.104,-4.01342,-16.0341,-7.3568,-21.6262,-14.3249,-4.28715,-13.7946,-7.32412,-9.74178,-20.1934,-8.63403,-102.48,-862.296,-497.76,2380,8120,-840
-1.82233,3.71831,3.68593,8.08876,7.36942,3.14675,6.62812,3.19436,-2.66981,-2.07751,0.323683,5.71825,0.511282,4.88595,10.086,7.96936,-108.824,-866.688,-499.712,1260,9240,-1120
12.2958,18.2305,5.55746,20.0582,15.8765,5.66675,16.4146,3.53858,16.6153,4.05728,1.85553,13.4448,1.92819,9.53193,24.0159,9.73868,-104.92,-867.664,-499.224,280,9520,-1260
16.3935,23.1182,7.23083,18.4104,16.554,6.10903,15.9455,3.95024,21.2408,10.5259,3.57965,13.5848,5.0152,5.48094,23.0331,8.09929,-111.752,-868.152,-491.904,140,8960,-1260
10.1921,9.12026,0.998738,4.57175,5.56551,1.66036,4.5015,-1.38376,11.2566,7.78032,3.74272,2.63123,2.01098,-0.898096,8.70133,-1.26833,-111.264,-869.616,-488.488,-840,7700,-1540
-4.4969,-7.53619,-3.5209,-10.6555,-5.43033,-1.82345,-7.0759,-4.62072,-9.15096,-0.25176,1.32498,-10.7696,-2.46724,-7.30434,-8.40741,-9.15724,-110.776,-869.616,-493.856,-1120,7140,-1820
-7.68514,-11.8712,-3.16725,-13.1947,-7.50055,-1.79453,-9.68757,-5.47643,-11.814,-1.38679,0.890886,-12.4211,-2.95988,-5.04002,-13.8497,-10.9149,-106.384,-874.496,-496.784,-1260,6300,-2100
6.21079,8.8938,4.04277,5.94559,6.19088,0.999675,2.81692,-0.486455,10.7085,5.86492,2.43141,2.14786,1.4079,3.2587,2.38528,-2.59233,-109.8,-876.448,-494.832,-1120,6020,-2800
2.60692,7.51959,-0.651136,8.71882,6.17222,2.40095,8.99699,1.76712,9.02271,2.77458,-1.40799,0.964321,-0.429588,2.70763,11.5143,3.71513,-106.872,-877.424,-497.272,-980,5600,-3080
2.9575,11.7005,7.01367,9.89295,12.3063,2.51625,9.6602,4.59356,8.43765,9.44832,-1.98725,1.79148,2.2362,4.22628,10.3452,6.56234,-104.432,-875.96,-491.904,-980,4340,-3920
-9.07428,-10.7264,-3.97673,-10.8269,-6.24172,-2.9228,-7.14512,-5.4249,-8.92677,-2.98329,-3.62586,-11.6258,-1.84771,-5.84089,-11.7386,-5.62572,-101.992,-878.4,-489.464,-1120,3360,-4620
-8.19359,-12.7603,-1.53558,-15.2097,-6.06113,-0.860492,-11.3808,-0.979418,-11.0596,-1.16702,-0.870594,-9.75149,2.56313,-4.08484,-16.8989,-2.3971,-102.968,-874.496,-487.024,-1120,1960,-5320
-3.67957,-13.3824,-4.25863,-11.6503,-7.97074,0.32979,-8.03311,-0.0510226,-6.84818,-2.57579,0.155081,-8.03895,4.14426,-3.31378,-11.1031,-0.748597,-98.576,-873.52,-485.56,-1400,840,-6300
1.00694,-4.10518,-0.116326,0.926524,2.30975,4.38138,3.30472,5.902,-2.9931,1.65422,1.12665,0.230327,7.16709,5.23897,4.39375,8.19928,-96.624,-878.4,-492.392,-1540,-140,-6720
6.28393,-0.375448,0.16422,2.80228,1.30676,4.03016,4.04653,3.60249,4.60995,-1.37453,2.71013,3.60735,5.08074,6.96418,5.53746,4.56251,-93.696,-874.984,-489.464,-700,-420,-7560
-0.348536,-5.49662,-2.82939,-0.824868,-2.81397,-0.0791852,0.266663,-2.83347,-4.67591,-7.23326,-0.491805,-0.1327,0.590188,3.81785,5.50116,-1.83213,-93.208,-874.008,-490.928,-280,-840,-7840
-3.71269,-0.176853,-1.53179,3.53503,0.63558,-0.445516,4.29059,-0.589156,-5.26815,-6.03156,-1.79024,1.78264,-0.63626,3.08331,9.08995,1.0751,-91.744,-872.544,-488.976,0,-1400,-8260
-9.70043,-11.3154,-7.49589,-7.96696,-8.65084,-1.3158,-3.6099,1.77594,-15.3388,-7.54453,-2.50573,-6.0335,-4.32299,-3.74832,-6.66181,-3.90322,-91.256,-866.688,-489.952,140,-1540,-8540
-6.83881,-7.1199,-5.92831,-6.4463,-8.52881,0.295187,-5.5085,2.93093,-8.22041,-7.40854,-2.64648,-1.33386,-3.69473,-1.61673,-9.57258,-4.36682,-92.232,-862.296,-486.048,0,-1540,-8540
-0.00434481,3.15468,1.93049,-0.675723,-2.70822,-2.58443,-4.68243,1.61277,0.597633,1.84109,-1.08046,4.10923,-4.47865,3.40231,-8.80696,-5.11076,-88.328,-860.344,-479.704,-560,-1960,-8820
-3.56062,-3.80877,0.161756,-4.37865,-7.52768,-3.95298,-4.2942,-0.522986,-6.03616,-1.6022,0.577795,-0.431233,-6.82678,0.144399,-9.39381,-6.36309,-91.256,-862.784,-483.12,-840,-1960,-8960
4.81107,6.64411,6.7027,8.80413,3.62121,-0.632455,6.36923,4.37291,6.03309,1.88439,1.05246,6.9294,-4.51051,6.37282,5.16124,1.5517,-89.304,-863.272,-486.048,-980,-1960,-8400
14.2484,20.3848,11.4676,23.736,13.3025,3.24148,15.5434,6.88908,19.9323,4.46415,1.2827,13.824,-0.142618,8.09294,21.3464,8.65912,-86.376,-863.76,-491.416,-1260,-1960,-7980
10.5298,14.8727,7.47997,16.4935,10.8551,3.1768,9.54918,2.81441,14.7516,5.07888,0.703338,9.10566,-0.645519,2.06918,14.4459,5.70814,-88.328,-860.832,-493.856,-1120,-1680,-7700
8.73209,9.85811,6.45623,9.07323,10.5073,3.56254,6.0143,1.82149,8.60415,6.56684,2.66192,6.29757,1.97226,-0.569582,6.79876,4.26939,-86.864,-861.32,-496.296,-560,-1680,-7140
9.43363,3.11706,0.349363,-0.601519,2.89106,-0.477814,-1.8887,-5.40951,10.7923,4.89125,2.94776,1.96747,2.05601,-2.30785,-2.48441,-1.12265,-85.4,-859.856,-493.856,-140,-2100,-6580
6.04836,5.40456,1.8673,-1.37726,4.63176,-2.28896,-3.14837,-1.24377,9.37511,7.76302,3.59915,2.09972,4.54125,-4.26098,-3.42702,0.94797,-84.424,-857.416,-493.368,420,-2660,-5740
-7.65142,-10.0844,-9.32952,-12.8954,-6.98658,-5.85954,-9.09485,-2.80276,-7.84425,-2.76031,-1.27359,-10.4259,-2.27673,-13.6364,-11.0374,-6.26128,-84.424,-856.44,-496.296,280,-2380,-5320
-9.36864,-5.21456,-7.07959,-5.04114,-0.307011,-1.84597,-1.56875,2.90642,-7.96844,-2.72389,-2.84399,-4.74169,0.956508,-7.43166,-1.22558,-0.5881,-83.936,-854.488,-505.568,140,-2660,-4760
-0.479925,0.189716,-3.34096,0.34141,2.92755,-0.414835,-0.223726,1.40153,3.86866,2.99058,-0.188854,1.55105,4.28602,-1.96281,1.05754,0.774371,-81.496,-852.048,-508.984,560,-3080,-4200
2.26601,4.6792,1.71403,2.65733,6.62255,1.09164,2.72649,0.65351,6.223,6.78889,1.9996,6.85142,6.40884,1.42582,2.94424,5.06248,-77.592,-853.512,-508.496,840,-2660,-3780
4.57683,3.47477,4.239,0.550849,3.94783,-0.58794,2.92361,-4.10557,5.33064,9.14868,4.68653,7.73094,6.11783,4.10002,5.3616,5.20594,-79.544,-847.168,-509.96,840,-2660,-3220
9.83758,7.44215,6.12802,1.89661,2.27468,-2.2579,1.70476,-5.40692,10.2348,10.5765,6.98522,9.01679,4.89224,3.15931,5.06637,2.63528,-81.984,-849.608,-511.424,1540,-3080,-2660
4.09702,2.48804,0.519334,-1.06269,-3.64324,-2.6414,-1.58082,-5.2555,5.44263,2.02966,4.78877,5.52088,3.85001,2.32356,0.425001,0.626348,-83.448,-847.656,-510.936,2100,-3220,-2100
-7.92309,-1.67779,0.144716,0.108802,-1.68388,-0.63566,0.933862,1.06544,-10.3997,-5.04498,-2.19523,1.06716,1.30633,5.61518,0.577218,5.50804,-82.96,-844.24,-506.056,2240,-4060,-1260
-21.4936,-19.2147,-14.5378,-12.429,-18.5146,-3.44074,-8.68215,-8.25031,-25.8926,-20.6857,-9.7253,-14.877,-8.13907,-5.70511,-9.45588,-3.6499,-84.912,-841.8,-504.592,2660,-4480,-1120
-22.0695,-17.2704,-12.2083,-13.6727,-17.0456,-2.47596,-11.8081,-6.76928,-28.0014,-19.1287,-11.2024,-18.2909,-9.26456,-5.05291,-13.5859,-5.67205,-85.888,-841.312,-504.592,2660,-4200,-700
-13.7574,-11.6882,-8.79022,-8.77971,-14.1799,-0.188326,-9.55552,-7.74594,-19.726,-18.2561,-8.10317,-14.0274,-9.62391,-2.13247,-9.7705,-7.53706,-85.4,-839.36,-507.52,2940,-4480,-140
-5.25219,-4.38445,-2.79686,-6.77858,-7.87923,1.02405,-9.02238,-4.51103,-8.90245,-7.87728,-3.96834,-9.74037,-5.91851,-0.136124,-10.3738,-7.70152,-86.864,-845.216,-508.008,3220,-4480,140
7.46716,2.70344,1.77355,4.38215,-0.381633,3.98181,1.49395,1.2852,7.57938,2.09758,1.7587,-2.23168,-2.25869,1.5014,2.03584,-3.70803,-89.792,-842.288,-508.008,3640,-4900,420
10.2267,5.45626,6.3064,4.40561,4.90508,4.07902,4.08098,5.04238,10.331,8.16001,2.37195,-1.80869,-1.75291,0.356327,3.96594,-1.88559,-90.28,-843.752,-505.568,3780,-5040,840
0.80851,4.67757,7.82151,3.21713,6.42607,4.71088,5.37639,8.41817,0.468467,3.7223,-0.561391,-3.9363,-3.38457,-1.61463,4.82138,1.61404,-87.84,-843.752,-503.616,4060,-6300,840
3.28748,5.9531,8.23101,1.53246,5.46648,2.17968,2.45705,3.68887,5.14046,5.84963,0.255039,-2.17155,-4.07576,-4.57687,1.35794,-1.41855,-92.72,-846.68,-503.128,4760,-7420,1120
-0.689746,2.05489,6.86618,1.98047,4.98745,1.59027,5.01363,2.35357,2.84731,4.05419,2.43116,-0.153028,0.821711,-3.11005,2.59477,-0.400637,-92.72,-847.656,-500.2,5320,-8540,1120
-1.87441,-3.71182,6.22802,-1.35941,4.12035,0.0267362,0.424606,2.55267,-2.09161,8.2612,4.01894,0.124112,2.67308,1.71793,-3.66952,-1.38346,-92.232,-851.072,-500.2,5880,-9380,1120
2.96184,-0.0330806,3.44311,3.39264,3.97361,0.272962,3.74316,4.49539,3.70104,4.01724,3.41753,2.01417,3.6571,4.28115,0.734021,0.42637,-94.672,-853.512,-499.224,6020,-10220,980
9.37251,6.68819,5.01321,11.1847,9.39245,1.10086,10.0338,7.31875,10.4027,5.83915,2.51387,7.63049,5.28079,8.26704,11.0118,5.71921,-95.16,-854,-503.128,6580,-11200,840
8.5381,0.481535,-0.94521,1.70117,2.0806,-1.3675,0.524281,2.29196,8.59372,1.99476,3.00601,4.5215,4.72933,3.30541,-1.77032,-0.396653,-99.552,-866.2,-500.688,7140,-11900,700
5.38882,1.09514,-6.28558,5.54792,2.81938,-2.05609,1.71927,-0.837737,9.08606,-1.40901,-0.0451915,6.13569,3.79959,5.00055,4.77427,1.71656,-94.672,-856.44,-502.152,7560,-11620,840
9.22311,8.06284,-0.866443,12.5696,11.3425,2.65106,8.74922,7.0115,12.8743,1.98206,-0.566954,13.515,7.12686,8.37527,13.6139,11.3477,-96.624,-857.416,-501.664,8120,-13580,280
1.84754,-2.19467,-4.56589,6.95239,4.2357,2.46368,8.17517,5.1746,1.97507,-5.78639,-2.58068,8.36047,5.55259,4.43788,12.2741,10.2789,-97.6,-859.856,-498.248,7700,-13160,0
-3.81022,-5.05159,-2.28416,-1.17152,2.11786,0.579697,2.73829,2.74764,-5.79537,-0.0601314,1.50177,5.48915,6.44098,3.24024,4.65935,9.25474,-99.064,-864.248,-496.296,7420,-11620,-560
-1.88168,-9.65707,-7.44185,-9.31475,-6.52308,-1.71835,-3.74435,-3.68699,-4.59304,-1.41261,3.53312,0.286094,2.487,-1.45431,-4.7351,1.8025,-100.04,-864.736,-495.32,7000,-10360,-1260
3.48522,3.16177,-3.78095,-2.72525,-2.42937,-2.18608,-4.06844,-7.1494,7.61436,1.52989,1.10782,6.24639,0.4471,-5.89951,-3.29059,-0.800137,-104.432,-865.712,-492.88,5880,-9520,-1820
7.57361,8.36169,-2.32125,-0.213745,-2.58923,-4.22757,-6.96125,-11.1405,12.9063,3.07506,0.478735,6.2352,-2.94548,-7.81805,-3.93904,-5.34061,-104.92,-867.176,-489.952,4900,-7980,-2520
8.82561,14.3859,4.88088,6.59312,4.94825,-0.396241,0.162445,-6.88333,10.6349,6.14578,1.62995,7.57067,-0.0995796,-3.47185,5.39175,-1.64556,-99.064,-871.08,-491.904,3640,-7000,-3080
-0.755475,1.78835,1.86401,-4.32292,-2.48117,0.137761,-4.28601,-7.78244,-3.89943,0.0969376,0.256603,-0.728909,-1.8478,-4.93738,-4.2601,-5.51177,-99.552,-873.032,-488,2660,-5180,-3920
-10.4877,-5.72646,0.42952,-10.7599,-8.37672,-1.04131,-7.78927,-4.0226,-14.8924,-6.67692,-4.34367,-9.1024,-6.54421,-4.45039,-12.3663,-7.60858,-103.456,-873.032,-490.928,1680,-3640,-4620
-11.1559,-6.13737,0.755306,-8.94116,-8.06712,-1.34621,-5.87544,-0.959152,-13.4361,-7.06224,-3.55716,-10.6478,-6.29731,-3.40662,-8.75718,-6.48641,-100.528,-873.52,-488.976,0,-2520,-5320
-10.0927,1.61188,3.78721,-2.2285,-0.580938,-0.301534,-0.575431,5.98614,-10.3803,-2.1955,-3.76096,-7.95094,-4.12846,0.727196,-2.35947,-2.12713,-100.528,-875.472,-487.024,-1400,-980,-6300
-9.8883,-3.5155,-6.0215,-8.01956,-10.6932,-2.39668,-4.76651,-1.67247,-9.1555,-8.51024,-4.84237,-12.3507,-6.84938,-5.93148,-7.43877,-8.49312,-100.528,-876.448,-486.536,-2380,-280,-7000
6.73848,13.1213,4.8154,5.44216,3.81351,2.94785,5.23985,4.72034,7.66102,6.20223,3.14996,1.74096,1.06226,4.28711,3.64573,0.876518,-99.552,-877.424,-487.024,-3780,420,-7840
-3.28752,-3.30523,-2.15406,-1.74445,-3.37784,2.0493,3.08657,3.80204,-7.42257,-0.971967,2.03275,-7.50888,-2.67577,1.36717,0.606301,-0.352897,-100.04,-875.96,-488.976,-4760,700,-8120
-19.7693,-20.8944,-9.09101,-15.0649,-13.9755,-1.31843,-9.66185,0.306764,-28.579,-10.3717,-4.16855,-17.6053,-7.08395,-7.03606,-15.2606,-8.20432,-96.624,-877.424,-483.608,-6300,1540,-8540
-3.94532,-7.75024,-4.41488,-3.20107,-6.74368,-0.465213,-7.65624,-3.58651,-6.31971,-3.14168,-0.246708,-3.65447,-2.01508,-5.106,-9.21241,-8.43767,-95.648,-876.448,-486.536,-7280,1820,-8820
2.30091,-1.34616,2.89924,4.7734,3.99522,1.20701,0.985945,2.35465,-1.08259,5.65278,3.5009,2.71947,4.36232,2.91357,1.05163,0.733043,-94.184,-874.496,-487.512,-7700,2100,-9100
1.27951,-0.301285,5.81671,6.58902,8.09377,1.11113,3.23924,4.79153,-0.24513,5.4752,5.00417,4.33495,5.58417,6.37249,2.27728,3.19542,-92.232,-874.008,-490.928,-7840,2100,-9100
-8.21343,-14.0628,-2.51141,-8.80011,-4.74108,-5.26881,-10.1238,-2.76478,-10.9758,-2.64118,-0.259067,-6.4105,-1.10723,-2.67912,-13.9713,-5.95767,-88.328,-873.52,-488.488,-8120,2380,-8960
-7.18161,-14.15,-1.54127,-9.84196,-7.17801,-2.6978,-7.5985,0.417318,-7.93524,-4.18834,-2.25849,-4.86626,-0.890221,-2.20843,-11.1041,-1.6717,-89.304,-870.104,-490.928,-7840,3080,-8680
17.209,11.1067,11.2133,13.6015,13.6547,3.42257,12.7536,10.1933,23.0904,10.0644,-5.43719,13.8549,-0.232451,12.3301,15.0873,15.1865,-89.792,-868.152,-497.272,-7420,3360,-8540
25.3329,24.0405,12.6159,25.1432,20.4817,6.76796,21.0842,13.5609,36.0831,10.0762,-5.88684,20.7297,1.0559,14.064,28.1502,22.566,-89.792,-865.224,-496.296,-6720,3360,-8260
23.6889,24.7759,8.44716,22.4481,18.6274,4.99765,16.4735,6.14518,35.373,11.1588,1.919,17.0558,4.6093,9.93605,26.6571,16.8305,-89.304,-859.368,-493.856,-5460,2940,-7840
0.266512,0.977921,-7.14156,2.11448,0.764647,-2.48398,2.02061,-4.44433,7.41527,-2.80886,4.29365,-5.25827,0.725652,-4.05052,9.31181,2.69253,-87.84,-860.832,-496.296,-4480,3080,-7280
-11.8588,-13.985,-13.825,-10.3617,-7.56023,-5.30325,-6.44512,-9.25096,-11.7032,-8.39112,4.08636,-14.6232,0.138253,-9.44657,-1.59219,-6.11818,-87.84,-858.392,-493.856,-3080,3080,-7000
-8.69503,-9.66986,-6.73528,-9.60834,-3.65776,-2.71549,-4.93693,-8.21735,-12.9955,-1.97337,2.40697,-7.75514,3.51869,-5.74015,-2.58881,-5.34444,-84.424,-858.88,-501.664,-1820,2520,-6720
1.27158,-0.329352,-3.00702,-4.09525,-2.88277,-0.733735,-2.84534,-10.8288,-1.64426,1.45587,2.29106,2.73146,4.27044,-3.51741,0.305857,-5.24256,-86.376,-854.976,-498.248,-1120,2520,-6440
13.8071,19.5258,10.8704,9.9341,11.6821,5.76546,7.86474,1.05447,12.5453,13.4873,5.51068,18.1265,9.87223,5.35792,8.36862,5.80953,-84.424,-852.536,-499.224,-140,2520,-6300
11.3026,12.4483,7.9264,8.54496,5.18483,5.07937,9.26461,1.01143,9.87773,7.4998,5.411,12.4737,4.96164,5.05828,8.09188,6.50905,-84.912,-853.024,-499.224,420,2380,-6020
7.66122,13.546,11.0461,12.4601,8.06046,5.67703,12.2075,4.32448,6.25355,5.02724,4.38613,13.5567,3.95937,7.60925,10.7996,8.38238,-85.4,-851.56,-500.688,980,2100,-6160
-1.8468,0.171422,2.08272,2.46435,-0.945684,1.11965,3.66682,-0.783395,-3.4477,-4.37944,-0.669019,4.47163,-0.467105,1.26551,-0.76331,-1.10094,-87.352,-850.096,-500.2,1400,1120,-5880
-10.0652,-5.5755,-1.71455,-4.9357,-5.55695,-0.427565,-3.1956,0.957772,-10.0668,-11.1009,-5.90618,-2.43343,-1.05646,-1.59929,-8.23234,-4.2188,-86.376,-849.12,-497.272,2240,420,-6020
-12.6278,-15.3341,-9.16575,-14.9091,-15.3097,-3.35586,-14.8045,-0.274457,-11.0455,-14.9361,-6.26209,-11.6677,-4.07491,-5.39618,-18.1532,-9.46151,-86.864,-847.656,-499.712,2520,0,-6300
-13.4685,-18.2731,-10.981,-16.9693,-14.9139,-3.85328,-17.6448,0.850891,-15.2176,-11.9205,-4.77701,-15.6876,-4.95626,-7.33219,-21.2265,-9.38976,-87.84,-849.608,-503.128,2800,0,-6300
-11.1656,-12.5761,-8.63858,-10.7668,-10.3611,-4.00191,-13.3697,-1.97971,-13.1856,-9.38835,-2.08449,-11.5626,-5.34445,-7.15837,-14.7772,-8.79665,-85.888,-849.608,-499.224,2660,-140,-6580
-0.637717,3.98934,-0.11736,1.20944,2.08796,-2.89144,-3.86857,2.85749,-0.192187,0.894864,-1.99894,-2.25404,-4.74001,-0.388511,-4.98879,-1.9591,-84.424,-849.608,-501.176,2800,-560,-6860
-2.32596,-4.24441,-7.10144,-5.91621,-7.2864,-7.49239,-8.51195,-4.77933,-3.11384,-4.71169,-4.00777,-7.0925,-7.38465,-4.7762,-11.295,-9.53759,-85.4,-849.12,-498.736,2940,-1400,-7000
-1.28558,4.01884,-0.389161,1.26711,2.56043,-7.66969,-2.96456,-4.5178,-2.12998,0.526015,-2.78089,-2.80462,-3.14969,-0.517641,-2.93122,-6.74706,-87.84,-847.656,-500.2,3220,-2240,-6860
-4.64262,-1.983,-3.42686,-3.47214,-1.60582,-6.10926,-3.34405,-6.06538,-3.67125,-3.30113,-1.16272,-6.84077,-4.03945,-4.8718,-5.36352,-7.86474,-86.864,-849.608,-500.2,2940,-2380,-7000
2.96054,4.50768,3.40598,2.86017,5.14671,1.17781,6.35293,2.05368,4.99688,5.35674,4.68559,0.238274,-0.719882,0.540134,3.04651,2.93539,-86.376,-853.024,-499.712,3080,-2940,-7140
5.74865,4.61677,4.48461,3.78671,3.1281,6.11278,10.9213,4.58897,4.89284,6.19198,3.52825,1.33404,-0.388448,1.71151,6.76011,6.16906,-86.376,-851.56,-499.712,3780,-3920,-7000
5.67541,1.08409,3.70611,0.0691698,-1.55964,6.39091,8.48358,5.80103,2.52186,6.34029,0.309939,-0.14645,-1.38066,2.3745,6.69115,5.46976,-87.352,-852.048,-494.344,4340,-4760,-6720
-2.7144,-2.28412,0.931105,2.37949,0.704681,6.17181,12.3235,9.97135,-5.78288,3.00524,-3.18949,-3.43826,-1.95082,3.26227,15.404,10.3693,-87.352,-853.024,-497.76,4620,-5600,-6440
-6.07726,-7.63842,-3.31546,-3.06079,-1.0561,0.447135,3.63052,1.43014,-9.19571,0.887959,-4.70118,-6.4765,-3.55814,-0.321135,6.17743,2.80178,-86.864,-855.464,-498.248,4900,-5460,-6440
8.11963,11.723,7.31315,12.9151,11.9079,5.35577,11.6916,2.36051,11.7792,8.46834,2.32264,11.0362,4.28763,6.17466,17.0667,8.04908,-89.304,-854.488,-494.832,4900,-5180,-6160
15.4141,15.1705,9.32804,11.605,9.68672,3.69153,4.11985,-0.93486,20.7009,13.3383,6.00158,14.8098,6.16721,5.67603,8.77172,2.62239,-82.96,-855.464,-501.176,5320,-5320,-5740
1.80142,-5.50247,1.09136,-8.17472,-5.95572,1.31529,-11.1265,-5.95485,-0.523619,4.05518,4.73895,3.13931,5.75416,-0.645958,-12.6383,-4.23173,-90.28,-857.904,-501.664,5600,-5460,-5460
-3.91206,-9.91692,-2.37955,-9.39078,-5.62705,0.25177,-11.3881,-6.46967,-7.00574,1.47192,1.63046,0.197269,4.76665,0.302453,-9.22057,-2.36493,-87.84,-859.368,-498.736,5600,-5460,-4760
-5.1518,-8.45273,-5.64865,-9.75012,-6.56979,-3.54231,-13.9805,-6.23267,-4.32414,-4.04922,-2.26591,-3.40727,-0.00386862,-3.97962,-11.7772,-5.66711,-87.352,-858.88,-504.104,6020,-4900,-4480
-7.15373,-8.93081,-6.26868,-6.92912,-3.17534,-4.89617,-9.3673,-6.20565,-6.63529,-7.73154,-4.512,-3.68867,-2.36782,-4.85458,-5.94997,-3.98567,-89.304,-860.832,-505.568,5880,-4620,-4200
2.79866,6.83889,3.02166,9.27511,11.0951,1.16566,5.62253,1.35894,5.9636,-2.24467,-2.51578,8.32774,1.79921,4.87336,9.6325,6.39175,-89.792,-858.392,-500.688,6300,-4620,-3500
6.02309,3.96846,1.99513,7.53117,5.67097,2.57151,5.74621,0.932556,6.65931,-2.29029,1.7395,6.16004,2.69361,2.31769,8.49721,5.45906,-89.304,-859.856,-502.64,6720,-5040,-2800
-4.52486,-3.75149,2.57997,-0.665399,1.34272,-0.0318582,-1.03986,4.09432,-9.07953,-2.0807,2.21498,-2.41971,4.30683,-1.65034,-1.39074,4.15218,-89.792,-859.368,-500.688,7420,-4760,-2380
-18.9156,-22.6369,-9.01906,-16.6315,-15.5952,-5.24002,-12.4167,-2.83415,-27.2608,-13.2529,-1.8359,-17.7176,-2.53224,-11.6632,-17.6787,-6.80545,-89.792,-862.296,-501.176,7840,-5040,-1820
0.395502,4.35075,4.87351,5.70553,0.652916,0.645832,2.76192,3.01667,-0.884031,3.70102,4.86274,2.96951,4.72107,-1.06691,1.13593,2.52247,-92.232,-866.688,-503.128,8540,-4620,-1260
7.5988,9.7353,3.16075,7.57965,1.97531,-1.58694,0.294893,-1.01304,11.012,3.87436,3.21444,6.32562,1.38095,0.899671,0.356414,-2.61056,-93.208,-865.712,-499.712,8680,-3780,-980
10.8184,13.0504,1.68786,7.79929,5.74504,-2.08079,0.788468,-0.114922,15.5338,3.15712,0.82271,8.38133,-1.90264,2.09983,-0.53265,-2.63458,-93.696,-865.224,-498.736,8540,-3500,-980
10.205,10.1358,-0.723939,8.20279,4.9208,-0.610327,3.66509,-0.164491,16.6273,1.90014,0.391286,8.10539,-3.88644,3.88449,3.10076,-1.76898,-92.232,-866.688,-496.784,7980,-2940,-980
7.92611,11.5162,0.392757,12.2601,10.2132,0.751472,9.68991,3.80011,16.3702,0.771585,-1.14539,8.85764,-3.55613,5.50678,11.9821,1.63717,-93.696,-867.176,-501.176,7700,-2800,-980
-9.04155,-7.22146,-6.37574,-1.31763,0.331703,1.11989,7.03275,6.45128,-4.39567,-7.19722,-3.03385,-2.18104,-3.266,2.29865,4.84122,1.38531,-89.792,-869.128,-498.248,7000,-3640,-700
-8.68207,-8.66784,-0.624454,-7.78843,-1.86054,3.29897,4.25619,8.63614,-9.22446,-0.819263,0.125418,-5.47864,0.668057,4.61269,-0.630488,1.7842,-91.744,-868.64,-495.32,6020,-4340,-1120
8.24824,9.20831,6.28573,9.07533,1.60135,6.06293,11.6462,2.93646,12.9793,2.52876,4.16064,6.48189,5.76009,7.44087,12.7496,2.29217,-92.232,-869.616,-497.272,5320,-5040,-1120
10.822,17.8464,13.3985,17.7651,10.8685,6.14507,17.1281,5.10422,13.1998,10.8987,5.96755,10.8725,10.5622,9.18304,21.5913,8.53694,-91.744,-868.152,-494.344,4900,-6160,-1400
4.59155,2.93693,3.29941,2.39801,-2.02557,-1.32549,5.89281,-3.79084,2.48476,1.30345,3.85968,-4.74615,3.0341,-2.88626,6.81755,-0.25627,-92.72,-870.104,-493.856,4200,-6440,-1680
-0.621146,-7.70394,-2.8046,-13.1459,-11.8316,-8.41673,-11.4821,-9.8637,-6.34475,-3.5833,-0.955558,-13.8428,-2.73219,-10.9527,-13.558,-10.2381,-92.72,-873.52,-493.856,3360,-6720,-1820
-7.35631,-10.3556,-7.21979,-10.9165,-10.1623,-5.40623,-9.76435,-4.59688,-16.5776,-7.14888,-6.89135,-14.7594,-5.40977,-8.45826,-8.99146,-5.26727,-91.256,-872.056,-488.488,2520,-6580,-2100
-13.8767,-11.9339,-10.1824,-10.3953,-10.3136,-3.19073,-7.65077,-0.0538819,-23.6058,-8.50634,-10.2923,-16.198,-8.98973,-6.30972,-7.93582,-2.36617,-90.28,-879.376,-484.096,2100,-6860,-2100
-1.78982,-0.777677,-0.997664,-7.71721,-3.42546,2.28952,-6.91227,2.5521,-7.63193,3.21422,-3.4846,-5.43044,-0.985746,1.23981,-12.7704,1.7815,-92.232,-879.864,-482.144,1120,-6860,-2380
7.05818,11.9751,4.96008,5.63673,6.71822,4.49075,3.17967,3.41359,8.71015,5.9228,-2.52725,4.45906,0.686961,6.11595,0.250145,8.54847,-92.72,-878.888,-477.264,140,-7280,-2800
9.14918,18.8825,7.6848,12.5954,12.3797,4.82468,6.17008,0.557718,16.0062,7.03452,1.60497,10.3595,2.68503,4.32705,6.04008,9.38188,-90.768,-880.84,-481.168,-700,-7420,-3640
-4.62263,-4.38808,-6.08392,-7.10267,-1.17473,-1.66825,-8.0432,-6.50255,-1.43875,-1.97455,-0.0540175,-4.27478,-3.85964,-5.46891,-12.4,-2.75408,-91.744,-877.912,-485.072,-1400,-7700,-4060
-25.1668,-29.7736,-17.7644,-25.7622,-18.7893,-5.98141,-17.9989,-7.17001,-28.3981,-16.2874,-4.29466,-18.3888,-8.17482,-13.9369,-24.9252,-10.3438,-89.304,-874.496,-486.536,-1960,-7980,-4480
-21.3532,-26.3243,-12.5979,-21.7655,-19.1316,-3.68716,-15.9299,-5.34011,-27.3692,-10.1632,-3.63287,-13.3371,-6.43881,-9.70986,-18.4594,-9.54382,-86.864,-870.104,-487.512,-1960,-7980,-4480
-4.72472,-8.23229,-0.964841,-5.60504,-5.87329,0.0759315,-4.35489,0.379698,-8.49523,-0.0660025,-0.455239,1.11341,-2.297,-1.96044,-1.87451,-4.46887,-88.328,-866.2,-490.928,-2380,-7700,-5040
7.01688,4.74929,6.19714,3.03171,5.93327,2.74484,0.495063,2.08622,7.53596,7.94442,2.38559,13.7768,4.37175,4.69524,2.92789,-1.34041,-77.592,-860.832,-498.248,-2520,-7560,-5460
15.4295,16.7173,11.839,13.4173,14.9901,3.81906,6.77569,6.20664,20.0502,12.3044,6.51455,22.1353,6.79646,8.66752,12.6355,5.20685,-77.592,-867.176,-492.88,-1960,-7560,-5740
17.2731,13.4583,8.79876,12.2303,12.8302,2.41069,6.43902,4.23019,20.7195,9.07309,7.64543,18.9772,3.9235,9.90475,14.2842,3.33506,-83.448,-869.616,-491.416,-1260,-7140,-5880
11.1247,16.901,9.58909,18.26,20.5976,3.03844,13.6549,11.8215,15.2726,7.72382,3.58613,16.0194,4.06942,12.6151,21.9911,8.76502,-83.448,-867.664,-490.928,-280,-6160,-5740
-4.12223,-3.5501,-3.55035,2.4948,3.65116,-2.44206,4.12576,2.17346,-3.1038,-6.08007,-1.33453,-2.69625,-1.87071,-0.257325,12.6275,-0.568446,-89.304,-865.224,-490.928,420,-4200,-5880
-4.57108,-4.97251,-3.22312,-2.76605,-0.0804721,-2.91254,-0.658082,-1.96201,-5.09775,-5.05368,-2.32755,-6.22789,-1.87346,-3.38464,4.04633,-1.87003,-88.328,-863.272,-487.024,980,-3080,-5740
5.30373,-2.56605,-3.14979,-0.992717,-4.53291,-5.15244,-4.63114,-9.98043,5.12819,-2.61955,-0.315784,-4.38849,-2.58117,-5.34923,-3.30969,-5.93675,-88.816,-862.296,-488.488,1120,-1400,-5460
11.4741,6.86056,5.1402,3.71758,0.703951,-2.38208,-2.47176,-5.9358,14.9063,4.15324,2.04858,2.16219,0.453827,-1.89713,-3.92812,-1.97885,-90.768,-861.32,-488.976,980,280,-5600
3.61657,-1.24222,2.99268,2.78048,-1.80377,0.013957,3.86856,-1.83242,4.82468,-0.396183,1.14383,-1.98131,-0.365515,1.0131,3.0733,3.33597,-91.256,-856.44,-490.928,840,1960,-5320
-0.451815,-2.63741,2.82549,2.56105,-0.985467,1.59945,6.99867,1.78873,-1.34999,0.790691,-1.73761,-3.63331,-0.498227,1.13824,5.29649,5.02197,-95.16,-854.488,-493.856,700,3080,-5040
-6.1738,-2.54364,0.699339,2.25456,-1.31062,1.51418,4.54065,-0.344742,-5.2008,-3.25877,-3.31965,-6.34492,-0.651306,0.099617,2.86308,3.20896,-98.088,-854.976,-499.224,280,3640,-4760
-6.79058,0.622828,3.18398,1.89344,0.935387,1.87416,3.66347,0.952504,-8.27377,-2.37561,-0.691692,-4.83668,2.98724,1.27602,2.22273,3.73221,-100.528,-854,-496.784,280,4200,-4480
-14.5804,-13.7472,-5.63449,-11.187,-11.2984,-0.434026,-3.5929,-2.55363,-19.0088,-10.0861,-0.614716,-11.7838,3.104,-4.42709,-8.03695,-2.43285,-102.48,-852.536,-506.544,280,4760,-4340
-16.3715,-14.4038,-5.91317,-16.9156,-11.1828,-2.38617,-9.99244,-2.80195,-18.684,-6.19791,-2.58921,-12.322,2.94836,-5.5456,-19.1642,-6.21057,-104.432,-854.488,-507.032,420,4900,-4480
-2.98397,-6.41374,-5.52232,-13.4626,-12.2406,-2.89242,-13.7585,-7.22314,0.216503,-1.81413,-0.0373019,-6.54662,-0.879021,-8.59491,-24.8258,-13.3,-108.336,-851.56,-510.448,560,4760,-4480
7.60457,9.09904,4.03709,4.9957,1.97059,0.521393,0.492576,-0.9773,8.47381,9.29534,3.17115,5.91353,1.43311,2.28654,-4.73403,-0.608544,-107.848,-854,-511.424,840,3920,-4480
0.754346,4.37829,-0.161311,4.87383,0.79734,1.04132,2.43619,-0.41814,-0.127197,3.29981,0.727611,2.50063,-0.403473,0.460124,-2.20323,3.10975,-104.432,-852.536,-508.496,840,3780,-4620
-2.07787,0.702993,-4.92262,3.25509,-1.64425,-0.717772,1.20494,-2.89555,-1.56888,-2.43688,-0.736145,1.25829,-3.11719,-1.35013,-0.801497,-0.395263,-102.48,-852.536,-506.544,560,3500,-5040
-0.489106,1.53086,-1.70048,3.9063,1.18437,1.22261,4.06205,3.14118,-0.555454,-1.31076,0.829717,4.13731,0.466847,0.698653,2.93103,2.04057,-104.432,-850.584,-510.448,280,3220,-5460
3.04721,-0.270566,-1.42764,1.47284,-1.69457,0.990641,-1.53186,1.07252,1.53052,-0.29794,2.1307,2.63037,0.654077,-2.78072,-0.979202,-2.25655,-99.552,-854.488,-508.984,280,1820,-6160
28.2326,30.0431,13.045,27.7301,19.4673,8.68064,15.8953,10.499,34.0438,16.2183,8.31032,25.5629,6.66118,10.3307,22.8006,11.9262,-97.6,-857.416,-505.568,0,1120,-6580
28.8618,31.4855,13.7299,29.6665,23.5997,9.57231,19.9394,15.2314,34.2213,16.9742,5.28789,25.2066,3.42634,15.2145,27.7172,17.0321,-95.648,-858.392,-506.544,-420,280,-7560
10.517,16.2802,4.23214,14.4032,12.4154,5.42878,13.0523,11.7765,14.4018,4.4682,1.65722,11.4824,0.716664,8.09803,19.502,12.1395,-93.696,-861.32,-509.472,-560,-560,-8260
-17.2311,-16.452,-13.2415,-16.1533,-7.94675,-1.68134,-5.88106,3.12153,-20.1219,-10.4306,-5.39065,-13.1013,-6.38521,-4.05885,-7.60338,-1.62669,-91.256,-863.76,-509.472,-280,-1680,-8680
-23.4857,-22.1417,-18.5463,-21.6045,-13.3731,-4.41236,-10.6925,-0.231087,-25.986,-16.649,-10.0772,-19.1594,-8.36609,-8.92818,-13.0615,-6.76882,-88.816,-859.856,-506.056,280,-3080,-9100
-23.5592,-27.3318,-16.8083,-27.4367,-15.169,-7.72977,-17.8034,-7.00295,-30.2703,-13.8561,-7.82709,-21.9525,-6.83393,-10.2961,-20.7864,-10.5644,-86.376,-864.736,-504.104,700,-3780,-9380
-24.9458,-28.2844,-12.0711,-25.9175,-13.0696,-9.68127,-17.0117,-10.3379,-36.4889,-9.46513,-5.50994,-21.2392,-7.03067,-9.8406,-18.0701,-12.3351,-84.424,-866.2,-503.616,1120,-4200,-9660
4.65831,-2.51536,-0.315609,-6.66461,-3.87561,-6.04139,-8.42551,-10.7175,4.37031,6.59816,3.41361,-0.168507,0.163313,-2.429,-2.38354,-9.9509,-81.984,-865.224,-503.128,1260,-4480,-10080
19.0988,16.5058,15.8508,7.83502,11.6108,3.75047,2.67795,4.01423,22.2393,17.0543,5.97957,15.4276,8.47983,10.039,7.65876,3.33483,-80.52,-867.176,-503.616,980,-4900,-10220
21.6792,18.8976,14.4838,16.241,13.4639,4.97506,8.82114,1.65385,25.8386,9.84013,4.86102,17.9486,7.37039,11.8504,19.2513,5.76546,-78.08,-868.152,-499.224,840,-4480,-10360
15.3043,22.4418,13.5797,20.1832,17.7647,5.31994,13.8247,3.68549,21.7178,8.3451,0.384079,18.1352,7.23772,11.0536,24.6376,11.3463,-74.176,-866.2,-497.76,560,-4480,-10220
-0.852951,-0.307094,0.479305,4.29106,2.04466,0.840932,7.34243,-0.000205819,-0.0866517,-3.67402,-4.05921,1.97377,1.60325,1.41243,10.6949,5.14879,-70.76,-868.152,-497.76,-280,-3920,-10360
-7.77367,-6.54357,0.775497,0.359665,-1.68872,-0.064296,4.87434,0.0660628,-11.628,-5.4628,-1.72731,-2.4675,2.8173,0.178944,3.4808,3.18738,-68.808,-872.544,-496.784,-980,-3080,-10220
-0.791251,-3.5999,2.32258,1.42467,-5.23283,-0.435388,1.0179,-3.29209,-2.20724,-1.4923,2.78072,-0.615235,2.12766,-0.520553,-1.10862,-0.985268,-69.296,-874.496,-493.856,-1540,-2100,-10220
10.978,4.24846,7.96013,2.43007,-4.16185,-1.23131,-6.96998,-5.34385,12.2948,6.43226,8.13435,2.56804,5.22713,-1.53418,-8.94044,-3.41886,-68.32,-873.032,-489.952,-2520,-840,-10500
3.62513,-0.223541,3.61096,-1.12028,-7.08286,-1.91561,-8.4191,-4.46159,5.11192,-0.856564,2.48948,-3.79205,2.56931,-3.42661,-11.3984,-3.2807,-70.76,-873.52,-494.832,-2520,0,-10360
-6.09089,-4.25345,-0.452293,-3.73023,-5.12345,-4.01277,-4.74095,-1.45223,-5.47091,-5.63652,-4.5996,-10.7126,-3.7275,-2.79544,-8.18531,-3.2189,-71.248,-872.544,-490.44,-2520,0,-9940
-32.274,-34.5449,-18.2564,-29.9379,-24.7915,-9.46359,-18.0645,-6.40359,-36.4578,-24.608,-12.7658,-33.1373,-12.8736,-16.5553,-27.0929,-14.4786,-70.76,-873.032,-483.608,-1960,-700,-9100
-29.5569,-29.7265,-13.2678,-24.8685,-17.3026,-6.55743,-13.2728,-0.116827,-34.9143,-17.0625,-9.26516,-28.5514,-10.92,-13.0705,-21.0612,-10.6926,-68.808,-872.544,-483.12,-980,-1260,-8540
-2.27991,-1.57888,-2.57581,-0.235241,-2.20371,0.235856,-1.38151,-0.814379,0.499355,-4.56943,-1.7276,-3.81627,-4.41581,-2.67258,-4.25051,-6.71173,-71.736,-873.032,-480.192,-420,-1540,-7840
7.25913,6.64562,4.44868,-2.45254,2.56587,3.2335,-6.39438,0.0941423,10.711,7.89072,2.72498,6.9581,1.85541,0.331807,-15.1114,-7.34642,-71.736,-871.568,-476.288,-140,-980,-7840
2.0523,7.32685,3.22567,6.78278,9.3626,6.74149,8.8214,4.26412,2.97083,5.69427,3.80143,8.38899,0.933965,3.21867,4.86028,0.669058,-77.104,-867.664,-478.728,140,-700,-7840
5.88993,14.0029,0.772075,13.4072,13.923,6.30984,14.6371,3.84987,7.78496,6.28851,3.61559,9.78865,-2.07301,2.95935,17.083,6.07324,-77.592,-864.736,-477.752,0,-1120,-7420
9.67045,14.952,2.3407,7.96929,10.3909,4.68386,5.83753,1.82568,9.98057,7.87102,3.70505,9.99925,-2.24279,1.07176,5.904,4.77759,-78.08,-866.688,-477.752,840,-2520,-6860
10.109,10.77,0.940778,9.02362,7.45386,1.52547,6.25352,-1.13921,7.36559,4.81347,2.60104,9.16132,-3.51332,2.14621,7.56682,3.10308,-81.984,-866.688,-481.168,1680,-3920,-6160
8.64741,15.0133,6.25212,15.2312,12.7168,4.88765,13.9629,7.52214,8.9046,6.50619,3.73905,12.0342,1.56877,8.14464,17.7745,13.0136,-80.52,-865.712,-481.168,1680,-3780,-6160
5.72906,5.78185,3.1832,5.08912,5.09095,0.959895,4.75901,2.50773,1.888,3.91565,2.95643,5.81883,-0.207564,5.33064,7.23981,7.35404,-85.888,-865.224,-480.68,1540,-2940,-6440
7.47368,5.65018,4.53247,3.5273,3.95575,-1.89934,-0.512409,0.219042,4.01251,3.30991,3.69968,6.23347,3.27681,2.11317,2.33994,3.09926,-87.352,-862.784,-485.072,1820,-2240,-6720
8.33311,10.0333,4.49078,10.2953,7.78784,-2.58408,4.01606,-0.270324,11.8053,4.8631,2.46159,6.41192,4.67677,3.08561,10.6206,2.71536,-93.208,-863.272,-488,2100,-2380,-6580
3.86655,3.18772,-1.09324,2.66743,0.127298,-3.05882,1.71771,1.04413,10.6392,1.22116,0.16036,0.716402,3.51044,1.52448,3.3117,0.804918,-94.184,-861.808,-488.488,1680,-1820,-6720
-9.90729,-21.1406,-12.3367,-19.9952,-19.353,-5.42149,-13.5405,-5.39201,-8.68533,-7.69705,-3.80551,-13.7442,0.480007,-5.12829,-18.529,-8.45479,-95.16,-861.808,-490.928,1820,-2240,-6720
-10.5477,-14.5886,-10.1095,-10.1935,-11.6343,-2.45341,-4.19561,-1.21034,-11.7665,-8.49214,-4.4643,-9.23605,1.06658,-0.928623,-6.73668,-3.26773,-98.088,-859.856,-494.344,1820,-2240,-6860
-5.36554,-5.99804,-6.68002,2.12506,-3.83242,1.08988,6.17752,2.53565,-7.44996,-8.36762,-2.60877,-1.57037,3.34289,2.85542,8.13116,5.05735,-101.016,-863.272,-492.392,1260,-420,-7840
-1.32473,-1.03918,0.0895886,-0.323217,-1.28183,2.15087,-0.239225,6.17064,-3.98743,3.08488,2.26073,3.1995,7.43243,1.55673,-1.05146,6.38794,-99.552,-861.808,-494.344,0,840,-8400
8.07673,1.98177,-0.22978,0.5429,-4.76055,2.02839,-5.61031,1.86264,9.61111,5.04055,3.09015,6.52478,5.63117,0.304102,-4.79258,1.41588,-104.432,-862.784,-496.784,-980,2240,-9380
16.4585,20.8382,13.5517,17.1775,13.9885,7.466,9.64689,8.53453,20.9809,15.9568,4.74587,20.4506,10.0717,9.73953,14.6063,12.7362,-105.408,-860.832,-496.784,-2100,3220,-10360
1.12434,5.38997,5.39385,7.59145,6.7955,3.24316,9.88764,3.29819,2.99832,3.3472,-3.62876,6.6946,-0.448799,4.03215,16.3534,7.72031,-104.432,-861.32,-501.176,-3220,3780,-11060
-8.75982,-4.52915,1.14169,-1.41334,1.82209,0.105676,5.08715,1.45063,-10.8877,-3.54197,-7.14145,-4.2147,-6.71216,-4.52728,8.42794,3.07686,-106.384,-858.392,-502.64,-4480,4200,-12040
-12.3444,-11.5969,-3.92858,-8.86347,-4.66948,-1.76048,-1.4768,-2.95691,-13.763,-8.75501,-6.73319,-9.15168,-9.53703,-7.99088,-2.61657,-2.9143,-106.872,-857.416,-498.736,-5460,4900,-13020
-8.0703,-10.6822,-3.6467,-13.3558,-6.58452,-3.48007,-8.13084,-7.83675,-9.28303,-6.22863,-2.86401,-9.76315,-6.77951,-6.46198,-12.2394,-7.76845,-107.848,-861.32,-503.128,-6160,4900,-14000
-2.96103,-10.5632,-5.60514,-16.9373,-10.0343,-5.25301,-16.0546,-12.696,-2.85158,-0.886253,2.67977,-10.0417,-4.61473,-8.86361,-22.7546,-11.8594,-107.848,-857.904,-501.664,-6300,5040,-14420
1.3515,-4.16255,-2.61892,-9.5117,-6.30328,-4.6296,-15.377,-10.7404,0.718367,5.42908,3.93608,-7.36671,-2.26894,-6.97792,-20.896,-9.70907,-107.36,-860.832,-499.712,-5880,4340,-15120
-1.12213,1.447,-3.69572,8.92861,0.588922,-1.93249,2.70599,-7.06153,-1.19332,0.894933,3.26141,-2.31955,0.11196,-1.61431,5.73721,-2.10947,-101.504,-861.808,-499.224,-4900,2800,-15820
-4.98234,-0.610283,-1.87064,7.54088,3.96134,-0.723074,5.5007,-3.1388,-6.76823,-0.298377,0.216354,-3.44942,-1.43448,2.48844,10.6705,0.264882,-101.016,-860.832,-503.128,-4200,2800,-16380
-0.674508,-2.5065,-0.133186,0.646129,1.19625,2.38252,1.78021,1.39532,-1.95281,-2.68163,1.70152,-3.91724,-2.73494,3.1476,2.40489,-0.885806,-97.112,-860.832,-502.152,-3640,2240,-16800
5.50453,3.81101,6.50822,3.00592,5.66883,3.21402,0.568802,4.6726,6.66734,2.93487,3.49496,3.38831,-0.0888823,4.59785,0.715534,-0.553319,-94.672,-858.392,-500.2,-2940,1260,-17080
-4.4198,-11.6263,0.340084,-9.98632,-8.52809,-1.76085,-11.7401,-1.31881,-6.46534,-5.84086,-1.25501,-5.42499,-2.60236,-4.78153,-13.8612,-10.6988,-93.208,-859.368,-503.616,-2520,980,-17780
-0.121943,-1.20025,4.14198,3.64551,0.124569,-0.657038,-3.18708,1.09119,1.59683,-3.82866,-2.92636,1.06428,-1.96066,-0.0947787,-0.916756,-5.36262,-88.816,-860.344,-505.568,-2940,1540,-18480
6.7458,13.0539,11.9367,13.8331,9.43818,3.85381,3.10193,7.33238,11.714,-0.0841742,0.372949,10.6133,2.9641,6.19153,4.84445,3.02959,-86.864,-861.808,-503.128,-3220,1820,-19180
-6.04349,-1.96609,0.733054,-4.46839,-2.96786,-1.24245,-8.43799,0.860802,-5.53494,-12.0535,-5.13344,-1.75365,-1.86397,-0.0507284,-10.876,-3.35352,-81.984,-862.296,-506.544,-3220,1120,-19460
-3.57059,3.43723,1.86268,-6.10344,0.957961,0.577834,-3.11212,1.71557,-4.64006,-5.75115,-0.720948,0.911743,4.70653,2.21209,-6.80363,1.49634,-81.496,-863.272,-504.104,-2940,560,-19600
2.01205,2.99236,-0.600414,-8.89849,0.053568,-0.949172,-3.03619,1.1783,0.973717,0.643914,0.527105,-2.07415,3.81728,1.41998,-7.11581,-1.35036,-78.08,-862.296,-503.616,-3780,1260,-19740
1.58518,6.92846,-1.49044,-2.13137,3.6906,0.977606,3.59994,6.49347,2.99511,0.214269,-3.02717,1.21905,1.55046,0.680239,0.709322,1.17914,-72.224,-864.248,-504.592,-4620,2660,-20300
-2.69849,-0.0790705,-6.00678,-3.52651,0.40626,0.20303,4.5723,4.38438,-4.57436,-1.15524,-5.21406,-1.39556,0.0957817,1.03048,4.38559,-0.336742,-71.736,-862.296,-505.568,-4340,2100,-20020
1.22499,2.11611,-3.92128,1.54639,1.42766,-1.86215,7.12601,3.08426,-1.40359,2.51507,-1.14938,-1.09726,2.23529,1.26037,10.368,2.30837,-70.76,-862.784,-503.128,-3920,1680,-19600
3.78669,0.00773976,-1.62426,5.03074,-0.058633,-2.53174,9.47836,2.37338,-1.13626,5.61987,3.1312,-0.568872,2.37235,0.492822,12.9619,3.3374,-68.32,-866.688,-500.2,-3920,2660,-19740
15.0039,16.7606,9.50069,23.1603,12.048,4.06356,22.0645,7.72441,15.9279,13.6314,5.63222,12.7277,7.8216,7.66792,27.5972,11.5447,-69.296,-866.688,-505.568,-4620,3640,-19460
19.2722,18.1504,6.3542,22.7026,8.3254,5.20285,18.808,4.20231,25.3906,11.8141,6.3613,14.3556,6.74651,7.44592,23.3399,8.89562,-67.344,-864.736,-505.568,-5600,5600,-19740
14.213,18.1115,10.0642,17.1844,12.4935,6.16086,13.2257,6.18436,18.2851,13.2781,4.81833,16.6292,5.4644,9.86634,12.321,10.1733,-69.784,-866.688,-503.128,-6440,6860,-19600
7.20879,6.48247,2.23122,3.69436,-0.185638,1.54682,-1.97651,-4.93244,11.6794,5.23934,2.32228,9.81421,1.23528,2.67248,-6.69855,1.30121,-66.856,-865.712,-497.76,-6720,5880,-18900
-16.2473,-19.2256,-8.66037,-21.898,-16.6164,-6.50079,-18.4587,-9.86996,-18.0199,-3.6215,-0.914135,-12.2265,-4.90045,-9.85824,-26.2978,-7.12365,-64.904,-867.664,-500.2,-6440,4200,-17920
-24.6557,-32.3656,-18.993,-25.3305,-23.1492,-9.44764,-14.3065,-10.0053,-28.6793,-13.0492,-4.25635,-24.212,-11.9607,-15.9447,-15.329,-5.79493,-64.416,-873.032,-506.056,-5740,2380,-17080
-11.5116,-14.7377,-9.73208,-9.50376,-7.28677,-3.4541,-4.0667,-4.02111,-13.2803,-4.81396,-3.04214,-11.4452,-7.08707,-8.65612,1.40965,3.85588,-64.904,-873.032,-499.712,-6020,3220,-16800
-6.55944,-12.1742,-6.35977,-9.63024,-5.59725,0.277223,-7.10666,-8.11995,-10.194,-6.02693,-0.458718,-6.96962,-1.99611,-5.93096,-3.99829,0.461151,-66.368,-871.568,-500.688,-6720,3780,-16800
-4.89819,-13.1855,-7.86017,-16.6003,-9.1509,-3.60542,-17.701,-11.0066,-8.70387,-5.23943,-0.745625,-10.3683,-2.77863,-8.26931,-19.3565,-8.63186,-66.856,-868.64,-501.176,-6020,3220,-16660
-3.84644,-10.1138,-5.54158,-13.8904,-6.20017,-2.18645,-12.0816,-6.85917,-4.72743,-1.85372,0.765816,-7.2034,-0.346141,-4.65917,-14.1482,-6.90372,-67.832,-867.664,-499.224,-5880,2520,-16380
4.46907,7.87696,5.90956,5.05856,8.64005,2.12039,3.56104,0.780258,7.26193,4.37518,0.678198,4.68568,3.45836,2.78743,6.61564,1.94389,-67.832,-869.128,-500.2,-6020,1820,-16240
9.31057,16.633,10.7025,19.5199,14.3355,6.20993,14.2245,4.30399,14.7356,-0.118463,-0.161568,12.7867,3.49192,4.70342,19.9217,5.38646,-72.224,-870.592,-499.224,-6160,1260,-16240
11.142,20.9918,14.3179,26.3551,20.122,8.52954,20.954,11.0776,15.4786,3.27962,0.723529,14.8636,4.3104,10.4182,24.7768,9.41235,-69.296,-869.616,-498.248,-5880,1540,-15960
4.62199,8.75056,8.39875,14.0093,8.46565,5.82499,11.7444,9.91404,4.21639,0.481455,2.85965,6.19664,2.73446,3.69334,10.4436,4.85682,-65.392,-866.688,-502.152,-5320,980,-15400
-7.05616,-5.66287,1.67865,-3.88426,-3.18829,1.46361,-2.39626,7.20077,-13.6701,-2.52194,0.315046,-5.05581,-1.21653,-0.745689,-8.45951,-2.4673,-63.44,-866.688,-500.2,-4900,1960,-15400
2.74405,8.34849,5.04503,3.11948,2.09306,2.78351,-0.957673,4.84353,-0.0925729,-1.16209,-0.313578,3.15338,-1.90752,4.74211,-8.92407,-2.72699,-68.32,-864.248,-498.736,-4620,3220,-15260
1.43615,3.80334,-0.887425,-2.8907,-3.82666,-0.916383,-8.48192,-2.99647,0.763834,-4.62377,-5.54183,-0.557395,-6.29622,-0.22315,-17.9211,-8.58389,-71.736,-862.784,-498.248,-4340,3360,-15120
-15.0042,-15.553,-11.1302,-17.7477,-13.1452,-4.46387,-14.9901,-5.6746,-16.8449,-8.89215,-8.99448,-10.9459,-8.52715,-7.45381,-22.8749,-11.4638,-67.344,-865.712,-498.736,-2800,2800,-14420
-11.292,-16.869,-14.7309,-13.9492,-12.6821,-6.13852,-11.1105,-6.18954,-10.9646,-7.68864,-4.09047,-9.50221,-6.97461,-7.28468,-11.557,-11.0937,-62.464,-872.544,-503.616,-1400,1960,-13860
-4.16057,-9.03434,-4.49021,-8.33444,-5.51127,-4.37538,-7.42098,-0.0188047,-4.92654,2.35366,3.31512,-0.860324,-0.399392,-2.13612,-8.42438,-4.19915,-62.952,-876.936,-508.496,-1540,3640,-14140
8.32287,0.943118,4.68475,0.514975,0.672599,-1.91207,-1.54059,0.202886,7.03478,9.09261,5.34409,9.60138,0.946141,2.84067,-2.13946,0.803127,-65.392,-871.08,-511.912,-2660,6580,-14980
16.11,15.6941,11.3889,12.9993,11.3851,2.27956,4.36501,2.68533,18.4779,11.7563,5.09499,17.8793,5.19537,10.7319,6.6922,6.76995,-59.536,-867.664,-517.768,-2800,8960,-15820
17.457,19.2539,12.0026,16.5043,14.3871,2.0628,5.86373,-0.845066,23.1159,14.2157,6.69663,18.4532,7.15044,14.0379,11.3192,7.81389,-63.44,-867.664,-517.768,-3500,10500,-16240
6.31013,10.044,4.12005,14.1967,7.49971,-1.07539,9.26758,-2.56007,10.6756,7.00983,4.18544,6.65747,3.30978,6.88129,17.4579,6.96312,-63.44,-867.664,-519.72,-6160,13160,-16940
-1.49616,-3.73714,-2.39794,4.10879,-1.78445,-1.64889,4.13328,-3.13043,0.60315,0.658608,3.594,-3.48075,1.06813,2.39091,13.6258,4.7729,-66.368,-863.76,-515.328,-6860,12600,-16800
-3.37723,-3.06524,0.667579,1.38377,0.820161,0.539238,3.41744,3.68742,-1.25437,-3.45412,-0.0592948,-7.72556,-0.381189,0.887091,12.7325,5.59659,-63.928,-859.368,-511.424,-5740,10640,-16240
-8.51877,-9.98097,-2.27178,-5.84831,-4.19016,-0.194353,-0.519788,0.868745,-9.49693,-8.80536,-5.77835,-11.8361,-1.05484,-4.51784,5.94621,1.77234,-59.536,-856.44,-512.888,-6020,10640,-16240
-13.1633,-8.66647,-2.89081,-10.4472,-1.8902,-2.34089,-4.10136,1.34574,-13.9306,-8.28699,-11.7684,-11.6876,-0.470256,-6.44501,-0.784113,-0.435623,-58.56,-860.832,-511.912,-7140,12740,-16660
-18.968,-17.4586,-12.7224,-19.7235,-12.4986,-4.80048,-10.0529,-3.80509,-20.673,-18.6108,-12.1618,-18.0688,-6.27995,-10.9216,-9.99337,-7.77592,-61.488,-862.296,-510.936,-7420,15260,-17220
-1.90872,3.49539,0.915678,-2.52636,0.400829,1.09322,2.89087,4.68808,-2.15072,-3.90667,-0.759904,-1.8778,1.47034,-2.01376,3.09951,1.94578,-64.904,-865.224,-507.52,-6580,14560,-16660
12.9944,10.5629,5.88174,6.36769,1.3296,2.7515,6.80385,1.14456,12.1476,4.15453,5.48549,3.79667,3.45482,-0.753896,6.69561,0.374717,-66.856,-858.392,-502.64,-3500,10920,-15400
13.7021,10.7197,6.07036,5.70241,1.03909,2.5637,3.61016,0.797911,12.7055,9.1501,6.06809,4.3369,5.73849,-2.01206,1.41424,-0.626012,-72.224,-857.416,-493.856,-840,5880,-13300
0.224745,-5.59257,-6.63578,-7.89653,-10.3474,-1.82467,-5.02773,-2.75203,-1.41389,1.45373,2.60104,-6.73319,0.372043,-8.91208,-8.51585,-9.95309,-68.32,-857.416,-493.856,2380,1540,-11760
-7.75062,-10.6362,-10.505,-11.18,-11.006,-3.78984,-6.52338,-3.1288,-11.1911,-3.18318,-1.1187,-11.2612,-1.37208,-9.86172,-10.8077,-12.9136,-67.832,-863.76,-495.32,5460,-1400,-10780
2.06405,3.69619,-0.4273,3.0881,4.70765,2.9049,6.68434,2.12755,1.99781,3.44572,1.63328,1.68591,3.98373,0.26318,3.23703,-3.93638,-61.488,-858.392,-492.392,7840,-2380,-10220
6.37444,10.5002,7.17908,8.7379,15.6071,5.48793,10.5433,5.04095,8.37768,9.42142,2.96309,9.02001,3.31495,6.89356,8.36403,2.35239,-61.976,-857.416,-493.856,7840,-1960,-10220
-5.48215,-5.84207,-1.60015,-2.95453,5.29609,2.87786,2.32561,1.9284,-5.16709,-1.75521,1.55499,1.23988,-0.272404,3.6328,-2.89788,0.365764,-56.608,-861.32,-500.2,6440,2100,-11480
1.71035,-0.180856,0.0593573,-3.1069,6.12846,1.4647,-3.86465,0.112108,3.32661,4.46624,2.77737,6.25738,-0.364636,6.56296,-10.2948,2.12986,-60.024,-860.344,-505.08,4200,4340,-12600
2.30602,8.53603,-1.56073,6.99625,7.96557,3.12611,3.69793,1.33649,6.29502,-1.51952,-0.321452,12.0878,-0.0276283,8.26339,-0.0193631,12.3106,-60.512,-854.976,-504.104,2380,6300,-13580
5.22617,12.2662,1.75901,10.4299,6.73799,2.58816,7.42839,1.58099,8.39147,-2.57212,-1.18136,12.5445,-1.27953,6.91644,5.25491,14.5015,-62.464,-854.976,-504.104,1120,6440,-13720
1.60807,4.4674,0.187847,2.44766,-2.22111,0.203546,1.22358,0.850656,2.62373,-6.51795,-1.75437,3.16908,-1.78025,2.16779,-1.79078,6.63246,-64.904,-853.512,-503.128,-980,8260,-14420
4.55018,4.65475,2.19256,6.16286,-0.796438,1.05511,4.08562,1.73706,5.48977,-0.792051,1.14406,3.76062,0.457909,4.91893,4.84308,7.13252,-63.44,-855.464,-502.152,-2380,9940,-14700
7.91125,7.0049,7.11639,8.28943,3.22537,1.17266,3.62647,1.81144,5.8584,6.73778,4.00827,4.12184,2.10515,5.79833,3.2101,6.23045,-68.808,-854.488,-496.784,-2520,10640,-14980
-1.18004,-5.72223,1.69386,0.00457306,-4.9058,-2.01266,-3.41401,-5.89668,-7.8004,3.49212,1.07864,-5.08173,-1.06605,-0.691196,-4.91939,-1.55994,-75.152,-853.512,-495.32,-1820,10360,-14700
-9.16227,-4.77996,-0.121367,-0.291132,-7.53282,-3.72931,-4.51569,-4.37856,-12.5374,2.12472,-2.62448,-6.46861,-0.460681,-6.64471,-3.86246,-0.385496,-71.736,-857.416,-496.296,-1120,8960,-14000
-28.5996,-33.8525,-18.1277,-25.664,-29.0333,-12.0933,-22.7423,-12.7445,-39.4232,-14.5686,-10.3618,-26.968,-8.4766,-21.9895,-24.9237,-14.0696,-69.296,-860.344,-498.248,-420,9240,-14000
-33.1406,-40.3617,-17.7385,-31.8908,-31.2401,-11.5003,-26.0475,-9.79301,-47.9842,-18.8916,-9.33863,-29.412,-7.69795,-22.0334,-29.6184,-13.1529,-77.104,-862.296,-503.128,-420,9940,-14140
-15.1031,-19.6195,-7.77725,-11.5579,-14.176,-4.61665,-11.7964,-0.193181,-21.8001,-10.4971,-4.22729,-11.4145,-3.83123,-5.18535,-9.81227,-1.73369,-72.224,-861.808,-506.056,0,9940,-14000
9.41641,9.52274,5.57815,12.7031,7.25046,1.36832,4.81914,6.97527,15.1144,3.61467,2.15257,10.1008,0.841657,7.04379,12.9124,5.71944,-76.128,-869.128,-506.544,1680,8400,-13300
22.3321,17.7687,12.0661,15.5221,13.1072,3.59951,7.63729,1.91866,27.8091,12.2926,8.53566,16.6156,4.70046,10.6839,13.1419,1.49944,-79.056,-863.272,-502.152,3500,4760,-12320
24.6391,19.4542,13.4674,11.7732,13.097,2.43017,3.99143,-3.37343,31.5376,17.1489,8.60743,16.7841,5.27479,6.00703,8.13933,-4.24883,-80.032,-865.224,-499.712,6440,-700,-10640
19.9209,17.8041,8.88275,10.3076,11.1574,3.5906,2.27319,-5.65151,32.678,13.7317,5.38596,15.2083,3.79852,3.02249,7.94443,-6.41943,-75.152,-873.032,-500.2,7700,-4060,-9520
16.4114,23.0174,12.0555,15.357,21.403,8.58214,8.69908,4.41798,27.5464,15.2189,2.00763,16.1326,4.59418,6.99819,14.0192,2.5972,-70.272,-881.816,-505.08,6720,-3640,-10220
9.00293,11.0358,5.67388,8.04681,13.8292,8.09251,11.0836,5.12091,14.3771,5.8652,0.097426,7.85713,1.66174,4.63916,12.5047,3.67443,-74.176,-880.84,-501.664,3640,-140,-11480
5.6149,8.32483,4.99181,6.35338,12.2416,5.68277,13.2392,8.20897,10.6564,6.41987,-0.297776,4.23777,0.910998,5.4237,15.4187,5.24019,-73.2,-886.208,-506.056,1820,840,-12040
5.00894,3.51831,-1.56656,5.58025,7.61965,1.56412,9.65789,5.4522,9.05602,0.389584,-0.767208,-0.338277,-2.39504,2.81087,13.7819,0.0277205,-76.616,-880.84,-499.712,420,420,-12460
3.16437,7.27888,3.08888,10.443,12.989,2.73563,11.6563,5.79024,3.24857,-0.706431,0.981896,4.6876,-1.56499,7.54981,13.6832,2.80001,-72.712,-880.352,-501.176,700,-2520,-11480
-6.28174,-3.30364,-3.22991,-3.48143,1.37631,-0.510701,2.22437,0.755483,-8.24355,-8.40765,-0.942622,-3.8211,-5.07931,2.70409,-0.288116,-4.27049,-67.344,-879.376,-500.688,420,-5040,-11200
-9.44142,-7.21244,-4.65169,-6.78195,-2.4041,-0.98013,1.65322,-0.0346813,-11.9674,-10.0216,-2.83355,-7.35277,-5.34904,1.7476,-1.03802,-6.90054,-67.344,-876.448,-502.152,-420,-4060,-11480
-17.4883,-14.6692,-8.36972,-12.4249,-10.1166,-3.82504,-4.70767,-1.45115,-19.934,-12.7291,-4.05111,-11.7276,-4.10659,-4.57332,-5.75642,-10.5246,-64.416,-880.352,-503.616,-1680,-2100,-12320
-21.2741,-22.5421,-12.4459,-25.2979,-19.1736,-8.31463,-17.2662,-3.36911,-28.1801,-13.421,-5.18945,-16.1134,-5.81539,-12.5446,-23.0216,-17.2621,-66.368,-883.768,-506.056,-2380,1820,-13580
-17.3239,-19.0414,-13.7629,-16.5952,-17.6542,-6.60159,-10.7194,-2.77821,-22.1292,-16.5328,-5.7337,-13.5564,-4.79723,-14.3044,-11.8927,-14.4802,-66.856,-879.376,-492.88,-2380,3360,-13860
0.749932,2.00045,-1.64643,0.704348,-1.14559,-0.578876,-2.12053,3.87839,-2.61177,-0.208593,-0.184602,1.6127,4.32515,-5.58631,-0.899788,-3.16386,-68.808,-870.104,-488,-2100,3500,-14560
-0.114246,2.76091,-1.00928,0.921609,-1.58242,3.81992,0.157634,3.87358,-5.13663,-1.34507,-1.69608,3.7174,7.18641,-3.1434,-1.71365,2.37236,-71.736,-866.688,-484.584,-560,-2660,-12600
-0.535759,4.65993,3.37008,-0.389735,-0.112663,5.03195,-0.311101,5.61294,-4.08419,0.914459,-0.630881,2.73039,8.38173,3.17584,-4.75434,8.03805,-62.464,-869.128,-492.392,0,-7700,-11340
9.89641,12.5479,8.90656,4.1047,-0.37033,1.31839,-0.745774,2.34783,13.6715,5.52973,3.85126,5.4512,7.73466,2.74808,-5.55849,8.87133,-58.56,-861.808,-498.736,140,-7140,-11900
1.95681,2.39812,3.1224,-4.33335,-8.54042,-3.63578,-7.37664,-2.38871,5.86466,-0.100743,0.963156,-4.36566,2.6686,-0.38465,-10.1564,7.48076,-53.192,-866.2,-503.128,0,-5880,-11900
-25.5961,-24.4276,-7.98533,-26.0508,-22.4284,-6.15817,-18.5563,-4.22476,-31.7089,-13.3101,-2.87289,-23.0889,-3.3229,-5.92288,-25.2008,5.69663,-61.488,-862.296,-504.592,980,-4200,-12040
-28.9944,-37.6283,-14.2934,-32.0656,-28.3503,-8.44649,-20.2836,-11.9246,-37.9843,-15.0536,-2.40067,-27.5464,-5.8276,-10.874,-26.0159,4.33614,-61.488,-854.976,-505.08,2940,-6300,-10640
-1.87136,-8.89484,-0.944435,-5.02665,-7.07429,-2.93628,-2.4435,-4.56374,-5.14507,3.81004,3.52511,-2.89225,0.421123,0.764526,-1.61196,16.507,-66.856,-850.584,-488.976,6160,-11340,-8960
10.4469,5.51625,1.75182,12.6374,4.73441,-0.655172,8.79385,-4.26258,9.18607,8.21523,2.90584,7.54413,0.111074,8.3609,14.3179,17.2454,-65.392,-840.336,-493.368,8120,-15820,-7140
16.1589,17.4378,9.14531,21.6128,16.0696,2.7272,14.0826,-0.801915,18.4674,13.7883,4.41518,15.3338,3.7507,12.1027,19.551,16.0412,-57.096,-843.264,-492.88,8960,-17920,-5880
21.8483,16.5741,10.1953,13.5492,14.5407,2.10622,4.80154,-2.96696,24.5685,15.9564,8.33531,15.4841,5.23794,7.84726,4.33484,4.2829,-56.12,-847.168,-495.32,9240,-16940,-5320
27.4709,25.684,13.3723,21.4363,22.2411,5.43077,11.4053,2.17156,32.2854,18.1899,9.49838,19.4894,5.90113,9.36718,8.7558,3.00986,-57.584,-846.192,-502.152,9940,-16940,-4480
22.5971,24.3095,7.75377,26.0278,19.7682,5.38295,19.3306,3.81021,29.6985,13.2543,7.06182,15.3962,2.15664,8.5471,20.6594,1.54552,-55.632,-846.68,-501.176,11620,-17920,-3640
17.5086,22.6742,5.57737,25.1231,18.1372,2.80726,21.603,8.26977,23.5746,8.29015,-0.205772,13.8759,-2.65849,3.41696,22.7878,3.93314,-55.144,-846.68,-503.128,11340,-17640,-3080
5.40522,7.79354,-3.66788,14.4911,6.82086,-1.48314,12.6916,4.0014,9.26931,-3.706,-10.2741,5.09714,-10.0771,-5.74806,12.949,-3.34765,-48.312,-845.216,-513.376,10920,-16940,-2800
-3.26515,0.462708,-3.36325,4.13816,4.31122,-2.26779,3.18832,2.05501,-2.06284,0.0631432,-6.31751,-0.206613,-6.76923,-7.33729,1.26466,-6.99203,-52.704,-834.968,-518.256,10500,-15680,-2800
-10.1149,-12.9427,-9.69966,-7.42863,-7.83652,-3.34957,-7.64806,-7.36985,-9.89679,-6.37231,-2.86536,-7.15089,-6.59767,-11.7398,-8.54276,-15.7503,-51.728,-834.48,-514.352,8960,-14700,-2940
-1.82992,-0.273839,3.18982,-0.978584,1.98197,3.44565,-6.83583,-2.55325,-0.0923277,1.56463,2.83794,5.34805,2.35468,-0.286332,-5.56612,-11.4568,-52.704,-830.576,-515.328,8120,-13020,-3500
-3.91449,0.477941,4.1385,2.656,4.59589,7.74279,-1.81135,-2.1241,-1.94142,-1.64287,1.66112,3.96886,3.10213,4.47371,1.34983,-11.7483,-49.288,-830.576,-512.888,7840,-12320,-3360
-6.96576,-0.972626,4.11512,1.05975,5.74267,9.33428,-0.1903,-0.793755,-7.80015,-1.5304,-0.544812,-1.08392,3.83686,7.03008,6.26616,-10.4437,-50.264,-826.672,-508.496,7420,-11620,-3220
-10.7656,-12.6462,-5.13724,-10.3944,-5.44309,3.57286,-8.27648,-2.35632,-13.5402,-6.04363,-3.31367,-8.99454,-0.812852,1.88346,-2.52883,-13.6366,-44.408,-833.504,-510.448,5740,-10780,-3360
-11.5935,-14.6053,-7.8738,-10.9503,-6.57671,-1.19165,-7.17695,-0.147505,-12.3578,-5.00814,-4.4966,-10.1992,-3.59406,0.274724,-0.839636,-9.7253,-53.192,-829.6,-512.4,5320,-10780,-3500
-4.18033,-6.54469,-5.82755,-7.52175,-7.48889,-2.97029,-4.98903,0.918092,-2.16568,-2.47904,0.208921,-2.66673,-0.206649,0.714663,2.45996,-4.15842,-52.704,-829.6,-511.912,5600,-12460,-2800
-0.000970341,-3.75573,-4.39861,-9.8571,-9.01686,-4.70039,-7.94189,2.21679,0.70855,-1.75342,-0.942237,-1.70378,-0.806878,-2.66373,-4.74644,-3.5076,-51.24,-824.72,-510.936,5740,-15120,-1820
-4.37644,-7.60058,-3.27918,-12.3916,-8.23293,-2.37645,-5.35754,5.23067,-9.06332,-4.38326,-0.652482,-3.3974,-0.472096,-2.63525,-5.15792,2.85638,-57.096,-834.968,-503.128,7000,-17920,-700
-7.12955,-10.3383,-2.73684,-17.1214,-7.2421,-4.02409,-9.38278,3.69193,-15.9247,-4.4897,-0.436614,-7.92642,-0.511619,-4.22262,-13.5959,5.35992,-53.192,-839.36,-499.224,11200,-24220,1540
-9.9071,-16.9239,-7.79387,-22.8885,-17.2871,-7.99808,-14.5168,-2.97904,-17.7327,-12.6043,-2.68622,-14.2531,-2.64296,-12.0657,-22.539,1.27193,-56.608,-838.384,-492.88,16240,-29960,3640
-9.68746,-10.2534,-7.84169,-15.7213,-13.8129,-9.41453,-8.9621,-4.48861,-9.97376,-10.1485,-4.48076,-11.8726,-1.20367,-10.6404,-14.2321,0.776918,-49.288,-845.216,-494.344,19600,-32620,4900
-10.0379,-2.82172,-4.16841,-6.36847,-5.58627,-4.10945,-0.891318,-1.62136,-6.27892,-7.02975,-4.86826,-7.38684,0.77896,-3.78414,-5.10424,4.55075,-48.8,-852.048,-499.224,20440,-31500,4620
-12.2247,-10.9707,-4.14063,-10.1453,-7.93242,-2.43147,-4.71535,-3.47424,-12.8177,-6.59512,-4.52313,-9.86,-1.17265,-3.64345,-9.28535,2.04625,-51.24,-859.368,-507.52,19880,-28560,3500
5.91594,2.57894,7.9792,1.81276,3.07964,2.10764,1.70385,2.61455,4.16944,7.35954,0.817024,2.16503,2.87191,2.76618,-1.21751,6.39456,-57.584,-856.928,-510.448,19600,-26740,2800
14.2818,7.57362,8.58576,8.50703,3.9851,3.01525,4.86739,2.6653,15.4448,5.31188,0.531252,4.06704,-0.269461,4.57266,5.61099,8.21696,-56.12,-853.512,-509.96,20720,-31500,4340
16.1996,19.3354,12.4986,16.2088,10.0599,3.11948,8.6034,5.50538,25.4481,5.18174,2.50432,8.59913,1.82847,4.83994,9.52118,11.4762,-51.24,-859.856,-513.864,20580,-33600,5040
4.17294,13.9649,6.97819,20.9787,9.40979,2.81405,15.6235,3.74692,12.6843,-2.45136,0.510344,6.33722,0.874448,3.48907,21.5974,9.99913,-49.776,-861.808,-513.376,18900,-33740,5040
-9.56764,1.48356,2.51121,11.1643,3.2067,2.14865,10.669,2.15025,-5.49659,-2.20203,2.91393,0.415194,2.29765,-0.835325,14.8472,5.71209,-46.848,-863.272,-507.032,17920,-32480,4760
-5.40645,-8.16958,-0.080975,-5.25278,-8.97746,-0.659238,-5.0795,-6.04217,-9.82524,4.3749,6.93089,-1.78944,1.0649,-4.52202,-8.07374,-7.45817,-48.8,-861.808,-508.496,15120,-28980,3780
4.63024,2.42322,3.70766,1.21512,-1.37949,1.21478,-2.29425,-2.76829,-1.45239,7.83046,7.90521,5.91845,1.92191,-3.39226,-6.71255,-4.587,-45.872,-865.224,-504.104,12180,-24640,2520
17.4524,19.0071,7.19125,17.1422,12.9659,5.13722,8.97317,0.348365,16.8305,13.5234,6.90062,18.3034,5.11733,6.30332,8.12583,3.20946,-48.8,-863.272,-500.688,10500,-22820,2100
12.2771,17.7092,5.1432,14.638,12.4802,6.14387,8.5774,0.972017,10.6192,11.1206,1.9925,16.6592,4.74509,9.00358,3.86651,4.05096,-46.848,-859.368,-499.712,7980,-21840,1960
0.0506001,4.0388,-2.31298,2.04022,2.86357,3.36124,2.63307,-2.30818,-2.66399,1.80206,0.629933,5.59686,1.57071,6.6339,-5.06774,0.721274,-48.8,-862.296,-502.152,6860,-21420,1960
8.76874,18.4591,7.08322,13.2666,17.6855,5.65566,10.2494,3.91225,8.95017,8.79568,3.46166,13.5676,6.55527,13.6737,6.84387,8.03771,-48.312,-861.32,-504.592,5740,-20020,1820
9.97551,7.11389,-0.7226,0.191934,4.8796,1.82582,-2.5689,-4.05791,12.5736,2.21432,1.67,4.71885,2.5761,4.23845,-8.39477,-3.88562,-46.36,-866.688,-492.88,6020,-18340,1960
9.08683,7.46102,1.72508,3.64851,9.28724,0.800162,4.17998,2.86594,12.8076,5.10157,0.808126,3.37127,0.944296,3.52271,3.60627,0.472475,-50.752,-865.224,-489.464,6300,-16940,1680
3.9666,-1.63869,-4.3741,6.25611,4.78263,1.22064,10.8113,6.11813,0.934292,-0.703926,0.653364,-1.40166,-2.33949,2.90168,15.8981,2.05976,-47.824,-862.296,-494.344,8400,-17360,2660
-0.667084,-2.11864,-0.189052,8.02196,8.91783,4.82459,12.7765,10.2266,-3.47064,-1.73866,-1.45459,0.960045,0.491065,9.1497,19.9166,5.12848,-47.824,-862.784,-489.464,10360,-18900,3640
-7.95674,-15.5732,-5.61266,-7.59637,-4.64915,-1.43393,-2.19912,2.24187,-10.2775,-10.174,-7.1979,-8.58572,-4.64793,-1.91439,0.42293,-4.74969,-46.36,-867.664,-492.88,12460,-19320,4480
-10.1454,-25.0989,-11.3096,-22.8945,-14.4948,-8.27146,-17.8668,-3.05472,-14.871,-10.2608,-8.05215,-19.5071,-10.2008,-11.3668,-21.3938,-14.9211,-51.24,-868.152,-493.856,13720,-19740,5460
-6.32422,-11.1106,-8.99197,-6.92459,-3.6208,-6.26133,-5.07864,0.181701,-7.35491,-6.83573,-5.21878,-12.6431,-9.65376,-5.64533,-3.06746,-7.12908,-57.096,-868.152,-498.248,14420,-18760,5740
-3.47832,-2.4775,-3.14134,1.38292,-0.103233,-4.24476,-2.54793,-3.1513,-3.92165,-3.11929,-3.59469,-7.11861,-9.4227,-1.2756,4.70177,-7.63142,-57.584,-870.592,-495.808,14700,-16520,5880
-2.52054,-2.45048,1.92884,-2.6324,-2.72904,-2.3362,-4.64813,-3.64371,-1.36384,-0.448386,1.59716,-4.67053,-5.63497,-4.87152,3.41934,-6.05241,-63.928,-863.272,-494.344,15820,-17920,6580
0.495928,0.589487,3.29554,-4.03663,-1.51307,-3.08214,-4.74388,-1.49567,2.19515,2.78753,1.00487,-2.06333,-3.78002,-6.93545,3.01738,-2.70824,-64.904,-857.904,-491.904,17780,-21420,7980
4.54423,6.67677,3.09193,-2.25802,-3.35964,-3.51862,-4.01526,-3.38358,10.6662,0.0254847,-0.274438,0.0543159,-1.31806,-7.82845,2.6181,-1.56267,-62.952,-855.952,-489.464,18480,-23380,9100
-6.9867,-5.54255,-4.54828,-13.9745,-13.1269,-6.56899,-11.7808,-6.14632,-3.8855,-4.90052,-4.70605,-9.1063,-2.74884,-8.84194,-7.9967,-2.48733,-63.44,-857.416,-477.752,18340,-23100,9100
-20.136,-17.6781,-10.5748,-17.192,-17.5677,-4.81709,-12.3861,-5.69301,-21.2067,-13.0195,-6.86027,-13.7344,-1.59759,-6.06328,-10.3359,-0.0361938,-63.928,-860.832,-483.12,17080,-20020,8260
-10.2728,-11.6987,-6.11366,-11.1693,-13.3508,-2.95012,-12.2902,-7.68919,-8.69207,-6.02272,-0.254317,-3.80236,4.17257,-1.86069,-12.216,0.0270019,-58.072,-859.368,-488.488,16660,-17640,7980
-2.8094,-5.55325,-1.4614,-9.71584,-10.8869,-1.12637,-13.5547,-3.45747,0.17063,1.13718,3.91333,2.07351,8.08045,-2.96871,-19.0761,0.658537,-61.976,-854.976,-485.072,16940,-15820,7560
-7.46421,-8.29645,-4.86282,-2.3076,-6.63831,2.42783,0.71597,0.539126,-8.08168,-3.31364,3.36568,0.484395,7.25634,-2.99777,-1.49424,6.71971,-62.464,-854,-479.216,17360,-15260,7700
-7.86903,-3.53077,2.18865,1.00541,-1.70892,4.18758,3.43819,2.10377,-9.41983,2.63131,6.57298,4.10735,10.3134,-1.65722,-0.266041,5.80137,-63.928,-852.536,-481.656,17500,-15820,7700
-10.3304,-12.5231,-2.57175,-9.58433,-13.2636,-0.992607,-10.7431,-10.8424,-14.3862,-1.04612,0.929064,-2.76987,1.92942,-6.88765,-18.1997,-9.96641,-66.368,-855.952,-480.68,18340,-16660,7700
-6.06759,-1.35248,4.10384,-1.96477,-1.55777,1.3254,-4.52576,-6.01959,-8.97895,3.52828,-0.709272,3.83685,3.15355,0.913454,-12.7541,-7.58266,-71.736,-854,-478.728,18760,-17640,7840
8.24733,12.2512,7.62809,7.33434,8.28185,2.19807,2.98791,-2.68225,9.20881,10.0202,0.102061,14.3501,3.32241,9.68439,-4.84338,-1.91028,-70.76,-854.488,-475.312,19600,-18060,8260
18.1424,23.8595,12.0668,17.9494,18.4053,5.51644,12.7774,5.47976,19.4989,15.8552,2.56012,22.3431,5.31392,14.4352,8.56454,8.04,-72.224,-857.416,-479.704,19880,-17360,8260
18.1282,21.0345,7.45643,20.5057,16.0085,5.57461,17.2239,6.41507,21.3368,10.5977,3.72392,17.9023,5.50872,11.5438,18.5576,9.51272,-76.128,-856.44,-481.656,19740,-16380,8260
14.7532,24.1787,6.77923,24.0011,17.8088,5.50879,19.7913,6.71058,19.5605,4.10081,1.21378,11.6705,3.13473,6.67214,27.4218,8.86043,-77.104,-858.88,-480.68,20160,-15400,8540
14.7524,17.6868,8.23213,14.8019,12.8563,7.08239,12.2589,7.95429,18.3596,2.94775,2.6871,4.88367,1.34282,4.44285,14.9376,5.55273,-79.056,-859.856,-485.56,20440,-14980,8540
11.8331,13.2012,8.65452,12.2008,15.2822,5.91696,12.619,13.6887,12.8362,3.46083,-2.39446,1.29318,-4.59289,6.5047,11.1943,9.00146,-77.592,-862.296,-484.584,20860,-14280,8820
7.14318,5.81187,-2.39552,13.7007,9.71355,1.80772,16.5991,10.4406,7.99399,-5.5677,-4.41778,-5.50084,-10.5701,0.422617,18.274,6.15456,-78.568,-860.344,-487.024,21280,-13720,9100
13.6207,13.234,3.24144,15.7948,18.137,3.58094,17.7832,15.0226,15.2795,2.74647,0.87993,-0.518735,-5.70062,5.71501,17.784,9.16234,-81.008,-864.736,-488,21420,-13160,9380
0.73101,-3.52189,-4.63169,0.879743,3.39483,-0.217295,7.71671,8.30378,-0.65223,-8.66358,-1.34868,-12.5276,-8.23785,-3.89231,4.40334,0.449157,-79.544,-861.808,-488.488,21700,-12320,9520
-14.8202,-16.8013,-8.64002,-8.04625,-5.95337,-4.63454,3.10907,5.00343,-19.3272,-13.5546,-4.70313,-18.9318,-7.74261,-9.10812,0.167616,-0.0984045,-81.008,-863.272,-485.072,21280,-11900,9380
-16.8776,-24.7568,-10.2893,-19.9597,-19.0652,-8.43457,-10.8305,-6.28661,-26.5352,-12.2985,-1.88785,-18.1796,-4.33003,-11.4256,-14.5565,-8.4821,-81.496,-864.248,-486.536,21000,-11620,9100
-2.57629,-8.41998,-0.726387,-13.2692,-11.665,-4.21377,-13.6663,-7.48426,-8.84493,0.554549,1.82429,-2.64559,2.09554,-1.38465,-13.6234,-6.48679,-82.472,-864.736,-486.048,20300,-11620,8820
-6.66159,-9.78611,0.677619,-15.4148,-9.78599,-2.4589,-16.6345,-6.94174,-10.0281,1.25852,1.68175,-2.19931,4.52444,2.73123,-16.3042,-5.52175,-82.96,-862.296,-485.56,19180,-12180,8680
-11.9231,-14.8079,-1.68351,-20.2329,-11.4785,-2.45601,-23.2236,-10.5254,-13.7122,-0.615124,0.357209,-5.16889,1.98676,0.80735,-24.1299,-10.1892,-81.984,-864.248,-483.12,18060,-12740,8400
-4.43419,-0.00562168,4.04853,-4.87023,0.455956,3.76493,-9.54527,-1.99395,0.586569,2.98685,1.64191,6.59702,3.8949,6.84444,-5.67093,2.01926,-80.032,-865.224,-484.096,17220,-13720,8120
-12.4584,-16.0044,-4.15666,-15.3019,-8.90299,-0.979782,-11.5806,-3.73558,-15.4968,-1.74646,-1.67161,-4.63654,-0.636954,0.229966,-9.30206,-1.86222,-80.032,-861.808,-485.56,16240,-14700,7840
-22.5634,-28.63,-13.1016,-23.025,-18.5,-5.10029,-15.0523,-9.54928,-30.9598,-11.14,-5.4917,-12.7702,-4.16585,-7.94548,-15.049,-9.36999,-81.008,-864.736,-485.56,14980,-15260,7420
7.56945,6.9389,2.76184,7.403,2.44248,-1.32278,1.12194,-8.85711,10.3638,7.87267,5.56259,11.1864,5.13981,0.898854,8.32471,-0.466593,-78.568,-867.176,-479.216,14000,-16240,7000
23.9947,24.5245,10.7822,18.1914,10.8245,0.732261,5.18473,-5.13562,33.9415,16.1903,8.79865,21.6348,7.17283,2.91952,11.362,4.1865,-79.544,-868.152,-482.144,13020,-17500,6580
13.2456,13.2818,3.72067,8.64938,4.41484,-1.74514,2.02624,-5.84455,20.8725,7.96328,1.29023,13.4534,0.91017,0.114929,3.34074,3.40189,-76.128,-866.2,-483.608,12040,-18200,6300
10.5486,13.1726,0.87025,9.37794,5.82074,-1.52128,3.98488,-1.96525,16.3637,5.3895,0.498398,10.9244,-0.7498,-0.722677,5.87673,4.21216,-78.568,-866.688,-476.776,10920,-18760,5880
3.16853,3.88022,-8.79031,5.64667,-0.0714807,-3.04935,6.00738,-0.30039,4.73632,-4.62045,-1.93414,0.62286,-3.20331,-4.56175,9.25495,0.909644,-81.496,-867.664,-473.848,10360,-19320,5600
2.38045,6.21032,-5.04869,4.38849,1.99108,-1.95117,3.63936,3.71616,2.24769,-1.95731,-0.197084,0.0156513,1.25217,-3.24259,3.80655,-1.54411,-77.104,-867.664,-472.384,9100,-19460,5040
-4.43467,-5.14332,-6.17952,-4.04173,-7.62773,-3.25766,-4.72797,-1.35415,-7.1346,-6.60955,-2.39742,-6.87961,-0.0487444,-4.39987,-6.90891,-10.6326,-78.08,-866.2,-470.92,8260,-19180,4760
-1.92534,6.65952,2.56848,13.5003,6.88363,4.29777,14.1768,10.1587,-1.64943,-2.19214,-3.20442,0.863254,2.67619,2.90252,16.8073,5.41271,-78.08,-870.592,-468.968,7280,-19180,4480
-5.82367,-2.36322,-2.11291,8.44538,3.80513,3.3188,12.1341,8.89256,-7.18866,-6.48442,-5.78109,-6.04777,-1.70204,0.490544,16.11,1.11459,-74.664,-870.104,-466.528,6720,-19040,4340
-5.65046,-4.5265,0.246061,-1.81958,-1.00838,1.03877,2.04781,3.96687,-6.58265,-3.91769,-1.32337,-7.6425,-0.480884,-2.26166,1.73704,-5.66028,-74.664,-872.544,-471.896,6160,-19040,4200
-9.00138,-13.9097,-3.66378,-18.2008,-14.7964,-0.722436,-13.6872,-1.84046,-9.74821,-4.26564,-0.505275,-13.477,-3.3404,-9.51135,-20.4369,-12.2067,-75.64,-874.008,-468.48,5180,-18340,4060
-16.9843,-19.1194,-3.62252,-22.897,-14.3402,0.353762,-12.6357,1.30479,-19.3199,-5.05791,-2.04656,-14.7797,-4.1935,-9.2368,-21.0502,-7.61247,-76.616,-877.912,-468.48,4060,-17220,4060
-0.0323162,-5.65831,-0.553366,-12.2783,-8.07765,0.525867,-9.89177,-1.84873,1.11804,2.18501,4.12739,-1.38956,0.00851043,-3.78157,-15.953,-4.38686,-76.128,-878.888,-465.552,3360,-16800,4340
15.1257,17.2263,9.39939,11.3742,11.6355,2.76052,6.65912,1.97674,18.467,10.4641,6.1814,13.9234,6.44789,7.63324,7.40604,6.89567,-76.616,-878.888,-465.552,2940,-16520,4760
0.470967,5.64249,-0.478017,10.3894,7.28346,2.08975,12.6435,1.73947,2.34689,-4.52301,0.478946,3.34022,3.30733,4.59249,16.2607,10.5478,-76.616,-881.328,-467.504,2100,-15960,5180
-6.18002,4.82496,1.93177,6.23745,9.20168,3.01994,7.88303,4.59587,-5.51575,1.2382,0.422978,0.86718,5.00383,5.94097,9.04242,12.0507,-78.08,-884.256,-467.016,1260,-15260,5740
-12.6925,-10.4755,-2.70942,-8.94961,-4.71908,-0.573937,-5.81486,-2.03922,-15.3091,-4.35111,-1.45714,-9.04697,0.833762,-3.48536,-10.3601,2.47066,-80.032,-885.72,-463.112,280,-14000,5880
-20.2774,-28.5017,-6.28981,-23.2439,-13.5078,-2.42972,-13.6194,-0.117763,-31.1756,-11.4427,-12.007,-18.9104,-7.7871,-8.02807,-23.031,-1.17268,-80.032,-886.208,-465.064,-420,-13160,6300
1.89369,-6.48562,3.72776,-2.30256,1.42834,1.75389,-0.20437,2.7128,-4.98124,-1.75948,-9.57507,-1.07641,-7.71196,4.7934,-3.12079,6.31666,-78.08,-883.768,-464.088,-1120,-12040,6300
33.8165,27.7696,16.8696,25.1795,21.764,2.79444,11.96,-0.798791,36.1378,16.6626,1.62912,23.2515,-0.133312,18.7542,12.9722,11.4036,-82.96,-888.16,-465.552,-1260,-11200,6440
32.2029,33.1291,18.3773,34.8649,30.2222,5.42564,22.0189,1.28814,36.1266,18.9837,7.39377,28.0151,5.36918,21.3074,22.4227,15.9678,-80.52,-891.088,-471.408,-1540,-10220,6440
16.2176,22.9022,11.0051,28.1667,23.1306,3.62928,19.6957,3.32846,19.7866,10.2426,4.71093,15.5826,0.30264,12.3164,23.6012,11.6204,-80.032,-888.648,-468.968,-1540,-8820,6160
5.79718,15.3764,4.91301,13.7018,9.01529,2.4918,9.23175,1.30104,11.8757,7.6672,8.27137,4.71399,-0.991548,0.0247569,15.8675,2.85806,-78.568,-887.672,-472.872,-1400,-7700,5880
-7.37863,-5.97517,-7.90432,-13.8997,-13.0263,-4.20263,-16.7347,-6.95696,-4.06004,0.741804,4.51226,-13.2712,-6.20418,-12.0578,-16.0908,-14.6786,-77.104,-884.744,-472.872,-1260,-6300,5740
-17.1663,-21.1017,-12.8436,-28.4241,-22.6797,-6.05989,-26.5297,-8.76293,-19.8915,-8.77867,-1.43042,-18.4385,-7.57778,-13.6194,-34.5988,-18.1907,-80.52,-884.744,-475.8,-980,-4480,5320
-9.89873,-14.0577,-2.42519,-20.0103,-12.1483,-0.906113,-17.8233,-6.44852,-16.778,-2.33233,1.8618,-6.76934,0.134256,-1.29661,-28.9958,-11.7625,-79.544,-882.792,-478.728,-980,-2240,5040
1.50296,-1.35274,2.22689,-5.89978,-3.66051,-0.000305099,-4.76369,-3.2396,-1.91887,-0.0930197,4.9703,0.674611,2.90824,0.550802,-11.9311,-8.71997,-77.104,-879.864,-483.608,-700,280,4900
7.38796,5.96138,2.93036,7.87274,4.47069,1.06021,9.32076,3.16066,10.0995,-0.364485,5.69962,4.74851,4.45189,1.38459,13.206,-1.22769,-81.008,-881.328,-481.656,-420,2240,4760
8.81326,11.0976,2.67881,14.0083,8.216,1.56644,14.25,9.92815,14.9229,-1.11739,0.119892,5.40755,2.8314,2.07434,24.5093,2.92256,-82.472,-878.888,-481.168,-280,4760,4200
-4.26963,-10.0945,-10.6538,-2.60608,-10.6689,-4.96555,1.60533,1.72819,-1.99092,-11.1172,-6.34063,-7.9191,-3.49347,-8.97571,11.0812,-7.96188,-83.448,-873.032,-483.608,0,6860,4060
-11.6233,-14.5729,-6.10591,-6.96736,-9.28239,-2.22438,-1.6012,4.04939,-15.3146,-7.59054,-5.91226,-7.23885,0.938723,-5.55427,1.47314,-5.74999,-87.84,-872.544,-478.728,-280,9100,3640
-5.83001,-5.85384,-5.40135,3.03185,-5.70198,-0.535346,2.3541,-2.52253,-6.61711,-6.29696,-5.37591,0.170727,0.563021,0.759692,7.39495,-4.38969,-86.376,-873.032,-480.68,-840,11340,3220
-0.870713,5.75372,0.664286,11.5838,2.39375,0.981858,6.30973,-1.58106,0.380232,-1.49756,-1.04729,8.96986,6.76605,7.04549,15.6225,0.387539,-87.352,-868.64,-486.048,-1400,12740,2660
-6.77412,-5.03697,-8.15573,-0.0544689,-7.45431,-2.84609,-1.01205,-2.9252,-7.83586,-4.49558,-0.146523,-1.78007,4.79947,-2.58248,9.26898,-2.24741,-87.84,-865.712,-482.144,-2520,14840,1960
-0.569787,0.688083,-5.9708,-1.97603,-5.88906,-3.20991,-4.34499,0.634365,3.56557,1.7829,1.79914,0.6369,5.17752,-7.15327,4.14809,1.35144,-89.304,-861.808,-487.024,-3080,16380,1400
2.32049,-6.32458,-6.64164,-14.7581,-12.6949,-2.98607,-14.2385,-2.41298,5.70522,2.73946,1.81853,-1.02837,3.09944,-8.68213,-14.8433,-3.04897,-85.4,-861.32,-485.56,-4060,17360,840
-5.5272,-12.8886,-5.88785,-19.5185,-9.534,-1.03513,-11.3027,0.940101,-5.5379,-0.937777,-2.75008,-4.20975,-1.16958,-5.44253,-16.75,3.10078,-85.888,-859.856,-486.048,-5180,17220,140
-5.22804,-5.83791,-1.92609,-7.37093,0.772803,1.07695,2.2489,3.31425,-5.93495,-2.45125,-3.95523,1.07536,-2.87609,0.334068,0.545641,13.9637,-86.864,-859.856,-487.512,-5880,17360,-420
1.46704,10.2325,6.05459,7.94556,15.5166,2.08659,10.9663,8.36538,1.15026,5.51276,-3.1144,8.09304,-2.06617,8.90625,11.4789,19.8585,-86.864,-857.904,-486.536,-7140,16940,-1260
1.01801,6.13323,3.02249,4.13156,8.585,0.309488,5.30288,0.672303,-1.36306,0.971378,-2.2093,3.69079,-2.98538,4.96322,1.94626,11.76,-84.912,-857.416,-490.44,-7840,15960,-1820
-2.77425,3.82681,5.17518,-0.531182,5.65237,0.169801,-3.58972,-4.15879,-5.70127,2.12721,-1.17075,-0.337526,-1.0688,1.45475,-8.39792,3.86006,-84.424,-856.928,-492.392,-8960,14700,-2520
2.10577,1.91066,3.18499,-5.74947,-0.8994,0.399357,-10.5633,-7.96056,1.90449,1.43178,1.85452,-3.1959,-2.23767,-4.26305,-15.2569,-4.75803,-82.472,-864.736,-491.904,-9660,13300,-3080
6.65511,7.50899,4.92301,-0.447146,4.15522,3.34183,-1.82645,-2.59401,8.2897,3.70403,1.95427,0.0290614,0.114854,-0.865296,-4.65453,-0.167143,-80.032,-867.176,-492.392,-10640,12320,-3640
-5.86161,-1.38204,0.716447,5.00853,6.01286,5.70933,11.1848,2.95578,-10.9541,-5.40015,-3.12076,-3.22546,0.569887,1.33802,9.53815,6.53397,-81.984,-865.224,-487.512,-11620,10920,-4340
-7.71331,-5.63803,0.412274,5.48882,4.10111,0.848172,9.15001,-2.66118,-16.3041,-4.98596,-0.949811,-3.98185,0.240007,-0.3911,6.13331,0.209284,-77.592,-869.128,-492.392,-12320,9240,-4620
-4.21683,-12.791,2.09576,-16.1439,-7.76677,-4.54761,-14.4895,-8.36769,-11.6978,0.391889,5.16132,-7.78836,0.145991,-4.03959,-28.3918,-14.7383,-74.176,-873.032,-491.416,-12880,7000,-5040
-4.49554,-11.8526,1.88096,-21.4632,-10.0843,-5.00736,-20.3593,-7.46122,-9.54084,0.654731,2.52803,-9.29233,-1.97385,-4.40528,-36.983,-16.9871,-76.616,-872.544,-492.88,-13020,5740,-5600
-0.255576,5.9209,2.19552,3.98836,2.5688,0.347132,-2.29179,0.104125,3.5376,0.344643,0.824892,2.22272,0.211866,2.32135,-8.75331,-4.72538,-68.808,-876.448,-494.344,-13300,3780,-5880
16.7703,22.9253,8.62681,25.7632,14.9483,5.0169,15.8671,7.59045,25.3819,10.2406,3.76661,14.0435,1.93456,10.9459,19.6736,6.51176,-71.736,-877.912,-493.368,-13020,2380,-5740
22.5823,24.9763,12.6263,28.5837,14.6623,6.05471,21.543,7.26164,32.9806,14.4241,8.3791,14.9386,1.44071,10.1702,29.0907,8.59118,-67.832,-875.472,-491.904,-12880,1120,-5460
18.0176,14.5241,8.92572,17.2717,9.19288,3.06239,14.0253,4.82211,24.6105,10.4519,4.3749,9.02093,-1.29785,6.68451,18.4895,6.13583,-63.44,-879.864,-493.368,-12320,-140,-5320
8.19687,5.47311,0.440078,10.8827,5.97821,1.67866,11.9046,8.76915,12.4602,-1.07596,-0.948937,1.02031,-2.99871,3.28123,16.5854,5.56657,-61.976,-878.888,-493.368,-11900,-1120,-4760
-5.77071,-12.1581,-9.71104,-3.41291,-6.85051,-3.01671,-2.00919,2.74272,-7.19434,-8.39557,-4.88398,-11.7724,-5.733,-3.89656,4.1466,-5.26982,-61.488,-879.864,-493.856,-10780,-2660,-4200
-12.0184,-17.2665,-9.45742,-12.7609,-11.7608,-4.92124,-12.423,-1.244,-13.4312,-10.3455,-6.24756,-14.6318,-4.92881,-6.99225,-10.3986,-14.7629,-60.512,-876.448,-494.344,-9940,-4060,-3500
-3.77707,-9.14264,-5.68386,-5.74761,-8.68494,-2.29941,-7.04512,-2.78953,-0.128608,-5.25098,-1.1329,-5.33482,-1.78869,-5.00614,-3.8058,-12.8156,-61,-875.96,-494.832,-9240,-4900,-2660
-3.58869,-4.02742,-0.288259,-6.56314,-3.86856,-0.268896,-6.12,0.864241,-2.16261,1.8456,0.177001,0.993177,1.16938,0.38594,-6.32409,-5.63357,-61.488,-874.984,-495.808,-8680,-5740,-1400
-15.0278,-22.3384,-11.2147,-24.9816,-18.946,-3.96364,-21.1283,-7.56689,-22.4589,-6.78997,-0.013808,-11.1665,-3.3302,-6.82451,-27.1853,-15.8115,-60.024,-870.592,-494.344,-8120,-6440,-420
-2.95757,5.49843,-0.923556,2.38974,1.80522,2.50797,-1.0505,2.62869,-0.954311,2.83057,1.31733,6.51728,1.68687,2.33627,0.343091,0.886588,-59.048,-868.64,-494.832,-7000,-6860,840
3.77795,16.6884,-1.73373,22.1678,12.0668,5.97338,17.774,8.82017,10.9423,1.19264,-1.24031,11.245,1.62905,9.30936,28.5014,13.9379,-55.632,-862.296,-496.296,-5740,-6440,1820
12.8222,20.3518,2.86054,18.542,13.3348,5.78426,15.3253,5.90077,17.7842,8.37927,3.41702,13.0256,6.29473,9.99654,23.0915,14.102,-57.096,-858.88,-502.64,-6020,-6020,2100
5.87519,-1.27338,-5.20982,-10.7256,-6.7862,-1.20148,-4.31351,-4.48759,3.62359,3.20741,1.72965,-0.257262,1.90572,-2.20647,-7.96967,-0.26454,-56.608,-854.976,-501.664,-5040,-5180,2800
-2.24676,-4.67525,-4.76096,-9.33072,-6.18362,-3.44981,-2.62969,-2.68451,-7.63145,-2.1166,-2.44844,-4.63666,-0.843169,-6.53983,-4.63687,1.10159,-60.024,-853.512,-499.712,-4060,-5320,3500
-20.381,-19.473,-8.78354,-16.2673,-13.568,-7.08442,-8.22035,-9.58438,-29.3883,-14.5433,-8.53677,-14.065,-3.70982,-11.2174,-11.3694,-4.10399,-57.584,-844.728,-498.248,-2660,-6020,4480
-32.1859,-26.8429,-5.31862,-18.2032,-12.4104,-7.20419,-4.58704,-6.16694,-45.483,-18.1879,-9.40329,-19.6847,-2.59839,-10.0034,-7.55424,1.03463,-58.072,-846.192,-498.736,-1680,-6160,4760
-8.37077,-10.9815,3.63402,-8.39474,-7.25938,-3.63749,-0.925209,-6.83696,-12.5671,-6.15672,2.39998,-3.66947,4.59357,-5.48064,-0.293699,5.01299,-57.096,-844.24,-495.808,-420,-5880,5180
24.1692,21.4187,19.6672,11.7726,12.0021,0.411574,3.33947,-1.97731,27.2849,16.8707,10.769,21.0961,12.597,4.57619,8.12514,9.78801,-61.976,-843.264,-499.712,840,-6300,5460
18.3085,15.0847,10.6504,6.03806,7.31717,0.0199986,-1.33739,-3.24602,20.9028,6.98557,5.37834,16.2943,6.68868,1.47283,0.0552362,4.07634,-65.88,-844.24,-490.928,1820,-7420,5600
11.3685,8.15139,7.90533,0.210812,6.28952,1.4099,-6.42732,-2.98106,10.3395,6.66884,1.47195,12.5523,3.70171,2.24933,-9.05075,0.252278,-65.392,-845.704,-491.904,3080,-8540,6020
-9.01493,-12.5512,-3.16342,-10.0456,-4.67254,-0.180838,-12.6306,-3.67286,-13.9315,-5.67561,-3.8127,-4.918,-2.64854,-2.26884,-18.0811,-7.43667,-65.392,-847.656,-491.904,4060,-10360,6300
-23.3654,-25.8111,-10.7811,-12.5617,-9.22706,-1.01686,-11.3421,-1.4383,-30.16,-13.905,-8.69968,-16.8111,-7.24237,-2.85731,-16.8376,-9.51471,-69.296,-852.048,-493.856,5040,-12180,6720
4.87595,14.6963,7.37112,24.2273,19.3778,8.54608,15.6903,9.58147,10.1199,5.72119,-1.18839,8.79654,0.150293,11.6431,19.5039,9.24013,-70.272,-855.464,-491.416,6020,-14420,7420
15.1215,20.5861,6.76174,24.8054,18.9759,10.0797,18.1394,10.1013,22.8481,10.2679,1.25442,10.6115,0.853053,10.7519,23.3417,10.1075,-74.176,-857.904,-494.344,7140,-15960,7980
23.4617,26.4427,7.22747,23.6918,17.7934,8.47932,17.5097,9.82694,34.5389,14.4538,6.68746,12.229,4.93093,7.37192,24.0904,10.2038,-74.176,-857.416,-492.88,8400,-18060,8960
14.384,14.5062,-1.6299,13.0081,9.81744,2.5209,12.9262,6.55828,21.9827,4.50754,2.68901,0.222066,-0.0652928,1.28016,17.4651,5.34337,-76.616,-858.392,-495.808,9660,-20160,9940
-4.97534,-7.55104,-12.801,-9.24831,-7.68959,-3.1739,-3.2901,1.46897,-3.02943,-7.9662,-2.14915,-13.992,-6.56756,-6.13435,-6.23661,-4.1212,-81.496,-860.832,-489.952,11060,-21980,10780
-15.7395,-18.8345,-14.9581,-22.4145,-19.0872,-8.60533,-18.6837,-4.11255,-17.7924,-7.48911,-4.4286,-17.9614,-8.91185,-9.42319,-24.5443,-12.7169,-80.032,-865.712,-486.048,12600,-24080,11760
-17.1895,-15.6342,-11.5929,-14.7788,-15.8356,-7.63863,-12.2464,-3.07402,-19.0286,-7.63328,-4.15105,-14.4164,-8.48427,-10.5257,-14.1914,-8.64284,-81.496,-869.128,-484.584,13440,-25480,12460
-10.1623,-12.9412,-6.82083,-10.6904,-11.3776,-4.00387,-7.1804,-3.96876,-13.5161,-3.17684,-0.255182,-9.98547,-5.23187,-7.7436,-7.64794,-4.50488,-83.936,-867.176,-488.488,14980,-27580,13580
5.10075,4.31166,8.04268,4.72674,2.16025,3.7315,7.73402,6.19699,1.90462,8.82868,5.46306,5.74187,3.59351,4.70173,6.52939,7.73995,-86.376,-868.64,-484.096,16100,-29400,14560
14.0523,11.4834,8.60322,6.56124,1.26163,2.34771,6.49714,1.97565,18.2496,9.35551,5.73936,10.739,3.46948,4.16326,5.43336,4.57074,-86.376,-867.176,-479.704,17220,-30660,15120
21.223,28.0134,18.1062,18.7128,17.1462,5.56931,17.4019,10.7365,29.8623,14.0631,5.55514,21.4207,7.77647,12.3276,18.6161,12.0853,-89.792,-868.152,-477.752,18060,-32340,15540
1.59284,4.66124,4.19973,4.2787,3.50759,2.39711,9.92803,2.97638,1.72305,-4.40447,-1.82114,6.56975,0.3205,6.80348,10.3845,2.31292,-91.256,-869.616,-476.288,18060,-33880,15820
-13.3011,-10.0204,1.46496,-9.37217,-5.22512,0.73163,-4.2385,-1.21,-20.4486,-10.2706,-3.93555,-1.77668,0.904116,1.3447,-5.87043,-3.75771,-93.208,-872.544,-473.36,18340,-35560,16240
-10.961,-17.0952,-1.82672,-17.939,-13.9621,-4.52903,-18.811,-11.1915,-20.1413,-7.84086,0.588563,-7.13261,-0.159592,-5.63023,-23.5103,-15.2672,-98.088,-871.08,-473.36,17920,-37240,16520
-9.94711,-18.9382,-3.24703,-26.226,-17.4732,-8.39225,-30.9886,-16.64,-21.043,-2.56331,2.08339,-9.93229,0.495024,-8.12586,-40.9655,-23.3464,-99.064,-878.888,-472.384,17220,-38360,16800
-5.62761,-11.1229,-4.31881,-12.8529,-8.73157,-5.05383,-14.6168,-11.643,-12.051,-1.5162,2.01019,-5.48121,1.43464,-1.16494,-18.471,-13.0024,-98.088,-878.888,-470.92,15820,-39060,16940
-9.63676,-4.82869,-6.65476,-0.103297,-1.48357,-2.42719,2.36244,-2.01083,-8.27108,-6.63656,-5.82744,-6.65042,-1.43627,-2.06184,5.11091,-1.98191,-98.576,-881.328,-469.456,14560,-39200,16940
-3.00741,1.64516,-4.09576,8.02226,2.91116,0.511569,10.1012,3.74183,2.38642,-2.9136,-3.04088,-1.98464,-0.811138,0.408587,14.6547,5.82254,-101.992,-883.28,-472.384,12740,-39200,17080
5.43884,8.00139,3.26248,13.7592,11.5825,1.63994,15.6352,8.86026,8.40918,7.18793,0.139865,3.4266,0.085689,5.73587,21.9046,10.6316,-100.04,-885.72,-474.336,11900,-38780,17220
7.48291,6.58687,0.952503,9.91888,6.21305,1.09385,9.57673,3.21373,13.4848,4.93925,0.494981,4.9883,-1.0446,-0.148931,13.6912,4.02821,-99.552,-881.816,-473.36,11060,-38360,17360
9.04453,12.2172,2.64588,8.31641,11.3502,0.877914,4.73745,2.25834,18.4511,6.92238,-2.16823,7.71949,-0.996287,0.366793,5.86836,2.2323,-102.968,-880.84,-468.968,10500,-37660,17360
4.97907,6.11213,0.67393,4.30234,9.41529,3.84304,5.36411,4.42737,13.0023,-2.04387,-4.07048,3.88916,-2.52442,2.77542,4.30783,2.76064,-103.944,-877.424,-473.36,9940,-37240,17360
-9.35519,-8.86951,-0.530687,-3.28167,3.84413,3.76696,1.64151,5.40949,-10.8923,-7.27965,-1.24507,-5.52459,-1.74162,2.57472,-0.168841,2.69578,-104.432,-878.888,-472.872,9800,-36120,17360
0.480169,-4.26842,3.16541,-1.27194,-0.693603,2.00212,-4.42854,-3.18567,-0.244039,-1.13985,5.13946,-1.08476,1.47132,0.425258,-6.84112,-2.9485,-107.36,-876.448,-475.8,9660,-35280,17080
25.8296,20.509,11.1251,19.1175,11.7175,4.35703,4.74888,-2.92483,31.2492,13.6383,8.34487,15.6124,5.58544,5.83238,9.16955,3.8647,-106.384,-873.032,-476.776,8820,-34300,16940
17.9018,20.1571,8.1392,19.6939,13.4426,3.92186,11.4539,3.74306,20.6497,10.963,3.99622,13.8225,6.7961,3.62625,19.3896,10.349,-105.896,-871.08,-477.752,8120,-33040,16520
7.2559,5.42788,-1.75952,0.0328496,-2.53452,-1.71449,-6.39321,-5.15988,5.76034,3.48258,2.44176,2.66906,4.33307,-6.41016,-3.61789,-3.49374,-102.968,-866.688,-486.048,7840,-32060,16240
-17.0321,-17.9004,-10.7672,-22.5612,-17.9891,-5.49828,-21.7231,-6.01263,-22.7877,-10.8558,-3.49399,-14.0243,0.37014,-13.7349,-26.5132,-9.15857,-102.48,-866.2,-484.584,7280,-30940,15820
-36.853,-38.5227,-18.5699,-32.7656,-26.4367,-7.48785,-20.2066,-3.87088,-50.4259,-23.9441,-11.6698,-27.5205,-8.17329,-14.7655,-25.846,-7.49984,-101.016,-861.808,-483.608,7140,-30380,15540
-25.686,-20.8922,-13.3167,-14.7924,-14.3355,-4.52939,-4.95814,-1.6882,-32.3141,-18.1372,-6.06559,-15.9086,-5.89983,-9.39057,-5.76432,1.01848,-101.504,-856.928,-486.048,6720,-29400,15120
-9.34895,-2.38432,-6.68644,2.78427,-1.60217,-3.40044,5.4124,-5.05756,-9.56041,-7.02336,-1.81655,-2.78458,-4.15758,-2.27838,11.502,4.30322,-99.064,-855.464,-487.024,6440,-28560,14840
11.9494,19.5252,4.27509,25.3,15.1311,2.10456,23.3704,4.9721,16.5199,5.72296,1.22478,13.0871,-0.759948,7.2778,35.1504,16.7224,-98.088,-853.512,-487.024,6160,-28420,14560
22.2037,20.4999,6.54329,24.2033,14.7684,4.266,20.5317,5.84857,26.7897,14.2202,6.41918,16.5443,2.118,10.3991,27.5484,15.1013,-96.136,-853.512,-487.512,5460,-27720,14280
9.41324,5.50057,2.69344,7.27381,6.28283,3.50706,7.3203,4.55573,7.68057,11.2479,3.35853,6.37286,1.25217,8.28809,6.63859,6.01871,-96.136,-853.512,-486.048,4620,-27300,14140
-10.6564,-13.8765,-8.66603,-12.6322,-9.76078,-0.297383,-8.54032,-1.77952,-14.2971,-2.67075,-5.01504,-10.3664,-3.33586,0.373523,-14.4343,-7.20215,-97.112,-854.976,-482.632,3640,-26320,13580
-7.10117,-7.75517,0.653399,-16.4277,-4.90312,3.5243,-12.2481,1.83557,-14.1568,1.91424,-4.61003,-5.88655,2.11889,1.21612,-25.2046,-5.96334,-95.648,-857.904,-484.096,2100,-25340,12880
9.04939,0.863857,7.6517,-11.0677,-3.64405,3.61007,-9.55837,-1.34777,4.82297,5.42029,3.60134,2.96467,3.98916,3.36276,-22.6224,-6.21084,-91.744,-857.416,-487.512,1260,-24780,12460
18.7475,18.4157,18.3297,4.31528,6.47064,4.82068,-0.685297,3.30197,21.6622,13.5971,8.46977,14.1855,8.12402,11.4084,-7.31201,-0.637087,-93.208,-860.344,-482.144,-140,-24080,12040
19.2712,11.2651,10.8242,-5.54823,-4.73513,0.402483,-9.31003,-3.00275,24.5076,12.966,9.00144,7.7672,3.5387,4.97277,-19.2528,-8.92436,-95.16,-864.248,-484.096,-980,-23520,11620
6.51263,8.51115,6.96131,0.308962,-0.0190065,0.991103,-4.68038,0.702294,11.6224,6.10683,2.95927,3.20542,0.350422,4.16058,-8.75368,-6.38418,-95.648,-865.712,-488,-1680,-23100,11340
-14.3447,-5.38185,-0.403693,0.811989,0.69283,1.76604,5.33144,6.51009,-12.7655,-8.89417,-5.72147,-4.51951,-4.24403,1.72509,6.78026,1.09343,-95.16,-868.152,-491.904,-2100,-21980,10920
-1.30166,4.12263,3.41167,9.90701,6.41211,-0.5832,9.36781,2.22479,1.40023,-2.67811,-0.507561,3.97412,-2.44967,0.217837,16.9723,1.92295,-95.16,-867.664,-491.904,-2660,-21000,10920
4.63676,11.7746,5.95116,23.6351,15.565,0.485074,18.2749,2.6357,10.0969,-0.703032,0.413706,11.2955,1.03774,0.672961,34.4545,8.28924,-94.184,-871.08,-493.856,-2380,-20580,11200
-4.24236,1.07351,0.111855,15.2745,10.1771,-2.61483,12.859,3.15267,-2.14789,-4.34858,-3.13544,3.09246,-2.32112,-2.50498,26.7918,5.13124,-95.648,-867.664,-494.832,-2100,-20160,11480
-11.042,-15.1476,-11.1748,-5.41645,-8.16249,-6.38478,-3.1321,-2.56479,-11.4307,-12.8744,-6.24817,-10.8432,-7.3909,-12.3583,3.29388,-5.27305,-93.696,-867.664,-490.928,-1540,-19740,11900
-0.624808,-5.88051,-6.04807,-5.89042,-3.46138,-6.64231,-6.54367,-1.37642,-0.809645,-1.50241,-2.28231,-6.26419,-4.8444,-10.0791,-5.41879,-5.30231,-94.184,-866.2,-487.024,-980,-19180,12180
2.69963,-8.58661,-7.83971,-11.2261,-8.65854,-7.4514,-11.5298,-5.42574,1.55543,-1.53868,1.98137,-6.64054,-3.13468,-11.6845,-15.4629,-7.92171,-92.232,-868.64,-488,-420,-18900,12740
-7.85595,-18.2234,-10.8801,-20.7096,-13.9835,-7.38825,-13.0085,-4.60437,-12.8051,-4.26008,-1.8363,-14.6644,-2.3785,-11.8434,-21.4951,-4.5025,-91.744,-865.224,-488.488,140,-18900,13160
-2.8579,-9.19396,-8.57343,-11.0968,-9.91874,-3.62741,-3.61224,-2.54832,-6.04498,-2.43184,0.6299,-9.76114,-1.16661,-4.8713,-9.86999,0.476623,-90.28,-869.616,-488.488,840,-19040,13440
-2.52038,4.34391,-2.30053,5.95172,1.84292,1.12662,9.59807,1.93421,-4.65553,-1.39447,-0.371345,-1.51074,0.561599,4.63651,11.1181,7.8067,-90.28,-868.152,-484.584,1260,-18200,13300
-8.60189,4.27889,0.130078,4.95029,2.72071,3.62219,4.44108,0.780943,-13.9456,-3.95174,-1.73678,-1.19897,2.62974,6.07131,7.36527,4.48223,-90.28,-865.224,-488,1680,-17920,13440
-1.48851,5.65457,-0.4419,-1.10561,-0.518292,2.31627,-8.02038,-6.75816,-0.480098,-2.79131,-1.60799,-0.448816,2.47447,2.28453,-9.29847,-4.21395,-90.768,-865.712,-486.536,2240,-17780,13580
0.557675,14.6832,7.3092,10.7569,11.6446,7.73623,3.32007,0.416466,7.66007,1.30333,-0.644429,7.85605,8.10283,8.17303,2.71247,4.66564,-91.256,-866.688,-485.56,2660,-17220,13440
-16.552,-19.0562,-3.81315,-18.8147,-9.29207,1.26976,-11.496,-4.99433,-21.512,-6.0529,-0.558412,-13.4139,2.73442,-2.71906,-19.8447,-7.26795,-91.256,-864.248,-479.216,2940,-16800,13300
-13.7008,-27.0833,-3.76302,-27.0342,-16.9962,-1.08118,-18.4937,-6.94483,-23.076,-3.54586,3.13902,-16.4398,2.8959,-7.10452,-29.304,-11.5257,-97.112,-862.296,-478.24,3220,-16660,13160
-7.99429,-18.0173,-3.62468,-11.2068,-8.10723,0.405739,-6.3051,0.398357,-12.3974,-2.4513,-1.98902,-9.16002,-0.220459,-3.16863,-10.4648,-1.93335,-95.648,-864.736,-478.728,3080,-16380,13160
10.0936,6.85303,1.62756,11.4689,7.84154,3.08043,9.39325,8.31572,16.5909,4.59823,0.0121013,8.47496,0.506177,2.27334,12.2075,9.56032,-97.6,-863.272,-474.336,2940,-16380,12880
20.6072,21.1735,8.07534,27.1483,19.1313,6.21664,16.7816,7.2171,31.1836,11.2127,2.7578,22.4908,3.37668,12.0589,26.481,12.6898,-99.064,-868.152,-476.288,2380,-16520,12740
14.7459,19.0341,7.67104,19.9304,14.8122,5.38678,11.345,6.7265,25.3119,10.0226,3.44883,18.326,3.90863,12.8447,16.6091,7.85018,-99.552,-868.152,-476.288,1960,-16240,12600
15.2902,13.0638,8.44846,10.4207,6.49595,5.5851,5.83398,2.96425,20.6067,9.52003,7.26053,15.8537,5.6228,11.392,6.34367,2.6932,-98.576,-870.592,-475.8,980,-15960,12740
9.65634,18.2129,14.8184,16.441,13.6991,6.81674,12.962,6.03352,10.5455,10.811,3.81407,18.3055,7.46445,16.004,17.9321,7.31392,-98.088,-871.568,-479.704,420,-15120,12460
6.91655,11.4866,5.15687,11.135,4.87281,0.562338,10.7644,-2.55467,9.36855,3.22726,0.585174,10.8212,-0.915733,8.11911,17.2438,2.4999,-100.04,-870.592,-481.656,-280,-13720,12180
11.98,20.8595,8.03135,18.4755,12.8409,-1.04752,17.8322,3.61278,16.789,9.76717,-1.7535,14.3357,-3.24296,7.45507,26.6866,8.73719,-104.432,-874.008,-482.144,-980,-12040,12180
9.78906,12.3774,-0.81245,6.32943,2.39738,-4.83093,2.38904,-2.88839,11.5327,1.93351,-2.68412,5.03056,-8.18638,-4.76465,11.2433,-4.44707,-104.432,-870.104,-482.144,-980,-11340,12180
0.15689,0.416914,-6.86924,-12.622,-10.3205,-8.28965,-18.4524,-8.8163,-1.28005,-3.56165,-2.1766,-6.78582,-10.7042,-15.3439,-14.5863,-16.2803,-108.336,-870.104,-481.168,-140,-11200,12460
-17.802,-24.0234,-15.6222,-33.5966,-26.1649,-9.86639,-31.5022,-14.3488,-24.5392,-14.4182,-3.52901,-24.3038,-12.4332,-22.8148,-35.3323,-24.137,-107.36,-868.64,-478.24,840,-11620,12740
-20.2445,-25.1818,-10.9332,-29.8427,-17.3169,-4.80275,-23.246,-7.77613,-31.736,-13.6916,-4.78834,-22.5685,-7.47434,-15.2198,-31.7955,-16.0402,-109.8,-865.712,-480.68,1540,-11900,13020
-14.3237,-12.9649,-4.22589,-11.1219,-2.7177,2.57306,-4.35511,3.90073,-23.0468,-8.68962,-2.6614,-9.12268,-0.297596,-4.06619,-12.1137,0.641137,-106.384,-866.688,-480.68,1960,-12040,13440
-6.08541,-3.61433,0.393802,-0.981379,3.66479,2.21948,3.57337,7.79114,-13.4127,-3.00694,3.04206,-3.90835,2.90941,-3.0645,0.461804,5.02665,-108.336,-866.2,-481.168,1680,-11620,13580
-2.92467,-7.90028,-5.53373,-6.04173,-7.07819,-3.37092,-1.38584,1.28979,-5.62091,-5.64966,6.67674,-8.98474,2.35511,-8.37703,-3.72233,-2.56519,-106.872,-864.736,-482.144,1540,-10780,13580
-2.32013,-8.09602,-3.52651,-5.61322,-2.24342,-3.41089,0.427153,2.80212,-5.44949,-1.97003,1.59647,-7.80263,3.71657,-3.41432,-5.45925,-0.822717,-110.776,-864.248,-479.216,980,-8960,13300
-1.03055,-5.22133,-3.29402,1.84487,0.074678,-1.05593,7.10165,3.25679,-2.87586,-2.7676,-2.07011,-3.30807,3.43471,0.938504,3.98122,4.36204,-107.36,-858.392,-480.192,700,-7840,13020
8.27911,6.95542,5.35549,14.7832,9.46215,3.25138,17.3198,7.10032,8.76852,4.99383,0.313754,8.56304,5.58227,8.78017,17.4369,12.8539,-110.288,-855.952,-478.24,420,-7140,12740
-1.28231,-2.94227,1.34165,7.16816,3.07332,3.37276,13.0191,6.861,-2.63675,-0.0478066,-3.74569,1.95249,2.19048,5.9933,8.68457,11.2463,-113.216,-850.096,-481.168,-280,-6860,12320
-9.1905,-12.3382,-4.65736,-10.0001,-10.92,-1.27283,-7.90097,1.84688,-9.05322,-2.34361,-5.39024,-8.0538,-1.95188,-2.97018,-16.7545,1.29405,-116.632,-844.728,-479.216,-980,-6580,11900
6.48587,8.86671,5.68413,8.76108,3.69525,1.63499,1.80192,3.78997,14.9094,7.97418,-0.17965,6.37838,3.6857,5.33924,0.427972,7.49517,-115.656,-839.36,-480.68,-1120,-6440,11760
5.33899,1.06089,-0.00986011,1.11632,-3.64661,-3.05738,-6.67922,-6.96223,12.776,3.26287,-1.08176,-0.136596,-0.375733,-0.348037,-5.27661,-1.46429,-116.632,-838.384,-483.608,-1400,-6860,11900
2.31553,4.36243,4.7559,3.49807,4.36685,1.35774,-0.0804314,-0.0440382,9.34751,2.34767,-1.71013,3.55416,1.1858,3.96914,0.173681,6.59395,-118.584,-841.312,-484.096,-2100,-6720,11760
1.93261,5.04461,5.02775,12.7558,11.3661,4.25105,10.7306,0.3697,7.72636,0.274648,-2.62647,4.59862,0.130325,8.28799,15.6238,11.163,-119.56,-840.824,-482.144,-2800,-6440,11760
-2.98711,-4.0442,3.03795,1.08961,3.50644,1.13393,2.53125,-6.00278,-4.47779,0.453078,2.24898,-1.25205,-0.514003,2.82489,4.95365,2.80874,-118.096,-847.656,-483.12,-3640,-6720,11900
-8.00054,-9.09578,0.63493,-3.93368,-1.17083,-0.62256,0.202686,-8.5511,-13.1958,0.611458,2.48532,-4.44921,-3.22153,0.844695,0.948738,-2.56977,-117.12,-850.096,-480.192,-4480,-7700,12040
-0.961335,2.96865,2.8639,2.35784,2.23246,0.596534,4.05276,-4.25052,-2.2977,0.455816,0.251821,0.258459,-4.15152,1.20362,5.59529,-3.75019,-117.12,-856.928,-477.752,-5180,-8540,12180
8.65144,7.86344,2.51201,1.55138,1.88703,1.59465,0.502084,-2.76979,11.4252,3.87577,0.685843,4.59523,-2.72499,3.25698,2.01936,-3.94553,-114.192,-861.808,-482.632,-5460,-10360,12460
10.06,8.42462,2.8731,-5.23099,-2.60027,0.374735,-9.40623,-3.38677,12.8005,6.64087,3.62806,3.57281,-1.04689,-0.492688,-10.3425,-8.26117,-114.192,-868.152,-481.656,-6440,-11340,12320
-0.366354,-1.43803,-5.14277,-11.3049,-11.4742,-3.03597,-14.0309,-8.06418,-0.984031,-0.674482,3.31324,-1.8488,-2.37706,-4.57186,-13.0429,-11.3556,-110.288,-874.984,-484.096,-7980,-12880,12180
1.68827,14.542,1.55629,7.92508,2.56302,-2.28619,-2.52601,-1.58408,4.34555,3.59368,2.09432,8.48851,1.44796,0.152888,6.47661,-3.13893,-113.216,-874.008,-487.024,-7700,-15260,12180
6.13142,8.3512,0.0987594,-1.99956,-5.59417,-1.66554,-10.8577,-4.77551,9.46564,0.628288,3.8865,9.09238,1.20082,-2.54749,-10.9986,-10.3435,-115.656,-874.496,-488.976,-7560,-17640,12460
14.9345,17.0487,8.69986,5.02813,5.33108,4.20867,-3.87281,3.70224,19.8939,9.41958,6.69469,17.4199,6.81626,4.06637,-3.75611,-1.2086,-111.264,-875.472,-491.416,-7140,-20860,13020
6.47981,6.16961,0.800873,9.64442,5.02628,1.97778,6.42625,4.0602,7.43645,1.69834,3.07039,5.74668,2.72892,1.47228,17.1401,2.23164,-110.776,-877.424,-491.416,-6300,-23240,13580
-5.21507,1.44804,-0.77176,11.8726,6.57144,2.1154,9.32794,7.2384,-10.0548,-2.22797,-1.25146,0.535939,3.04701,-0.00749008,21.6888,6.57738,-112.728,-878.4,-498.248,-5320,-24780,14140
-13.7594,-3.49357,-5.71202,12.6915,6.34071,3.06322,12.1545,7.85258,-20.871,-10.2567,-5.76155,-1.57292,3.14141,0.516609,22.0106,7.37746,-113.216,-873.52,-495.32,-4900,-24640,14000
-11.547,-4.62164,-5.99368,8.74812,8.02907,1.6629,13.5804,8.85339,-16.5746,-10.7184,-8.05698,-3.86016,1.05351,1.52222,19.3666,9.14401,-116.144,-877.424,-496.784,-5180,-23800,14000
4.96483,1.68463,0.261129,3.63,6.36002,2.56215,9.9769,7.33597,6.16802,1.28561,-0.181461,1.13079,3.51768,4.27764,7.75041,7.70701,-118.584,-878.888,-491.904,-4060,-24500,14840
6.46817,-3.17771,-0.538265,-10.3977,-1.81232,-0.216375,-4.80047,3.26698,4.75227,4.75942,2.20111,-1.35538,3.05338,2.48453,-19.0941,-2.25593,-114.192,-874.984,-490.928,-2940,-25200,15260
6.12068,-4.71658,-3.29294,-18.0186,-10.9911,-3.82074,-17.8093,-3.90681,5.16989,1.87608,5.0105,-3.29341,2.5807,-5.6266,-35.3153,-12.0845,-117.608,-878.4,-490.44,-2660,-23660,14840
-18.086,-21.6717,-9.74112,-22.1881,-14.208,-6.48804,-14.3079,-2.03028,-24.5734,-9.75991,-5.37518,-17.4601,-2.95121,-9.20187,-26.821,-9.91777,-121.512,-875.96,-492.88,-2940,-21560,14420
-31.6433,-34.7875,-17.3955,-24.0951,-18.1295,-5.95348,-3.99795,2.2725,-39.8119,-24.283,-14.1796,-25.6755,-9.18219,-10.6968,-12.1813,-5.3032,-125.416,-875.472,-489.464,-2800,-20300,14000
-1.09919,-11.2245,-5.43362,-8.71803,-3.21066,-2.03643,3.26308,2.7103,-0.58595,-4.09112,-3.67076,-5.53779,-4.09661,-1.48957,-0.321948,-1.98357,-126.88,-874.984,-488.488,-2800,-18760,13440
-0.59212,-11.0903,-5.3035,-10.516,-4.92667,-4.01426,-4.98939,-1.74878,0.986375,-3.07349,1.15904,-7.15336,-5.45761,-6.21664,-7.73814,-4.76004,-130.784,-873.52,-492.392,-2940,-17360,12600
2.47229,-2.3069,1.13581,-1.94026,0.38446,-0.590617,-1.8666,-3.28148,6.83426,1.38102,4.843,-1.55795,-3.27202,-3.71447,-2.99675,-1.10212,-133.712,-874.496,-494.344,-3080,-15680,12180
20.4454,28.5964,16.681,27.4348,23.1189,7.53147,19.4224,3.89972,31.344,15.3514,6.0815,19.3445,4.10821,9.37327,26.6557,12.5856,-134.2,-873.032,-493.368,-2940,-14560,11620
6.17175,9.1888,6.5806,11.9998,7.95141,0.592921,8.85402,-3.17412,12.0939,4.57828,0.832315,1.79034,-2.0075,-0.366243,15.7888,2.31089,-137.128,-865.712,-497.272,-2940,-13300,10640
-14.2602,-9.3647,-1.38787,-5.76096,-6.40992,-2.37437,-2.13231,-4.68498,-12.8964,-5.50993,-3.50401,-13.5504,-5.16407,-8.47917,-0.432334,-3.92586,-140.056,-867.664,-494.832,-3780,-11480,9660
-14.3081,-12.1093,-4.59955,-7.15889,-7.72287,-1.48428,-2.74927,-2.42038,-17.6052,-7.8871,-6.04093,-12.9012,-7.56132,-5.95709,-4.51363,-2.59721,-141.52,-864.736,-486.048,-3780,-11200,9240
3.14286,9.51993,7.1799,1.81244,0.238829,2.10899,-4.98747,-1.08576,1.91402,3.6756,-0.436106,6.31632,-0.430511,2.71697,-10.9749,-0.923735,-135.664,-865.224,-490.44,-1960,-13160,8960
12.0217,15.3472,8.23779,-3.00207,-2.80787,1.07024,-15.2245,-5.37292,11.2141,8.1085,0.0656755,9.99144,1.18874,5.13499,-23.7306,-5.55365,-132.736,-861.32,-492.88,-2240,-11200,7140
0.304128,0.24497,1.28185,-12.1214,-10.0079,1.27732,-16.2831,-4.49237,-5.08094,-0.469382,-1.48097,-3.72411,1.10755,2.95935,-21.5231,-6.13289,-125.416,-868.64,-490.928,-4900,-8260,5320
-7.59911,-14.5505,-3.26373,-19.5241,-18.124,-1.4082,-15.7606,-10.0687,-17.5042,0.395715,4.11363,-13.453,0.875952,-1.04081,-15.9108,-7.12947,-127.368,-869.128,-488,-5180,-6160,3920
-2.79248,-7.19311,2.67946,-5.46461,-7.69183,-4.0231,-6.0809,-11.4699,-11.7909,6.9596,10.1579,-6.96159,4.87024,-0.987691,2.67323,-1.33556,-113.704,-868.152,-493.856,-4480,-7000,2940
6.69408,3.89483,8.07896,10.5261,5.40559,-0.367334,9.1236,-6.64193,2.91574,9.69859,9.32042,7.49824,5.70612,3.10156,20.6264,7.45845,-115.656,-865.712,-488.976,-4760,-4480,1260
37.6294,40.1299,25.8797,39.4875,37.1376,10.8542,32.8436,14.2167,42.2418,31.5583,4.76977,37.7762,8.27343,21.3462,43.2292,28.1837,-111.264,-875.472,-486.048,-4620,-4340,560
43.0669,42.7887,17.2161,45.2222,35.5166,11.4366,32.9821,16.2161,52.813,23.4558,-1.63389,40.4688,3.79645,20.9333,46.7181,27.8614,-111.752,-864.736,-484.584,-2100,-4900,-140
31.901,43.8167,11.3791,48.7303,33.0173,9.59501,30.9404,18.5482,49.5866,13.2341,-0.899302,34.5626,5.07049,17.061,45.5916,26.7842,-108.824,-868.64,-489.464,-1540,-6580,0
-3.98012,11.6142,-7.42038,27.1898,9.21232,3.35677,16.9087,10.3194,10.6884,-12.4561,-2.55158,6.81951,0.441227,4.93853,26.0537,12.714,-108.336,-867.176,-486.048,-1540,-7140,280
-30.1834,-18.3151,-16.393,-2.43669,-11.0553,-2.43338,-4.72177,2.03308,-25.9862,-24.5232,-4.5463,-14.1736,-2.47477,-5.42976,-3.92403,-2.5588,-107.36,-861.808,-487.512,-1120,-10360,1260
-26.7702,-25.9965,-15.7573,-18.9097,-19.0392,-5.84345,-18.5106,-7.40341,-29.1723,-22.1778,-1.65959,-17.7621,-2.38312,-10.8139,-24.2097,-16.1174,-103.944,-862.784,-489.464,-700,-12460,2660
-27.3268,-34.8149,-18.7393,-34.9387,-23.956,-7.75708,-26.1073,-8.78919,-36.8547,-17.6306,-2.417,-22.8927,-3.28842,-15.7913,-39.5551,-22.0326,-99.064,-866.2,-487.512,-980,-13300,3780
-17.4008,-29.6555,-16.3679,-38.8774,-23.5832,-7.79694,-27.2505,-8.30395,-23.8397,-6.68982,1.68197,-20.741,-2.45012,-15.7688,-41.934,-20.6538,-94.672,-865.712,-490.44,-2100,-10920,3920
-0.509727,-7.8658,-3.37672,-19.6352,-7.51698,-5.53519,-13.9333,-3.86696,-2.26584,4.00683,3.09491,-6,-0.52697,-5.61167,-23.3157,-11.8615,-92.72,-870.592,-494.344,-3640,-7700,3640
-9.85859,-9.55024,-3.29589,-10.7852,-4.24032,-2.45704,0.114102,0.66808,-12.7437,-5.99337,-2.48705,-5.93186,-1.01811,-2.53699,-5.63406,-4.00407,-92.232,-867.664,-490.928,-4760,-3920,3360
-9.8433,-11.7727,-2.12155,-13.6821,-3.36242,-2.93925,0.509803,2.00119,-13.333,-2.70934,-3.71153,-7.55251,-2.90259,-3.28276,-4.21776,-3.39551,-91.256,-869.128,-486.048,-4480,-3640,4060
-4.14651,-12.2548,-5.71414,-11.924,-5.37646,-3.58975,-0.489732,-2.65822,-5.66976,-4.61265,-4.98802,-6.41262,-5.15138,-8.98656,-1.8475,-6.62411,-91.744,-873.032,-483.608,-5180,-1820,4480
-1.36187,-9.75442,-1.57846,-6.5962,0.0868295,-2.04115,1.27035,-3.19039,-3.31272,1.8106,-3.34175,-2.61838,-4.24358,-7.28062,2.12033,-4.98494,-95.16,-875.472,-483.608,-5880,-280,4760
10.9957,7.78342,7.26997,7.21369,9.07143,2.17609,6.51216,-0.850798,13.5614,10.0118,0.347951,9.48241,0.93622,-0.0684778,8.65024,0.47393,-96.624,-871.568,-481.168,-6860,1820,4760
10.2901,6.96847,4.18306,6.35962,4.24017,1.18855,0.910176,-2.65629,9.70943,5.75471,0.799063,6.02094,2.19155,1.04676,2.63489,-1.41101,-100.04,-871.568,-474.336,-8400,2240,5600
7.36,2.80417,2.51031,-1.80316,-1.58414,-0.745733,-6.46011,-3.0862,5.44789,0.335134,-0.202695,0.879264,1.74055,2.41235,-9.87701,-4.64833,-101.504,-869.128,-477.264,-8540,1680,6300
-1.8238,-3.04127,0.260631,0.515515,-1.9436,1.00772,1.99925,-0.959221,-4.41775,-9.51571,-3.25347,-3.68299,-0.0997131,5.86481,1.33369,0.535238,-104.432,-862.296,-475.8,-8680,840,7420
2.78433,10.7843,8.76964,12.3324,8.77365,4.99275,10.1946,7.18833,3.64175,-1.65819,1.88885,4.22701,5.27006,10.8348,13.9655,9.84543,-106.872,-865.712,-472.384,-9660,980,7980
13.4897,17.7902,8.50274,11.7746,4.75912,1.66599,3.7516,-0.346488,16.883,4.20966,5.64978,4.57266,3.5386,5.20403,9.70832,3.3335,-119.072,-859.856,-470.92,-9660,-2240,9240
10.3384,19.2437,7.64639,14.9188,5.23364,4.91866,8.29953,6.51344,12.9978,4.9764,2.62944,5.07973,5.19968,5.02118,12.3376,9.49871,-117.608,-863.272,-471.896,-7840,-11200,12460
-1.4467,7.41113,0.149999,5.62387,-0.957396,3.91411,3.94192,5.95985,-1.62533,-1.56876,-2.49952,-1.55401,1.61554,1.5546,1.05631,7.01844,-119.56,-850.584,-474.824,-6300,-17640,14280
-9.4549,0.858348,-3.02799,-0.27425,-3.39333,0.215934,-0.169857,2.84426,-10.3641,-4.28259,-3.02032,-6.33768,0.0487738,-4.12884,-5.675,3.08447,-111.752,-853.024,-481.168,-7560,-24360,16380
-13.4098,-13.2307,-4.82591,-14.6197,-11.4534,-4.03161,-10.2503,-4.30627,-18.2345,-4.44544,-0.587265,-11.9722,-2.37122,-8.20167,-19.2596,-5.30809,-112.728,-856.44,-488.976,-12180,-22820,15540
-8.80858,-5.59178,4.39387,-2.0234,0.362078,0.162032,0.800307,1.48994,-13.6254,-0.0337503,1.97452,-4.42261,-2.06284,0.840975,-0.977526,2.396,-115.656,-855.952,-496.296,-15400,-20720,14560
-6.67426,-2.60065,2.05756,5.51941,2.18279,1.79397,5.18546,1.84559,-7.97616,-1.63684,2.83802,-0.817928,-0.560419,3.43536,11.6525,5.17447,-123.464,-853.512,-493.856,-17080,-19180,13720
6.59718,8.78341,6.97725,8.9468,9.0997,1.22376,4.58363,2.89086,9.73636,8.55433,5.2203,8.19534,1.45356,6.93335,10.6794,4.4586,-115.656,-865.224,-497.272,-17360,-20440,14000
9.65453,2.87763,-3.35988,1.17365,-0.709198,-2.34873,-3.97397,-3.40531,17.2335,2.77497,-0.852968,6.28627,-4.53373,1.29643,1.30428,-4.7217,-115.656,-859.368,-494.832,-17780,-19320,12740
15.8173,11.0644,3.33961,3.21986,6.09608,0.262497,-5.83395,-1.21877,23.6935,9.52871,-1.18394,12.3122,-1.66703,3.10856,-1.87243,-3.22437,-118.096,-861.808,-496.296,-18900,-16660,11340
10.5232,2.53939,-0.281993,0.527641,4.18207,1.46606,-3.6604,-3.3586,13.1979,3.97193,-0.914151,4.59222,-0.966029,-0.248842,-0.101436,-4.39265,-122,-868.64,-492.392,-19600,-14140,10780
-5.47467,-10.7584,-5.6375,-4.5189,0.660885,1.50386,-0.853694,-1.63338,-11.0226,-1.08961,-0.1431,-6.46691,-0.3707,-4.42193,2.4673,-3.35764,-121.512,-868.152,-485.072,-17920,-13160,10360
-3.07716,-12.0857,-9.56394,-6.90438,-3.52466,-0.903558,-2.1452,-2.06035,-8.70546,0.0934679,3.17041,-8.28079,-1.82975,-4.64842,1.25419,-2.18406,-122.488,-870.104,-484.584,-16940,-12460,9660
-4.16332,-13.7768,-12.6217,-17.6483,-12.5972,-6.52512,-15.1273,-6.29873,-8.28894,-3.84543,0.0688929,-12.2237,-4.59267,-10.3749,-16.0179,-7.77857,-122.976,-874.984,-488,-16100,-7280,8400
5.54209,1.56159,-1.686,-6.44343,-5.69689,-3.8492,-10.2468,-3.66747,4.71551,3.73944,1.77114,1.42153,-0.801064,-3.71164,-12.2708,-2.88005,-116.144,-873.032,-492.88,-14280,-6160,7140
10.5681,15.6937,7.91933,11.3249,7.58072,-1.04495,5.24607,-0.45166,12.4488,10.8521,1.07637,12.0973,1.11665,4.53036,7.6274,4.34019,-122,-870.592,-492.88,-15260,-1540,5320
-1.77342,10.2984,6.8473,13.4055,8.23576,3.28546,13.6812,2.86321,-0.456347,3.63319,-0.886977,10.5297,3.75193,8.10519,15.4893,9.43845,-123.952,-873.032,-492.392,-16100,2940,4620
-5.51021,6.81671,4.16401,10.4024,9.33758,3.91819,12.6028,4.26173,-4.82705,2.83627,-0.957358,9.38987,3.22804,7.65239,11.7334,9.42094,-121.024,-866.688,-488,-13300,1260,4620
-1.5356,2.32733,-4.79478,5.033,1.23926,1.45295,5.82127,-0.964828,5.0616,-0.846733,0.206486,4.70928,-1.45455,0.454786,4.3614,1.80992,-119.56,-875.472,-494.832,-10500,-840,5740
-0.272497,-3.65891,-5.77481,-4.50343,-3.38684,-1.56807,-2.43122,-0.261438,5.24899,0.170215,-0.833103,-1.90253,-4.48904,-2.34964,-6.79158,-0.093647,-119.56,-873.52,-489.464,-9380,1400,5320
-3.14432,-1.59613,-2.97415,1.5601,-0.304452,-1.31295,3.69791,3.47394,0.0840908,-5.47432,-1.863,-2.09314,-3.36235,-4.21821,-0.0440694,3.93002,-114.68,-865.712,-492.88,-7980,-1120,6020
-1.29185,2.36413,1.98535,11.8484,5.47716,2.51666,15.4158,7.54732,-0.0952915,-4.15698,0.127962,2.34896,0.806483,0.991397,14.5094,11.8028,-116.632,-860.832,-492.88,-9940,-700,6020
-0.320282,3.166,7.40332,9.2476,6.02673,3.5976,10.811,6.32122,-1.91862,-1.99866,2.72043,4.35743,4.2444,2.38216,8.61168,8.20545,-122.488,-859.856,-491.416,-12460,280,6160
-10.8762,-18.1313,-4.25118,-14.8589,-12.3646,-1.28002,-11.5052,-4.60586,-16.2483,-11.1496,-0.501953,-10.289,-0.404293,-6.0849,-18.6795,-8.32521,-122.976,-854,-488,-12040,-3500,7560
-10.286,-13.141,-0.45444,-13.2532,-9.59558,1.05436,-11.0528,1.05799,-13.2173,-6.4605,-2.24439,-9.84713,1.97227,-3.56428,-13.3013,-3.47801,-116.144,-855.952,-481.656,-10640,-7420,8960
-13.4445,-15.5554,-3.93408,-13.6039,-11.6863,-0.540896,-9.56277,-1.97757,-17.5115,-9.23001,-6.59916,-14.1232,-1.29615,-2.93226,-8.27691,-7.22124,-127.856,-852.048,-482.144,-10220,-7000,9380
-12.5945,-13.4845,0.0882859,-17.7342,-8.17811,0.180973,-8.92231,-0.426678,-19.4202,-8.20345,-4.83965,-11.2153,2.3604,-0.859813,-13.9643,-8.09183,-124.44,-860.832,-479.704,-8400,-10080,10780
1.18834,-4.31517,3.85997,-11.2921,-1.97528,-0.0914035,-5.64538,-0.459234,-3.93749,-1.8631,-1.45426,-2.03634,4.18609,4.46919,-10.4708,-7.88816,-127.856,-846.68,-477.752,-6580,-12320,11060
5.94651,3.04846,3.04521,-3.23375,1.52647,-0.802149,-1.58903,0.463042,5.32042,-1.91346,-2.36956,2.60925,3.75958,5.31524,-4.39134,-6.5268,-124.928,-856.44,-482.632,-7000,-15260,12460
16.8899,13.7169,3.69659,8.60258,6.07163,-0.550934,2.19029,-3.91682,23.0925,3.81119,1.90532,13.0883,4.51475,6.5784,7.32582,-5.35378,-129.808,-856.928,-484.096,-8260,-17220,13440
14.4328,13.8317,5.49997,13.6075,9.48353,-0.372686,5.63369,-2.7033,17.3916,6.45932,2.08106,11.7051,1.53169,3.10176,15.4831,-3.88066,-126.392,-858.88,-488.488,-7280,-21840,14560
4.23248,2.813,-0.599575,4.41646,0.945252,-0.218527,3.12337,1.11014,3.90528,0.818626,-0.298859,1.9358,-1.4923,-2.47086,8.9245,-3.51689,-135.664,-851.072,-490.928,-6860,-25620,15680
1.6227,-0.329956,-0.993121,-7.58328,-3.16284,-3.90267,-7.17915,0.176696,2.03316,6.31548,2.04686,-2.77766,-2.60882,-6.86126,-8.94708,-7.79434,-130.296,-850.096,-496.784,-6440,-27020,16660
2.29917,-3.91485,-4.68051,-7.67968,-8.02895,-6.059,-6.41878,-5.16103,2.33375,3.17403,3.95849,-6.57051,-4.16366,-8.25235,-9.87105,-8.57318,-128.832,-856.44,-499.712,-6720,-24920,16520
0.62543,10.6371,2.90532,13.3994,7.48028,0.249028,10.889,5.80421,1.69559,5.90553,0.337675,0.181623,-1.70301,3.91906,11.107,7.40972,-132.736,-856.928,-503.616,-7000,-17920,14560
-12.8985,-4.32745,-6.7283,2.54647,-5.63384,-2.84857,0.878496,-2.48031,-17.3539,-6.50237,-3.70435,-12.0161,-6.03953,-4.20605,-0.374455,-0.557333,-135.176,-861.32,-494.832,-5880,-13160,13580
4.12484,12.5781,3.88477,13.9611,5.52833,1.937,7.53224,1.67368,4.8509,4.91886,2.79599,3.35849,1.39394,2.22054,9.86533,10.287,-136.152,-859.856,-498.736,-3360,-10080,12740
13.1369,15.7046,7.17489,15.5364,7.81962,3.4334,7.37496,1.09214,18.1725,6.80418,3.5363,7.9498,2.31165,3.97943,9.99031,13.339,-143.96,-851.56,-495.32,-140,-9240,12460
1.98604,-3.23097,-3.2314,-3.34259,-3.29068,-1.67147,-6.69349,-5.69469,3.29879,1.01116,0.125185,-4.25664,-2.27965,-2.5736,-11.7127,4.98579,-146.888,-846.192,-486.048,2520,-9520,12040
-4.35198,-3.02614,-4.62883,0.119856,-0.283901,-0.184376,-0.770313,-2.03415,-2.78313,-0.48444,0.566316,-1.56383,0.255443,-1.50054,-3.976,9.29743,-146.4,-849.12,-486.536,3500,-7280,11340
7.60961,11.6476,3.48209,14.7228,12.5109,3.33361,9.85253,1.44527,11.7516,5.6881,2.57244,11.2637,3.99589,6.36642,12.8121,13.6502,-141.52,-850.584,-495.32,4060,-5040,10640
8.72151,13.3517,5.59869,15.0747,12.9165,5.96485,10.4391,1.51811,15.3378,3.33761,4.79848,14.9183,6.64532,6.02332,14.8244,11.831,-143.472,-848.144,-484.096,4480,-1540,8820
-1.39243,-6.63717,-1.87174,-8.46922,-4.32161,-1.01795,-9.83525,-4.80347,-2.34089,1.53469,3.96648,0.494132,1.99375,-2.91998,-7.39465,-4.27542,-146.888,-840.824,-486.536,4340,1540,7700
-15.3507,-25.2521,-11.3007,-24.7577,-17.8287,-3.4899,-19.2257,-4.26882,-20.9664,-8.62833,-1.29078,-12.2948,-5.01393,-10.731,-19.4346,-12.2795,-143.472,-847.656,-489.952,3500,3360,7280
-27.0657,-26.2269,-10.0424,-19.3439,-9.9636,-0.14436,-6.86152,4.19269,-34.5501,-14.0251,-7.39936,-14.2,-6.91244,-5.97616,-7.96155,-2.97322,-147.376,-833.504,-491.904,3500,3360,7000
-10.6811,-12.3648,-3.56905,-9.37466,-3.90792,1.03292,-2.03966,0.476012,-12.9616,-6.00331,-2.70843,-6.33886,-5.58505,-1.41853,-2.16369,-3.84005,-154.696,-840.824,-483.608,3920,2380,7980
13.8235,11.8004,8.33249,8.3445,8.82509,4.35076,6.18579,0.182516,19.3527,8.57714,3.38315,10.5799,-0.35025,6.50299,11.3723,-1.5436,-150.792,-843.752,-486.536,7000,-2940,10220
11.5858,13.1052,10.4835,8.22477,11.3696,4.36937,6.7805,4.73209,14.624,7.13641,1.01013,11.047,1.40085,8.96788,9.69465,-0.586277,-146.4,-826.184,-491.904,9380,-6580,10360
-0.107254,-4.40377,-0.596062,-10.8256,-5.12488,-1.39379,-8.60214,-0.445931,-4.37277,-4.35964,-2.89654,-2.70884,-3.85156,-1.3405,-12.0243,-9.31234,-134.2,-833.504,-496.784,7000,-3780,9940
0.598637,2.83065,2.74678,-4.74781,1.92897,1.17855,-2.80862,5.07281,-2.10154,3.45719,0.00651134,2.62153,1.61595,1.01496,-7.15045,-0.524025,-137.616,-843.752,-497.76,1260,6020,7980
-3.77917,-4.00891,-1.14962,-3.02594,-1.71952,-0.745887,2.20529,-0.27203,-8.7953,0.509067,-0.449161,-1.28487,1.43692,0.296099,1.20024,-0.704208,-140.056,-839.848,-500.688,560,9100,6160
2.1267,10.717,7.84887,12.7601,9.56876,2.86884,17.2465,3.68486,0.142613,5.041,0.891357,8.65796,6.19418,7.14966,21.4784,9.7786,-135.176,-845.216,-504.592,420,9660,6160
15.7937,17.5855,9.43488,16.2639,10.4865,3.34327,16.3333,4.85627,18.6512,12.4254,3.34048,13.9684,5.32187,9.2735,22.0843,9.71345,-146.4,-834.968,-503.128,-420,11060,5600
10.6472,10.467,2.67277,8.24694,5.64148,0.458275,8.81274,6.25154,15.6134,6.65689,0.313861,6.32559,1.12423,4.8682,12.5426,5.74779,-134.688,-847.168,-505.08,-840,8400,6300
-11.4444,-14.4668,-14.4422,-10.0629,-10.0309,-7.23735,-4.61317,-1.14631,-8.55195,-10.6574,-6.72848,-15.1407,-5.58622,-7.57374,-1.8289,-4.99177,-136.64,-839.848,-500.2,-1540,8820,6020
-6.61673,-10.0751,-12.2971,-9.31559,-10.327,-7.9077,-10.0121,-2.43484,-2.79395,-7.64182,-4.85923,-14.3026,-3.88781,-9.73992,-8.41023,-8.00058,-136.64,-851.56,-496.784,-2380,7980,6300
-8.11103,-17.9851,-10.642,-21.2537,-18.0263,-5.87861,-22.761,-9.31964,-8.83666,-5.91707,-0.507684,-15.3863,-0.439534,-10.4296,-29.5628,-15.8125,-144.936,-853.512,-493.368,-2660,8820,5880
-18.3535,-19.004,-4.22662,-15.3726,-11.5458,-1.76349,-15.5181,-3.89543,-26.5791,-7.5143,-1.5549,-14.3085,1.61561,-5.10406,-21.4127,-11.1703,-137.128,-862.296,-497.272,-2380,7000,6160
-6.95932,0.769667,-0.267471,10.504,1.36243,3.10816,3.6223,-0.469269,-8.329,-9.40212,-0.651961,1.05193,2.46812,3.1645,6.12896,-2.9287,-140.544,-860.832,-491.904,-2100,3780,6300
2.97799,14.9918,5.67057,17.4338,9.66672,2.01179,6.79573,3.07228,7.36155,0.0152855,0.957916,9.02649,3.2688,5.79044,9.38186,2.33084,-138.592,-861.32,-492.392,-3220,2240,6440
1.21821,4.08572,-4.05691,9.98015,-0.879411,-2.96105,4.27146,-3.38345,5.61947,-8.21075,-1.93599,-0.458529,-3.3514,-3.67084,5.5178,-1.80031,-134.688,-865.712,-497.272,-5320,700,6720
17.9612,16.3037,6.84674,10.7936,6.13654,-0.885388,2.18283,-3.22199,22.6998,5.80354,3.96664,9.75434,2.56128,-0.20127,-2.45689,1.46371,-136.64,-866.2,-494.344,-7140,420,6860
16.157,10.3491,4.82039,1.02522,0.767859,-0.299896,-3.31619,-3.53837,18.1892,4.07415,3.00588,7.77228,2.16769,-2.16047,-14.1783,1.12627,-129.32,-867.176,-496.296,-7840,140,7000
5.484,-1.07308,-0.419235,-8.51017,-3.66252,-1.53775,-6.52984,-1.76657,3.48156,3.51762,-0.479505,-0.482813,-2.07598,-4.79648,-19.3452,-0.39629,-134.688,-869.616,-488.976,-9100,1960,6860
3.29452,-1.25163,3.78963,-5.161,-0.325071,1.34918,-1.91963,3.39761,-1.43392,6.04571,1.16993,-0.335727,-0.932178,-1.18345,-13.2406,3.62664,-132.736,-869.616,-489.952,-8820,2240,7000
-4.3651,-5.09683,2.46487,-1.84425,1.1977,1.60465,0.934257,3.77753,-12.1398,-0.483209,-2.47987,-3.10234,-3.14812,1.45461,-6.35013,4.09722,-132.248,-868.152,-483.608,-6720,1260,7700
-12.3329,-8.6693,-0.368441,-2.00075,0.0932881,4.73213,6.59041,6.08295,-18.5147,-7.64122,-2.78201,-4.34051,-0.605281,2.77481,2.87773,7.5914,-128.344,-866.2,-482.144,-5460,1120,8120
-5.10236,-8.14443,-0.25682,-3.54967,-3.10651,2.78527,2.88095,0.303975,-9.96892,-2.04561,1.05402,-5.37732,-1.83298,-0.0874835,5.06685,2.07489,-124.928,-869.128,-484.584,-5460,3220,7560
9.07633,7.59062,6.40354,9.15695,3.69029,4.23235,6.67463,-0.566018,9.65886,7.16349,6.62877,6.07094,1.33579,3.38365,14.6068,5.13383,-127.856,-866.2,-483.608,-6440,6440,6440
1.2536,7.37195,4.79137,9.54227,6.97771,1.95023,8.19735,-1.84156,2.68759,4.09155,2.04918,4.77474,1.00078,4.2129,16.4604,6.3661,-128.344,-863.272,-486.536,-6580,6160,6720
1.22839,9.4545,2.88527,8.26302,6.38051,-1.5814,6.7971,-4.1296,6.4459,3.90859,-0.0118079,3.05681,-0.360646,2.26566,14.6297,0.559794,-131.76,-860.832,-484.584,-7280,5460,6720
2.51479,5.80476,2.03349,1.02843,2.01443,-0.46734,2.76959,-1.33933,6.23618,3.77861,0.954401,3.27764,-0.802146,4.43152,8.88446,-0.0105718,-132.736,-863.76,-486.048,-8540,4480,6580
-5.33888,-4.58758,-1.31907,-10.3356,-2.88942,0.588674,-3.70226,0.0855498,-4.39383,0.440645,-0.433311,-1.45936,-1.03232,3.0882,-0.965788,0.898929,-138.592,-856.44,-488.976,-9660,4340,6020
-6.88535,-7.47458,-5.05761,-5.48875,-1.84708,3.45473,3.14196,0.957877,-6.59555,-2.70333,-2.00381,-2.87485,0.413161,3.45888,9.69709,4.33589,-137.128,-864.248,-487.024,-9940,3220,6020
4.2645,7.20574,5.92537,6.24397,8.32691,3.027,4.34498,3.30108,5.22643,9.89213,4.27018,5.07816,7.30546,6.33571,15.2976,5.12017,-137.128,-863.272,-487.512,-10220,2100,5600
1.75367,-0.948873,-3.65122,4.45651,1.8255,-1.78516,-1.16073,0.390867,2.89224,1.13043,0.953354,-2.70011,2.21138,-0.870913,9.56354,-1.63079,-145.424,-861.32,-484.584,-10500,1680,5040
-8.19544,-4.05009,-6.53784,2.82213,3.14703,-1.41396,0.697914,6.14117,-5.33737,-5.88798,-2.64487,-3.104,-0.380789,-1.67009,7.67323,2.97172,-146.888,-867.176,-486.048,-11340,-1400,5040
-2.69032,-7.70856,-6.61295,-7.15881,-3.54073,-4.94825,-8.89894,-1.14364,-0.308213,-2.65043,-0.493539,-1.73504,-1.044,-3.60049,-6.71175,-3.26658,-153.232,-854.976,-485.072,-11340,-5880,5460
6.45731,-4.36896,-2.1354,-13.348,-6.67479,-5.27515,-16.3201,-2.16358,8.17041,2.92869,1.67224,2.66029,0.278722,-5.41561,-19.2142,-6.93377,-148.352,-855.464,-485.56,-12880,-12740,7280
