-0.807619,1.14329,0.458758,3.35128,2.10082,0.496821,3.02065,1.38186,2.10197,-4.21798,-4.20866,1.07094,-0.654378,1.34688,4.6591,2.14334,4.88,-906.216,-428.952,-2800,-6720,-1260
-0.808581,0.0981503,0.00195469,3.86983,3.03541,2.89001,6.66464,7.65485,-0.244609,-4.08641,-7.96162,0.109487,-1.68353,2.68949,6.88316,7.17634,1.464,-906.216,-429.44,-3220,-6160,-1260
1.50878,3.99608,1.90563,6.86881,5.399,4.37995,8.57819,10.1685,2.13382,-0.583472,-5.11642,3.19679,-0.173476,5.17609,6.73213,10.0815,-0.976,-905.728,-429.928,-4060,-6020,-1260
0.21759,1.48984,0.505346,0.377687,0.872893,2.3992,0.239455,6.47512,0.788774,-0.4926,-2.63635,0.648953,-0.58984,2.03748,-3.91,5.03658,-3.904,-903.776,-427.976,-4480,-5740,-1400
-0.0773367,-0.545335,-0.582667,-1.75997,-0.297443,1.58164,-0.987827,4.96505,-0.0889581,-0.450256,-1.42474,-0.526072,-0.486423,0.315417,-1.18627,1.74302,-5.856,-904.264,-427.976,-5040,-4900,-840
-0.572383,-0.785498,-0.692241,0.681192,0.677491,0.852425,1.30893,2.71105,-0.637741,0.0187884,-0.870886,-0.0536986,-0.326841,0.17846,4.22175,-0.480864,-7.32,-903.288,-432.856,-5320,-4060,-700
0.978303,0.032169,-0.426722,-0.0269935,-0.22112,-1.11056,0.183916,-3.04065,0.771301,1.27227,0.901553,-0.262081,-0.23042,-1.27502,2.02552,-1.90878,-15.616,-901.824,-432.368,-5740,-2660,-280
5.25742,4.03772,1.39609,2.7694,1.31556,-0.95271,1.69839,-5.42017,4.63364,3.98731,3.11753,2.65104,1.2978,-0.117871,2.94244,-0.520494,-17.568,-901.336,-431.88,-6160,-1680,280
8.35381,7.816,3.36819,6.82252,4.48595,0.110921,5.08117,-3.14015,8.25578,5.70529,4.59782,5.3019,2.07053,1.99236,6.3132,1.49779,-20.496,-900.848,-433.344,-6580,-700,840
6.45923,6.22726,2.7286,4.57234,3.32695,-0.361582,3.11878,-2.99393,6.88559,4.90206,4.97725,4.15442,1.88003,1.19474,3.09806,0.522639,-22.936,-900.36,-433.832,-7280,560,1820
1.64254,-0.119453,0.0803154,-3.17439,-1.89317,-1.91084,-3.64022,-3.64626,1.09284,1.98087,3.64451,0.212404,0.959733,-1.65335,-5.50562,-3.17404,-29.768,-898.408,-436.272,-7700,980,2520
-4.27024,-4.69665,-2.34028,-7.37346,-4.49694,-1.55502,-5.95507,-0.864098,-4.75518,-2.86075,-1.01215,-3.88084,-0.920162,-2.98191,-7.75731,-3.76694,-31.232,-896.944,-437.736,-8260,2100,3360
-3.16673,-2.8806,-1.32906,-3.85626,-2.63328,0.0564922,-2.48118,0.76368,-2.60544,-2.31011,-2.45669,-2.47599,-0.500037,-0.902096,-3.87917,-2.38269,-37.576,-902.312,-437.736,-8960,3080,4340
-1.76257,-2.35393,-0.980487,-2.76591,-2.60914,-0.653342,-2.43863,-1.77757,-1.45289,-0.442243,-0.769968,-1.45062,-0.443215,-1.34633,-2.65303,-2.65692,-36.6,-899.872,-437.248,-9800,3500,4900
-0.556384,-2.19398,-0.854474,-3.17041,-2.13479,-0.530181,-2.43306,-1.19953,-1.37046,-0.107241,-0.933065,-1.19212,-0.708229,-1.03655,-3.16924,-1.4696,-38.552,-902.312,-442.128,-10080,3920,5600
0.409688,-1.60792,-0.316524,-2.56321,-1.01799,0.325077,-0.691324,1.02974,-0.919272,0.323113,-0.341855,-0.323683,-0.136601,0.473614,-2.49081,0.381029,-40.504,-905.728,-440.664,-10360,4200,6020
-3.22648,-5.82226,-2.98721,-6.32822,-4.49294,-2.09202,-4.82102,-2.38249,-5.16426,-1.8732,-0.40005,-4.45419,-1.19036,-3.46619,-5.75025,-3.58324,-44.408,-904.752,-445.056,-10360,4620,6300
-5.1532,-5.46549,-2.47748,-4.38851,-2.89111,-1.77105,-2.52881,-0.720859,-6.8711,-3.63512,-1.44337,-4.32482,-1.61065,-2.48443,-1.63267,-2.55067,-42.456,-905.24,-438.712,-10500,4620,6300
-2.00836,1.11733,0.607909,4.4693,3.79937,2.06221,6.27161,5.19187,-1.73433,-2.58671,-2.30089,0.328703,-0.487825,2.6712,8.52751,5.57351,-39.528,-908.656,-443.592,-10640,4760,6020
2.52501,7.2825,3.74856,10.9671,8.3411,4.07471,11.0485,6.7924,4.84384,0.142686,-1.16434,5.13181,1.49175,5.9524,14.3212,9.41821,-42.944,-910.12,-438.712,-10920,4340,5460
4.12702,7.36175,3.51187,9.5383,7.24397,3.13349,8.19319,5.29455,7.23695,1.64894,-0.0970828,5.62113,1.18896,4.80655,10.5922,6.78618,-39.04,-910.12,-440.176,-10500,3920,4620
2.60608,4.18632,1.5223,4.34533,2.54624,0.708893,1.213,0.425462,3.99016,1.22756,0.698142,2.91935,0.568905,1.00083,1.5401,1.35961,-35.624,-910.608,-438.712,-10220,3220,3640
-0.331032,-0.0170585,-0.0478293,0.0530746,-0.673977,-0.445728,-2.10502,-2.14778,-1.48939,-0.42807,0.222271,0.0959235,0.322344,-0.527172,-3.19639,-1.43343,-32.696,-910.12,-439.2,-9800,2520,2380
-1.67021,-1.37964,0.00848273,0.763351,0.090644,0.122657,0.885656,-0.13954,-2.82611,-1.10288,-0.940865,-0.593598,-0.238341,0.157691,0.433675,0.643551,-31.72,-909.632,-438.712,-8820,1680,1120
0.31377,0.571997,0.71678,1.8584,0.59557,1.01077,0.662601,1.90006,0.130217,0.350367,-0.706116,0.460191,0.0900322,1.02226,-0.62524,1.82387,-26.84,-907.68,-444.08,-7420,280,-280
-1.52185,-3.44415,-1.67808,-5.07178,-4.321,-0.777889,-6.32963,1.25021,-2.52138,0.029399,0.750726,-2.61975,-0.18079,-1.67846,-10.0646,-1.89505,-25.864,-908.168,-442.128,-7280,-1120,-1400
-3.39538,-6.01655,-2.95845,-7.06668,-6.11371,-1.93701,-8.50923,-1.08074,-4.60117,-1.24603,-0.0505176,-4.29047,-0.678102,-3.83967,-8.33681,-6.03488,-21.472,-905.24,-441.64,-6580,-2380,-3080
-4.56337,-7.53518,-4.25093,-8.55732,-7.23783,-3.22031,-7.97949,-3.88034,-5.03129,-2.51381,-0.907359,-5.84921,-2.2398,-5.4306,-7.9044,-8.48315,-15.128,-903.776,-441.152,-6020,-3640,-4480
-0.559161,-3.24658,-2.39543,-5.78982,-4.63039,-3.31307,-4.96321,-6.97996,-0.167999,0.225984,0.733653,-2.77177,-1.41803,-4.2715,-5.20009,-6.3181,-14.152,-902.8,-443.104,-5180,-4060,-5600
3.70487,3.85448,1.54844,2.42291,2.04513,-0.101664,2.4213,-2.83847,5.72904,3.092,1.66844,2.94472,1.0419,0.896625,3.56367,1.18357,-10.736,-899.384,-446.52,-4340,-5320,-6720
4.73342,5.00853,3.17574,5.22291,4.68131,1.84686,5.9107,1.76035,6.24064,3.5873,1.88924,4.13547,1.74812,3.38329,6.36428,5.2338,-7.808,-900.848,-447.008,-3360,-6020,-7420
6.2496,6.19444,3.43999,5.12282,4.36481,1.70545,4.10743,1.54123,8.22694,4.91246,2.45767,4.91897,2.05929,3.06799,4.84369,3.36055,-7.808,-900.848,-447.008,-2520,-6720,-8120
8.39165,10.6369,5.90909,9.43436,7.30935,2.02281,5.17659,0.779173,10.4928,6.6829,2.91634,8.40555,3.10683,4.59468,8.09205,3.28939,-5.368,-898.408,-445.056,-1680,-7140,-8540
3.13506,3.65602,2.94652,3.06746,2.97464,0.217473,1.01271,-2.3217,2.51342,3.06239,2.12267,3.69223,1.53688,1.68889,2.78342,-0.952572,-1.464,-896.456,-443.592,-840,-7420,-8820
-5.28601,-7.69731,-3.6459,-8.37385,-6.05845,-2.84572,-6.21999,-4.57564,-8.14251,-3.04408,-0.587087,-4.75504,-1.76572,-3.76607,-8.42366,-5.71712,0.488,-897.432,-441.64,0,-7140,-9100
-6.45209,-6.0938,-3.66995,-6.91231,-5.25523,-2.28082,-5.14275,-3.03161,-7.5251,-4.19131,-0.699891,-5.24701,-1.85273,-3.34461,-7.67753,-4.31746,2.928,-895.968,-445.056,420,-6860,-9100
-9.39579,-2.53346,-1.64347,-1.35678,-0.295693,0.085137,0.800867,1.44327,-9.67183,-4.95695,1.6812,-3.2717,-0.396543,-0.0342598,0.401705,1.0516,7.808,-894.016,-443.592,1820,-6020,-8960
-9.08509,-4.23323,-2.3058,-0.445936,0.314758,0.536468,3.30287,2.82845,-10.953,-7.11381,-1.12203,-4.27793,-1.11279,0.161166,3.16432,2.67306,7.32,-886.208,-442.128,2520,-5320,-8820
-2.49368,-2.90497,-1.4998,-0.510999,0.0103542,0.992428,2.90859,2.73525,-2.69954,-4.6084,-3.41912,-2.27611,-1.04822,0.314989,2.2821,2.11962,12.688,-887.184,-443.592,3360,-4760,-8960
4.24527,0.791633,0.32258,1.95025,0.836315,0.812865,1.5612,0.640326,2.99927,0.438097,-2.29171,1.13408,0.0622328,0.64528,2.25177,1.30038,13.176,-887.672,-441.152,3780,-4060,-8400
5.80867,3.24505,1.02247,3.68332,2.43045,0.224818,2.33966,-0.735532,5.83466,3.3188,-0.330966,2.78497,0.105358,0.810646,4.28998,1.52562,18.544,-886.208,-437.736,4200,-3500,-8400
3.75567,2.48561,0.410602,3.32945,2.31507,0.420677,3.05236,1.35401,4.70762,2.49797,-0.968726,1.70062,-0.557753,0.845251,5.44688,2.65068,18.056,-884.256,-441.64,5320,-2520,-8260
0.990234,-0.250717,-0.802196,0.531255,0.214583,0.682747,0.887189,3.64896,0.472427,-0.0196641,-1.50158,-0.975648,-1.01643,0.0597386,1.69546,1.74743,20.496,-880.352,-443.592,6020,-1120,-7980
-0.958149,-0.94019,-1.32823,-0.495631,-0.339755,0.708494,0.809253,3.74991,-1.00438,-1.82932,-2.32715,-1.62398,-1.50629,-0.240309,-0.32675,1.1595,19.52,-881.328,-442.128,6860,-700,-7700
-2.11579,-2.64164,-1.99177,-2.80404,-3.11949,-0.934594,-2.42644,-0.465741,-2.04876,-2.4089,-2.46293,-2.12627,-1.45812,-1.5519,-4.75744,-1.99549,21.472,-882.304,-441.64,7000,-560,-7420
3.35827,2.4292,1.91655,1.16181,0.372604,-0.086813,-0.768278,-1.99289,4.59583,2.18909,1.85646,2.30093,1.51748,0.225539,-1.63794,-0.729859,24.888,-875.96,-440.176,7420,0,-7140
1.95527,2.21327,1.76094,1.69693,0.997898,0.768318,0.976949,-0.00671183,2.90456,1.01425,0.525737,1.49313,1.24508,0.832372,0.214811,0.961865,24.4,-875.472,-440.664,7980,140,-6720
0.72608,0.841795,1.00756,-1.64212,-1.18789,0.534845,-3.68019,0.884561,0.976928,0.985389,-0.289834,0.399536,0.692225,0.49671,-7.21102,0.102035,21.472,-884.744,-440.664,7700,280,-6300
-1.10688,-2.72328,-0.407188,-7.42044,-4.65508,-0.105515,-9.1402,1.25585,-1.19704,-0.40957,-0.353267,-1.82709,0.607638,-1.24303,-13.9782,-2.80045,23.424,-881.816,-441.152,6860,140,-5880
-3.32015,-6.18188,-2.21114,-9.34252,-6.35597,-1.05787,-9.36264,0.042237,-3.1838,-2.03634,-1.49267,-3.79696,-0.517355,-2.97061,-9.44978,-6.27836,20.496,-881.328,-442.616,6440,0,-5180
-2.41984,-3.83224,-1.61612,-4.31204,-3.27661,-0.970614,-3.19949,-2.31363,-3.23443,-1.0667,-0.218759,-2.79152,-0.813783,-2.6424,-0.905515,-5.99343,17.08,-886.208,-436.272,6160,140,-4900
2.06086,2.44231,0.914056,2.98085,2.14517,-0.215901,3.54146,-4.44551,2.51528,1.96592,1.26497,2.15555,0.0951434,0.236106,5.58909,-0.427623,14.152,-888.648,-438.712,6020,560,-4340
8.22828,9.08554,5.09663,9.64241,7.78676,1.29922,7.73175,-2.5632,10.0483,6.44706,3.78548,7.9984,2.72722,3.74406,11.1019,4.72972,13.176,-890.112,-428.952,6160,560,-3500
4.85417,6.09895,3.8657,6.83713,5.33774,0.784577,5.47562,-0.534075,5.45833,4.44119,3.10825,5.58931,2.63408,2.52573,7.94961,2.93295,8.784,-888.648,-430.416,6300,560,-2660
2.97493,2.90793,1.68185,2.16102,1.36115,-1.13701,0.676373,-1.07984,2.56046,3.15402,3.12857,2.94477,1.47637,0.229521,1.43465,-0.270722,7.32,-888.16,-431.392,6860,1120,-2100
4.15622,5.01172,2.96701,4.58688,3.94704,0.982217,4.11358,1.75037,3.7845,3.95204,3.98454,4.30153,2.70242,2.3565,5.6006,3.14039,4.392,-888.648,-430.416,6860,1400,-1540
-4.079,0.765027,0.749807,3.34891,2.63658,1.25658,3.69441,2.49116,-3.61611,-0.859063,0.766524,-0.117492,0.515854,1.82158,5.19543,3.5357,0,-894.016,-429.928,7280,1260,-1120
-12.0988,-6.10812,-2.99373,-2.20355,-1.59069,0.0893301,0.00758028,1.6825,-14.2733,-4.92345,1.29113,-5.30153,-1.22778,-0.320395,-0.120693,1.05186,-4.88,-892.064,-431.392,7280,1400,-980
-7.37583,-3.37637,-2.86603,0.359581,0.321023,0.0650235,2.47839,2.47195,-8.41099,-5.24874,-1.85295,-3.17886,-2.31923,0.322509,2.44803,2.5474,-11.224,-891.088,-424.56,7840,2100,-840
-1.48512,-0.333163,-2.08526,1.97457,1.78513,0.3535,4.67555,3.79748,-0.542154,-4.65159,-5.79782,-0.536251,-3.32792,1.01251,3.89403,4.0785,-14.64,-891.576,-427,7840,2380,-980
2.96943,-0.194213,-0.554488,-0.390539,0.707347,1.32206,1.69187,2.38975,2.00603,0.236063,-2.52633,0.479767,-1.14857,0.902966,0.240359,1.89719,-20.496,-888.648,-424.56,8540,2800,-1260
-0.0436747,-3.92948,-2.15348,-4.44141,-2.87447,0.0588253,-2.00722,0.609138,-1.35471,-0.220906,-2.56661,-2.93668,-1.36672,-1.35058,-3.1695,-0.784757,-24.888,-889.624,-423.584,9380,3220,-1540
0.582801,-1.36329,-2.02722,-1.07272,-1.94391,-0.665087,-0.610985,-0.194003,1.44722,-0.582835,-1.89047,-1.95217,-1.26189,-1.1118,-1.56849,-1.05976,-24.888,-882.304,-418.704,11060,4060,-1960
2.95438,2.00431,0.0483765,0.805985,-0.643709,-1.51335,-1.06065,-1.94559,4.27942,0.991464,-0.201315,0.219715,-0.613404,-1.12224,-1.13605,-1.62157,-29.28,-882.304,-418.704,14140,6020,-3080
0.611552,-1.315,-0.59548,-2.45437,-2.74747,-1.93478,-3.36364,-3.4791,0.40651,0.132003,0.179712,-1.58261,-0.436878,-2.27654,-3.86429,-3.17461,-40.016,-886.208,-419.68,17220,6580,-3500
-3.24375,-3.38123,-1.35445,-3.78659,-3.84305,-1.82599,-4.79287,-3.4429,-2.1059,-1.96077,0.341298,-3.31171,-0.425547,-2.86047,-5.42403,-4.36768,-36.112,-893.528,-421.144,17360,5180,-3220
-3.2499,-2.64884,-0.547766,-3.34003,-3.00697,-1.89219,-5.39375,-3.9599,-1.99755,-1.06855,2.33686,-2.0888,0.651042,-2.16737,-6.47851,-4.30225,-37.576,-889.136,-427.488,16240,5180,-3640
-0.364134,-2.08325,0.39435,-4.24606,-3.85124,-1.25502,-8.79094,-3.61707,-0.771897,0.399388,4.0121,-1.27791,1.70482,-2.07841,-12.2747,-4.6387,-42.944,-885.72,-429.44,14840,5880,-4340
-2.43214,-5.02779,-2.28487,-7.88718,-6.47428,-2.15475,-9.51911,-2.85765,-4.42909,-1.96054,0.0370937,-4.30375,-0.170797,-4.13923,-10.3752,-6.11043,-45.872,-886.696,-430.416,13580,4760,-4620
-0.322399,-2.16114,-2.69575,-4.62752,-4.43094,-2.29481,-5.19393,-2.98659,-1.74027,-2.19788,-3.14763,-2.51869,-1.20274,-3.50054,-2.93312,-7.0272,-48.312,-891.088,-434.32,12880,3500,-4760
6.59816,6.06292,1.94541,3.59837,2.16059,0.620199,2.63947,-0.456093,7.50467,2.82044,-1.0771,4.15956,0.208695,0.917229,5.3718,-0.357167,-45.872,-896.944,-432.368,12460,2100,-4480
3.02134,5.18295,2.0859,6.77223,5.00878,2.24916,6.97066,2.18994,3.70921,1.03862,-1.2889,3.69971,-0.395351,3.13034,8.60143,5.00472,-43.432,-895.48,-433.832,11620,1680,-4620
0.0962579,3.31245,2.18812,8.54016,6.85144,3.58396,10.5717,5.79546,0.522741,-0.731741,-1.26291,3.22748,0.620911,4.74928,11.9424,8.73934,-42.456,-894.992,-432.856,10220,1260,-4760
2.70994,5.2974,3.7554,9.26177,8.13296,4.23028,11.1164,6.55028,3.52801,1.55448,0.236284,5.49861,2.29904,6.15609,12.7522,9.56997,-42.944,-897.92,-435.784,8960,420,-4620
0.254727,1.54356,2.15108,3.69468,5.0346,3.70392,7.05301,6.9916,0.336853,0.140643,-1.07136,2.95794,1.32287,4.89803,6.74654,7.62184,-43.92,-895.968,-435.296,8680,140,-4900
-2.48803,-2.15336,0.0807802,-1.94827,1.06991,2.22723,2.18599,4.57344,-2.19397,-0.720737,-1.41246,-0.153701,0.304302,2.36206,0.112346,3.49303,-40.016,-897.432,-431.88,8680,-420,-5180
-1.77057,-2.30571,-0.203698,-4.12948,-1.0785,0.186031,-2.48498,-0.65552,-2.41654,0.33754,0.407485,-1.20528,0.44188,0.320559,-4.73749,-0.887212,-36.112,-896.944,-430.904,8680,-1260,-5460
3.66319,1.53176,2.04705,0.703157,1.16084,0.659143,-0.662319,-0.887756,3.13221,4.27151,3.65703,1.46926,1.5699,1.16104,-0.814055,-0.240955,-36.112,-898.408,-433.832,9100,-1820,-5600
3.22694,2.36977,2.39172,2.53112,1.92295,0.91514,-0.153808,-0.270637,3.88274,4.00525,3.31165,2.04723,1.16241,1.13154,1.72707,-0.152919,-30.744,-894.992,-428.464,9660,-1680,-6020
0.137089,-0.251511,0.446923,-0.475022,-0.720068,-1.12753,-2.30946,-3.0548,-0.130408,1.68239,2.27233,0.153424,0.762023,-0.710068,-0.370156,-2.01785,-29.28,-898.896,-428.952,9800,-1960,-6580
-0.879493,-1.24861,-1.64123,-2.6335,-3.23063,-4.00533,-4.64108,-6.8377,-1.96621,-0.106651,2.44762,-1.15621,-0.579502,-3.97426,-3.2979,-5.53285,-23.424,-896.944,-428.952,9940,-2380,-6860
-1.79397,-1.24833,-3.28723,-0.786733,-2.4697,-4.60609,-1.27434,-4.34326,-2.55284,-1.65278,-0.508125,-2.17716,-2.82222,-4.79916,-0.0742438,-3.60288,-20.008,-897.92,-430.416,9100,-3500,-7280
-0.277838,-0.595403,-2.88094,-1.9317,-3.51276,-3.09057,-2.9332,-0.532965,0.25869,-1.51805,-1.031,-2.23056,-2.50967,-3.948,-5.17981,-1.71595,-18.056,-896.456,-431.88,8960,-4200,-7280
1.17701,-0.461469,-1.74879,-5.83444,-5.5598,-2.08719,-8.45392,-0.265056,3.21973,0.23569,0.133974,-1.59695,-1.39273,-3.75579,-12.1929,-3.36551,-12.2,-899.384,-435.296,8400,-5040,-7560
1.14385,1.05244,0.237648,-1.54166,-1.91415,0.200395,-4.74567,0.698199,3.0461,1.74122,0.244019,0.805403,0.199051,-0.861119,-3.33331,-3.50303,-12.2,-898.408,-432.368,8120,-5740,-7700
-0.825802,-0.348031,0.9911,0.35514,0.868825,1.59603,0.686206,0.96934,-1.1732,-0.234286,-1.33849,0.384122,0.799329,0.837089,1.14562,-2.2659,-4.88,-899.872,-436.76,7700,-6300,-7700
-3.0407,-2.44351,-0.0340934,-0.932966,0.218212,1.07367,2.7041,-2.12435,-5.47198,-2.01496,-2.6086,-1.33791,0.541666,0.940534,0.492082,-0.259304,2.44,-900.848,-434.32,7420,-7280,-8120
-4.2888,-5.46523,-1.01778,-3.09949,-1.04868,0.669257,1.1532,-1.61497,-7.41652,-2.96748,-2.79884,-2.88849,0.0856189,0.267839,-1.15802,1.05579,2.44,-901.336,-433.832,7560,-7560,-8260
1.33119,0.0678741,1.46334,0.346822,1.62886,1.37559,1.86696,1.25606,0.60294,0.733555,-0.127958,1.2464,0.923778,1.8553,-0.416669,2.21556,5.368,-901.824,-436.272,7420,-8120,-8400
7.26524,6.86277,4.68125,5.4064,5.36347,2.90288,5.30507,3.21518,7.62742,4.35401,2.79954,6.12549,3.17602,4.93352,5.62269,4.90618,8.784,-906.216,-429.928,6860,-8820,-8540
0.786462,0.517451,1.05635,1.21916,1.46096,1.50161,2.64978,2.62207,0.0187947,-0.390459,-0.493488,0.644754,1.02223,2.24033,3.47903,2.93861,8.296,-904.752,-432.368,7000,-8820,-8680
-7.22029,-6.1206,-4.93956,-4.07972,-3.37988,-1.43729,-0.85131,0.560379,-7.95865,-6.61469,-4.69193,-6.09416,-3.51616,-2.33031,-0.267471,-0.691742,12.688,-904.752,-431.88,6860,-9240,-8820
-7.86793,-6.58276,-6.96563,-4.2284,-3.88514,-2.8805,-0.696903,0.439821,-6.77264,-7.27033,-5.12212,-7.35192,-5.49635,-4.3096,-0.665376,-1.18409,12.2,-905.24,-434.32,6580,-9380,-8820
-2.68445,-0.391263,-1.75804,0.117461,-0.973373,-1.46671,-0.469221,-1.24282,-0.507582,0.00507225,3.3255,-1.5881,-1.26435,-2.06863,0.166349,-1.14751,15.128,-899.872,-432.856,6580,-9520,-8540
-1.11278,2.51065,2.28866,5.14583,2.76098,0.647986,2.24258,-1.10057,0.159101,2.02586,7.22332,1.85675,2.52838,1.47592,4.64086,1.14961,13.176,-904.752,-432.856,6440,-9380,-8400
4.3751,5.27636,3.44583,5.97483,3.49786,0.43813,1.8366,-1.34819,5.89496,2.83455,4.48676,3.98768,2.49098,1.95463,4.58199,1.27277,10.736,-904.264,-433.344,6440,-8820,-8260
10.3732,8.85186,4.53709,6.66084,4.96098,1.33807,3.1871,0.225183,12.1754,4.58983,1.25479,6.79265,2.37623,3.31144,5.06088,2.96713,9.272,-900.848,-430.904,6440,-8540,-7700
4.95493,3.95281,2.85562,2.26471,1.89959,1.33981,0.890974,1.4975,5.30683,2.79291,-0.57663,3.41673,1.59252,1.96331,1.53761,2.09261,4.88,-900.36,-427.976,6580,-8260,-7420
-2.41105,-1.48651,-0.684738,-2.81724,-1.83551,-0.0269285,-2.98048,1.08556,-2.12768,-0.636113,-0.916591,-0.834795,-0.4073,-0.718455,-3.6715,-0.374495,7.32,-901.824,-431.392,6440,-7840,-7140
-3.58047,-2.68241,-2.26517,-1.2522,-1.11667,0.364806,-0.470691,2.04252,-3.82922,-3.43474,-1.82482,-2.24187,-1.83363,-0.986992,-0.777043,0.511537,7.32,-903.288,-427.488,6720,-7420,-6440
2.53465,2.64635,0.701034,3.56638,2.13272,0.644422,2.24717,1.88519,2.39603,0.921386,-0.472509,1.75463,-0.261555,0.997007,4.16702,2.06357,-0.976,-902.8,-429.44,6860,-7140,-6160
3.33074,3.12459,1.30631,2.73674,1.57078,-0.0145348,1.55775,0.0635196,4.24295,2.66219,-0.83144,2.50419,0.722039,0.944937,2.58304,0.852697,-0.488,-905.24,-428.952,6720,-6860,-5600
-1.10504,-3.03522,-2.07978,-4.02939,-3.32892,-1.32811,-2.08897,-0.260844,-0.928288,-0.691398,-3.11168,-2.49303,-1.86062,-2.23206,-3.08584,-1.98657,-4.88,-903.288,-427,6300,-6440,-5320
-2.41155,-4.51367,-3.48644,-4.13395,-2.9644,-1.13735,-1.07191,0.227658,-4.3981,-1.93091,-2.31546,-3.63147,-2.82712,-2.04319,-3.11016,-1.81005,-5.368,-902.312,-428.952,6300,-6020,-4760
-5.05671,-6.02001,-3.64189,-3.69852,-2.89757,-1.15617,-1.54114,-1.00509,-8.37417,-2.93108,-1.4269,-4.83099,-2.17212,-2.55414,-2.82966,-2.47952,-9.76,-904.264,-427.488,6020,-5880,-4480
-6.39165,-6.36853,-3.61249,-4.93184,-4.33084,-2.09218,-4.70326,-3.99041,-7.83943,-3.85897,-1.61105,-5.16547,-1.33854,-3.56737,-4.65503,-5.11129,-9.76,-905.24,-427.488,5740,-5600,-4200
0.394424,-0.0589669,0.30289,-0.232483,-0.218673,-0.217607,-0.741072,-3.16687,0.636576,0.707413,1.66824,0.265403,1.4693,-0.0850171,-1.45653,-1.93032,-9.272,-904.752,-429.44,5880,-5040,-4060
6.4818,6.52299,4.85727,4.53396,5.0522,2.37078,3.18569,0.406125,7.27868,5.74718,3.91433,5.91218,3.9914,4.13015,2.89484,3.01711,-12.688,-906.216,-428.464,5880,-4900,-3780
1.79327,1.22711,2.83884,-2.2787,0.0272798,1.43829,-2.92133,0.299807,0.902416,2.66199,2.25007,2.26577,2.70057,1.2905,-5.11224,-1.19974,-15.128,-905.728,-429.44,6300,-4760,-3640
0.951354,1.75944,3.3704,1.0478,1.69693,2.50358,-0.0248291,2.6751,-0.270315,1.1485,0.947778,2.30148,2.20084,2.82584,-0.752358,1.18378,-17.08,-908.168,-428.464,6440,-4620,-3640
0.290205,1.03896,2.75542,1.88335,1.89992,1.24009,0.294122,0.476901,-0.550422,0.583064,0.767831,1.76089,1.4832,2.35559,0.397036,0.770107,-16.104,-905.728,-431.392,6300,-4760,-3780
-4.36874,-4.25708,-0.684037,-4.24092,-2.51992,-0.770152,-3.59276,-1.94693,-5.38053,-2.80118,-1.83149,-2.46372,-0.400225,-0.99065,-4.82299,-2.58767,-16.592,-907.68,-431.88,6440,-4620,-3920
-4.53425,-4.58087,-1.16906,-5.44202,-2.76335,-0.307969,-3.11639,-0.533266,-5.16293,-3.21535,-1.82811,-2.52612,-0.22363,-0.658941,-5.04656,-1.33435,-14.64,-904.752,-428.952,6300,-4620,-4060
-5.30608,-5.25138,-1.96603,-7.05594,-4.0503,-0.18609,-5.58307,1.86939,-5.31729,-3.78743,-2.75561,-3.54019,-1.12047,-1.28549,-11.1197,0.2431,-14.64,-906.216,-427.976,6160,-4480,-4620
-1.71181,-1.33564,-2.16889,-2.63783,-1.90863,-0.341574,-3.46826,2.84871,0.0854657,-2.56852,-2.97935,-1.85239,-1.91686,-1.0809,-4.91518,1.15614,-14.64,-905.728,-430.904,6300,-4620,-4900
-0.176293,-0.0694622,-5.10314,0.364543,-2.16482,-3.13249,-0.565399,1.41384,2.43966,-3.55344,-4.01399,-2.32494,-5.05648,-3.69905,3.37909,-1.7229,-11.224,-904.752,-428.952,6300,-4760,-5320
6.34338,8.62548,0.970358,10.6508,5.9743,0.142695,9.52717,2.16186,9.56961,3.46017,0.611026,4.93652,-1.27413,1.49151,15.3209,2.81924,-12.2,-908.168,-432.368,5880,-5040,-5880
9.75385,10.3179,5.9106,11.7759,8.43143,2.88017,11.1076,0.173045,11.8204,8.53225,5.85328,7.80318,3.27884,4.71151,14.9493,5.39278,-10.248,-908.168,-430.904,5040,-5460,-6160
5.264,4.35328,3.86834,5.64539,4.356,2.79192,6.76344,0.696916,5.42085,4.19394,2.76349,3.72458,2.7763,3.47015,7.3483,4.42433,-10.248,-907.192,-427.488,4900,-5460,-6580
2.80951,3.32739,0.858659,4.91174,3.44544,0.607843,6.55607,0.944023,3.42796,0.410117,-1.30594,2.166,0.188332,1.23956,9.30869,3.50688,-5.368,-911.096,-425.536,4340,-5880,-6860
2.58769,2.48773,-1.87531,2.72772,0.406503,-4.00478,2.31711,-3.86306,3.36328,0.0486248,-1.41245,0.505607,-2.79164,-3.5859,4.87589,-1.53353,-7.32,-912.56,-419.192,3920,-6160,-7280
3.51628,2.06472,-1.96371,1.15943,-0.811417,-4.71565,0.939722,-3.65018,4.87539,1.65703,1.83736,0.403305,-2.34499,-3.82962,1.71136,-1.76044,-4.392,-915.488,-418.704,2940,-6440,-7560
2.7107,-0.229449,-0.269148,-0.952887,-1.28883,-1.93434,-0.125894,-1.12499,2.76477,2.55853,4.67027,-0.220335,0.0677875,-1.22602,-0.934988,0.0288066,-2.928,-918.904,-418.704,2380,-6580,-7700
-0.224239,-3.78581,0.563341,-4.92108,-3.32474,0.384814,-4.13986,-1.04368,-2.55893,1.19442,4.7731,-2.39759,1.60553,-0.86336,-6.75114,-2.16347,-1.464,-918.904,-415.288,1400,-6860,-7840
-8.42899,-11.7767,-2.52786,-11.2472,-7.48164,0.230336,-9.42329,-2.78761,-13.7352,-4.19327,0.781605,-8.07858,0.817076,-3.17017,-11.6692,-5.68423,-2.928,-919.392,-415.288,840,-6860,-8260
-7.14784,-8.78757,-0.586824,-6.86533,-4.24841,1.10781,-6.5077,-2.91061,-11.5973,-2.90816,-0.070442,-4.84503,2.26044,-0.962646,-7.78596,-4.03023,0.488,-916.464,-419.68,280,-7140,-8400
-0.925632,0.617417,2.2651,0.766752,1.22848,1.28147,-1.37823,-1.69185,-1.06083,0.852321,0.472036,1.73305,2.8582,2.13397,-1.01188,-0.743049,2.928,-916.464,-420.656,-560,-7140,-8400
4.77972,4.60557,3.29809,0.32012,0.972782,0.423033,-4.49259,-1.52295,5.56672,4.72698,2.22513,4.45262,2.85896,1.72511,-7.3868,-1.66153,1.952,-916.464,-417.728,-700,-6860,-8400
-0.216325,-0.407799,-0.294239,-7.57161,-5.75686,-1.68577,-12.3322,-2.70376,2.31669,1.17492,1.94549,-0.42013,0.858692,-2.42721,-15.6422,-5.5967,5.368,-914.512,-424.072,-980,-7140,-8400
-6.70595,-0.771059,-1.90522,-2.58386,-2.94433,-2.0962,-6.53307,-3.93826,-4.83923,-1.2886,3.92136,-1.97046,0.310553,-2.20327,-3.28814,-6.52951,8.296,-917.928,-425.048,-1120,-7140,-8120
-6.30982,0.336491,-3.7577,4.73367,2.19857,-1.81878,4.07027,-2.57674,-5.27009,-4.7752,-0.702183,-2.38149,-3.10203,-0.897027,8.19153,-1.56651,8.296,-915.488,-426.512,-980,-7700,-7840
-7.13532,-5.84637,-5.30023,-0.622196,-0.633253,-0.871065,4.3423,-0.538199,-7.57805,-7.6496,-6.19451,-5.52319,-5.14331,-0.900524,3.97724,1.85424,7.808,-907.192,-427,-1400,-7560,-7560
1.82532,-0.682515,0.953937,1.93051,3.37147,3.55825,8.89669,6.93997,-0.157637,-1.05379,-4.78657,0.991443,-0.926556,3.99134,5.59643,8.56483,2.44,-909.632,-435.296,-1680,-7560,-7140
1.82967,2.21565,1.21805,4.19605,4.08096,4.10847,8.78169,10.6288,1.83197,-1.37481,-7.13014,2.3056,-1.09257,4.51509,7.02835,9.44632,2.928,-908.656,-432.856,-2940,-7560,-6860
-4.50036,-0.578164,-2.83448,1.70294,1.26595,1.57143,3.31594,8.5926,-3.37834,-6.30953,-8.49804,-1.30451,-3.8969,1.20431,2.93399,6.02132,1.952,-908.656,-433.344,-3780,-7420,-6580
-3.00698,-0.560252,-1.62806,1.03271,1.31261,2.39217,1.79039,8.99142,-1.99021,-5.45126,-5.40202,-0.778433,-2.77185,1.50021,0.571825,5.75796,1.464,-910.608,-432.856,-3780,-7280,-6440
-1.1186,-1.00577,0.256253,0.456409,1.39201,3.15326,1.18006,8.19136,-1.75751,-2.28014,-3.24651,-0.0573407,-0.823458,2.06529,-1.86276,4.76224,0,-912.072,-428.952,-3360,-7000,-6300
1.39056,0.267917,1.3462,0.185697,2.26465,3.18662,1.96164,6.65119,-0.587282,0.588154,-2.69797,0.866896,0.579334,2.77522,-1.6507,5.42228,0,-912.56,-424.072,-2800,-6860,-6020
5.37324,3.44488,3.10137,1.61888,2.21301,1.30982,1.50665,1.5935,4.86318,4.88611,1.33609,3.15338,2.73294,1.91805,3.59791,0.947939,-1.952,-916.952,-417.728,-2240,-6720,-5600
8.80901,7.12074,4.77663,5.41797,3.08532,-0.441855,1.85468,-3.17885,10.2315,7.92196,5.77096,5.93019,4.48587,-0.0955507,9.34357,-6.92815,-5.368,-915,-425.536,-2240,-5740,-5320
9.81243,10.2086,5.34801,9.58572,3.63978,-2.19559,0.850674,-11.3763,12.475,9.05785,7.29608,8.14268,4.47436,-1.29572,11.5571,-9.57481,-9.76,-913.048,-424.072,-2380,-5320,-4340
8.19114,7.16008,3.65729,4.47247,0.883769,-4.11247,-2.50844,-15.5965,10.4454,7.41759,7.11008,5.89122,2.94369,-1.64884,2.09119,-4.86435,-12.2,-907.68,-419.192,-2100,-4200,-3640
3.33208,0.776468,2.27873,-1.51847,0.63173,-1.02946,1.54993,-4.66878,2.09213,4.21204,5.40873,2.15884,2.46363,0.804107,-1.61021,2.40813,-13.664,-908.168,-420.168,-1820,-4060,-3080
-2.58293,-6.07534,-1.4711,-7.02002,-3.30453,-0.640757,-0.786805,0.395355,-5.55671,-0.975018,1.74291,-3.56575,-0.202102,-1.13945,-4.92913,1.09216,-14.152,-904.752,-425.536,-1820,-3500,-2100
-4.44173,-6.11092,-1.85687,-7.96694,-5.01233,-0.99235,-4.28792,0.319062,-6.22241,-2.61864,0.295966,-4.59621,-0.107606,-2.13916,-8.40905,-1.81315,-15.616,-904.752,-428.952,-1120,-2520,-1540
-2.4144,-1.79313,-0.238183,-3.08312,-2.84351,-0.623614,-3.59083,-0.813619,-2.64669,-1.21445,0.0446178,-2.08605,0.350448,-1.09122,-4.64886,-1.91072,-20.496,-903.776,-428.464,-1400,-2380,-1120
-1.94783,-1.64908,-2.04233,-2.51533,-3.5461,-2.00533,-4.24222,-2.63848,-0.950321,-1.2117,-0.318127,-2.93803,-1.44518,-2.45603,-5.44748,-3.17057,-19.032,-903.288,-423.584,-1540,-1680,-700
-6.11182,-5.94372,-6.60781,-4.73332,-4.74879,-2.94083,-3.88015,-1.8542,-5.28933,-6.20294,-3.7477,-6.88752,-4.94417,-4.12122,-5.62683,-2.67549,-20.496,-901.824,-428.464,-1820,-1400,-560
-5.95842,-5.60094,-7.26232,-2.85847,-3.26049,-2.19977,-1.86195,0.264121,-3.98593,-7.0189,-5.74204,-7.2257,-6.40012,-3.05123,-3.30197,-0.399402,-20.496,-901.336,-425.048,-1960,-1540,-700
-2.78793,-1.95769,-2.32051,0.204545,0.0106346,0.0861608,1.16347,3.07389,-1.16232,-2.00755,-2.36722,-2.81511,-2.96024,0.0304006,-0.104333,1.50891,-22.448,-897.92,-421.144,-1540,-1540,-840
0.101794,0.235438,1.19262,0.549839,-0.0229392,1.08932,-1.28104,1.15043,0.178887,1.75375,2.57111,0.293124,0.821252,0.414185,-2.04296,-0.75424,-19.032,-899.384,-423.584,-1260,-1540,-980
1.0626,0.913322,1.72883,-1.27023,-1.31411,-0.166895,-4.65248,-2.00484,0.577716,2.14369,2.41978,1.02437,2.15018,-1.04232,-5.2343,-3.88972,-21.96,-897.432,-423.096,-700,-1540,-1400
1.37923,-0.736693,0.502278,-2.72363,-2.33002,-1.94069,-5.39381,-4.05498,-0.720792,2.00395,2.34326,0.58321,0.941032,-2.39026,-4.43717,-5.15023,-20.496,-896.456,-421.632,-280,-1400,-1400
4.83604,3.50081,1.6524,3.76892,2.23605,-1.07763,1.36001,-2.09253,4.50776,2.96074,2.97334,3.96354,0.751922,-0.436475,4.12226,-0.736586,-18.544,-899.384,-422.12,280,-1680,-1540
3.18114,2.6438,2.15344,4.34224,3.45285,0.611238,4.11286,0.134164,2.6927,1.32938,1.08584,3.47294,1.16336,1.77261,5.65145,2.41889,-17.08,-894.016,-422.12,560,-2240,-1680
2.43421,3.40542,2.37833,4.04587,4.03033,2.08466,4.82878,2.02041,1.97384,1.97831,0.511443,3.60994,1.60789,3.29742,6.67102,4.31952,-11.224,-896.944,-427,1400,-2240,-2100
-0.475316,2.56336,1.42727,2.31248,3.97015,3.02776,4.56557,4.12207,0.135062,-1.15875,-2.68467,2.12254,0.498462,3.61781,5.53254,5.17089,-10.248,-894.504,-426.512,1960,-2800,-2520
-5.32542,-3.71411,-0.54426,-1.73282,0.801997,3.12616,2.5879,4.75959,-6.37316,-4.69989,-4.88417,-2.1877,-0.311706,2.31318,1.52065,3.31591,-7.32,-892.552,-428.464,2100,-3500,-2800
-4.9627,-2.96507,-0.696827,-0.861423,0.739057,2.61272,2.7759,4.0605,-5.69636,-3.78777,-3.4406,-2.2439,-0.210506,1.95195,1.86536,2.71507,-9.272,-895.48,-422.12,1680,-4340,-3360
-0.753197,-0.392978,0.0436382,-0.0718269,-0.21935,0.131192,1.23882,0.710189,-1.73232,-0.525874,0.408923,-0.697747,0.00993227,0.321689,0.502714,0.613173,-2.44,-898.896,-427,1820,-4760,-3640
1.92211,1.06291,0.0781412,0.218819,-0.503117,-0.639868,0.428041,0.137317,2.34183,0.979676,0.459445,0.937385,-0.366154,-0.387906,-0.0028446,-0.365025,2.928,-896.944,-425.048,1960,-5600,-4200
3.94898,4.5593,1.71425,3.34506,1.83523,0.818769,1.6162,1.5685,5.19147,2.4333,0.39061,3.31153,0.930105,1.69304,2.70754,0.998332,4.392,-901.824,-422.12,1260,-6300,-4760
3.28708,3.45902,1.06738,2.04237,1.12938,0.137852,0.157041,-0.536784,4.05793,2.31117,2.01767,2.25942,1.5601,0.688114,1.29913,-0.679351,6.344,-904.264,-420.656,840,-7420,-5180
1.16302,-0.215599,0.184703,-0.600744,-0.854625,-0.907498,-0.951469,-3.27848,1.54446,1.83731,3.05514,0.308687,1.03938,-1.18445,-0.486552,-2.48393,10.248,-906.704,-426.024,700,-7700,-5600
3.85464,2.89912,1.98849,3.20138,1.91752,-1.10405,2.45855,-0.723876,3.37744,4.35446,4.0942,2.70632,1.62143,-0.0325301,2.93833,1.78583,12.688,-904.752,-425.536,1260,-7280,-5740
4.35182,4.94017,2.40736,3.40524,2.42019,0.696162,1.0328,4.55571,4.77241,4.41443,2.60327,3.96002,1.70064,1.36369,-0.996538,5.5549,16.592,-905.728,-419.68,1540,-7280,-5740
3.04531,4.28334,2.59948,4.16767,2.57028,2.41637,1.81141,5.75041,3.53797,2.65679,1.66482,3.08133,1.75576,2.41974,3.25032,4.09382,13.664,-914.024,-421.632,2100,-6860,-5460
-2.89105,-1.34512,-1.19628,-0.249209,-0.520539,0.457076,-1.25314,1.37184,-2.17709,-2.23364,-1.26862,-1.71729,-0.535215,-0.104057,1.19958,-1.94598,12.688,-903.776,-421.144,3080,-7140,-5040
-4.989,-3.39089,-1.85767,-2.37983,-1.36513,-0.546046,-1.38373,-2.68661,-3.11172,-3.5387,-2.70518,-3.15231,-1.52913,-0.653284,-1.63923,-2.29626,15.128,-907.68,-416.264,2100,-6160,-4480
-4.39612,-3.92075,-1.41029,-3.12592,-1.11044,-0.733413,-0.661919,-4.32281,-3.10867,-3.44738,-2.66313,-3.35888,-1.48779,-0.425027,-1.60276,-0.918961,14.64,-909.632,-415.776,1540,-6580,-3780
-7.2822,-10.2405,-3.69739,-10.3245,-7.04215,-2.27137,-7.18433,-4.89861,-9.169,-5.65028,-3.65879,-7.45362,-1.74959,-3.79478,-9.52645,-5.11433,14.64,-911.096,-419.192,1260,-6020,-2940
-6.83215,-9.09884,-3.95688,-7.73398,-5.9246,-1.90105,-5.63428,-2.99528,-9.57946,-5.58244,-4.91886,-6.52474,-1.69435,-3.08404,-7.89927,-4.1905,11.712,-911.096,-415.288,1120,-4760,-2100
-3.38711,-3.12699,-1.62968,-2.01846,-1.04605,0.103686,-0.951032,0.666947,-4.48672,-2.91655,-4.69661,-1.41588,-1.06468,-0.320371,-3.47784,-0.215179,7.32,-908.168,-413.336,1120,-4060,-1540
1.60853,0.531405,1.26535,-0.849554,-0.0101577,0.349358,-1.0253,-1.16651,0.0966647,1.75899,1.04845,1.56207,0.390341,-0.28933,-2.95881,-1.10864,2.928,-909.144,-414.312,1120,-2940,-700
2.0471,0.782174,-0.061056,-1.04286,-1.56365,-1.69876,-2.74225,-3.55609,1.00433,1.18582,1.78032,0.79125,-0.696645,-2.43511,-3.88896,-3.66017,-0.488,-903.776,-411.384,980,-1960,-140
0.473766,-0.892979,-1.20545,-2.53349,-2.89467,-2.29824,-2.45334,-2.73737,1.02952,-0.471132,0.0248076,-1.01154,-1.44449,-2.40387,-4.04825,-2.78866,-2.928,-904.264,-412.848,140,-1260,280
1.11197,-0.621486,-2.15589,-1.37953,-2.00145,-2.10813,-0.479389,-2.24241,1.95263,-0.631229,-0.0571294,-1.48328,-1.44516,-2.08819,-0.546005,-1.44151,-8.296,-900.848,-413.336,-1120,-560,700
2.12693,2.58304,-5.46308,3.19606,0.550129,-2.5242,3.18892,0.0922085,5.07735,-2.34686,-2.34153,-1.4901,-4.67922,-2.3315,5.60007,1.9061,-13.176,-900.36,-415.288,-2100,140,700
6.82512,8.44072,-2.43749,9.63482,4.46517,-0.703209,5.55352,3.84691,11.233,2.3574,0.483931,2.83844,-4.1908,0.375828,9.76724,3.30823,-13.664,-898.896,-417.728,-3360,560,980
8.30918,10.9319,3.6322,11.7521,5.94365,3.71045,3.7946,8.29595,11.4801,6.08878,2.8953,7.08181,0.213061,3.04466,10.1138,1.19472,-17.568,-898.896,-416.264,-3780,1120,980
4.44782,7.13352,5.70536,8.21585,4.98443,5.35805,2.19532,5.2986,4.36207,4.77727,2.93139,5.7993,3.25322,4.57812,7.47102,3.40512,-17.08,-895.968,-419.68,-4760,1400,1120
-2.58276,-2.67523,3.32881,-0.915849,2.01308,3.33037,3.00049,2.72518,-6.38217,0.248501,1.70475,-0.034788,3.443,4.5435,2.13396,4.7634,-16.592,-897.92,-423.096,-5040,1820,700
-3.25327,-6.13648,1.99414,-5.36408,-0.293968,0.64987,1.10201,-1.16785,-7.94784,0.727358,2.26788,-1.75265,3.31128,2.01844,-1.73253,1.0541,-20.496,-895.48,-420.656,-5460,2100,700
-0.0622315,-3.35673,1.65438,-4.57173,-1.03096,-1.45048,-0.859854,-4.93183,-3.32336,1.81155,2.51342,-0.256129,2.7963,-0.508012,-2.96699,-2.14772,-20.984,-894.016,-427,-5880,2100,420
-0.992561,-2.4949,0.0550555,-4.63407,-1.98012,-1.42301,-1.48061,-2.59085,-1.38291,-0.816945,-0.641031,-0.83605,0.893632,-1.18347,-3.05431,-1.29817,-21.472,-894.504,-425.536,-6020,1960,280
-3.30465,1.75138,1.82549,1.83835,1.8659,0.0378729,1.78493,-0.691945,-1.83553,-0.383754,2.18939,1.10081,1.56262,1.11538,2.32594,1.14887,-20.496,-895.48,-422.608,-6440,1120,0
-5.13945,3.12333,2.41011,6.12258,4.84377,2.01682,5.77477,2.526,-3.20844,-1.02448,3.80607,1.659,2.19311,2.93853,7.01268,4.08351,-20.008,-895.48,-420.656,-7140,980,-420
-2.47161,0.403971,-0.155775,1.35269,0.94575,0.495622,1.20013,0.991622,-0.394647,-2.85689,-0.781158,-0.151433,0.542543,0.560387,1.22375,1.39238,-24.4,-892.064,-414.312,-7840,420,-980
-2.9612,-6.39146,-4.73747,-9.71726,-7.00897,-3.23803,-7.60429,-2.66393,-2.29395,-5.67888,-5.17821,-5.48357,-2.86201,-4.80065,-10.9081,-5.2127,-19.52,-895.48,-415.776,-8960,-700,-1400
-0.137007,-5.16802,-3.69109,-7.97684,-6.33721,-2.82046,-7.76852,-2.70128,-1.56484,-1.87774,-4.84535,-4.19049,-2.57476,-4.5151,-10.5075,-5.16567,-21.472,-895.968,-426.024,-9940,-980,-1960
3.91123,1.60397,-0.0484408,-2.34688,-2.05235,-0.595234,-4.17807,-0.350716,3.63462,3.01676,-1.69476,0.785478,-0.365119,-1.00422,-6.19947,-1.87357,-18.544,-897.432,-430.904,-10220,-1120,-2940
0.640166,-0.206566,-0.583681,-2.43993,-1.86113,0.467992,-2.98654,1.4222,0.242933,0.427096,-1.94277,-0.588336,-0.667048,-0.882279,-3.94173,-0.627749,-18.544,-898.408,-431.392,-10360,-1540,-3640
-2.23937,-2.33715,-1.62314,-0.720709,-0.589463,0.460546,0.195895,1.49187,-4.26693,-2.06959,-1.89856,-1.7365,-1.54139,-0.498089,0.995467,0.327091,-16.592,-897.432,-432.856,-9800,-1820,-4340
3.45516,2.84677,0.919383,2.06858,1.09504,-0.111761,1.04773,-0.186327,3.77273,2.46411,2.37835,2.52597,0.168113,0.121833,1.59538,0.231688,-17.08,-895.48,-434.808,-9380,-2100,-5040
1.82633,2.14844,1.71199,2.56317,1.35209,-0.0318384,0.303226,-0.997688,1.9256,1.28669,1.43219,2.25385,1.22163,0.615759,0.547908,-0.211174,-14.64,-896.456,-433.344,-9100,-2520,-5600
2.14585,3.00946,3.72493,5.89208,4.52434,1.27879,4.85006,-0.912825,1.88748,2.92302,2.64149,3.58787,2.67666,2.77071,6.33201,2.45011,-14.152,-898.896,-429.928,-8960,-3500,-6020
1.39892,0.145101,1.30183,2.00958,1.44821,0.0446356,1.9394,-1.68671,0.926896,2.34982,2.84661,1.13988,1.38491,0.476516,2.82703,0.648315,-12.2,-898.408,-429.928,-9240,-4200,-6300
0.245986,-2.45333,-1.1105,-3.09014,-2.83494,-0.966765,-3.44628,-3.25932,-0.0307569,1.11195,2.09421,-1.3015,0.330397,-1.87439,-3.78088,-2.59169,-10.248,-896.944,-428.952,-8960,-4620,-6580
3.43147,3.01724,1.94452,4.03891,2.778,1.3064,3.2654,-0.546907,5.12723,3.3861,2.67702,2.92733,1.30881,1.89049,4.40513,2.40314,-8.296,-899.872,-426.512,-9240,-5180,-6580
2.74669,1.89415,2.43567,3.11232,3.10813,1.42067,4.42775,1.45301,3.32467,2.69086,2.58913,2.38672,1.85461,2.87337,5.39277,3.08126,-7.32,-899.384,-428.952,-9520,-5600,-6580
1.21475,1.64274,1.82513,3.31389,2.05255,0.888874,2.14136,-0.789028,0.487621,1.98961,2.41404,1.23759,1.41083,1.5299,3.65942,-0.389623,-6.832,-899.384,-429.44,-9520,-5880,-6440
-6.21485,-2.52959,-1.37742,4.0168,2.32209,1.07373,3.84504,0.753795,-8.96577,-4.37014,-3.10509,-2.63897,-1.21629,1.1106,6.30688,1.65225,-4.88,-898.896,-427.976,-9520,-5880,-6160
-2.34588,-0.3388,-0.170982,0.449575,1.18165,1.50932,0.899962,1.99353,-2.21647,-2.42699,-3.68537,-0.334546,-0.288454,2.1025,0.633212,1.72906,-8.784,-896.456,-431.392,-9660,-6020,-5880
-0.992128,-2.15677,-2.52869,-7.5052,-4.88322,0.0783882,-7.21208,3.19091,1.41872,-2.42202,-3.37971,-2.2579,-2.08395,-1.09479,-13.8102,-1.16619,-5.368,-899.872,-431.88,-9940,-5880,-5600
-5.03078,-4.63465,-6.12752,-7.43805,-5.47704,-0.325788,-5.28826,6.80659,-2.65007,-6.69186,-5.8009,-5.66626,-4.98418,-2.55365,-8.58392,-0.038537,-6.344,-897.432,-432.856,-9380,-5740,-5320
-4.07053,0.247741,-3.91552,2.34955,0.688635,-0.6145,2.55782,7.06176,-1.12659,-4.54893,-2.63001,-2.10658,-4.56346,-0.783211,5.99747,1.20079,0.488,-894.504,-435.784,-9380,-6020,-4620
-0.696393,0.854488,-4.03202,1.35064,-1.69608,-3.73091,-0.148669,0.0300596,0.799072,-1.96947,1.27653,-1.75886,-3.63799,-3.78887,2.60369,-3.06998,-6.832,-898.408,-432.368,-9240,-5320,-4340
1.92155,0.958087,-4.26905,-0.856931,-3.52849,-4.34581,-1.31575,-5.66465,3.71986,-1.00056,0.0212902,-2.44059,-3.40618,-5.31332,-0.285766,-3.87346,-5.368,-895.48,-431.88,-9240,-5740,-3360
0.703301,-1.64487,-1.51117,-1.15494,-1.61251,-2.22241,0.837683,-3.99469,0.136714,-0.374921,-2.19733,-1.99079,-1.53162,-2.73393,0.68244,-0.831341,-9.272,-898.896,-432.368,-9520,-5600,-2800
0.937793,-1.56484,1.92132,-1.45369,0.199234,1.33998,1.02194,-0.443948,-1.35211,0.573813,-1.97709,0.181411,1.26076,1.08798,0.44839,1.09432,-10.736,-897.432,-434.32,-9380,-5600,-2100
6.5182,5.89797,7.06593,5.1152,5.36588,3.77295,3.48165,1.09003,6.22502,5.23687,2.92813,6.86962,4.77202,4.94305,3.1135,3.58085,-9.272,-895.968,-435.296,-8680,-5320,-1680
5.87961,5.70748,6.30988,4.70793,4.9989,3.18703,2.91754,0.319233,5.33892,5.57772,3.39755,6.96776,5.13473,4.86051,2.61934,2.78654,-7.808,-895.48,-441.64,-7840,-4760,-1540
8.34377,10.5651,8.6994,11.4406,9.69804,3.9538,8.48906,1.49506,8.44007,7.60188,4.60495,10.6709,6.24037,7.24284,10.3396,6.20667,-9.76,-897.92,-439.688,-7840,-3920,-1680
5.01571,7.86866,5.34077,7.60581,6.59406,2.14117,5.39273,0.594765,5.66799,4.09376,2.28525,6.53066,3.58608,4.36562,7.73476,4.12191,-11.712,-901.336,-438.224,-7000,-4060,-1820
0.255777,-0.251107,-0.0375544,-3.31275,-2.04991,-1.06133,-3.24779,-2.18927,-0.0455508,0.705754,1.1133,-0.777315,0.0985776,-1.28981,-3.97897,-2.1126,-9.76,-888.16,-437.248,-6160,-4200,-1680
-4.21173,-5.2921,-1.91075,-6.65289,-4.87209,-1.95656,-5.58767,-3.07399,-5.66286,-1.49211,0.582861,-4.04272,-1.05591,-3.13613,-7.04976,-4.38669,-16.592,-893.528,-437.248,-6160,-3500,-1960
-8.92502,-11.1681,-4.74902,-9.70259,-6.89065,-2.55904,-6.54354,-3.89,-12.3977,-4.01178,0.357363,-8.2795,-1.96937,-4.81271,-7.34746,-5.97322,-16.104,-892.064,-442.616,-6160,-3780,-2380
-3.69333,-6.01178,-2.33056,-6.88578,-4.79757,-2.65286,-6.36821,-5.76658,-5.70278,-0.814201,1.89138,-3.67486,-0.26067,-3.88103,-6.54863,-6.29861,-14.152,-891.576,-439.2,-6580,-3640,-2800
-1.9771,-2.53452,-1.38313,-5.86604,-3.87113,-1.86975,-6.15272,-3.30163,-2.74624,-0.761653,-0.350286,-1.38058,-0.501404,-2.5085,-7.72796,-4.6914,-17.568,-897.432,-442.128,-7140,-4060,-3500
-1.75124,-1.96284,-1.45624,-3.53814,-1.98411,-0.630161,-3.78137,1.35773,-1.79587,-2.30969,-1.7132,-1.54153,-0.987797,-1.07425,-4.71956,-0.83125,-16.104,-894.504,-442.616,-6860,-3780,-3920
-5.34213,-6.62854,-4.16708,-7.50715,-5.23676,-1.51842,-6.22181,1.07412,-5.06174,-4.60087,-3.45272,-5.5509,-2.09827,-3.2088,-8.09432,-2.56257,-18.056,-895.968,-447.496,-6860,-3500,-4620
-7.25538,-8.03246,-4.56735,-6.20506,-4.87014,-1.00273,-4.19934,2.93142,-8.67707,-5.01076,-3.57887,-6.60835,-2.35552,-2.20821,-8.71831,0.768821,-18.056,-893.04,-445.056,-6440,-3780,-5320
-4.08237,-2.90297,-1.65645,-0.888302,-0.954262,1.57234,-0.0183559,5.15854,-4.2886,-4.26527,-4.07962,-2.59314,-1.354,0.525184,-1.50377,3.64596,-13.664,-891.088,-445.056,-6160,-3920,-5740
-1.72955,2.96044,0.557148,8.06701,5.04094,2.40937,7.76268,5.89246,-1.09346,-2.52225,-3.43793,1.36753,-0.43327,3.11917,12.2314,4.3628,-16.592,-887.672,-435.784,-5880,-3920,-6300
-2.84127,3.66608,0.526871,11.4302,7.3593,1.76165,11.3925,2.35248,-2.15225,-2.10515,-2.42749,1.73386,-0.17028,3.72199,16.6906,4.81835,-16.592,-891.576,-445.544,-6720,-4200,-6580
5.16886,7.93873,3.47606,10.7923,7.97611,1.5908,11.0112,-1.20402,8.60176,3.98423,3.03578,6.21152,1.77664,4.16178,14.4702,4.70828,-14.64,-891.576,-444.08,-6860,-4200,-7280
4.16241,-0.00753975,0.166154,-2.98692,-1.9499,-1.70656,-1.15967,-3.31566,5.77814,2.79185,3.37856,0.254357,0.292293,-1.4247,-2.66916,-1.29727,-12.688,-891.576,-447.496,-7280,-4620,-7420
0.969983,-5.55591,-2.03074,-8.34071,-7.72701,-2.90076,-8.17473,-4.96605,-0.721194,1.13614,1.99492,-4.11349,-0.666557,-5.30771,-11.2975,-6.04329,-12.2,-895.968,-447.984,-7560,-4760,-7980
1.48476,-0.900324,-0.308904,0.892786,-0.949652,-1.20333,-0.796984,-2.96843,-0.788901,1.43278,-0.0444805,-0.797161,-0.462176,-1.50267,0.712676,-2.14633,-12.2,-892.064,-447.984,-7280,-4340,-8260
4.2352,4.04233,1.05431,2.12071,1.17139,-0.33441,-0.19152,-1.72138,4.52611,2.02091,-0.301719,2.7385,-0.297783,0.19117,0.483979,-1.56004,-10.248,-891.088,-450.424,-7420,-4200,-8540
1.90986,1.79028,-0.20333,0.426777,0.447221,0.100041,1.65495,0.230184,2.27039,0.839461,-0.183979,1.03745,-0.473675,0.323513,0.875571,0.0968974,-12.688,-887.672,-449.936,-7000,-4060,-8960
-0.268294,-1.5735,-0.801949,-3.46841,-1.23608,0.636054,-0.414846,1.37962,0.0764861,-0.0906534,-0.876004,-0.975175,-0.257157,0.329351,-3.16231,0.26547,-11.712,-884.256,-451.888,-6440,-3920,-9100
0.233394,0.768323,-0.392536,-3.34223,-2.60118,0.430445,-6.3782,-0.485435,0.869728,-0.280124,-0.792364,-0.203254,-0.0803281,-0.855947,-8.57246,-3.3955,-15.128,-896.944,-446.032,-6580,-3920,-9380
2.88661,4.23773,1.63604,2.55114,1.99767,1.5029,1.50481,2.12109,3.8374,1.7327,0.955507,2.64722,0.636095,1.47173,3.30557,1.61256,-10.248,-882.792,-447.496,-5040,-3360,-9240
3.29958,1.85836,1.86079,2.13685,2.02595,1.08795,3.3128,1.66968,4.37636,3.20295,2.98143,1.83465,0.783296,1.02174,5.37227,2.90319,-16.104,-890.6,-449.936,-5040,-3220,-9100
2.69083,2.72963,1.14599,1.50369,0.0986843,-0.197508,-2.92373,-0.985778,3.28843,2.93559,3.41445,1.11553,1.19446,-0.527998,-3.10306,-1.29627,-11.712,-890.6,-447.496,-4900,-3920,-9380
7.16366,11.3672,3.84576,8.50011,4.64966,0.448618,1.06464,-0.146294,9.73426,4.66648,3.19273,7.64156,2.07033,2.39416,1.92114,0.824843,-11.224,-892.064,-447.984,-4620,-4200,-9520
-3.45841,-3.19921,-0.504844,-1.49952,-0.171977,-0.106183,1.43636,1.14657,-5.76639,-2.48456,-0.906875,-1.58034,-0.154423,0.484919,1.10945,1.04234,-8.784,-885.232,-453.84,-3500,-3220,-10080
-4.25616,-5.11291,0.29301,-0.490518,2.25169,1.7819,6.70556,4.26374,-6.88989,-3.09056,-1.16922,-1.66357,0.415795,2.68883,7.25746,5.08524,-12.2,-890.6,-449.448,-2940,-3220,-10360
-1.87769,1.29032,2.01226,5.71678,5.04126,1.91439,5.58131,2.61446,-1.90847,-1.1134,0.611782,1.8141,1.23278,3.15443,6.83009,4.43181,-10.736,-890.112,-452.376,-2240,-3640,-10360
1.86182,4.6408,1.70799,5.78005,3.9674,0.202782,2.99155,-0.834357,4.35974,1.01737,1.53975,3.06139,0.746662,1.23024,4.36697,1.72057,-4.88,-888.648,-448.96,-1400,-3080,-10780
5.31651,4.71836,2.53956,3.21229,3.31683,0.67859,1.79233,0.60536,8.89898,3.16422,1.77484,4.61555,0.617118,2.10013,1.83302,2.60033,-7.32,-885.232,-448.96,-420,-2660,-11200
4.83606,4.61666,3.6038,3.58388,4.38876,3.39473,1.29389,5.09857,6.56684,3.35183,1.76005,4.93466,1.69449,4.21084,-0.672834,5.67446,-3.416,-886.696,-445.544,-280,-2520,-11480
4.46018,3.83208,3.79951,2.88121,3.26625,3.16563,0.461744,3.93195,4.29533,4.1198,1.93552,4.3015,2.73293,3.3542,1.20425,2.36218,-3.416,-883.28,-445.056,-980,-3640,-12040
4.15179,0.690768,0.950917,-3.48536,-2.83943,-0.232157,-4.29102,-0.182205,4.02961,3.95266,3.35777,0.830025,1.92088,-0.94028,-4.66599,-4.7377,-1.464,-890.6,-445.544,-1960,-4060,-12320
5.89296,2.22752,0.0325358,-3.42738,-3.83372,-2.85798,-3.91714,-6.34011,6.34126,5.04552,4.75523,0.769598,1.11817,-3.08128,-4.27561,-5.9346,3.416,-885.232,-439.2,-4340,-4060,-12740
0.470063,1.02011,1.39907,3.06298,2.6743,-1.38569,4.03875,-4.88188,-3.14044,2.10056,2.6287,1.48413,1.12961,0.992259,5.60492,0.619605,2.928,-880.352,-443.104,-5600,-4200,-13020
-8.63069,-3.57691,-1.8189,3.48641,2.18966,-0.306481,5.58953,-0.447024,-11.9588,-5.64708,-3.6887,-2.61403,-1.09142,0.45559,7.2565,3.20116,2.44,-883.28,-441.64,-5880,-3920,-13300
-4.08089,-5.93655,-3.04328,-2.91305,-2.07561,-0.61616,1.07369,0.450893,-3.79953,-3.59857,-2.88498,-4.19077,-1.88037,-1.54402,1.02226,1.22652,4.88,-887.672,-446.032,-6300,-4340,-13300
-1.90317,-3.70376,-2.41857,-1.21548,-1.67152,0.139134,-0.0560889,2.49132,-0.649054,-3.18584,-4.01731,-3.07285,-2.18949,-0.667245,-0.239443,1.20201,9.272,-885.232,-445.544,-6860,-5040,-13300
0.697915,1.49658,-0.0446256,1.74291,0.67016,1.75545,1.58882,4.50689,3.29209,-1.08524,-4.55352,0.508447,-0.758694,1.27153,2.75606,1.77536,11.224,-887.672,-446.52,-8400,-5320,-13440
0.0350865,-3.22417,-2.95412,-6.7681,-4.90393,-0.292007,-0.952334,2.93703,1.98167,-1.04315,-3.61641,-3.24508,-1.91861,-1.92698,-2.19455,-0.413988,7.808,-882.304,-445.056,-8260,-4480,-13720
-8.29017,-11.8695,-8.01319,-18.6146,-14.389,-4.95996,-13.5798,-4.59852,-8.61794,-7.23491,-6.46421,-11.8264,-4.9636,-9.25431,-19.6236,-10.0089,10.736,-883.28,-445.056,-8680,-4340,-14140
-22.4438,-18.0123,-10.389,-16.0841,-12.8621,-5.0227,-15.0592,-5.19234,-28.5725,-16.6199,-11.8011,-15.5725,-6.36698,-8.68843,-20.2693,-9.98369,11.224,-881.328,-442.128,-8120,-4900,-13860
-28.7394,-23.3492,-12.2433,-15.4559,-12.6147,-4.36555,-12.7247,-3.17841,-37.6651,-20.3992,-12.9767,-18.4061,-6.94469,-9.03081,-15.9523,-8.80342,10.736,-884.256,-444.568,-7840,-5040,-13580
-6.38213,-5.51236,-5.75612,-9.49895,-7.92072,-3.63913,-10.3538,-4.99995,-6.33501,-6.43206,-6.16742,-6.05967,-3.94253,-6.60888,-12.51,-8.85025,13.664,-886.208,-442.616,-8540,-6300,-12880
-11.6055,-9.14875,-6.54061,-6.33749,-5.73021,-3.15745,-4.55238,-3.60116,-14.2653,-8.89496,-6.52351,-8.29705,-4.45018,-4.76365,-4.19229,-5.05966,16.592,-882.792,-444.08,-9660,-6720,-12460
-8.90663,-9.87937,-4.50113,-5.07553,-4.36898,-1.70037,-1.72545,-1.33437,-11.792,-6.44194,-2.67294,-7.75231,-3.11724,-2.95887,-1.08521,-2.23592,19.032,-884.256,-450.424,-10640,-5880,-12180
7.96783,5.9159,2.87609,2.45723,0.51588,-0.454521,-2.02423,-3.96338,11.3041,5.32002,4.27643,4.12499,1.41586,-0.214764,-1.34077,-3.62596,16.592,-882.792,-451.888,-12040,-6020,-12180
9.14518,7.35428,2.99535,2.13153,0.392448,-1.4877,-3.60941,-5.91689,12.3598,6.32312,5.43603,4.90342,2.04711,-0.601205,-2.20306,-5.36542,13.176,-885.72,-450.912,-12040,-6160,-11760
7.93707,5.68005,2.33302,2.98063,1.36246,-1.62623,-1.84783,-4.96732,8.95549,6.69237,7.07834,4.81918,2.4895,0.0633682,0.586178,-2.40104,13.664,-885.232,-447.496,-12740,-6300,-11340
6.95574,5.00758,4.76908,8.69176,7.32527,0.613573,7.39887,-0.590941,5.05792,7.75345,8.84564,6.205,3.76039,3.11573,11.9125,4.35414,16.592,-885.232,-447.496,-12740,-5880,-11060
19.514,16.2842,9.38567,10.4765,9.47867,3.4714,8.40872,3.95488,23.5989,15.0918,11.8837,13.1715,5.89685,6.20192,10.1657,7.10086,14.152,-884.256,-441.64,-11620,-4620,-11060
25.5327,26.0688,13.1939,21.6638,16.4693,6.41139,16.6385,7.37668,32.1787,19.0412,12.5751,19.9163,7.68741,11.5971,20.9867,12.7398,16.104,-884.256,-440.176,-11060,-4620,-10640
20.7401,24.4823,13.8792,29.9699,22.3091,7.87421,23.3676,8.35198,24.6644,15.9045,11.2196,20.0324,8.10203,14.4897,30.3475,17.0258,14.152,-887.672,-444.568,-11200,-4760,-10360
12.2239,14.5211,10.9293,19.7919,17.6752,8.26072,20.0525,9.69812,15.9288,10.2205,8.1374,14.2762,6.84036,13.2634,23.578,16.8813,13.664,-888.648,-443.592,-12040,-4480,-10080
6.00914,7.16286,7.6584,9.23073,10.4328,6.36039,10.875,8.04851,6.45388,5.50076,5.42655,8.69425,4.75471,9.18311,10.2845,11.3424,14.64,-890.112,-445.544,-11900,-3080,-10080
5.94086,9.43593,7.16209,10.8428,9.27235,5.09531,7.24879,5.59159,6.08867,4.1881,3.40451,8.86667,4.45184,7.45082,6.13044,7.53132,10.248,-884.744,-447.008,-11480,-1820,-9940
-5.90881,-5.00217,0.183483,-0.223664,1.39694,1.93058,3.61171,2.8569,-9.9671,-3.44321,-2.37826,-2.05533,0.534462,1.9636,2.32816,3.90412,5.856,-885.232,-451.4,-10360,-2380,-8960
-9.70109,-15.0929,-6.27679,-20.4416,-13.7232,-2.28215,-13.4994,-0.767472,-14.7276,-4.90367,-2.90838,-11.199,-2.47385,-6.88363,-19.7833,-7.13754,11.224,-882.304,-451.4,-9240,-980,-8540
-0.864386,-7.44508,-4.05345,-20.6613,-13.934,-2.97389,-15.5962,-2.42232,-0.472201,-0.0400532,-1.40374,-6.63862,-1.96643,-7.35174,-22.7856,-9.34253,8.784,-881.816,-446.032,-8540,1260,-8540
-2.82675,-3.02099,-2.14075,-4.65606,-3.71734,-2.47151,-5.68596,-3.94694,-3.71737,-1.18941,-1.34314,-2.84173,-1.60899,-3.32525,-8.52799,-4.98448,9.76,-880.352,-454.816,-7840,2100,-8540
1.4283,4.60519,0.368727,7.59541,3.83939,-1.12291,2.01134,-3.34838,3.46741,0.968223,-1.57977,2.51972,-1.09574,0.567827,4.19665,-0.407067,-1.464,-883.768,-456.768,-6440,3640,-8680
-4.37064,-3.7376,-3.58311,-2.8775,-2.86493,-1.76789,-2.89047,-2.53362,-5.42382,-4.50255,-4.70462,-3.58303,-3.0947,-2.42209,-3.06709,-2.92443,-1.464,-884.744,-458.232,-5460,2240,-7840
-6.6268,-4.83185,-5.03043,-5.3218,-4.42144,-1.32339,-3.07268,-0.104527,-5.66554,-7.19363,-6.38603,-5.20742,-3.97847,-2.81867,-3.00709,-2.58231,-4.88,-885.232,-452.864,-3080,1120,-7000
-4.60011,-7.68848,-5.42605,-9.20528,-7.21152,-3.32255,-6.44316,-3.19377,-2.34398,-5.2168,-4.70963,-6.86853,-3.4213,-5.39311,-6.34972,-5.93519,-6.344,-886.208,-453.352,420,1960,-6440
-6.18618,-5.36391,-6.00214,-3.45272,-5.16962,-4.31676,-4.05788,-5.51404,-4.19027,-7.28492,-5.98614,-6.51619,-3.90608,-5.53373,-2.69792,-6.65203,-6.832,-881.328,-452.864,3500,2660,-6160
-11.0298,-8.28921,-6.57757,-0.658685,-3.79115,-3.47751,-0.478602,-3.0503,-11.6378,-10.1672,-7.72265,-8.14971,-4.4503,-4.74257,3.12805,-2.88181,-4.392,-885.232,-452.376,4760,2520,-5600
-18.0045,-17.8125,-9.23701,-4.66546,-5.41604,-2.62194,1.13109,1.1116,-24.0943,-13.5208,-9.53837,-13.3826,-5.43339,-4.27635,5.15261,0.503607,0,-885.72,-449.448,4620,1820,-4900
-9.99364,-5.79178,-5.98249,-5.00916,-5.81178,-2.0517,-5.50494,1.27165,-10.8784,-9.18011,-8.63254,-6.75225,-4.15624,-3.85742,-7.65293,-1.95093,-1.952,-886.696,-449.936,3500,1400,-5040
-2.16085,0.110021,-3.44299,-11.2944,-9.79492,-2.45723,-14.1024,0.340722,0.222516,-3.73377,-3.91015,-2.66258,-2.23785,-5.7903,-19.7824,-6.75552,2.928,-888.648,-443.592,1960,840,-5040
-5.51756,-6.17262,-3.76527,-10.6212,-7.94781,-1.70917,-9.96759,0.728349,-6.86757,-4.92153,-3.21293,-5.55736,-2.12977,-4.86018,-11.2041,-7.09824,-1.952,-890.112,-447.008,2100,700,-5460
1.76269,1.07962,2.99116,4.41935,5.46203,3.20308,7.35118,3.9449,1.75514,1.57914,1.06359,2.73613,1.70052,3.75118,11.5792,3.57723,-0.488,-892.552,-445.056,1260,-700,-5040
0.404282,-2.15573,1.56826,1.23544,2.25851,1.91218,7.41574,0.70256,0.332393,1.19034,2.70147,-0.729535,1.44607,2.62984,10.192,4.43259,-0.488,-894.016,-445.056,280,-1400,-5460
2.4796,0.857181,0.713864,-4.53219,-5.65328,-2.38704,-12.5681,-7.8327,1.29155,4.27371,6.40481,-0.456311,1.62476,-3.6641,-18.9094,-8.84663,-3.416,-895.48,-445.056,-980,-1120,-5740
21.2618,18.5003,11.8991,16.3185,14.1536,3.98767,10.9709,-0.137306,24.9663,17.4207,11.6017,16.943,7.05623,9.03958,10.8612,7.21479,-1.464,-890.112,-445.544,-2520,-1820,-5460
4.92063,6.91528,7.77027,12.2055,11.8222,3.58883,12.6664,1.30535,0.798577,7.26126,5.55777,9.13476,5.38418,7.98827,14.0665,8.29679,-2.44,-890.6,-440.664,-2660,-1540,-5320
-5.89105,6.48474,4.51586,12.5365,9.03771,3.56608,7.14634,3.81602,-9.50545,-1.28802,-0.935609,6.12435,2.78778,5.76156,9.00655,6.06833,-5.856,-895.968,-437.736,-1820,-1260,-5180
-10.7822,-6.23205,-1.5015,7.34456,5.50295,3.48936,12.7514,9.15634,-15.4264,-7.17141,-4.43019,-3.50841,-0.910031,4.41853,15.8036,10.0133,-2.44,-898.408,-437.736,-1260,-980,-5040
0.455687,-9.27042,-3.01997,-11.3687,-6.58898,-0.742755,-5.12999,0.394175,-2.37542,1.44801,3.08568,-5.7284,-0.771426,-2.4913,-10.6152,-2.74249,-3.416,-894.016,-438.224,-1120,-560,-5180
13.011,-1.2416,0.488205,-19.4065,-10.7786,-2.66365,-14.8844,-6.49025,15.9582,10.4432,9.16947,0.436813,1.2992,-5.11568,-24.2396,-9.40586,-6.832,-890.6,-437.248,-840,-840,-5040
16.1526,11.1247,3.99011,-5.91565,-4.48517,-1.4908,-12.7989,-6.31351,20.4539,11.2013,7.84819,7.40875,2.20448,-2.63712,-19.122,-8.82029,-7.808,-897.92,-438.712,-140,-980,-4900
11.0736,8.66933,3.12923,0.353289,0.628349,-0.122293,-1.11955,-2.63787,15.7948,6.27274,3.0806,5.78057,1.06847,-0.1421,0.452053,-2.09062,-8.296,-893.04,-435.784,420,-980,-4620
1.12685,0.785562,-2.03274,1.16063,-0.618977,-2.08613,-0.113372,-2.46198,4.03329,-1.37303,-1.21845,-0.605211,-1.58582,-2.19323,3.26849,-1.49747,-9.272,-891.088,-438.712,560,-280,-4480
-5.04958,-4.52337,-4.39902,-5.94653,-5.47135,-3.16667,-7.00466,-3.06573,-3.84805,-5.51145,-3.6014,-5.18897,-2.76465,-4.68519,-5.41449,-4.74432,-9.272,-889.136,-442.616,-1820,280,-4900
-0.792513,1.69262,0.168751,-0.12269,-0.526915,-0.842358,1.354,-0.26368,3.29706,-2.13188,-0.562103,-0.207521,0.15818,-0.855318,6.18299,0.322577,-8.296,-890.6,-438.224,-4480,1260,-5600
0.0368097,3.4924,0.298409,6.99305,3.37108,-1.93091,1.38518,-2.84267,1.85676,0.213354,1.61068,1.46246,0.534488,-0.0655893,7.37854,-0.502717,-15.128,-894.504,-439.2,-5180,1820,-6300
-6.97813,-6.74595,-5.77301,-0.87822,-1.27628,-3.13414,0.841249,-1.20956,-8.65402,-6.17562,-3.05176,-6.0755,-4.02126,-2.46002,3.53449,0.512627,-17.08,-897.92,-440.176,-5740,2660,-6860
-4.90465,3.64986,-1.02654,15.9695,10.2027,3.08825,17.7539,8.35551,-7.09019,-5.86444,-4.90065,0.220768,-2.69398,5.92302,22.6416,13.2361,-18.056,-904.264,-445.544,-7140,840,-6580
-9.4736,-3.53988,0.770507,14.6273,11.6246,5.73628,19.5319,10.1143,-16.7976,-5.41964,-4.68626,-1.55291,0.0894043,8.26158,24.4838,15.0253,-13.664,-902.8,-445.056,-8400,-420,-6720
-5.59137,-6.43337,2.5663,1.7262,4.86661,6.46753,9.20228,9.84544,-10.5208,-1.73942,-3.20508,-0.844178,2.52797,6.92079,7.67371,11.4691,-17.568,-910.12,-444.568,-8960,0,-7980
0.432766,6.06844,5.05949,5.09472,5.70776,5.11822,3.40759,4.48806,1.71853,0.843096,-3.04911,5.67453,3.51119,5.6914,2.78095,4.74706,-14.64,-908.168,-445.544,-8820,-1820,-8120
2.71018,6.47746,4.06945,2.496,1.96773,0.245132,-2.27139,-3.10873,5.04511,2.91084,0.723848,4.87222,3.25725,1.23353,-1.31109,-4.82178,-12.2,-901.824,-449.448,-7700,-3640,-8540
11.0204,11.0495,6.59498,4.76746,2.18531,-0.428151,-3.63929,-5.58414,13.6487,8.82135,6.87986,8.41694,4.58283,1.19991,-2.91526,-5.69161,-5.856,-897.432,-447.984,-7420,-3640,-8820
11.6076,12.9275,4.41767,6.80675,0.495728,-2.13418,-5.80959,-8.30668,15.7157,7.47659,5.4965,7.73383,2.42077,-1.15441,-5.16607,-7.11707,-5.856,-890.6,-441.152,-6580,-4060,-9380
-0.128747,-4.7393,-4.99952,-10.1691,-9.90177,-5.14585,-8.68999,-6.00914,0.91178,-1.28165,-0.341116,-5.3499,-2.98984,-7.33552,-10.7074,-8.03228,-5.368,-887.672,-442.128,-5600,-4200,-10220
14.0496,10.0432,2.38363,5.72444,5.00954,-0.0182447,7.8955,0.850455,21.656,7.20582,1.073,6.63414,-0.365889,2.09273,10.3608,4.00485,-1.464,-891.088,-439.688,-5320,-5320,-10500
3.00408,-6.45266,-4.16456,-12.2517,-6.41271,-1.83123,-3.26849,1.38686,5.25147,-0.0623309,-2.38235,-4.61329,-3.47377,-3.62834,-6.08731,-0.910267,0.976,-888.16,-435.784,-5040,-6440,-10500
-4.14528,-13.1375,-6.38236,-14.3681,-10.0347,-3.11384,-11.9583,0.793637,-8.58692,-1.88658,-0.429656,-8.59552,-4.32632,-6.93115,-18.7693,-6.55338,3.416,-882.304,-436.272,-5320,-7420,-10500
-21.835,-22.0085,-7.89007,-5.01735,-4.7872,-0.453788,-4.32173,4.82149,-36.5457,-10.605,-3.15842,-13.4035,-4.0775,-3.57787,-8.56179,-0.862175,2.928,-888.16,-434.32,-5040,-7280,-10500
-29.1351,-18.6512,-5.48057,1.15268,0.759293,3.5645,3.9086,9.63773,-43.0237,-16.6314,-7.09417,-10.8937,-2.67074,1.54271,1.22053,6.37776,5.368,-888.648,-439.688,-4340,-7140,-10360
-19.2369,-14.5212,-2.15182,-4.90927,-1.7751,3.10728,0.0698024,4.95585,-25.7273,-11.4208,-5.45958,-7.02606,0.234351,1.99812,-5.20344,3.00823,8.296,-885.72,-441.64,-3500,-6720,-10080
4.31194,-4.27551,0.00559422,-14.8656,-9.52637,-0.0675738,-10.5338,-2.65303,8.48737,2.48505,1.3902,-1.64912,2.46794,-2.90577,-15.9015,-5.90804,11.712,-886.696,-446.032,-2380,-6300,-9380
17.2336,10.8239,3.55423,-10.9638,-6.88526,-1.93345,-11.6031,-6.17701,29.1084,9.89617,3.50231,6.50939,2.22693,-3.31362,-18.0091,-8.11097,7.32,-886.696,-451.4,-1960,-5880,-8680
4.29416,3.59495,-6.30976,-19.2433,-16.0003,-7.74701,-23.7908,-9.02658,14.727,-0.939586,-1.46525,-3.41938,-5.48278,-11.0088,-35.4018,-14.9821,11.712,-890.6,-457.744,-1820,-6440,-7420
3.37793,13.9381,-8.49194,9.15268,-1.70912,-7.31,-6.17905,-3.59438,13.5545,-4.21158,-4.01857,0.175204,-9.89878,-7.07245,-0.906141,-6.13412,8.784,-889.624,-459.208,-980,-5880,-6860
-7.66099,0.718684,-9.19935,10.3231,2.26585,-3.41576,9.27279,0.612552,-5.20314,-9.76327,-7.44552,-6.21667,-9.2851,-3.87646,22.8648,0.265589,8.784,-888.648,-460.672,-1260,-6720,-6300
5.34073,6.0066,2.50234,11.9598,8.68351,2.37226,19.8218,1.54615,8.98428,2.9032,1.46374,2.71014,0.287165,4.7177,31.6093,9.33293,11.224,-888.16,-466.04,-1400,-7980,-5180
17.265,7.8888,11.9814,7.90064,10.7162,4.62324,14.8452,-2.29727,19.4164,15.1364,11.2786,10.6742,9.12527,9.19731,16.9286,10.1185,11.712,-884.256,-461.648,-1400,-7420,-5320
19.5973,10.7102,16.7704,9.35279,12.1874,6.25934,8.73572,-1.53687,18.8853,20.7611,16.5654,15.2865,14.257,10.7415,8.95274,7.07411,11.224,-883.768,-460.184,700,-6300,-5740
13.0971,9.56879,16.753,11.5986,12.0744,6.80918,7.08476,0.135527,8.06309,17.6464,15.4861,14.4014,14.6595,10.7402,10.2219,4.97956,11.224,-880.352,-455.792,2800,-8400,-4760
5.82506,2.25948,10.8043,2.41654,5.53604,3.28967,0.6078,-2.3669,-0.865358,9.60076,8.81242,7.86736,10.0011,5.17333,2.20018,-0.698519,14.64,-891.088,-458.232,2940,-9660,-4480
-6.31576,-3.6222,4.74975,1.04018,3.37637,1.17623,1.73279,-1.91518,-15.9921,-0.176924,1.61446,1.65545,5.12484,2.30114,4.43135,0.73766,15.616,-887.184,-458.72,4900,-9240,-4340
-6.53168,-2.14215,1.01931,-2.76233,1.10653,1.76194,0.729627,1.27027,-12.9434,-3.93929,-3.90794,0.316816,0.978446,1.51433,-1.61954,2.17404,17.568,-887.672,-459.208,6020,-9240,-4060
-8.16178,-4.06198,-4.69715,-0.827753,1.45721,1.7258,4.58593,5.7856,-10.9311,-9.42813,-9.40019,-3.39351,-4.16415,1.30981,3.57555,5.94551,20.984,-876.448,-462.136,9240,-8680,-3360
-13.7272,-5.59878,-10.1894,1.94805,0.0913429,-0.260482,1.72164,4.32065,-13.0009,-16.1965,-15.6758,-7.89665,-9.02598,-1.52484,2.988,2.60595,18.056,-881.328,-467.504,10220,-7840,-2800
-20.5496,-16.8687,-14.5911,-14.0936,-11.0977,-3.7723,-10.0937,-1.37386,-21.4686,-19.3833,-15.7675,-16.5513,-10.5988,-7.63391,-12.4321,-7.14434,21.472,-877.912,-473.848,12600,-8400,-1540
-2.48161,2.24749,-5.49129,1.28599,-1.92495,-1.80804,-2.56132,-0.547601,2.22192,-6.91577,-7.19944,-2.73385,-5.86187,-2.98363,0.16783,-3.60304,21.472,-871.568,-478.728,15400,-6720,0
-2.04571,1.79569,-7.50901,7.62985,0.984397,-3.7613,5.16209,1.46081,1.49161,-7.08192,-6.7608,-3.636,-7.92403,-3.66003,12.235,1.0213,18.544,-867.664,-490.928,17080,-5320,980
-8.77744,-11.5069,-6.59732,-5.87141,-7.41616,-4.00182,-1.44391,-0.54027,-13.2561,-6.10147,-0.0195541,-9.76067,-3.03588,-5.77416,0.000290155,-2.33914,22.936,-868.64,-491.416,18900,-4900,2800
8.14054,0.832682,4.74149,-8.95676,-5.60536,0.656184,-5.67663,-0.000737343,6.80124,7.91023,10.3895,2.45734,5.96524,-0.715074,-12.3739,-2.91287,24.4,-865.712,-494.832,20860,-2660,4480
12.6193,10.5064,10.746,4.3859,4.68743,5.45569,2.53515,4.34334,10.9339,13.8037,14.624,10.296,10.0754,6.59206,-2.17095,4.91826,19.032,-865.712,-494.344,23520,-1680,5600
18.3955,21.2923,12.5993,12.0872,7.77504,6.3311,0.554378,5.17372,22.9523,14.9373,8.42916,15.9459,9.04767,8.41155,-5.26356,4.33016,22.936,-863.76,-491.904,25480,-1680,8120
12.6069,13.9824,-2.07413,0.0769825,-3.67023,-3.7004,-13.3929,0.988887,23.0701,3.37502,-5.05638,5.67702,-4.94844,-4.20247,-23.2818,-5.4447,17.08,-863.272,-490.928,26600,-840,9660
-1.61887,-0.386712,-16.0431,-6.21888,-14.9831,-15.5866,-16.3154,-5.13095,6.04815,-6.35332,-9.32136,-8.30942,-15.7911,-19.5693,-11.8862,-15.1075,16.104,-863.76,-483.12,27440,-420,11900
-4.49421,-10.4125,-13.3206,-16.323,-22.0521,-13.7662,-21.431,-12.806,-1.93679,-2.93865,-1.25221,-13.4141,-9.71758,-20.3508,-16.2373,-22.5618,6.344,-868.152,-482.632,28000,-560,13440
-9.5708,-6.49745,-6.31975,3.27332,-2.81445,-4.08615,-1.40266,-11.2107,-11.8341,-5.6976,-0.540241,-8.1025,-1.55582,-4.14858,3.43206,-6.79904,9.76,-867.176,-478.728,27440,-560,15680
-24.7135,-16.8062,-5.95233,6.79266,7.72583,4.02422,16.8916,2.47542,-34.2116,-16.7952,-8.676,-11.2545,-1.65508,6.85843,19.1092,12.14,8.784,-866.2,-477.264,27300,140,16660
-19.8637,-12.257,2.47142,13.1834,18.477,12.6823,29.5556,17.5553,-29.2837,-11.5099,-6.98636,-3.76028,1.14096,17.5478,29.9836,26.5287,10.736,-866.2,-469.944,27020,-560,17360
1.36709,-0.872565,8.92079,4.38825,14.654,10.9572,17.7592,13.1146,0.774814,1.78476,-0.449818,6.19679,4.09374,16.0738,13.0087,18.5781,4.88,-866.688,-464.088,27160,-420,17780
2.21388,-5.77056,3.65728,-5.93182,4.74135,5.34,7.09403,6.57986,3.25032,0.958093,-1.59664,1.31959,1.15191,7.40788,2.95529,9.27554,1.464,-874.496,-459.696,26600,-980,18200
3.8725,-3.8825,3.97548,-7.7948,0.499989,3.76755,1.28102,3.54755,1.83715,4.87744,4.19484,1.65128,3.18102,3.67425,-2.65738,3.65278,-0.976,-883.28,-453.84,24500,-2800,18760
27.3591,21.1709,22.3968,8.52462,12.4712,10.7781,2.68898,5.11626,28.8353,26.2363,19.5231,22.7036,15.9607,14.1173,-1.74487,5.62884,2.44,-883.768,-454.328,23240,-4060,18620
28.9156,23.3209,23.2541,11.6714,13.9658,7.88275,2.70631,1.83669,31.9581,27.4531,20.2117,24.1909,15.7637,13.5756,3.41815,4.45674,-2.44,-885.232,-450.424,22120,-3780,17780
6.82527,0.129237,6.538,-12.8249,-7.84337,-1.2139,-13.3993,-4.04127,9.65802,7.60644,5.3712,3.3851,5.15065,-2.32964,-13.3278,-8.44022,-3.416,-889.136,-450.912,21420,-5320,17360
-8.68169,-14.8442,-5.21101,-14.3798,-11.3348,-7.99185,-10.2052,-7.87266,-8.2158,-5.49485,-3.3361,-8.43701,-2.80594,-10.7652,-7.16669,-12.4067,0.976,-893.528,-449.936,21000,-6720,17080
-6.51024,-20.1061,-12.1897,-25.28,-18.0176,-15.2611,-16.7906,-18.0202,-6.3787,-4.68596,0.686772,-13.9562,-7.38026,-18.3973,-19.9891,-19.8381,-2.44,-895.48,-451.4,21560,-7560,15820
-10.4483,-17.6491,-12.4772,-17.58,-19.2707,-15.0766,-15.2942,-16.5848,-15.5872,-4.2702,3.99463,-15.7711,-6.70858,-19.2382,-16.9136,-17.3827,-1.952,-891.576,-454.816,23240,-8400,14840
16.3021,23.8904,1.91103,16.0337,-1.76632,-8.63175,-7.87647,-13.3879,23.561,11.5283,9.98868,10.313,0.600636,-7.9785,-7.51036,-10.2242,1.952,-891.088,-460.672,23660,-9660,14000
7.7332,22.6639,-5.72196,12.3923,-3.01091,-8.01608,-7.42331,-10.4468,21.4737,-0.989371,-3.13535,4.55839,-5.27572,-7.95434,-4.17973,-8.32768,2.928,-890.6,-459.208,25620,-10640,13160
-20.6349,-9.62371,-17.6491,-5.2133,-12.4106,-11.7595,-10.9926,-10.8584,-17.3257,-19.1449,-11.2522,-16.9299,-12.1785,-13.8887,-4.05029,-11.9292,0.488,-887.184,-465.064,27300,-10080,12180
-17.9407,-11.5852,-5.84146,-0.532525,-0.103408,0.168297,3.50898,-0.25798,-20.501,-14.1472,-9.75236,-9.07795,-3.70387,-0.370126,10.175,1.27142,-0.976,-875.96,-463.112,30940,-10780,11340
-12.8121,-2.42939,6.02399,16.7452,18.3554,14.8159,27.6829,14.7349,-19.2503,-10.7267,-12.4441,2.98293,4.88197,17.3865,36.2728,22.2778,2.44,-873.032,-465.552,35840,-10080,10640
1.63763,13.6131,15.7883,21.4841,24.0925,21.2368,24.7662,19.1418,-1.90134,0.457571,-7.03852,16.1689,11.6902,24.8163,28.1993,23.7435,-1.952,-874.008,-464.088,38220,-9240,10220
0.425761,7.96477,10.9703,9.34329,14.4307,17.9427,11.8438,17.8841,-4.04564,0.302308,-5.15012,10.3052,7.89894,18.4029,8.97113,16.9071,-0.488,-870.104,-458.232,42280,-9100,9660
5.37378,7.5451,-3.02326,5.02646,4.97799,7.08712,2.01167,11.1983,8.56371,-4.02336,-13.8637,3.76274,-7.04437,5.64692,-0.116988,5.91083,-4.88,-875.96,-465.552,45360,-8260,9380
4.369,-6.07841,-13.0307,-13.7795,-11.5718,-4.23839,-14.2418,-0.088892,5.42668,-4.09146,-11.2236,-7.78881,-13.092,-10.8343,-13.2814,-15.2998,0.976,-873.52,-466.04,46340,-8120,9520
6.65828,1.2036,-8.98027,-0.23622,-10.2739,-14.317,-11.1433,-15.1708,3.70267,6.30242,6.80083,-4.9018,-6.90423,-17.5739,-2.16327,-19.1635,2.44,-874.008,-467.992,46200,-7420,9100
6.25464,7.21863,-10.6813,11.4497,-3.75477,-15.0836,3.66242,-15.1707,6.52778,2.82052,6.42491,-3.9095,-5.54649,-15.655,12.4008,-5.58662,3.904,-876.936,-471.408,46480,-6020,9380
-4.22711,-5.59455,-16.4896,-4.59374,-8.56616,-1.96782,5.28415,7.0672,-1.96162,-10.1123,-2.38054,-15.6873,-7.22799,-9.03808,1.25176,7.98245,5.856,-874.496,-467.016,47740,-5740,9800
14.9532,16.6302,9.70487,16.4852,15.3289,20.7564,19.743,29.7605,18.1876,11.3997,12.4973,9.49788,6.75635,17.8055,10.2528,28.1388,13.664,-852.048,-456.768,51660,-3360,9660
-1.71386,-0.45297,17.8073,11.4523,21.0149,24.5147,28.6512,29.448,-8.7595,6.19184,9.65553,8.24511,12.434,25.2767,21.5523,32.6832,6.344,-856.44,-455.792,59220,980,9940
-15.0572,-21.7033,2.43643,-20.2911,-4.56954,5.79303,1.10266,3.5484,-22.522,-6.7786,-2.54546,-8.52533,5.50796,1.8767,-7.28202,3.64068,13.176,-876.448,-453.84,63280,1820,11760
6.71459,3.30486,1.98818,-10.1399,-10.3802,-8.18855,-25.1109,-21.1525,10.0974,5.7051,2.64178,2.78421,5.09591,-11.6039,-29.6293,-24.8612,18.544,-881.328,-458.232,65100,1120,13440
3.99676,1.85614,2.77253,-6.01453,-8.98685,-7.48196,-20.8696,-16.8558,6.13498,5.96551,6.06227,1.90827,4.95405,-9.03579,-23.1977,-20.1656,22.936,-874.984,-454.328,67760,1960,15540
-6.03417,-21.0191,-1.2891,-26.4164,-15.6088,-5.93216,-18.2701,-11.4333,-10.1239,0.450662,7.45345,-9.27601,3.34041,-7.73624,-28.4005,-14.402,18.544,-885.72,-462.136,68740,4200,16380
-5.91965,-17.7123,0.0137936,-21.9835,-11.2163,-2.72518,-14.0639,-4.81857,-9.77419,-0.491872,5.63233,-7.14533,2.34724,-2.72856,-27.7186,-7.30143,22.936,-901.824,-460.672,66360,3640,18480
1.90419,2.76621,5.127,5.84618,6.05051,2.68535,5.03088,6.97721,2.55713,1.21693,-1.15762,6.2273,1.95201,7.01486,-0.580763,8.45338,26.84,-908.168,-461.648,64680,3080,20580
-1.40365,1.43691,0.653352,8.75625,5.28295,-1.67669,4.48166,6.26088,0.52852,-3.78033,-7.49534,3.70754,-3.89715,4.61278,8.40325,6.23443,33.672,-913.048,-458.232,64820,2940,22400
-0.0963057,-0.11634,3.64926,2.38251,-1.71732,-8.52899,-4.35906,-2.54576,-2.82496,3.06347,3.78636,3.25843,-1.30083,-1.46133,2.19448,-4.60637,33.184,-917.928,-450.424,63980,1820,23940
-1.43399,-5.89232,8.04425,-9.57344,-7.17159,-10.3432,-14.1278,-13.0931,-9.73467,7.37791,10.3249,2.92094,4.49504,-2.91191,-12.393,-13.047,40.016,-922.808,-445.544,63560,2240,24920
-1.28569,-7.65406,10.7762,-10.3931,-3.4252,-7.43753,-11.8486,-15.5349,-12.0609,8.78205,12.4525,4.56927,6.92086,1.40267,-8.45524,-11.8366,41.48,-931.592,-437.248,61320,1540,26180
-1.42244,0.374178,12.165,1.00654,9.16278,-0.481792,1.67083,-4.09314,-8.13213,7.26766,6.97601,9.44031,3.5238,10.9818,4.46612,-0.177446,52.216,-921.344,-425.536,59920,1960,26600
2.96923,18.3096,9.03622,22.7091,23.7512,5.05637,23.2937,13.086,8.27437,-0.712369,-10.2517,15.3277,-2.43103,20.1129,27.862,20.324,42.456,-926.712,-419.192,58100,2380,26600
0.281238,24.2759,0.343115,32.6919,24.8547,-0.42352,31.062,18.3873,14.3233,-11.2911,-24.2676,12.6633,-3.77134,16.3389,41.2602,25.8323,47.824,-929.64,-416.752,54600,1260,27440
-7.92298,6.16295,-10.7722,10.8907,6.53222,-10.1985,15.151,9.09305,3.48899,-15.6703,-20.0126,-3.75036,-6.30678,1.66527,21.4962,11.2747,47.336,-939.4,-407.48,51520,980,27720
-19.4204,-1.74672,-25.5643,-0.0702929,-15.3166,-20.5067,-9.62144,-10.7517,-8.52604,-24.2924,-19.7222,-21.131,-13.9413,-19.8577,-3.14762,-12.9185,40.504,-939.4,-404.064,46200,280,28140
-17.1417,-5.36766,-40.0544,-2.79845,-22.8421,-19.671,-15.3639,-17.8817,-4.3353,-28.0221,-21.7173,-30.3249,-26.104,-32.4849,-5.16413,-21.4953,41.48,-924.76,-395.28,43120,700,28140
12.6855,4.44745,-31.8467,2.55169,-11.56,-9.45202,0.184202,-10.522,27.0932,-5.20705,-4.44627,-16.5334,-28.4698,-27.4352,13.324,-11.6852,38.064,-919.88,-389.424,39760,2800,28140
23.7544,13.1917,-2.53189,10.8451,3.40784,12.657,13.8456,9.86188,29.143,19.6039,18.2646,3.79642,-8.49357,-3.10394,21.7909,8.013,40.992,-923.784,-386.984,34860,3220,28140
27.0168,10.6118,18.66,2.3595,6.10074,26.4555,12.4491,13.5102,23.7086,31.3784,32.8322,13.9252,17.1553,11.7098,13.4946,13.6547,41.48,-927.2,-387.96,30940,1960,27720
13.4532,-3.85821,19.1484,-15.732,-1.69738,16.8396,-1.4797,-0.652743,4.1015,21.5115,24.2494,9.63627,21.6187,3.11755,-7.34042,1.08554,47.336,-918.904,-379.664,25480,-1260,27160
10.8329,-5.37458,14.824,-17.824,-2.94925,5.65731,-5.26562,-9.12375,-0.612418,18.1726,19.4156,8.75335,15.3402,-3.89211,-14.8863,-6.25339,36.112,-914.024,-381.128,23380,1400,24360
24.3866,13.185,21.5822,-7.06366,3.86007,14.7579,-10.2792,-2.55085,22.9788,23.1107,13.0298,20.0556,18.3184,9.02968,-23.3676,-3.88864,38.552,-911.584,-370.88,18060,560,23380
-3.23101,-9.65657,19.9264,-6.97882,9.18485,24.1849,2.56874,6.22272,-17.07,4.2856,0.0453537,7.61877,20.0065,21.1871,-4.65162,8.03042,28.304,-915.976,-368.928,18480,4060,20580
-42.069,-44.7599,9.09325,-33.0182,-4.02543,18.8411,-9.37303,-1.8089,-69.3943,-21.0721,-11.3632,-15.2366,15.7264,15.1951,-27.8878,-0.263194,19.032,-946.72,-379.176,18060,4480,20160
-38.0859,-41.9389,-6.00692,-44.5828,-17.0075,0.510772,-31.4941,-15.2611,-50.5093,-25.7496,-15.5129,-22.1306,3.19656,-1.37496,-57.3262,-19.1287,25.864,-951.6,-387.96,15260,-140,20160
4.51403,-0.313779,-11.7869,-11.2983,-11.4476,-18.4599,-24.0243,-18.0518,11.7654,-2.91644,-4.712,-4.97868,-10.9554,-14.4002,-29.1143,-20.8924,25.376,-954.04,-407.48,13580,-140,18200
6.16018,21.024,-12.7055,32.9138,10.9026,-13.0089,19.6145,10.5267,20.1898,-8.50182,-19.031,3.76179,-21.233,-4.9442,34.344,12.2348,23.912,-955.992,-414.312,7980,-280,17640
-15.0174,0.523619,-20.9544,16.8188,-8.48466,-10.839,1.942,10.1713,-3.96068,-24.1045,-28.8867,-15.0556,-19.5547,-12.5072,13.5026,1.61199,33.672,-944.768,-414.312,4200,-1120,17220
-34.5599,-25.894,-18.4425,-14.1055,-25.1809,-2.21323,-28.1189,9.76545,-37.3576,-30.532,-21.8521,-28.1557,-7.56568,-10.1384,-35.8096,-11.2219,19.032,-919.88,-406.016,7700,2660,15120
-22.4007,-11.7241,3.47739,4.66188,6.17921,13.703,2.53263,19.7039,-34.3828,-10.9868,4.58149,-5.05568,5.50584,16.0089,-9.86727,12.8,28.792,-909.632,-386.496,11200,7560,14140
29.0829,51.6485,27.7762,64.9436,48.8644,18.8201,45.5193,27.9271,31.3717,27.9078,32.5139,41.6228,9.69252,34.9709,52.6179,38.0799,5.856,-914.024,-387.472,16660,7000,12880
49.6469,63.9612,7.47887,73.7923,44.0785,-4.53339,57.5377,28.2109,69.808,28.1599,21.6895,39.3503,-12.1191,12.5166,84.7516,34.9356,4.88,-945.744,-406.504,20860,6720,15260
50.7253,45.7726,-14.7187,39.395,1.61025,-29.205,18.7306,-3.46698,76.7243,22.369,4.80727,15.24,-24.4236,-23.3168,45.4222,-1.51627,8.784,-939.888,-404.064,19880,4480,17360
17.1319,10.6381,-12.4331,11.3873,-11.9587,-16.2815,6.45965,-9.73436,32.8346,5.33948,-3.37933,-7.36602,-10.1381,-15.7295,16.8959,-1.94218,5.856,-924.272,-411.384,19740,5040,17640
-11.9193,-27.2254,-0.919779,-33.1442,-21.4568,-1.55666,-22.51,-15.7359,-14.3305,-5.40203,-1.32635,-18.9742,9.62412,-5.20124,-38.67,-12.6486,2.928,-907.192,-403.576,17640,6300,18480
-17.4045,-26.0299,8.29924,-29.6804,-7.46543,5.31426,-16.7589,-13.7774,-25.7622,-7.2917,-5.79102,-8.48392,14.253,6.01933,-25.119,-8.75444,-7.32,-916.952,-395.768,16100,5180,18900
-18.532,-18.1191,11.7492,-13.8692,5.99619,8.59098,0.019019,-5.42156,-29.3842,-5.10509,-6.66044,-0.30275,13.7111,12.6615,6.25026,0.061687,-10.248,-921.832,-394.304,15120,4480,18760
-8.4823,-5.305,10.9964,-5.23604,2.32287,-1.67179,-5.57949,-12.5165,-16.4137,2.40576,-1.62479,5.73298,11.482,1.86567,4.05069,-10.0495,-13.664,-932.08,-398.696,15120,1400,19180
-8.11915,-11.3469,1.70581,-19.0965,-11.6713,-11.9544,-13.3066,-18.0244,-16.0742,2.51933,1.74343,-1.38992,5.33362,-12.4627,-10.9888,-17.7072,-4.88,-925.736,-396.744,14000,-1260,19600
1.219,-11.2488,0.750735,-31.3256,-18.2124,-9.28429,-22.8299,-15.1832,-5.31742,8.664,10.4015,-2.79282,5.98187,-12.9222,-34.7918,-18.4738,-14.64,-907.68,-398.696,12880,420,18620
-0.870285,-13.3861,3.61914,-29.1052,-8.9679,3.28,-7.84503,4.53184,-6.96015,5.63531,11.9905,-3.47089,7.7497,1.58029,-25.1365,1.34963,-25.864,-916.464,-399.672,11200,2520,18200
2.09404,-12.2241,3.79242,-34.7601,-9.66255,3.15898,-18.1557,3.20357,-2.60633,5.57106,11.7919,-2.32484,5.98904,1.07168,-43.2237,-4.88271,-11.224,-873.032,-379.176,9800,2100,16520
8.77482,0.1719,2.82221,-20.0575,-7.88384,-2.05827,-26.5242,-8.90591,8.64513,6.61939,8.5374,3.15224,3.3578,-3.59601,-40.732,-17.2754,-28.792,-897.432,-385.52,12740,10640,12600
-25.2595,-16.688,-9.37727,-2.80308,-2.47554,-2.71593,-0.52683,-5.41043,-34.524,-17.8444,-7.49721,-13.4832,-4.26,-3.65451,7.41402,-3.70256,-22.448,-920.368,-385.032,10640,6720,13580
-23.8703,-10.2993,-16.4427,10.3686,2.72706,-4.27817,11.2455,0.385584,-25.8691,-22.109,-15.5582,-14.3649,-13.57,-3.13742,20.7325,5.6086,-24.888,-928.664,-391.376,10780,5880,12320
-10.2981,-0.335171,-15.2672,15.8022,5.75543,0.219151,13.0009,7.31197,-4.60689,-17.1157,-18.6937,-9.58943,-17.2796,-0.0488904,23.218,10.2689,-16.592,-916.464,-396.256,8960,3780,12040
1.44472,7.7846,-4.87776,17.8194,10.2218,9.24698,18.0454,16.2049,7.18459,-8.40503,-11.7649,-1.06084,-9.74588,6.79933,27.1372,15.5658,-18.056,-906.704,-400.648,2800,3220,10920
4.7262,9.36967,-3.21363,9.02901,2.58707,3.49881,2.34532,3.57913,9.78147,-5.62273,-12.1982,2.54862,-9.2316,-0.205552,5.97448,-0.0631159,-28.304,-920.856,-403.088,-4760,1400,9240
6.28686,12.6643,2.79026,10.4324,3.75173,1.206,-1.16921,-6.09742,10.7622,1.20637,-4.43988,7.37794,-1.3205,-0.474682,2.79834,-4.66148,-15.616,-929.64,-395.768,-9660,-1120,8820
17.05,19.8635,21.1385,21.2784,18.3682,13.26,16.3562,7.96002,15.9395,18.4131,15.7804,20.6186,16.7768,15.2566,20.3226,13.4645,-20.008,-924.76,-399.184,-10640,560,7140
13.588,12.3835,14.8374,13.8688,14.7148,7.97088,17.5105,8.53913,10.8106,15.7156,16.1975,15.6329,11.6869,10.7663,18.4087,13.584,-18.056,-929.64,-395.768,-12040,-280,6300
12.6244,9.45575,6.55113,5.85851,7.05825,4.69884,8.2554,7.10588,14.4336,11.1163,10.6027,9.31457,5.32724,6.2284,2.73946,8.68723,-13.664,-927.688,-398.208,-13020,-1260,5880
13.5788,11.6214,8.09397,12.0865,9.16789,8.12792,12.4724,12.1997,14.7727,12.3627,12.9185,8.86723,7.52839,8.83377,10.4442,13.809,-13.176,-936.96,-396.256,-16240,-1820,5600
7.0136,2.41273,5.0125,-0.224541,-1.23167,5.07461,-0.826826,7.12737,6.39264,8.84457,10.8229,2.54278,5.95271,2.54908,-3.36915,3.14286,-0.976,-931.104,-391.376,-17220,-1120,6020
-6.6268,-11.1889,-7.4147,-13.4649,-16.7996,-9.26967,-20.2784,-13.0537,-8.83082,-2.44355,0.116308,-9.84898,-4.64543,-14.3433,-16.1087,-20.2538,-13.176,-929.64,-395.28,-18760,3220,4900
-13.2958,-11.1617,-13.414,-6.5891,-15.7745,-13.8581,-14.4756,-20.4251,-12.9691,-11.7037,-10.2262,-13.7772,-9.32348,-17.1179,-3.80698,-20.7011,-14.64,-957.456,-395.768,-22540,4060,6440
-22.1328,-13.7855,-26.4686,-0.534057,-7.36763,-11.2855,6.18132,-5.86583,-15.0244,-29.0401,-31.6174,-20.3409,-25.3344,-11.9116,13.5731,-0.574332,-18.056,-966.24,-395.768,-25620,4340,9240
3.4812,11.6707,-21.7881,15.409,6.23446,-6.72786,14.458,10.5286,19.9544,-13.3944,-25.4604,-3.9171,-29.2505,-4.01477,13.6044,12.1287,-14.152,-962.824,-393.816,-27020,6440,10920
13.6373,17.8542,1.46219,15.091,11.6489,8.22312,13.7094,21.2353,24.9703,6.22931,-0.753357,7.80932,-2.74024,10.1266,3.70772,18.0062,-13.664,-959.896,-390.888,-28140,7700,12600
10.3997,6.16697,14.0592,-2.37066,1.92992,8.52456,3.67592,10.0719,10.5142,14.1819,15.8441,7.78871,16.1587,7.90817,-7.89705,8.90212,-8.784,-963.8,-390.4,-32760,5600,14700
13.0491,0.788188,16.9406,-15.8493,-8.78606,-3.21432,-21.0746,-13.1569,5.43314,19.7316,23.4374,9.59137,19.8103,-2.06224,-31.18,-14.1047,-8.296,-959.896,-387.472,-36260,5180,15680
6.5586,-0.558188,11.2182,-6.85153,-5.18945,-7.81318,-18.0215,-17.8767,-1.73284,13.34,17.9486,7.0338,12.9643,-4.36089,-17.2755,-17.4163,-18.544,-954.528,-395.28,-40460,6440,15960
-4.51195,-5.533,-1.40916,-5.87099,-5.003,-4.60158,-9.99239,-10.8218,-9.9022,-2.55274,-0.897729,-2.25595,-0.341959,-4.41986,-6.3182,-10.7157,-20.008,-955.016,-393.328,-46340,5040,16940
-16.6421,-13.2919,-9.23307,-8.14596,-4.184,1.91353,-3.54386,1.84077,-19.3772,-16.47,-15.2829,-10.817,-7.97023,-0.376649,-4.60969,-0.732696,-18.056,-953.064,-391.376,-50400,4200,17220
-9.87132,-10.9757,1.78048,-5.98247,1.66674,9.66704,3.61283,11.7225,-14.6081,-5.20858,-5.34508,-4.35962,2.21745,8.09442,-1.92722,8.57495,-20.984,-954.528,-385.52,-55160,4760,17080
-3.74559,-8.15953,7.51485,-5.42465,1.19195,7.74323,0.451036,5.46909,-10.8296,2.01214,3.34281,0.571877,8.42434,6.6351,-2.83765,3.44335,-22.936,-951.6,-386.008,-58520,4760,17080
-6.75811,0.890411,-6.2547,7.87804,1.74155,-3.16543,1.66994,-2.02377,-5.91484,-10.0752,-9.42066,-2.82213,-5.64915,-2.32234,8.06831,-0.0571797,-24.888,-947.208,-378.688,-64120,4620,16800
-9.64673,-6.82942,-9.21946,-0.203973,-2.9065,-4.13246,-3.28836,-0.164766,-7.89815,-11.6688,-8.72937,-9.05499,-7.22259,-4.68396,3.42121,-2.95381,-23.912,-939.4,-383.568,-70000,3780,16660
-13.1568,-19.3595,-3.27937,-16.9441,-12.6267,-4.50424,-15.8101,-6.35072,-18.19,-6.25262,0.754647,-12.4493,2.30088,-8.00604,-9.21552,-16.7355,-28.304,-939.888,-389.424,-74200,3920,16240
-6.57924,-11.9692,4.67344,-16.8174,-9.8162,-3.93124,-15.4656,-19.0909,-13.838,2.52073,7.90826,-3.47173,10.015,-5.53529,-14.0565,-17.7595,-28.304,-937.936,-393.328,-80360,2240,15680
5.85482,1.43024,12.1842,-3.39595,4.62603,1.96547,4.54089,-9.2424,0.528601,11.1042,12.6665,8.53195,11.6605,5.08921,0.487748,1.52768,-30.744,-925.248,-398.208,-82460,1540,14560
7.41413,1.0527,6.00509,-6.88683,1.90421,1.56801,3.71916,1.65763,6.54691,8.81269,7.48167,5.05457,3.82257,3.71596,-4.75533,5.405,-32.696,-927.688,-405.04,-85540,420,13440
1.42234,-4.02523,-1.76215,-11.7748,-5.01692,-0.293555,-4.61399,1.23482,3.83836,0.109437,-5.56846,-1.73186,-2.14924,-1.69855,-13.4472,-1.0102,-29.768,-922.808,-408.944,-88060,-1820,12740
3.73475,6.87485,-0.578368,5.87392,2.46733,-3.11437,4.38298,0.363212,9.74453,1.28435,-3.37129,2.25297,-0.397199,-1.31032,6.41905,2.41471,-36.6,-921.344,-418.216,-88200,-3500,11760
16.7673,25.5649,2.68715,27.4775,14.1484,-0.714855,18.1461,7.22078,26.4304,8.90337,2.17251,13.3812,-2.66732,4.36802,25.1945,12.847,-35.624,-913.048,-426.512,-89600,-5460,10780
19.1147,35.2551,-0.19338,44.5751,26.8603,10.8843,36.9035,25.5586,32.5287,3.33922,-9.13374,16.8783,-12.3806,16.5885,48.0548,30.4259,-37.576,-911.584,-426.512,-90160,-7420,10080
12.1122,27.7348,1.94812,38.781,25.8118,13.0961,33.656,24.7746,24.2089,0.664078,-6.49827,12.8859,-7.19948,17.9019,43.2982,28.3917,-39.528,-904.264,-440.664,-91140,-8540,9100
-5.40343,-1.38575,-4.94946,8.54279,4.4332,-3.436,9.4768,1.91875,-5.97804,-3.88087,0.67064,-3.52184,-4.88912,-1.75849,13.7198,3.87499,-40.504,-894.016,-442.128,-91280,-10080,8260
-8.83328,-15.0092,-4.16333,-11.8997,-12.0069,-9.66296,-10.8896,-14.5996,-17.0726,-0.339089,8.28065,-9.18359,2.73598,-12.4871,-10.1602,-13.8881,-44.408,-888.16,-453.84,-90720,-10500,7000
-21.6353,-32.6162,-10.8318,-35.6056,-29.4535,-10.9168,-31.381,-20.8854,-30.2417,-10.2394,1.87793,-23.1856,1.62734,-19.3403,-37.4564,-26.7331,-44.896,-882.792,-459.208,-90440,-11760,6160
-14.0225,-23.4925,-9.76913,-30.0335,-23.5832,-9.44558,-29.0681,-17.6064,-18.3522,-7.14802,1.36162,-18.2887,-1.23359,-15.8354,-34.2517,-23.518,-48.8,-874.008,-473.36,-89460,-12740,5460
14.008,11.6674,7.751,4.65414,4.47677,1.13623,-4.77649,-3.74292,14.7705,12.5128,9.58467,10.6752,4.91028,2.29883,-6.7001,-3.01221,-49.776,-872.056,-483.608,-87920,-14140,4340
13.2631,12.878,14.3127,9.70741,10.7269,11.1466,4.97131,9.22654,12.7847,14.9137,12.0525,14.5354,10.677,11.665,2.51891,8.75591,-48.8,-867.176,-485.56,-84700,-14420,3080
1.32142,1.76553,5.94009,3.24374,5.94657,10.7573,5.19882,13.9258,-0.309557,0.298373,-3.64736,5.32204,2.14998,9.96322,2.22817,9.90853,-52.704,-866.688,-489.952,-82320,-14560,2240
-6.13039,-0.501892,-8.68025,2.14488,3.20087,2.20057,5.94136,8.65264,-2.15661,-14.6358,-20.506,-2.53508,-13.3149,2.29274,3.04702,6.94149,-53.68,-869.128,-486.048,-79100,-14840,1400
-5.31517,2.69138,-13.3764,4.77648,2.40659,-3.42519,7.19618,5.18535,5.02043,-17.2257,-23.5223,-4.57579,-16.2049,-3.54069,6.58127,5.10829,-57.096,-877.912,-487.512,-76300,-14420,980
-0.0657693,4.78299,-7.0572,2.07924,0.274847,-2.59237,3.34818,2.61063,6.98228,-7.95127,-10.6186,-1.60388,-8.75095,-3.12894,4.44247,2.10388,-55.144,-886.208,-486.048,-71820,-12880,700
6.71872,5.01721,5.53715,-3.53633,-3.41628,-1.83153,-6.51379,-6.21639,7.03491,8.07191,10.7447,3.95858,7.32174,-2.22243,-6.04837,-5.43432,-47.824,-893.04,-483.12,-65380,-10640,980
4.41856,0.630786,8.82146,-1.62347,-0.721649,-1.35778,-3.56082,-5.31627,-0.787855,10.0848,15.0311,4.79404,10.6404,0.102246,-1.54674,-2.79352,-46.36,-900.848,-488,-60060,-8260,1540
10.3291,7.26956,11.5997,5.69878,4.38004,1.04269,1.67728,-3.37208,6.62716,13.2399,15.4315,9.92209,11.4971,3.23288,8.36408,-1.231,-46.848,-899.384,-490.928,-51240,-5040,2800
6.82382,6.57102,7.49618,5.19786,4.25965,2.38953,1.24086,-1.42343,4.83992,7.30978,7.07995,7.01446,6.88737,3.87865,5.98554,-1.08916,-40.016,-895.48,-497.76,-44240,-2940,3780
-12.6778,-13.329,-1.39226,-12.1541,-4.43416,2.001,-4.17048,-1.75137,-18.3066,-7.62027,-5.11628,-7.49935,1.1793,0.755523,-7.15627,-2.13316,-34.648,-891.576,-503.128,-35140,-840,5880
-16.0005,-23.1135,-8.87429,-24.686,-14.6326,-6.8339,-11.4254,-8.33253,-23.2972,-9.88644,-5.57875,-15.7637,-3.90143,-9.35724,-17.876,-9.21784,-36.6,-888.648,-505.568,-27020,980,7560
-3.95356,-16.169,-6.94076,-23.8336,-15.4082,-7.18901,-15.7531,-8.63559,-10.5925,-0.291823,2.91304,-11.1623,-2.7807,-10.482,-24.5376,-12.0686,-33.184,-883.768,-505.568,-21420,1820,8680
4.87446,-1.22163,1.11805,-6.91357,-3.88833,0.948409,-7.55927,-1.14756,1.40717,5.45015,5.33488,0.00054332,2.01691,-0.845532,-12.1889,-3.97663,-31.72,-876.936,-501.176,-14700,2240,10500
5.05512,10.3032,6.61228,14.3336,10.4114,7.61536,8.15295,6.35406,5.20529,3.86476,1.543,8.42255,3.40705,9.53608,9.0969,8.03229,-32.208,-870.104,-493.368,-10780,2100,11900
-3.47672,4.57999,2.82613,11.534,8.26292,5.54574,5.90837,5.86867,-3.03757,-3.54552,-5.64802,4.32809,0.719656,7.39377,4.42524,7.38441,-28.792,-872.544,-482.632,-7700,840,12880
-14.8468,-16.3909,-7.64109,-16.385,-11.2759,-1.42538,-13.5962,2.28829,-18.3202,-11.6262,-8.65096,-11.8296,-4.15896,-4.99117,-21.5726,-5.41947,-31.232,-874.984,-473.848,-6580,0,13300
-14.4947,-21.3567,-12.4812,-25.2034,-17.8988,-4.81442,-18.1153,0.766852,-15.6864,-12.6186,-8.14291,-17.2853,-8.62936,-9.87714,-27.0696,-11.4619,-27.816,-886.696,-459.696,-7000,-700,13160
0.0315959,6.03774,-4.83387,13.1044,5.88709,-1.71728,11.4123,4.08694,4.16969,-4.60652,-5.52673,0.794925,-7.8137,0.078516,19.139,4.18498,-26.84,-900.848,-446.52,-8960,-1260,13160
6.28968,22.597,5.35636,40.5015,24.0171,3.63517,32.5698,6.25001,9.71566,2.42872,-0.764199,14.2775,0.687239,10.6327,51.0097,19.1137,-26.352,-906.216,-427,-11480,-1400,13020
7.68472,23.7649,8.8774,42.2065,25.5182,5.74394,34.1947,7.1802,10.7246,4.77155,2.13372,15.4948,4.74232,13.5366,51.4232,22.0819,-28.792,-917.928,-416.752,-15820,-1820,13020
9.16559,22.7062,9.0462,32.0332,20.226,3.98908,24.8566,5.24816,14.2604,5.63936,2.35529,14.6252,4.16646,11.1539,34.8159,16.067,-30.256,-920.368,-410.408,-20440,-2520,12600
7.39324,9.67024,5.02561,5.42564,3.6743,-1.25038,-0.379762,-2.36693,10.8927,5.02933,4.04423,6.54562,3.51716,1.0114,-2.22169,-0.545258,-31.72,-927.2,-402.6,-26180,-2940,11900
-0.273741,-18.2919,-4.79986,-35.6776,-21.8719,-6.63215,-27.8209,-10.3275,-3.21166,0.675966,4.9839,-12.4797,-0.105277,-12.402,-42.8298,-18.8421,-32.696,-929.152,-394.792,-31640,-3220,10780
-1.01582,-22.6025,-4.99251,-41.5473,-23.8465,-4.93616,-29.1366,-8.81706,-4.87828,1.60771,4.89543,-14.4764,-0.0471336,-11.9519,-45.9519,-19.0545,-32.696,-936.96,-394.792,-35280,-3920,9940
-3.02874,-17.305,-4.42499,-27.8749,-15.938,-5.18598,-19.1908,-10.1888,-5.72886,-0.127696,1.82033,-10.8739,-0.792854,-8.89172,-27.4288,-13.4215,-34.16,-936.472,-396.256,-39620,-4760,8120
-8.02205,-14.6139,-8.69462,-16.7681,-12.1876,-8.21156,-9.4996,-11.3815,-9.66488,-5.97187,-4.29332,-11.2995,-6.00484,-9.64701,-8.49303,-10.0802,-36.112,-935.496,-400.648,-43120,-5320,6300
-11.4017,-9.45517,-8.13411,-2.14013,-4.74877,-6.01992,4.36612,-5.47719,-11.6734,-8.74872,-4.69462,-9.73137,-3.93862,-6.07197,11.8822,-1.26765,-38.552,-934.032,-402.112,-46900,-5880,4760
1.16794,11.3226,4.12933,23.1181,13.9934,4.76651,23.7343,10.3491,4.465,2.71512,2.36839,6.56022,3.43118,8.13071,35.4486,16.8628,-40.504,-936.96,-407.48,-50400,-6300,2380
23.6734,33.585,17.8323,36.2572,23.6947,15.0073,24.7108,20.9904,33.0443,20.0147,11.8332,25.3521,9.61053,19.1955,34.4795,23.0439,-41.968,-938.424,-415.776,-53200,-6860,280
26.0527,34.1947,16.8204,32.5865,21.2168,13.0786,16.9771,16.561,36.4831,21.4797,11.7429,26.144,6.86407,15.5152,21.6644,14.5949,-39.04,-934.52,-424.56,-57260,-8120,-2800
17.3935,29.233,8.39338,28.7906,14.0992,4.05918,5.74265,6.62738,30.2968,12.1823,2.55637,18.3281,1.95609,3.44975,14.3764,-0.647023,-41.968,-932.08,-428.464,-60200,-9240,-6160
8.71759,12.1444,1.31991,7.47163,0.315048,-4.91317,-8.83118,-8.92474,16.76,6.73844,1.33148,6.05172,0.541817,-5.2442,-3.53956,-9.77823,-41.48,-927.688,-430.416,-62720,-10500,-8540
-2.02879,-6.80126,-4.15484,-12.5303,-8.74687,-5.69316,-15.1698,-11.3803,-2.35797,-1.15066,-3.29077,-4.95627,-3.25097,-5.75369,-21.8294,-9.88797,-42.944,-921.344,-431.88,-63980,-11480,-11340
-19.4632,-25.8857,-9.89261,-26.7087,-13.6124,-1.7735,-15.1958,-3.92286,-26.5214,-15.4758,-13.062,-16.0492,-6.41128,-4.94002,-29.2676,-7.17757,-39.528,-915.488,-435.296,-65240,-12740,-13160
-30.2369,-36.4118,-12.3426,-32.8925,-16.285,-1.08185,-13.7287,-1.501,-40.3109,-22.438,-13.9969,-22.5004,-6.27545,-5.58127,-27.5359,-5.54847,-36.6,-918.904,-439.2,-66640,-15260,-15540
-27.454,-32.1844,-16.5444,-31.377,-19.0183,-5.71467,-18.5001,-3.34684,-33.1469,-22.0874,-14.7965,-23.2006,-10.3901,-10.1146,-31.127,-9.38126,-40.016,-924.272,-443.592,-67760,-16940,-17780
-1.11232,-5.89515,-6.4671,-5.59072,-0.0125541,-0.929508,2.59387,4.34295,-2.67086,-4.7974,-9.57459,-3.16766,-8.56464,-0.478898,-3.16432,4.45529,-40.016,-929.152,-440.664,-70840,-19600,-19460
2.32649,-6.92424,-5.48835,-7.24418,-1.71587,2.30483,6.49447,7.88156,3.36066,-3.63546,-6.90096,-4.62852,-5.80847,0.947576,2.24323,7.00027,-37.088,-930.616,-440.176,-72380,-21700,-22680
4.33899,-0.233586,-2.80806,3.16874,2.22454,2.29354,11.562,4.34515,6.8967,-1.87743,-2.30188,-1.34397,-2.17871,2.05636,15.5304,7.91099,-36.6,-933.544,-431.88,-73360,-22540,-24640
6.62836,6.60859,3.64851,11.4461,5.86333,0.803274,10.9703,-1.76975,5.32405,4.51506,7.11279,4.98009,3.96339,2.53236,20.7991,4.46754,-40.992,-936.472,-426.024,-73360,-22400,-28420
-2.96345,0.123422,6.14706,6.85522,2.81384,1.97229,2.44382,-4.50606,-9.92021,1.51463,9.96961,2.1944,10.1456,2.35621,10.9789,-1.62945,-42.456,-941.84,-420.656,-72940,-22540,-31500
-3.60374,3.8588,10.8519,10.732,7.0595,3.84673,2.06148,-4.1102,-10.8024,4.51662,12.8147,6.02317,14.7695,6.56967,7.77776,-0.228518,-38.064,-945.256,-421.632,-74900,-23520,-33180
11.7582,17.1763,18.4714,16.2602,13.6986,3.94502,2.67861,-2.84372,7.76762,18.8159,19.9949,18.0061,17.0745,10.801,5.30704,2.11409,-35.624,-938.912,-422.12,-80360,-24080,-35700
27.5769,31.122,18.2444,23.8508,13.0751,-1.87962,-0.162418,-9.67905,30.0219,26.0188,20.5302,25.2401,12.2753,4.55562,8.80154,-5.28817,-37.088,-940.376,-441.152,-83580,-23800,-37800
13.7114,16.7142,1.20856,11.6567,-0.812562,-6.61308,-6.66176,-12.6649,16.3327,8.61262,5.35726,7.98063,-1.25398,-7.22756,2.3144,-12.1643,-31.72,-938.912,-447.008,-88340,-23940,-39480
6.1573,8.06789,-4.32495,-0.0987271,-6.40124,-4.82118,-12.4096,-7.73855,8.00053,-0.185142,-3.1303,0.325029,-5.39856,-7.58192,-13.4594,-11.6358,-35.136,-922.808,-455.304,-89040,-24500,-40600
-2.62473,-10.1649,-6.89855,-24.9083,-15.3429,-4.45231,-19.9157,-2.12755,-4.79631,-3.94871,-2.36416,-9.86538,-4.75814,-8.71626,-35.241,-11.0493,-31.72,-909.632,-470.432,-84700,-23660,-40880
-17.2378,-25.6508,-7.39639,-26.6207,-10.078,2.54873,-2.35072,11.0468,-27.1972,-12.2818,-7.98199,-16.3966,-3.53292,-1.24158,-15.493,4.82609,-29.28,-896.944,-487.024,-78120,-21560,-40180
-21.4949,-23.4981,-7.64446,-19.5156,-7.78423,2.68837,4.04059,10.9094,-30.5244,-15.942,-10.4332,-15.7545,-3.81635,-1.0964,-1.66253,6.90589,-26.352,-894.016,-509.96,-73640,-19180,-39480
-17.1784,-13.4505,-5.89274,-9.04452,-3.58866,1.1459,5.22554,5.66741,-21.5881,-14.7308,-9.68155,-10.4932,-3.58336,-1.32232,5.54603,4.89079,-23.424,-883.28,-530.456,-67060,-17640,-39200
-9.61953,0.293419,-2.19106,7.86499,5.18356,0.646893,11.2117,2.29316,-10.0974,-9.82055,-8.67749,-1.61605,-2.71193,1.58625,17.6779,6.42457,-24.4,-866.688,-549,-60200,-16100,-39200
-9.24702,1.82939,-6.25963,8.60903,6.50964,1.91696,11.5297,8.96724,-9.72134,-12.1115,-16.5932,-1.59935,-10.8821,3.01237,14.9872,10.1915,-21.472,-851.072,-558.272,-52640,-14980,-38080
-12.3608,-4.94572,-12.5174,-0.313841,0.505855,0.935244,6.10308,13.0504,-12.4742,-15.6145,-18.1711,-7.70019,-15.744,0.41472,4.16206,9.82549,-20.496,-842.776,-567.544,-45500,-13300,-37520
-22.1876,-28.9051,-19.4791,-24.8038,-17.3573,-4.47546,-12.4656,3.34262,-23.266,-20.4025,-12.4316,-25.0491,-11.8233,-11.1665,-20.2696,-5.17671,-27.328,-834.48,-577.304,-40320,-12880,-36960
-12.6864,-30.5464,-12.5691,-38.1741,-25.6998,-7.59731,-26.5051,-7.62486,-13.7349,-8.21407,-1.76642,-22.6983,-3.14225,-14.6339,-36.0976,-15.6296,-22.448,-825.208,-585.112,-34440,-12180,-36120
24.8337,15.3279,12.5289,0.751113,0.108944,-3.83103,-8.11174,-11.1519,30.4882,23.052,18.4468,13.8544,10.7338,-0.677599,-4.6422,-9.31274,-26.84,-827.16,-589.992,-31080,-11480,-35560
45.1163,48.6511,27.8454,43.9065,29.3537,1.13003,20.951,-7.96612,57.4553,38.0124,28.4814,39.2788,17.6753,13.7219,33.7839,5.4637,-36.112,-827.648,-593.896,-28140,-12880,-33040
46.3646,54.347,26.8228,53.829,34.8481,2.1673,30.6941,-3.09005,60.7562,37.8077,26.5273,42.4653,14.01,15.5432,43.2557,13.7624,-27.816,-829.112,-589.504,-26320,-14700,-28980
21.7181,27.1438,11.6571,31.7062,16.5761,2.73777,16.6794,-0.0141942,31.8034,16.7706,10.4291,19.6268,5.12017,7.84028,25.6296,8.42565,-16.104,-811.056,-578.28,-23520,-14420,-26740
1.54124,-0.602908,0.645436,3.88681,0.753801,4.11682,3.5429,1.98256,8.36738,0.625139,0.529082,-1.24514,1.43329,2.68321,4.48995,3.08334,-18.056,-803.248,-567.544,-18060,-12460,-24220
0.420379,-1.61865,3.29135,-1.4889,1.54007,6.44806,0.203968,3.11349,6.41427,0.650119,0.584745,-0.0667915,4.1218,5.73638,-4.3246,3.93656,-17.08,-806.664,-539.728,-13020,-12460,-21000
5.81699,11.7583,8.27968,11.3981,10.213,8.46666,6.92796,7.31,11.9819,4.79458,0.0444966,10.0447,4.20313,10.1473,5.76707,8.10236,-7.808,-810.568,-525.576,-7840,-11900,-16520
-0.837701,14.0113,4.24877,23.4629,14.1605,7.12603,15.1384,8.91055,4.54457,-2.5061,-6.79586,8.94683,-1.02769,9.56594,21.3038,11.3524,-0.976,-809.592,-513.864,-7140,-8400,-13300
-17.218,-5.43069,-6.34399,8.51935,1.66599,1.72629,5.10003,4.58201,-18.1638,-14.7337,-12.9704,-6.78549,-6.61694,0.727713,8.81328,4.14821,-0.488,-822.768,-504.104,-7840,-7280,-11760
-13.8875,-10.6789,-8.11474,-7.13404,-7.30098,-1.12486,-7.7646,0.61502,-16.5754,-12.0647,-10.9925,-9.79151,-7.51593,-4.38259,-11.9573,-3.30041,1.464,-835.456,-497.272,-8680,-7980,-9660
-9.84161,-11.1718,-6.26639,-15.4134,-10.3894,-2.09472,-13.3112,-1.71267,-13.9089,-7.11914,-7.8215,-8.63016,-6.0647,-5.6699,-21.2878,-6.89095,6.832,-844.24,-479.704,-8400,-7840,-8680
-21.1044,-34.4715,-12.7548,-37.6161,-21.467,-4.07196,-19.1595,-1.21469,-33.8497,-12.3466,-6.9435,-23.165,-6.37844,-10.5733,-32.8277,-8.29067,9.272,-850.584,-470.432,-8960,-7000,-7840
-25.401,-49.0293,-18.8182,-58.1929,-37.558,-9.66216,-39.203,-6.90973,-42.1429,-14.1579,-3.28813,-33.287,-5.58076,-20.7974,-55.4638,-23.0813,5.856,-850.096,-462.624,-10780,-6720,-8400
-9.65364,-37.0966,-14.7994,-57.234,-40.6559,-13.4771,-49.3979,-15.1415,-21.4065,-3.76348,3.15106,-25.0146,-2.40961,-26.8622,-57.3427,-40.5267,3.416,-855.952,-462.136,-11340,-6300,-8960
-1.05179,-20.0221,-8.62811,-34.8777,-24.9157,-11.613,-27.6833,-18.9839,-6.98162,-0.464401,2.40876,-13.4296,-1.12399,-17.2488,-30.7349,-25.2584,-2.928,-859.368,-455.792,-13300,-7420,-9660
10.5582,7.17166,1.91668,12.0374,9.20981,-2.0706,15.5045,-5.34398,9.11145,5.49879,3.03058,5.90721,0.426182,3.73067,20.952,8.79505,0,-865.224,-447.008,-16380,-9240,-10080
17.0708,32.4876,12.4963,51.2211,36.2368,9.34968,46.0779,13.5321,22.3542,10.3832,5.14214,23.1648,5.12521,21.1112,63.5375,31.6835,-1.464,-865.712,-446.032,-22120,-11760,-11760
6.50293,29.5188,10.5022,42.64,29.0205,9.21638,32.0611,12.6719,14.9185,3.14743,2.43786,18.7298,5.40889,16.8944,45.0461,22.2882,-6.832,-864.736,-444.08,-24780,-12180,-14420
-2.93899,12.739,4.6188,18.7108,13.5814,4.93526,16.5838,6.66183,2.79397,-2.44953,0.968275,7.93577,3.47962,8.34883,22.5223,11.1237,-7.32,-871.568,-449.936,-28140,-14280,-15820
-3.66293,4.10355,3.64433,13.6134,10.6732,3.55447,16.1813,3.37003,-5.47038,-1.70419,1.72426,4.83718,3.70706,6.96083,23.5099,10.157,-8.784,-877.424,-451.4,-33600,-16380,-18060
2.36345,-2.42609,1.9315,-3.10635,-0.398688,0.111977,-1.82596,-2.89366,-1.74297,1.28442,-0.0259276,1.02004,2.74953,0.51971,-3.10409,-2.03031,-11.224,-874.984,-452.864,-38220,-18200,-20160
2.68108,-0.732269,2.78042,-7.35201,-4.37228,-0.341198,-10.5711,-3.83104,0.527325,3.07432,-0.757992,1.46597,3.30329,-0.8029,-15.6521,-6.39638,-15.616,-878.888,-464.576,-41440,-19880,-22540
7.53284,17.2566,7.3202,11.2235,5.40458,1.77146,-5.97325,-1.88137,10.4858,5.64018,0.761117,12.0395,4.31601,3.57508,-7.53877,-3.50535,-13.664,-884.256,-471.896,-42980,-20580,-24220
4.99246,24.9179,8.0583,25.4689,14.6806,4.22443,7.45429,4.28797,8.97613,1.88461,-1.30876,15.4808,3.04213,8.0618,10.262,5.72757,-14.152,-874.496,-469.456,-43820,-21700,-25200
-8.98856,-3.35742,-2.47919,-2.15386,-0.590084,0.262503,0.43265,2.68375,-10.7882,-7.52197,-4.6412,-3.9898,-1.64518,-0.683184,-2.55037,1.32557,-10.736,-876.448,-484.584,-38360,-22120,-25480
-23.6287,-40.2825,-14.6011,-44.0885,-26.9858,-6.88706,-22.0177,-5.36096,-36.1147,-13.6835,-2.43812,-27.934,-5.00629,-14.4517,-34.278,-13.4283,-7.32,-872.544,-495.32,-36120,-19040,-26320
-6.90973,-16.5042,-4.12698,-16.4287,-11.1068,-3.52955,-8.4138,-4.81262,-14.5733,-0.665694,6.65206,-10.8814,-0.158102,-6.2526,-8.88844,-7.05798,-8.296,-868.152,-502.152,-35280,-16660,-28420
19.2241,18.2709,7.22225,8.30339,4.21098,-0.503437,-3.54518,-6.4988,29.4477,13.3368,9.3184,12.2371,3.87272,0.657464,-2.46763,-5.28513,-10.736,-865.224,-508.496,-33880,-15680,-29400
15.1225,12.3629,0.847571,-15.5964,-12.3983,-4.63463,-25.0954,-9.15931,29.686,7.43914,3.11919,5.32767,-0.558603,-8.56024,-36.4561,-16.3879,-11.712,-863.76,-517.28,-32760,-15260,-29540
4.54088,-3.64545,-4.53116,-24.2576,-16.4169,-4.21231,-17.2026,-2.57383,11.6711,0.242141,-1.8359,-5.16258,-3.19224,-9.20386,-26.2552,-8.22566,-10.736,-856.44,-523.624,-30380,-15400,-28700
-9.59715,-16.9788,-4.23201,-1.38442,0.3565,0.502802,12.9523,5.84973,-15.9312,-5.14443,-3.12118,-9.47922,-2.8018,0.161113,18.7005,9.32854,-6.344,-848.144,-528.504,-29120,-15120,-27860
-9.03615,-15.3974,-2.58755,1.69687,2.67085,2.45083,15.0229,7.28622,-15.5873,-3.73912,-1.89347,-8.10566,-1.60036,2.49197,21.2023,9.69426,-9.76,-843.264,-532.896,-24500,-13440,-26460
-8.38829,-7.11964,-4.304,7.88635,5.21651,2.30339,12.1099,5.61339,-13.4054,-6.59983,-6.29078,-4.96962,-5.41025,2.92517,16.9274,8.16754,-6.344,-836.432,-533.384,-19740,-12600,-24500
17.5716,27.9181,3.93305,34.9647,23.2441,5.64728,22.2916,11.1028,24.1085,5.18883,-7.0504,18.1319,-11.5543,12.1947,26.6563,17.1983,-0.976,-831.064,-536.312,-17360,-11760,-23100
24.8344,26.0514,4.42426,24.5171,18.2667,3.88499,19.1626,11.8896,34.6442,9.39501,-4.30362,17.621,-8.94928,9.52007,20.0174,15.2689,-3.416,-828.136,-542.656,-14140,-8820,-21280
8.80609,1.5699,-0.865387,3.81535,3.3688,-2.28195,9.84598,2.64942,13.4967,2.31857,1.22236,0.430866,-1.35745,-0.576025,11.7959,5.19041,0.488,-821.304,-548.512,-12740,-7000,-19880
5.95229,3.79928,5.61971,12.1028,7.44302,0.882759,14.9378,1.97186,5.29184,6.47732,8.6191,3.30634,6.16366,3.54199,22.5307,7.7637,1.952,-814.472,-554.856,-8960,-4340,-18200
7.615,14.6254,11.3639,23.5987,14.6297,4.19197,16.2988,0.151366,6.16227,9.29765,7.13968,12.9705,7.33767,9.13034,29.092,8.72801,2.44,-813.008,-555.344,-2940,-2100,-15820
0.179242,14.0747,8.37363,20.0459,11.9948,5.88998,5.48658,0.0998431,-0.182842,0.237591,-1.33478,9.97345,4.09363,8.85747,10.9341,3.01301,9.272,-805.2,-559.248,1820,-420,-13720
-12.1701,-1.40358,0.196375,-0.556307,-2.24724,2.29712,-12.3522,-2.95754,-12.8753,-8.09432,-4.11968,-2.80222,3.91221,0.647856,-16.4604,-7.52918,9.272,-798.368,-558.76,7840,2520,-10920
-7.04901,-11.482,-4.32518,-26.1678,-19.1875,-6.15288,-31.7664,-13.1939,-5.77432,-2.26782,1.74867,-9.68867,3.41099,-10.7046,-42.0061,-21.938,8.784,-790.072,-557.296,12740,4900,-8820
-31.5317,-43.4859,-16.2826,-52.7319,-36.4582,-11.6275,-41.9641,-16.2304,-45.0869,-14.3739,-0.44655,-30.7398,-1.31532,-21.5015,-57.2133,-28.8364,4.88,-789.096,-558.76,19740,8260,-5880
-31.2594,-53.7193,-21.5423,-67.4838,-43.6966,-11.552,-45.0153,-12.5077,-45.7356,-16.3703,-1.43629,-37.2471,-5.23507,-25.091,-65.5949,-28.3753,8.296,-789.584,-561.2,23520,10220,-2940
-10.6612,-30.0187,-12.0879,-43.131,-26.0554,-3.24767,-23.393,0.257924,-17.2378,-6.34588,-1.88877,-20.4574,-3.45198,-11.9048,-36.7803,-10.0478,6.832,-782.752,-563.64,27580,12040,-700
-0.269492,0.151831,0.155505,0.367212,3.23831,4.76366,11.4798,10.7374,0.397278,-0.87751,-6.19434,0.917254,0.443423,5.24624,16.0407,12.1547,5.856,-782.264,-562.176,31500,13440,1680
6.59571,35.2495,14.5408,59.894,40.3198,9.79212,45.9882,11.7595,11.6274,3.48688,-4.86726,25.8305,5.73206,21.9027,70.8113,25.6198,-0.976,-777.872,-560.224,33600,14420,3500
8.50701,42.1987,16.2004,67.6761,43.2972,8.63204,48.2272,7.11116,16.3368,4.63568,-1.76798,29.7012,6.86454,21.5643,72.2996,25.113,0,-778.848,-554.368,35840,15120,5460
15.1633,24.6502,7.96283,25.2666,13.9066,1.48583,14.8035,-1.2387,26.228,8.67889,3.76529,15.8558,3.95441,5.74814,22.9268,7.04127,0,-784.216,-553.392,37100,15820,7700
17.8677,13.8867,3.84854,1.1231,-0.897118,-1.83188,-6.30674,-3.44832,29.8419,11.2934,8.90366,9.1081,1.5204,-1.51445,-8.37423,-4.03434,3.904,-784.704,-542.656,38080,15820,9100
22.7232,13.778,1.76432,-7.50502,-7.11217,-3.31244,-15.7779,-5.66046,36.639,11.3528,9.48294,7.52052,0.261096,-4.86068,-22.3707,-10.7909,1.464,-791.536,-538.752,38640,15820,10780
24.269,25.5604,6.95727,14.5306,5.75816,-0.316038,-0.803342,-3.32121,36.5272,10.7905,2.90266,15.2255,1.66977,2.28035,1.31155,-2.20318,2.928,-798.856,-528.992,38780,15820,12180
-1.91869,8.20307,1.21506,16.5004,7.79688,0.898131,5.59343,0.0401072,-4.38732,-1.79596,-4.65777,4.06803,-1.74187,3.08785,8.41733,2.53147,4.392,-805.688,-521.672,38220,16520,13300
-32.398,-39.3714,-15.1497,-33.7954,-23.0587,-7.12328,-24.4833,-6.54074,-51.7478,-16.3269,-1.77081,-26.9245,-7.41649,-13.9655,-37.1012,-15.7707,7.808,-815.936,-517.28,37100,17080,14420
-34.2022,-62.6776,-21.0173,-69.7947,-43.1558,-10.5675,-42.2985,-8.35688,-56.7925,-16.678,2.65564,-40.8289,-8.26957,-22.9981,-64.6312,-24.5695,5.856,-827.648,-509.96,35280,17360,15400
-10.0811,-32.9875,-9.35408,-43.2325,-24.744,-4.4705,-22.2029,-3.10279,-20.2002,-3.74102,4.3546,-20.713,-2.38462,-11.841,-36.8137,-11.1832,2.928,-837.896,-505.08,33320,17080,16520
9.20169,3.60317,5.29899,1.77748,6.76551,4.29118,12.0974,6.30218,8.81036,5.95176,1.50053,4.88158,2.53842,5.82667,11.2352,10.4293,4.392,-848.632,-493.368,31500,17220,17360
12.5059,17.6877,9.86442,24.4156,21.0529,8.11822,25.3388,10.5876,14.0927,7.54669,-2.38364,14.7433,3.02979,13.333,30.9456,18.3552,1.464,-856.44,-484.096,28840,16660,18200
8.85077,17.9352,9.88999,27.4252,21.2961,8.17152,24.1167,9.61093,10.4434,6.2447,-1.85325,14.9887,3.2582,13.7376,30.5824,17.8261,0.488,-862.784,-480.192,26460,15960,18760
9.37373,20.7964,10.8775,30.6958,22.9051,8.64905,25.1654,8.71159,11.4717,5.8106,0.0335493,16.8263,4.82806,14.8424,34.061,18.0105,-0.488,-869.128,-471.896,22400,15120,18760
12.0423,25.7118,12.4377,35.2761,25.5652,9.10399,27.0726,8.85888,16.4511,6.61009,0.42965,19.7943,5.35732,16.2199,36.4469,18.1845,-6.832,-870.592,-468.48,17920,13860,18480
5.52489,18.4058,9.21165,25.2651,17.2782,6.31408,17.0235,5.7055,7.57681,3.2877,-1.04967,13.6261,3.48463,11.5112,22.6675,11.1563,-4.392,-878.888,-462.136,14140,12600,18060
-1.34644,0.495745,-0.311394,-1.15576,-1.40629,-0.789586,-2.84779,-1.1482,-0.720007,-0.724016,-0.505123,-0.549522,-0.482155,-0.650309,-4.46714,-1.94116,-3.416,-888.648,-460.184,9520,11900,17780
-7.67875,-19.5507,-11.0044,-26.5858,-20.7127,-7.38569,-18.8788,-5.01747,-8.32455,-6.04534,-0.473413,-16.7404,-4.81963,-13.6305,-23.15,-12.7223,-1.952,-891.576,-458.72,6580,10920,17360
8.30509,-5.96955,-5.8053,-17.3076,-15.252,-6.60996,-13.956,-5.44437,15.3228,3.32713,5.14108,-7.10503,-1.74456,-10.9386,-12.538,-11.3001,-7.32,-894.504,-458.232,2660,9940,17080
8.27544,2.07767,-2.55838,-3.0198,-4.86022,-4.53715,-3.62455,-4.86987,15.956,3.17109,3.03342,-0.565455,-1.43104,-5.17373,0.514256,-6.36338,-8.296,-895.48,-463.112,-700,8680,16380
-7.18933,-7.92441,-7.30123,-9.84969,-9.81977,-5.79879,-10.0221,-7.22231,-8.31009,-6.5111,-3.74389,-8.06887,-4.76236,-8.30406,-8.68648,-9.78895,-6.832,-894.504,-461.16,-2800,7980,15960
-12.4236,-8.52694,-6.0088,-5.57444,-5.29073,-2.97814,-3.7203,-2.6259,-16.5369,-8.4744,-5.80584,-7.41488,-3.56728,-4.74829,-2.45388,-3.45608,-10.736,-894.016,-462.136,-5460,7280,15540
-14.466,-4.33602,-2.29857,9.95307,7.33799,1.72073,12.9843,4.10822,-18.8889,-10.3285,-9.86761,-2.87399,-2.21181,3.65647,20.894,8.77335,-12.2,-892.552,-468.48,-7280,6020,14980
0.275346,5.84417,1.8679,12.2881,8.91463,2.85713,8.34745,3.44146,1.6136,-2.20448,-5.91397,4.56926,0.00386966,5.40027,13.2432,6.91446,-12.688,-888.648,-468.968,-9660,5600,14420
15.7936,16.8477,3.96681,4.71157,0.557503,-0.0994832,-11.7292,-2.52149,25.2096,7.06816,0.413943,9.915,0.818976,0.0760008,-15.96,-6.09966,-11.712,-886.208,-474.336,-11620,5180,13860
-6.82399,-5.60661,-5.01474,-13.8612,-12.8781,-4.79954,-25.3867,-6.20582,-6.73492,-5.37874,-3.75492,-6.46418,-2.95585,-8.38778,-31.9079,-16.8736,-14.64,-880.84,-480.68,-12600,5040,13440
-30.96,-36.5972,-16.8962,-40.8177,-29.6503,-9.88441,-35.8856,-9.66878,-40.2167,-19.0929,-8.89653,-27.5917,-7.42806,-18.4338,-48.684,-25.5043,-16.104,-877.424,-483.12,-12880,5180,12880
-36.5303,-47.2337,-20.6603,-49.8682,-34.1924,-10.9282,-32.2344,-12.7549,-49.0044,-22.1088,-9.55349,-34.2498,-8.7175,-20.6063,-46.3793,-22.9798,-16.592,-872.056,-485.072,-13020,5180,12320
-28.017,-31.4784,-13.0689,-24.2835,-16.5522,-5.44328,-8.73953,-6.08783,-38.4202,-17.1858,-7.40305,-22.4318,-5.33438,-9.79644,-13.0236,-6.93443,-15.616,-870.104,-492.392,-12460,5040,12180
0.423851,-1.38987,1.10062,1.711,1.98448,0.245083,3.60276,-0.79795,1.23752,0.94656,1.76341,0.518697,0.908444,1.54954,3.67658,1.90154,-17.08,-866.688,-496.784,-11760,4900,11760
13.5719,10.7003,6.09476,1.85129,3.00591,1.8158,-1.18282,-0.998732,21.6576,10.4608,8.87587,9.03382,4.00317,2.68416,-6.44865,0.39121,-17.08,-862.784,-498.736,-11200,4340,11620
9.90434,7.66595,4.65858,2.79484,3.70954,2.62518,2.73405,0.467157,14.7645,7.76969,8.82822,6.29594,3.44639,2.68882,0.799531,2.92745,-15.128,-858.392,-502.64,-10780,3640,11620
9.49468,15.3797,8.83093,25.3244,18.8975,6.9699,25.7977,8.45057,8.63786,6.95147,5.04394,12.6368,4.75959,11.7724,34.7214,17.3144,-13.664,-860.344,-505.08,-10360,3780,11900
25.7246,36.3121,17.0481,43.3742,29.6292,9.96392,35.3502,10.8503,30.0832,17.5559,9.4224,26.1127,8.59753,18.4062,47.1035,23.2261,-10.248,-853.512,-508.984,-8960,4760,12600
32.4624,36.0808,18.233,36.9037,26.8099,9.28024,28.7421,10.4108,38.7647,23.496,12.9615,27.6199,8.97358,17.5561,36.6847,20.6565,-8.296,-854,-512.888,-7840,5600,13440
19.7469,21.623,13.0746,23.7186,19.3791,7.03559,21.4119,9.34854,21.1182,16.2355,11.015,18.9677,6.25982,13.6508,25.3128,17.0639,-6.832,-849.608,-510.448,-7140,6160,14280
6.96659,7.04853,7.3077,9.46277,10.0138,4.44666,11.3989,5.402,4.25175,7.51277,7.87506,8.36809,4.47367,7.51655,12.516,9.68405,-2.44,-850.096,-515.328,-6580,7000,15960
9.08346,12.1044,8.37784,14.9377,12.8233,5.44959,13.5409,6.34342,8.67539,7.2113,3.80111,10.3527,4.49977,8.72255,17.4231,10.018,2.928,-851.56,-517.28,-5600,7980,17220
10.5635,18.2384,9.50216,27.8019,19.5584,7.07315,22.1713,7.66453,12.451,7.48397,1.17987,14.0535,4.89904,12.2981,33.1799,14.9157,2.928,-852.048,-516.792,-4620,8960,19320
11.8335,15.9082,7.0414,18.7266,11.0842,4.03642,10.6632,5.16904,16.742,7.12606,0.920115,11.5756,3.20464,7.31605,16.8165,9.05403,6.832,-850.096,-518.744,-3920,10080,21000
12.2418,7.74405,1.67418,-5.53105,-7.0456,-1.57325,-17.1336,-2.51532,18.9127,6.75284,2.73305,3.6822,0.601639,-3.99398,-21.2097,-10.952,9.272,-853.512,-520.696,-2660,10920,22400
4.97726,-7.25509,-6.10878,-26.9803,-20.7722,-6.67686,-29.1076,-8.17829,10.4686,1.70245,0.712097,-7.46294,-2.79326,-13.4843,-37.7787,-22.754,10.248,-850.584,-517.768,-1400,11340,23940
-5.32575,-17.3775,-9.32282,-31.3508,-22.4646,-8.62705,-25.1361,-13.4533,-6.71828,-3.58401,-1.07916,-13.3851,-4.04338,-14.6437,-33.579,-21.2563,8.296,-854.488,-519.232,-420,11900,25060
-22.9232,-22.3372,-10.2522,-17.1434,-11.0381,-4.89846,-8.85594,-8.08156,-32.3143,-14.999,-8.32045,-16.4522,-4.46264,-7.68238,-11.9977,-7.22111,7.32,-852.048,-518.744,140,11900,26040
-26.829,-18.6617,-9.50827,-6.72919,-4.2539,-2.35622,-1.61486,-0.856949,-34.7888,-18.5684,-12.5872,-14.5427,-5.68251,-3.89591,-2.41307,0.136359,5.368,-856.928,-514.84,980,11340,26460
-22.9823,-22.8474,-12.8678,-20.9888,-13.4539,-4.88269,-12.041,-1.43814,-28.5714,-17.2169,-11.2165,-17.9402,-7.97,-9.0866,-18.961,-6.73405,3.416,-858.392,-513.376,1400,10500,26460
-13.3837,-19.1626,-11.3893,-23.9003,-15.5854,-4.54229,-12.49,-0.954539,-16.124,-10.8932,-6.39177,-16.2914,-6.63363,-9.22375,-18.9391,-7.04615,0.488,-861.32,-511.912,1260,8960,26040
-0.503221,-6.50312,-2.75071,-9.30615,-5.99535,-1.18205,-4.4942,-1.21059,-0.320134,-0.498455,-0.874703,-4.67768,-1.23997,-2.79077,-4.72338,-2.80687,-5.856,-864.736,-508.984,980,7560,25200
0.344424,-4.53211,-1.18423,-8.27752,-5.19846,-1.02804,-6.96734,-2.78725,1.58135,-0.425846,-1.09264,-2.38836,-0.389818,-2.43395,-9.03176,-5.45077,-13.176,-867.664,-500.2,560,5600,23520
-1.99857,3.73179,1.30153,6.97344,3.55305,0.333828,2.24337,-0.448969,0.823562,-3.25399,-4.58708,2.22294,-0.264934,1.63835,6.3069,-0.213283,-10.736,-869.128,-496.296,-840,2800,21700
-5.46574,14.0575,3.34708,31.0636,17.8669,3.28356,21.6668,5.6784,-0.486968,-7.17482,-8.18537,8.10909,-0.620701,8.0128,35.7709,12.9904,-13.664,-873.032,-490.44,-1820,700,19740
-8.56048,4.05735,-1.81822,11.572,4.00915,-0.734462,3.96061,0.698524,-6.80194,-7.00403,-5.55387,-0.0358262,-2.09819,-0.489022,7.6982,1.58784,-16.104,-871.568,-487.512,-3780,-2100,16940
-11.071,-14.3536,-6.94931,-17.7563,-12.5033,-4.60807,-14.3504,-3.66844,-15.7711,-6.46799,-1.82826,-11.0626,-3.12198,-8.31083,-23.1821,-9.12946,-15.128,-874.984,-484.584,-5320,-4200,14700
-3.52962,-8.88981,-1.88614,-6.2201,-2.78701,-0.819529,0.843056,1.10006,-8.30104,-0.391801,2.93727,-4.71273,-0.10105,-0.972007,-1.49541,1.44617,-12.688,-876.448,-484.096,-7980,-7000,11620
8.53878,5.03781,3.49056,7.46844,4.90767,1.07326,7.63049,2.07806,10.9508,6.941,5.31625,5.68239,2.20871,3.31169,11.0543,5.47682,-14.152,-876.936,-479.704,-10780,-9800,8400
10.8414,2.29074,0.715388,-3.97459,-3.54253,-1.39757,-5.08423,-1.23466,15.6259,6.95836,5.46885,2.24586,0.78917,-2.04708,-7.61813,-2.59289,-10.736,-876.448,-481.168,-12740,-11620,6580
-1.71448,-10.6237,-4.10594,-15.3072,-10.5348,-2.01056,-9.28101,-1.02166,-4.31332,-0.628666,2.51774,-7.10188,-0.918065,-5.10404,-14.6897,-4.70045,-13.176,-876.448,-485.56,-15820,-13160,4060
-11.3583,-19.6314,-8.07616,-21.5315,-14.5126,-2.56069,-12.0763,-2.68457,-18.4514,-6.68531,-1.03949,-13.1708,-3.21825,-7.35844,-17.597,-6.92944,-11.224,-873.52,-487.024,-17640,-14420,2800
-1.49836,-3.34492,-0.248983,-4.04478,-1.15782,1.47515,-2.03815,-1.16643,-5.90294,-0.236929,0.851203,-0.938171,0.477916,0.718358,-3.20557,-0.828829,-10.248,-873.032,-494.832,-19040,-15120,840
14.6618,26.179,13.8236,28.5246,22.1174,8.46293,19.6472,5.18394,18.1396,10.1953,4.44802,20.7066,7.05616,14.7438,26.688,13.482,-7.808,-864.736,-494.832,-20160,-15260,-700
22.1228,33.6342,18.4321,36.6433,27.4091,9.03866,23.885,5.44091,28.3377,15.6181,8.60805,26.7805,10.2482,17.7467,32.5674,15.7792,-9.272,-861.32,-500.688,-20720,-15400,-1400
12.403,16.7863,10.0364,16.9105,13.2118,4.05267,10.7395,2.36453,15.8051,9.08973,5.88067,13.4254,5.42535,8.68428,14.4235,7.22793,-3.904,-859.856,-505.568,-20440,-14560,-2520
-2.95996,-8.3394,-2.99606,-9.94948,-5.99338,-2.25829,-5.0466,-1.62057,-5.00587,-0.807015,1.11261,-5.8434,-1.8749,-3.57005,-7.40619,-3.52976,-4.88,-854.488,-506.544,-20160,-13720,-3500
-15.0316,-24.7919,-10.5429,-25.1659,-17.1141,-5.6505,-15.9802,-4.51991,-22.9836,-9.1064,-2.28584,-17.9107,-5.32414,-10.2009,-22.337,-11.1367,-2.928,-848.144,-514.352,-19320,-12740,-3780
-3.14072,-8.7275,-4.29794,-10.5078,-7.47617,-2.88506,-7.47817,-2.75969,-5.50435,-2.20747,-0.626833,-7.63228,-2.7777,-4.91896,-9.9773,-6.09771,-6.344,-845.704,-519.72,-18060,-10780,-3640
11.3761,7.61086,2.78004,0.358664,0.329493,-0.0144631,-1.41619,-1.16811,16.608,7.16433,2.02917,4.31113,0.959922,0.234448,-0.859489,-1.481,-7.808,-842.776,-524.112,-17220,-9940,-3080
7.41411,5.80784,3.08558,0.403381,1.54267,1.3137,-0.61266,0.668677,11.8995,4.49438,-0.881907,4.40633,1.42141,1.07353,-1.29362,-0.0825259,-7.32,-841.312,-527.04,-16100,-8400,-1680
17.893,25.8718,11.9125,28.2237,19.1891,5.51254,19.0543,4.32163,25.4478,11.7381,3.5742,18.7963,5.73265,10.937,28.2785,11.9228,-9.272,-840.824,-524.112,-14840,-7420,-700
23.9355,36.2325,12.9222,40.9236,23.1155,4.38617,24.2323,3.31347,34.9588,14.6821,6.40832,23.1096,5.70921,11.4494,40.0169,12.6338,-11.712,-841.312,-530.456,-13020,-6020,840
14.1786,20.3466,2.90389,17.5464,4.8184,-2.13741,0.0319415,-3.42533,22.451,7.48211,4.03986,9.31704,0.862815,-0.596678,5.37522,-3.07836,-9.272,-839.36,-534.36,-10360,-5180,2100
-9.15274,-10.8163,-9.64718,-20.5205,-17.6593,-6.91748,-24.7854,-6.51445,-8.72409,-8.05011,-4.6992,-12.2219,-5.54528,-12.2626,-36.0707,-15.9976,-11.712,-844.728,-535.336,-8400,-4200,2800
-27.4362,-27.2544,-13.345,-24.0137,-15.1548,-3.20646,-10.347,1.11418,-37.2909,-18.6586,-10.8999,-20.4646,-6.89951,-8.79326,-19.3527,-4.73895,-12.2,-848.632,-525.088,-5320,-3360,3780
-23.4174,-24.9871,-11.0338,-18.5978,-11.8036,-1.94826,-5.76464,1.36815,-34.7006,-14.3519,-6.76584,-16.9506,-4.72808,-6.22398,-9.16689,-1.89335,-11.224,-851.56,-527.528,-3220,-2800,4200
-22.0153,-24.9326,-9.33604,-16.2642,-9.15225,-1.33359,-3.32082,1.64506,-33.5648,-12.8589,-6.19055,-15.4416,-3.83347,-4.74087,-4.87816,-0.611891,-7.808,-855.952,-519.72,-840,-2660,4900
-7.40557,-6.72818,0.136662,2.59885,5.23356,3.00133,11.3777,4.57345,-12.4292,-3.23669,-1.47181,-1.32808,0.672562,4.18931,14.6131,8.78108,-10.736,-864.736,-517.28,1120,-2800,5040
5.6903,4.30789,4.94816,3.90575,5.92886,2.85303,6.0744,1.61172,8.40448,4.87997,3.36845,6.06399,3.16218,5.09093,6.04809,4.82061,-5.368,-865.712,-511.424,2660,-2660,5320
1.33983,3.02759,5.40776,0.636459,4.22627,2.41103,-0.937491,-0.412411,2.16101,2.85398,1.61358,5.84476,3.74303,4.30251,-6.17822,0.32909,-2.928,-871.08,-501.664,3780,-2940,5320
-5.33157,-6.68857,-0.27856,-8.63978,-3.68961,-0.145295,-6.78682,-0.834833,-7.61576,-2.94459,-1.76352,-2.51282,0.176869,-0.853253,-14.2575,-3.32391,-1.464,-874.984,-501.176,4480,-2660,5600
4.67526,2.05494,0.584369,-2.35769,-2.14568,-0.657118,-2.10273,0.00417963,7.59453,1.88288,0.832469,0.954072,-0.00735346,-1.01811,-3.66968,-1.57439,-4.88,-877.424,-497.272,5180,-2380,5880
13.5676,16.0691,6.15915,15.3275,8.99875,1.84211,7.4072,0.596236,19.0766,8.09429,4.09132,10.6923,2.78318,4.39721,12.4071,3.56481,-1.464,-878.4,-494.832,5600,-2520,6300
5.60926,11.1827,5.26476,15.3352,9.94691,2.90453,9.75129,2.31595,7.03374,3.73233,1.15135,7.68267,2.19472,5.62259,13.7564,5.69056,-2.928,-882.304,-493.856,5460,-2660,6440
-6.21343,-7.90732,-4.16712,-7.41805,-5.73438,-1.65946,-3.62929,-0.697475,-8.01156,-4.09429,-2.6684,-6.5916,-2.42961,-3.71985,-5.36516,-2.8049,-2.44,-885.232,-495.32,5040,-2520,6860
-4.11969,-11.9721,-8.25912,-15.9451,-13.2104,-5.05225,-11.0219,-3.65253,-3.9538,-3.21999,-1.33075,-10.8803,-4.55168,-9.02405,-10.9917,-8.39526,-4.392,-885.72,-494.344,4760,-2940,7000
4.65166,-1.93415,-3.55016,-7.06372,-7.22825,-3.34788,-7.28061,-1.63163,8.37164,2.87965,1.92777,-3.4098,-1.46059,-4.63371,-7.44591,-4.57811,-3.416,-886.208,-500.2,5040,-3080,7000
0.0531406,0.252205,-1.79025,0.801941,-0.124745,0.231786,0.575755,3.40289,1.93005,-1.78776,-1.54718,-1.25712,-1.04705,0.579776,1.56504,3.30457,-4.392,-882.304,-497.76,4900,-3780,6300
10.9895,14.5899,5.91775,12.1033,7.93584,2.58773,5.37533,2.89533,16.1965,5.18979,2.27644,9.67385,2.35566,5.04998,11.2457,3.23961,-6.344,-879.864,-499.224,4480,-4480,5740
10.5783,11.5993,5.72417,8.30286,6.16112,1.78168,4.71753,-0.0574926,14.0218,6.35202,3.97452,9.00651,2.96468,3.13907,8.18497,-0.405015,-6.832,-876.936,-502.64,4480,-5320,4900
-3.05901,-2.9768,-0.302088,-2.00457,-1.00761,-0.543053,1.15056,-3.3329,-4.56028,-2.37519,-0.76725,-1.46901,-0.000251654,-0.728629,-0.785174,-1.1977,-9.272,-871.08,-507.032,4340,-6020,4480
0.282161,-0.304445,-0.385043,-0.171495,-0.891912,-1.41619,-0.817901,-4.94742,0.0309399,-0.715268,0.394116,-1.20647,-0.636711,-1.38448,-1.74,-0.8654,-14.64,-871.568,-505.08,4060,-7000,3920
-2.28062,0.725465,-0.361121,3.61691,2.50357,-0.00643204,1.5493,-0.986657,-3.55386,-1.97627,-1.55624,-0.0728136,-1.20178,0.448136,4.85578,1.24014,-16.592,-871.08,-508.984,3640,-8120,3780
-10.4136,-7.17423,-2.35183,-2.337,-0.854363,0.215697,-1.66825,1.09527,-15.04,-7.45201,-4.83896,-4.48094,-2.18968,-0.491126,-2.23351,0.38294,-18.056,-870.592,-507.52,3080,-8960,3500
-14.2192,-9.88242,-2.96989,-2.94687,-1.03832,0.961085,1.13349,2.41766,-20.1623,-9.85904,-6.19134,-6.07345,-2.43858,0.521243,-0.588421,2.56223,-17.568,-870.104,-504.592,2800,-10080,2800
-15.6768,-18.7467,-7.46851,-15.4603,-10.6678,-2.65196,-8.82951,-1.20675,-22.6335,-10.066,-4.11932,-12.7658,-4.12252,-5.92802,-12.9369,-5.23638,-21.472,-868.64,-501.664,1960,-10500,2380
-9.10286,-20.9227,-10.9743,-25.6411,-19.8055,-6.79682,-20.2268,-5.56691,-13.5738,-5.45183,0.853509,-16.4832,-5.21271,-12.9653,-25.9695,-13.6631,-21.96,-866.2,-501.176,1120,-11060,1960
4.20132,0.131902,0.264406,-3.63854,-3.26819,-2.10327,-7.16239,-4.10014,2.7104,5.66264,5.51543,0.503658,0.817736,-2.57068,-7.6975,-5.06521,-25.376,-863.272,-500.688,280,-11480,1260
13.7507,21.2854,12.3311,23.9448,18.2872,5.89857,16.1273,3.63526,16.6606,12.2884,7.24274,17.7523,7.17212,11.6067,20.6716,11.314,-23.912,-860.832,-502.152,-840,-11480,560
14.0624,20.5822,11.6031,22.0501,18.5629,7.2929,20.2353,7.27152,20.3746,10.3314,3.93194,17.1268,6.60697,12.9809,23.814,15.4572,-28.304,-859.368,-506.544,-1400,-10920,-140
13.587,16.5956,8.51145,10.3684,9.41674,3.13783,5.97271,0.793261,20.1533,9.9787,3.51564,13.1388,5.03002,6.28825,5.5149,3.80625,-29.768,-854,-507.52,-1400,-10500,-140
5.33022,6.15577,3.06474,3.99369,3.12121,0.510302,1.05542,-0.916743,7.23012,4.5259,2.4622,4.771,2.90559,1.74455,1.52569,-1.10207,-30.744,-848.144,-518.256,-1400,-9940,140
0.449069,-0.302113,-0.500726,0.529541,0.202098,0.0990091,1.71246,1.20821,0.299565,-0.474695,-0.393177,-0.298585,0.318992,0.135122,2.55895,1.02118,-32.696,-841.8,-522.16,-1400,-8960,560
0.0875169,-3.65465,-3.25722,-7.34006,-5.79712,-1.40411,-5.26159,-1.25951,1.15861,-1.03923,-0.759716,-3.78702,-0.810272,-3.34935,-9.08774,-4.27473,-37.576,-832.528,-528.992,-560,-8120,840
-0.078318,-5.12751,-3.99178,-10.2199,-8.35584,-2.08207,-9.23009,-1.73605,1.1045,-0.942032,-0.632674,-5.16811,-1.51168,-4.70846,-14.3962,-6.17112,-41.48,-831.064,-536.312,980,-6720,1260
0.579372,-2.32895,-2.10692,-3.66728,-3.86103,-1.48599,-2.88309,-0.775369,1.75818,0.164891,-0.389044,-2.45414,-1.34349,-2.83748,-3.23581,-2.16423,-40.504,-824.72,-543.144,2100,-5740,1540
-1.67305,-3.53954,-3.26404,-0.716785,-2.76514,-1.96574,0.758354,-1.73239,-2.72305,-1.35028,-1.80547,-3.56101,-2.35172,-2.97568,5.77654,-1.49995,-43.432,-821.304,-549,4760,-4340,1540
-2.42077,-1.78813,-1.88773,-0.0315377,-1.76543,-1.41249,-0.228743,-1.39233,-4.13208,-1.30539,-2.5741,-2.44226,-1.9882,-1.72121,3.07859,-1.57484,-47.336,-817.4,-550.464,6580,-3080,1680
-9.4402,-11.4986,-4.55887,-10.4564,-6.90061,-1.79109,-6.16076,-0.2815,-13.7846,-5.38172,-3.69597,-8.28796,-2.57807,-3.8358,-8.771,-2.93513,-48.8,-814.472,-552.904,9240,-2100,1960
-7.10048,-5.59456,-2.47004,0.529087,0.293117,0.928546,3.77258,3.89058,-9.52103,-5.34229,-4.08054,-4.27134,-1.87243,0.74809,3.19797,4.3689,-51.24,-816.912,-554.856,12180,-1120,1960
1.26108,10.3941,4.05044,17.0609,12.0031,4.30736,13.381,5.8394,1.94851,0.372831,-1.35667,6.89168,1.28863,7.51094,15.6466,9.64355,-53.68,-819.84,-553.88,14980,-140,1960
2.92178,7.94402,3.89164,8.55688,6.94501,2.42487,4.43375,2.62667,3.6179,2.00621,1.16023,6.10553,1.82112,4.62508,4.4529,3.86685,-52.704,-820.816,-548.024,18340,1120,1960
1.64678,-1.26339,1.18444,-2.38644,-0.342685,-0.47815,-0.987781,-0.87098,0.909655,1.05792,2.37562,0.626703,1.00455,0.0798364,-0.0264969,-0.582887,-53.192,-822.768,-546.072,20720,1680,1820
4.06835,1.70789,1.42281,-0.476844,-0.576205,-1.0766,-0.952687,-2.66361,6.48324,2.18494,3.74233,1.7967,1.25089,-1.34971,1.68879,-2.15322,-50.264,-828.136,-543.632,23660,2240,1820
6.85686,7.08288,2.62073,3.6797,2.40235,-0.00888245,1.03334,-0.668819,11.239,2.66756,2.49162,4.57784,1.06774,0.453881,2.74384,-0.261718,-50.264,-833.504,-537.288,26040,3220,1260
2.31862,7.1839,3.25439,6.18416,5.03279,1.22784,2.87617,1.2473,3.8491,0.374589,-0.147503,4.97311,1.16077,2.58203,5.02055,2.12626,-43.432,-837.896,-535.336,27720,3500,980
-7.48923,-4.04797,-1.52677,-0.883635,0.601298,0.685145,1.91272,2.25848,-8.15091,-6.00807,-3.60355,-2.58208,-0.838531,0.755825,1.84049,1.94236,-39.528,-845.704,-531.92,29400,4060,700
-5.76624,-6.95981,-3.40903,-7.44582,-4.29442,-0.853679,-3.62374,0.505997,-4.4621,-4.74975,-3.18464,-5.18633,-1.96215,-1.99867,-5.9994,-1.33153,-37.576,-851.56,-528.504,30520,4200,560
-1.44573,-1.74308,-0.910957,-1.58207,-1.49804,-0.697402,-2.4525,-1.90492,-0.982909,-0.973031,-0.363185,-1.27661,-0.242519,-1.05452,-1.92268,-2.07427,-31.72,-865.712,-521.184,31640,3920,280
-5.24563,-6.72384,-2.77502,-3.8362,-3.71831,-1.70591,-3.54231,-2.95287,-9.86837,-3.08841,-0.734031,-4.75941,-1.27471,-3.04007,-2.62226,-3.89238,-30.744,-872.056,-521.184,32060,3220,280
-0.928934,-1.99367,-0.880375,-3.92497,-3.22488,-0.798605,-4.92667,-1.53548,-4.02297,0.351737,1.1593,-1.63384,-0.651398,-2.28812,-8.97792,-3.25096,-20.008,-873.032,-516.792,31780,2520,420
-0.622312,-2.95465,-2.23902,-7.24285,-5.29042,-1.50686,-7.38669,-1.31653,-1.8249,0.618692,1.20273,-3.14581,-1.27778,-3.30158,-14.2038,-3.83281,-14.152,-875.96,-519.232,31360,2380,140
-2.35068,-4.11353,-2.97508,-8.16237,-6.03688,-1.16427,-7.78044,-0.0412638,-2.70275,-1.16795,-0.53755,-4.20017,-1.21921,-2.74793,-14.6568,-2.03034,-5.368,-877.424,-514.84,30520,1680,-420
-7.70987,-9.0481,-4.387,-9.3198,-6.58851,-0.269673,-5.81522,2.62704,-10.0037,-4.18205,-2.9097,-7.05618,-1.92483,-2.34833,-9.3658,-0.444392,-0.488,-876.936,-509.96,28700,560,-1120
-4.65326,-8.04489,-2.50205,-6.96656,-4.81761,-0.74006,-4.44096,0.742356,-7.53585,-1.57843,-1.34694,-5.1591,-1.48831,-2.29741,-3.18999,-4.07755,1.464,-880.352,-504.592,28140,1680,-2520
7.74572,3.42588,3.51229,1.35685,1.63189,0.338069,2.70979,-1.75802,7.49495,6.3188,3.86228,3.84094,1.97433,1.44232,5.77713,-1.9215,3.416,-877.912,-501.664,28000,1820,-3080
10.7567,9.25272,6.30264,8.8143,7.09601,1.37103,10.4617,-2.80455,13.081,8.09252,5.05285,8.21588,3.75473,4.48884,14.5279,4.13657,2.928,-872.056,-493.368,29120,1120,-3080
8.90256,12.6436,6.52892,17.0252,11.847,3.04557,15.4912,0.611136,12.8811,6.26459,2.76131,10.1013,3.17792,7.13727,21.3872,9.83281,4.392,-870.104,-488.976,30800,1120,-2940
-1.0057,-0.478875,-0.807595,3.30943,1.37966,0.130733,2.86916,-0.738475,0.136664,-0.479152,0.214914,-0.545744,-0.204622,0.316444,5.74594,2.17317,8.784,-873.52,-483.608,31640,420,-2240
