0.001747651496078639,0.0014508943975656246,0.0008075343395176454,0.0009795153732199086,0.0012334664735920945,0.0009714992751043663,0.0013674597629991514,0.0013324879235887262
0.0017466613077995157,0.0014439874261336584,0.000803713090500239,0.0009839937952605328,0.0012414945998772016,0.0009672305279255448,0.0013678627862984828,0.0013322479724027687
0.0017480335269524506,0.0014441641371485555,0.0008098793425381895,0.0010010283194463044,0.0012418094327479696,0.0009771902225084925,0.0013650007885127268,0.0013261768967075304
0.0017433901307430807,0.0014436879970117437,0.0008185524102661188,0.0010252980583530702,0.0012286175371321068,0.0010010176355354965,0.001365548971241084,0.0013139516580085268
0.00172840973405691,0.0014348489442151087,0.0008193555153757401,0.001043428061453008,0.0012127973248174423,0.0010225633725407567,0.0013694956242194137,0.0013010817499656446
0.0017076100773813323,0.0014181494518633766,0.0008128992732624712,0.0010490029154642056,0.0012136157508295642,0.0010304619950881762,0.0013727206985653232,0.0012939674484681216
0.0016911602492916847,0.0014025643457905618,0.0008106166468603538,0.0010490112066593056,0.0012345520202143266,0.0010283840940079469,0.0013735249715753624,0.0012938003568748809
0.001685427343522147,0.0013965421435230122,0.0008195774232336156,0.0010555067347567362,0.0012551933880171893,0.0010273784089123057,0.0013735321260267656,0.001295245590632412
0.0016858550300867527,0.001398532126205905,0.0008325321442566033,0.0010721815441631865,0.0012545969180785138,0.001032791721144943,0.0013739474069232426,0.0012915931620500413
0.0016804152829545114,0.001398318471075728,0.0008381190003057112,0.0010913832895182518,0.0012368114414754287,0.0010409714827799286,0.0013741973860171984,0.0012812693186155697
0.0016611148858572534,0.001388102910105889,0.0008360188689978609,0.0011036778579414147,0.0012280141985323541,0.0010465480885339063,0.001373876389389987,0.001269258208201292
0.0016324071624288204,0.0013707795088241466,0.0008365490423471877,0.0011070281495603232,0.0012453391762789346,0.0010484834619164302,0.001373116314112604,0.0012620539524981446
0.0016080322764469978,0.0013567399521599998,0.0008461427053943925,0.0011068447439102928,0.0012747555527381036,0.0010488534512980352,0.0013709892757300503,0.0012612544828486912
0.0015978914342717123,0.00135265378285037,0.0008588822649275456,0.001109576069642139,0.001290000198068364,0.0010490270371540115,0.0013667384216632188,0.001262471581713637
0.0015975834368545845,0.0013544689164198141,0.0008655709664755149,0.0011172087215430171,0.0012845360613722935,0.0010488289018544341,0.0013632786709463982,0.0012600884063075943
0.0015925852444978977,0.0013523631536799595,0.0008658284923123042,0.0011270273571130087,0.0012765540766313999,0.001048251104082179,0.0013653881703977833,0.001252257856330534
0.001572624935205114,0.001341182017101433,0.0008671429087767163,0.0011349729181764038,0.0012846929917623272,0.0010483691645577704,0.001371616480857664,0.0012418246705052796
0.0015414625058561581,0.0013251209910585253,0.0008741318448471017,0.0011387090125811524,0.0013052657962764592,0.0010506510882444893,0.0013721337948655807,0.0012334989605849974
0.0015135931499561945,0.0013130101745663016,0.0008831625913568711,0.0011387085971011914,0.0013205882308638243,0.0010558904338521114,0.0013601215740311852,0.0012300009464078637
0.0015006881483871845,0.0013093656459230135,0.0008884314915748784,0.0011376887259694122,0.0013231259276669071,0.001063237678844789,0.0013439017691332814,0.0012299403885395828
0.0015001047349965835,0.0013100739465631759,0.0008892782953103043,0.0011389208327341486,0.0013220747481983114,0.0010698087241994662,0.0013408898132062363,0.0012289873728661331
0.001497488480403621,0.0013067957337735997,0.0008895199206038934,0.0011440042243587335,0.0013280962750381374,0.0010725834533330083,0.0013551549419619866,0.0012235014677708712
0.0014806649201109523,0.001295139714018059,0.0008918323730461456,0.00115144876657002,0.0013391154477449226,0.0010725171647398629,0.0013683473831260697,0.0012136284968689579
0.0014510474823697134,0.001278828723420301,0.0008952077615824615,0.001157563342081349,0.0013458025414477693,0.00107623997211467,0.0013607661905477005,0.001203240724073003
0.00142280719400626,0.0012663065117940627,0.000897449077926549,0.0011594915695862548,0.001345950035999592,0.0010904859903662504,0.0013366411157090597,0.0011968463836610898
0.001409653141252195,0.0012624039355948564,0.0008979748024289173,0.0011580100302091112,0.001346684127662336,0.0011130904005924752,0.0013222596831390949,0.0011960366166071904
0.0014105264142013829,0.0012628558797131704,0.0008977063499846364,0.00115725704712007,0.001353275698516647,0.0011324966625868166,0.0013349871000267117,0.001197995403252017
0.0014103416418819626,0.0012579858097594664,0.0008975249789981595,0.001160935019849458,0.0013615943126718854,0.001139239317130884,0.0013601064399671424,0.0011970225781225544
0.0013960056370846945,0.0012424864896315507,0.0008975775485582214,0.0011684115696072998,0.0013646178775584225,0.0011375331128270862,0.001369372593072866,0.0011888338953481236
0.0013702145871547036,0.0012216699945107868,0.0008975871796347685,0.0011751635165434021,0.0013625281317611367,0.0011433556064815347,0.0013552224623755366,0.0011755829208015796
0.0013488404250433755,0.001207109363433163,0.0008973387568495819,0.0011774198066331564,0.001362228704853985,0.0011675947978994797,0.0013389042748304907,0.001166452728506428
0.0013435553516571528,0.001204032329791116,0.0008969956640051361,0.0011759507544080814,0.0013677406209013007,0.001202019631102401,0.0013453261306602094,0.0011694875117826632
0.001348533582388489,0.0012040333844992215,0.0008970659506755715,0.0011749592198730518,0.0013750928634227331,0.0012271543795304852,0.0013730451321237896,0.0011808426847317633
0.0013483996377055294,0.001193564994181385,0.0008978687672545613,0.0011774355588877428,0.0013784102976760941,0.001233088283850899,0.001397906759057472,0.001186295333665904
0.0013370345907949336,0.0011693633293146156,0.0008990364706131505,0.001182233591988861,0.0013779880479565317,0.0012301761504919242,0.0014029817908709802,0.0011767135910719885
0.0013239330453098809,0.0011433983341375465,0.0008998195292307177,0.0011859242385536461,0.0013794190742214235,0.0012390158471272446,0.0013958430653239812,0.001160238648406653
0.0013214883863906274,0.0011303379082678745,0.0008999344862263956,0.0011866815195291577,0.001385546190254802,0.0012680831202652818,0.0013979759217358292,0.001155370673671567
0.001329256295934491,0.0011297969902381777,0.0008999528693598349,0.0011856778836732054,0.0013925157577896674,0.0013040100651644014,0.001419978852506628,0.0011691349991819052
0.0013358517506982385,0.0011261633359788018,0.0009009007076408879,0.0011851435342032442,0.00139531600835285,0.0013268326128977627,0.00145048740792843,0.0011873450244976435
0.0013348392667437792,0.0011071562270227088,0.0009035127824215734,0.0011859505452426209,0.0013949261259893053,0.0013307698802107301,0.0014707397056997894,0.0011916204272509443
0.001332498709249985,0.0010779236738755274,0.0009074704412323239,0.0011873161494841734,0.0013972880767620555,0.0013290443688421672,0.00147491700971936,0.001180412699030202
0.0013383129665559294,0.0010552814062587178,0.0009110604894185279,0.001188197896794495,0.0014052530783945892,0.0013396652508868591,0.0014747500315397109,0.001169646782753292
0.0013516757554977508,0.0010483432323423914,0.0009122472113315774,0.0011883338587680785,0.001414256834359927,0.001366272090615208,0.00148592587770577,0.0011738704872497894
0.0013629214933528462,0.0010484089551827586,0.000911096960976868,0.0011881078346549982,0.0014178852103912045,0.0013952988202861798,0.0015106563547509486,0.001190265737203449
0.0013661981746463383,0.0010407355999285648,0.00091089628297219,0.00118797614762554,0.0014161075706157578,0.0014117685959968017,0.0015359962637851408,0.0012046267861573316
0.0013663221884800303,0.0010213148997006067,0.00091524985605843,0.0011881168098000494,0.0014155587432097513,0.0014141549852022242,0.0015491036786161342,0.001208220549583747
0.0013718528118129608,0.0009994517373375644,0.000923350525835516,0.0011882537089911594,0.001421353166675051,0.001414050575772121,0.0015506287735397425,0.0012043826450096108
0.0013841266341327384,0.000986340420708481,0.0009297633564780393,0.0011877350566472506,0.0014307524703730333,0.0014230912041284097,0.001552498026537448,0.0012021129527046922
0.0013960285442230205,0.0009834692376159396,0.0009303095506318237,0.0011862191346554542,0.0014368265032154823,0.0014412251945728235,0.0015640238937549799,0.001207072925951168
0.0014007358153713101,0.0009832816449027453,0.0009273192814684223,0.001184462255548476,0.0014368681716792082,0.001458687535356559,0.0015823464397400103,0.0012183657671107466
0.0013989074052560963,0.0009785763158438293,0.0009275595471931653,0.0011838003554503662,0.0014348398020981562,0.0014674941375958297,0.001597471399991566,0.0012309104881847311
0.0013970779580311807,0.0009684952964790176,0.0009346102800460069,0.0011842005463051637,0.0014357853790558344,0.0014686124592256595,0.0016037199307653628,0.001239433412890882
0.0014001680386594834,0.0009570743019399634,0.0009448307382006417,0.0011833469337867008,0.0014400802182216628,0.0014688981876637831,0.0016040729638404977,0.001242039720689475
0.0014061777046684848,0.0009486888069088488,0.0009518186731940523,0.0011789134795502866,0.0014444548436579458,0.0014732226878923374,0.001605163544267198,0.0012418289651070335
0.0014084683346434908,0.0009450523611260107,0.0009532173935942864,0.0011719686617958143,0.0014468589219736056,0.001480604711334403,0.0016104484130183973,0.0012444449664539246
0.0014031422028200253,0.0009447928257118513,0.0009522113247578796,0.0011667726428800102,0.0014479474087496418,0.0014870834406984685,0.001618373678072997,0.0012526953911763188
0.0013937635817025467,0.000944449492316355,0.000953610476069543,0.0011658245467757213,0.0014484023489060552,0.0014903448906580107,0.0016252310857219287,0.0012637457687867688
0.0013877957740506942,0.0009403179403051186,0.0009596291775023979,0.0011658575054040458,0.0014474769587208753,0.001491036984348649,0.0016284476537813354,0.0012721252270084245
0.0013875611767758392,0.0009310144078316492,0.0009689102884836335,0.0011608990126995861,0.0014452399583386852,0.0014909688024678524,0.0016280139454765195,0.001274865036585716
0.0013865823970902272,0.0009192947097642357,0.0009780180376324213,0.0011496384464852625,0.0014443086388170481,0.0014912579910451701,0.001626162729283741,0.0012735727834526885
0.0013773599139524286,0.0009106094791184423,0.0009835611285023106,0.0011379890482633205,0.0014470724032426836,0.001492055446150434,0.0016257175305181492,0.0012725293511588684
0.0013616107735375193,0.0009080021540420813,0.0009845476401460973,0.0011326299764181926,0.0014515497913315685,0.0014931561395634546,0.001627957865417889,0.0012750114810021968
0.001349463550415668,0.0009079449682720442,0.0009840105954860936,0.0011325662381435361,0.0014523591752460838,0.0014944131589475903,0.00163171249360032,0.0012803619372431796
0.001346892727922546,0.0009028922065891234,0.0009874183279395881,0.001129878316411051,0.0014468858602401501,0.001495729832743153,0.0016345418185981441,0.0012841653522157775
0.0013472052343458012,0.0008892003136213479,0.000997526090979904,0.001119357641937137,0.0014393418413935753,0.0014968932907588588,0.0016348107056561195,0.0012823780619584716
0.0013392248910032599,0.000872135365352998,0.0010106136089776188,0.0011050155948573663,0.0014370540474459117,0.0014975605816561143,0.0016329809127503777,0.0012760443387292541
0.0013218444321617853,0.0008613577411150887,0.0010194117127305836,0.0010954795168106543,0.0014421871143310292,0.0014976276725146814,0.0016314876267626076,0.0012707746758283893
0.0013061114194368006,0.0008599530597151817,0.001020510900602644,0.0010935559960990814,0.0014485331554269345,0.001497698806458451,0.0016330594237396992,0.001270106708532861
0.0013018216442724417,0.0008601809360989373,0.0010185461571461608,0.0010930560871797827,0.0014478538494595808,0.0014988341698119777,0.0016379562799148147,0.0012707783199974202
0.0013053754089407037,0.0008526480810494685,0.0010221851576740185,0.0010868526679974316,0.0014389146370632898,0.001501404985979411,0.0016426699897859178,0.0012672224211763131
0.0013049630999872153,0.000837618157896401,0.0010349261145183788,0.001075367185433546,0.001429381247510541,0.0015043581477049129,0.0016429153453572233,0.0012596394360788212
0.0012952458346931043,0.0008248394444046779,0.0010507075124951439,0.0010654091781891423,0.0014280164150541202,0.0015061491427917708,0.0016389421288028024,0.0012540065874394838
0.0012826922063826228,0.0008218373403333016,0.0010601432367687712,0.0010616619905426125,0.001434868294435973,0.001506456156576183,0.0016364521956414569,0.0012534113628529478
0.00127693959101469,0.0008249845578128124,0.0010605571151874012,0.0010616157181305304,0.0014407565927828812,0.0015064884394899228,0.0016399751099472103,0.0012533656514989182
0.0012798212087885969,0.0008251277588496363,0.0010589802408476846,0.0010596840847842267,0.0014371787547450567,0.001507431301867893,0.001646020769541713,0.0012486356763978038
0.0012848683514480692,0.0008190617244567959,0.0010646129594709204,0.0010540097610957971,0.001425616183359949,0.0015090934880376903,0.001646237598857666,0.0012414164847080764
0.00128571615591992,0.0008118978335126891,0.0010783424562216736,0.0010475536377400334,0.0014162045055247103,0.0015104641056364143,0.0016380376451678581,0.0012384340380611869
0.0012821635239997457,0.000809387559488282,0.0010918033829654952,0.0010437211580253724,0.0014166334344584935,0.0015111034401572355,0.0016288703485219807,0.001241030932222875
0.0012786857619314696,0.0008112503149122856,0.0010972255338551134,0.001042850009954349,0.0014232845377760053,0.001511312763067707,0.0016272649078815323,0.0012431843214844357
0.0012790719464369704,0.0008133129568510907,0.001095858513351254,0.0010430595150262927,0.0014254540200906302,0.0015112015835287325,0.0016313595458475974,0.0012402803762694618
0.0012829984907713691,0.0008132806901596952,0.0010956458868227692,0.0010427509344721974,0.0014176328867943268,0.0015104756596558886,0.0016309132136162507,0.0012351425713558017
0.0012870849890005546,0.0008120609409102552,0.0011015098300816266,0.001041417911603888,0.0014054849006235226,0.0015093147911254788,0.0016206278001791232,0.001233146853482895
0.0012886060843776276,0.0008111107613795368,0.0011101570011352055,0.0010392914006510435,0.0013991032442212587,0.0015086339864782863,0.0016070036249159736,0.0012347036667766107
0.0012880110748025718,0.0008107491330281508,0.0011153194463087838,0.0010373907894656715,0.0014012978027965327,0.0015089121803248998,0.0016000099289299483,0.0012360286469349352
0.0012877921493750035,0.0008106755859800201,0.0011154483817356576,0.0010372247286811488,0.001404929111263693,0.0015092937204292452,0.0016006039872675712,0.0012351641587490904
0.0012891008658666245,0.0008107074371775624,0.0011142149164264602,0.0010391501759348947,0.0014021171834158119,0.0015085854721289724,0.0016006393281798811,0.0012333231979017021
0.0012904056297028592,0.0008112812636268788,0.0011148322736047906,0.001041263682112101,0.0013932356419294888,0.0015069125559447555,0.0015941979249163966,0.0012314941221158865
0.001290022071672592,0.0008139049974587563,0.001116583217443832,0.0010411343616891367,0.0013854589340502107,0.0015056211764097485,0.0015843939824818022,0.0012296589798706519
0.0012887818656772904,0.0008197758986726497,0.0011174178731263773,0.001038741471397682,0.0013837934670683466,0.001505498175068866,0.0015780541828397789,0.00122905348516909
0.0012886643746921297,0.0008267790805604299,0.0011174208643695608,0.001036681631735233,0.0013858465656701594,0.0015058473416607724,0.0015769682520426604,0.0012310824932707785
0.0012893375873192748,0.0008302829133200465,0.0011179020330125723,0.001037041840058882,0.0013859862127023478,0.0015056599580560504,0.0015772489473541026,0.001233543684567865
0.0012883056031027331,0.000830077290950409,0.0011185761723896226,0.0010388703770433897,0.0013823048547140888,0.001505008115660592,0.0015757673877070345,0.001232467388818701
0.0012850611460971876,0.0008348803331227036,0.0011181023276636568,0.0010394085176359158,0.0013778150923534958,0.0015046433514371378,0.0015736922126553612,0.0012292987041810789
0.0012828070511041003,0.0008539156825141375,0.001117140187250169,0.0010372174071900777,0.0013759126522928115,0.0015046612751726913,0.0015734214913249516,0.001231466309467621
0.0012841483832336162,0.0008824693290841003,0.0011183437566338618,0.0010334446842775026,0.0013765938226599453,0.0015044251747474992,0.0015747290724543901,0.0012419205047955858
0.0012865965309913651,0.0009037678147694776,0.0011223909009262143,0.0010304072078086378,0.0013774791693801605,0.0015037376053805528,0.001575574412386831,0.0012524071164790687
0.00128536243708903,0.0009088299069103759,0.0011261857155668786,0.0010293782380589736,0.0013771189151485883,0.0015032022377150227,0.0015754869144039359,0.0012534429645578347
0.0012804304041460206,0.0009100847635509389,0.0011269950349168582,0.0010294153881122868,0.0013762391896568588,0.0015031932280512325,0.0015763853646439132,0.0012486211517855328
0.0012777675798693014,0.0009297555931505318,0.0011270979969550652,0.001028058419421328,0.0013762236031580784,0.0015033083282787664,0.0015800185915467652,0.001252176254475886
0.0012818017231178193,0.0009714435835855691,0.001131674294489028,0.0010237822335863462,0.00137725215451552,0.001503334944619421,0.0015855620982524552,0.001269985158328154
0.0012888404694598031,0.00101317916486673,0.0011416563410460918,0.001018247349063408,0.0013782095272561461,0.0015038970235565915,0.0015901843562873446,0.0012897062498768775
0.0012910611294179527,0.0010333676701858847,0.0011513564873414696,0.0010151609544474401,0.0013782869809697794,0.0015052293938275542,0.0015918809190621536,0.00129562651674668
0.0012862331758862946,0.0010344855030441945,0.0011551336542156032,0.0010157050545193213,0.0013783876413067278,0.0015061027293601676,0.0015918707107281755,0.0012881728271487982
0.0012807705731505946,0.0010398907827744086,0.0011549700462736008,0.0010162101514683945,0.0013803127195465559,0.0015056512101414123,0.0015941846791628074,0.0012836311858688023
0.001282389990389413,0.0010673907646258952,0.0011591744204425924,0.0010125882067590125,0.0013840477173039604,0.0015061810822416025,0.0016020031650727463,0.001294388131090407
0.0012912780458114853,0.0011087162302380685,0.0011727146749309404,0.0010065742811628119,0.0013867143940494593,0.001511782049724308,0.0016136751338781115,0.0013137408635865997
0.0013003905227874325,0.0011410263839093467,0.0011904893719242686,0.0010046091021714636,0.0013859291381305996,0.0015225140479842466,0.00162325695977185,0.0013247417343106172
0.00130345555829047,0.0011521898933315746,0.0012023904939264577,0.0010090990619935263,0.0013842065401328569,0.0015320206648979618,0.001626508544573105,0.0013198836846533553
0.0013007089377274643,0.0011505079686969268,0.0012044500472777105,0.0010139386617969582,0.0013874638848863576,0.0015343914129776783,0.0016265402088809367,0.0013079763959125783
0.0012976786038357085,0.001154198800630067,0.0012038415781426984,0.0010122551160882524,0.0013970981961307228,0.0015336043663951202,0.0016319682957533059,0.0013032243406908212
0.0013003714940476453,0.0011729130953096112,0.0012122504612580869,0.0010066609865975198,0.0014059622115699538,0.0015424585646029232,0.001647638199317297,0.0013099012678286694
0.0013114123092835765,0.0011997182124559014,0.001233320087324301,0.0010074429859679272,0.001406407465121332,0.0015679665937494047,0.0016678828028254924,0.0013200087870155425
0.0013282997673922166,0.001220295250973813,0.0012576985822914724,0.0010189812271622937,0.0014018274002460369,0.0015996440967697386,0.001681565787073701,0.0013244410090696677
0.0013439486331400941,0.001226666793004023,0.0012721403254847012,0.001032365558204826,0.0014052531332160404,0.001618786788854699,0.0016842758901843883,0.0013219642574586797
0.0013512595217927952,0.0012227453328622915,0.0012732553129717204,0.0010360468329529808,0.001422753930646632,0.0016206706231943688,0.001684110149936491,0.0013173452312380547
0.0013508800911566376,0.0012199209688071443,0.0012723753272258175,0.0010310459248403987,0.0014427762506998537,0.0016243544561025224,0.001693683709178669,0.0013151552196257908
0.0013545874819669555,0.0012271155710527398,0.0012854412096541755,0.0010313630331325082,0.0014493855110038077,0.0016546656528043362,0.0017157005063885287,0.0013183403178927816
0.0013757295420665533,0.001243023167704863,0.001315382337156933,0.001047319640462846,0.0014438506473571546,0.0017110719585609387,0.0017388991163468244,0.0013296870191251732
0.0014123883632378073,0.0012575048849015151,0.0013469969059640265,0.0010714879795626147,0.001445893940562925,0.0017638077427496238,0.0017500972549741223,0.001348610206060725
0.0014452629200383863,0.001260916164394148,0.0013625315932039878,0.0010868454148894456,0.0014690115199143873,0.0017863549922596618,0.0017484943496207123,0.0013668420980259448
0.001457679387575479,0.00125294550765596,0.001360941679181364,0.001086780183320077,0.0015004991182452222,0.0017866104161902213,0.0017466705464332965,0.0013745153209986933
0.001455953583585715,0.001243371084231311,0.0013606513163012593,0.0010832875915246457,0.0015167458149500687,0.0018029481705916924,0.0017569756412188504,0.001373917872200233
0.001465724131347053,0.0012429792877904394,0.0013805537288614992,0.001094388408568548,0.001513918625902478,0.0018621188330133942,0.0017777806810900171,0.0013819064888303497
0.0015025149979470444,0.0012521075976078587,0.0014174034186226038,0.0011229596665868551,0.0015141084207563732,0.0019438358343562257,0.0017956122659480178,0.0014107240317506704
0.001550260322525877,0.001259721846014738,0.001448615299465489,0.0011527045482821934,0.001537583539825688,0.0020024050118227347,0.0018001038888504817,0.0014489621893483706
0.0015794685904310848,0.0012551276990416707,0.001457839005923638,0.0011666740225442953,0.0015750347573296145,0.002017892844836781,0.0017943837169662608,0.0014728181085204549
0.0015815557922900503,0.0012393824786825296,0.0014525493764022655,0.0011654126381432505,0.0015996757950615906,0.0020186810292470783,0.001790916815218315,0.0014750981896040427
0.0015782790700561995,0.0012243181085947004,0.0014555914391881977,0.0011665771835303953,0.001601919226810151,0.0020526152893429682,0.0017981479478575571,0.0014747388311669072
0.0015959754510994828,0.0012196431945235699,0.0014791254898324255,0.001186261200497924,0.0016009659097893543,0.0021307737561274682,0.0018122892799714043,0.0014935572049658906
0.0016331393939012875,0.0012220098831039004,0.0015110774377426481,0.0012207275739440106,0.0016202462969143367,0.002212919022218525,0.001822524962100885,0.0015275651830058267
0.0016638047977152544,0.0012194293065114898,0.0015309461327620531,0.0012507845056041423,0.001656882242735324,0.002255371037381615,0.001822440213877147,0.0015528131368914458
0.0016704851278693258,0.0012052535426660556,0.0015326736284884395,0.001262836527948374,0.0016863591108632911,0.0022580926932584907,0.0018154940316372108,0.001556452181086704
0.001662715671723612,0.0011852617455310977,0.0015286031317173151,0.001262363707362827,0.001694301653919022,0.0022629723663304324,0.0018105793871686592,0.0015505385001564336
0.0016627604140909457,0.001171093714427784,0.0015340151687986555,0.0012678078064338647,0.0016929281599660784,0.0023065218723970753,0.0018130735520629287,0.0015543673304873329
0.001678085887022846,0.0011676249875369152,0.0015510493655051633,0.001290807529896277,0.001705018105147775,0.0023774752578326194,0.0018201976707470956,0.0015697595902416637
0.0016950573340910515,0.0011683951349734279,0.0015694902115882025,0.0013235986830017427,0.001735692465218126,0.0024330036717206197,0.0018246456165871244,0.0015818208201230132
0.0016991617601029264,0.0011636596527312274,0.001579812067076378,0.0013485159487765578,0.001767323171500022,0.0024487237550473487,0.0018219260637774232,0.0015806308664586028
0.001692025957978474,0.0011509063377095944,0.0015815109962237011,0.001356957123269074,0.0017822608581977118,0.0024417913145792706,0.001814122198302287,0.0015722839792846274
0.0016860892303907531,0.0011374176965063378,0.001580711140765416,0.0013569683652709622,0.0017826862343501588,0.0024485873046934965,0.0018072135328731827,0.0015682069203220637
0.0016877899307055863,0.0011334759358150033,0.0015832793164254552,0.0013636678526181504,0.0017865377396230919,0.00248339971679567,0.0018051156904888212,0.0015703366814908484
0.0016916060802776242,0.0011422796298798316,0.0015906812045689978,0.0013829291976502046,0.001806534997421037,0.0025253411852709656,0.001806371380004424,0.0015715600127021259
0.0016901029144712582,0.0011561919244113734,0.001600365059601014,0.001406159449572473,0.0018364890264200003,0.0025463638242596348,0.0018063837343566102,0.0015671720637491636
0.0016837661074023543,0.0011637639551401624,0.0016084840556861867,0.0014211835060972907,0.0018598854240106251,0.0025417076457328104,0.0018021287070622083,0.0015599578461767828
0.0016785895172333758,0.0011612679306165833,0.0016126655311509365,0.0014249223065305784,0.0018681119718109485,0.002530708520855008,0.001794444515343185,0.0015547815317543995
0.0016774207967532374,0.0011581895981468964,0.0016134196185710247,0.0014246227780781906,0.0018681395681740718,0.0025330277940267478,0.0017866455064526404,0.0015529396145450292
0.0016773901900729398,0.0011696916150693384,0.001613458041078474,0.0014287666527703436,0.0018745731614325976,0.0025483908660072366,0.0017819057221246757,0.0015532143191302216
0.0016751813372510615,0.0011999920248516186,0.0016155978843404623,0.0014387241595207535,0.001895231990325579,0.0025611787816341124,0.0017815457958085133,0.0015549444112996343
0.0016713767146288845,0.0012350484890676857,0.001620958167288535,0.0014496451078172838,0.0019239104811845371,0.0025601423087348524,0.0017841436243617038,0.001557414678685263
0.0016686476605769836,0.0012559048310722492,0.0016283237366803355,0.0014570187642360686,0.0019464325672779545,0.0025489684401275355,0.0017857120791225423,0.0015583917507166498
0.0016678874220774618,0.0012587434706651033,0.0016345592424213777,0.0014600921793094925,0.0019537254256615563,0.0025393346930680924,0.0017827196062628232,0.001556673885171091
0.0016679297463890737,0.0012613251187136153,0.001636454127395458,0.0014604249319711475,0.001951127531592069,0.002537491707465279,0.0017770459868305002,0.0015559171408982284
0.0016681375373226383,0.0012869559178435189,0.001633901950407374,0.001460342817479548,0.001955612458723975,0.0025396205848193043,0.0017767107547689528,0.001562696846586472
0.0016692920234988847,0.0013380449653884966,0.0016314092725809286,0.0014632027608157956,0.0019795698649992975,0.0025389984790562445,0.0017879100519987944,0.0015786241066949487
0.0016717001493694846,0.001390840869246598,0.0016343203870106092,0.0014718526448983837,0.0020150755370898486,0.0025343713222848825,0.0018057791992920284,0.0015960373460653175
0.0016739339590392368,0.0014197181429937433,0.0016421998586226049,0.0014843331642227582,0.0020394192613166794,0.0025299361295158546,0.0018177053290387723,0.0016045782442273893
0.00167456109727634,0.0014233071779384417,0.0016479671991811318,0.0014934525722613945,0.002039784925371349,0.00252884066696183,0.0018184527818342338,0.0016028697818962464
0.0016746674567185728,0.0014286104400377357,0.0016458070861893237,0.0014946081329264174,0.0020303785533561615,0.0025294846024272455,0.0018188411720102863,0.001602571273206821
0.0016774648857091577,0.0014662326516748476,0.0016387245585608619,0.0014939074880289387,0.00203976068713344,0.002529192104484014,0.0018343076069680991,0.0016180080961600925
0.0016847307512931162,0.0015356090689630155,0.0016355020412837232,0.0015040088149739725,0.0020765401063610506,0.0025293501079278126,0.001864412611754902,0.001649603689564237
0.001694054878649484,0.0016030056650670696,0.0016397233746806416,0.0015284630940682645,0.002115859101466442,0.0025339985676482465,0.001891096275549433,0.0016807177552696983
0.0017006248341374511,0.0016368584038188828,0.0016451333632072859,0.0015543610969073873,0.002128539561007472,0.0025432747424688168,0.0019004630359435752,0.0016941966386920743
0.0017022734766671563,0.0016397983480361544,0.0016440282881158448,0.0015664418296108525,0.0021163808551066445,0.0025514480248147934,0.0019003312621582518,0.0016912217927850736
0.0017024736276586236,0.0016486227546692676,0.0016372014176043517,0.0015666587578026159,0.002111305832831409,0.0025538228050456684,0.0019110735255468067,0.001692392210887199
0.0017074629467999283,0.0016976274218852066,0.0016322876841423262,0.0015745024151103963,0.0021368707267809353,0.002553881133563218,0.0019394004056683077,0.00171686170856886
0.0017196604159461376,0.0017782514217966688,0.0016333332882193363,0.001603991236015062,0.0021779962432354164,0.002560114501821951,0.0019690364459217027,0.0017598784765499175
0.0017344197995106834,0.0018480676014059898,0.0016361659938028915,0.0016441736193333126,0.0022009627063953804,0.002575022343062246,0.0019814534497504376,0.0017971047254586997
0.0017443006375671283,0.0018773625921750976,0.001635405951031717,0.0016710151654687315,0.002195338993199797,0.0025905732003940686,0.001978535082973437,0.0018110608625717607
0.0017465606504771434,0.0018782975104281968,0.0016320457208767528,0.001675951773517719,0.002184837826622917,0.002597220761410212,0.0019792803694536616,0.0018089433420923919
0.0017460328175264573,0.0018918405204011546,0.0016309707852579522,0.001676318978133008,0.002196789307171553,0.0025954395388330044,0.0019953463884320823,0.0018144638827305454
0.0017504191567877642,0.0019434957735342611,0.0016332007744954285,0.0016954462887540085,0.0022280604867998305,0.0025952109445166165,0.0020165289097590147,0.0018420589742509823
0.0017626523808609,0.002015037704892726,0.0016350028892991259,0.0017340401361139624,0.002251847000911166,0.0026038743586781566,0.0020249018689817164,0.0018816395835812665
0.0017780637883952708,0.0020679881792157006,0.0016348652298708818,0.001769291218048411,0.00225305507422783,0.0026174246638318516,0.0020173392128473295,0.001911528315861533
0.0017888536950837887,0.0020853565182245614,0.0016368671778445362,0.0017823254412296873,0.002244693855973711,0.0026259176955678314,0.0020082771006332024,0.001921675903822091
0.001790912564467208,0.0020853400465931002,0.0016444766081381496,0.0017787156247038346,0.002248851257045076,0.0026251276920821365,0.0020111288468338735,0.001921414888729831
0.0017870868296017415,0.00209939380216252,0.0016539554314414784,0.0017807559996777462,0.002268582948884751,0.0026200037150174464,0.002021924186493228,0.001927222834212413
0.0017849668497369787,0.0021385532159315488,0.0016584988357706502,0.00180146336153799,0.002286731550175703,0.0026175454556158343,0.0020255327037204357,0.0019452604549181146
0.0017908171600622986,0.002184720340430072,0.0016585159089039713,0.0018305328021981284,0.00229005806724569,0.002619325355004022,0.002014805095068584,0.001967328538087911
0.0018037201725868278,0.0022140932671267373,0.00166329016668149,0.0018484357126442605,0.0022848222066574643,0.002622039998836362,0.0019985907865941507,0.0019822208411166653
0.00181509473567914,0.0022214542517300525,0.0016795664677700926,0.001848560424064158,0.002286446206148971,0.0026226437381155453,0.0019907429238598152,0.0019870340383436043
0.0018155155146023054,0.0022214381083818383,0.001701158014042366,0.0018421671521316927,0.0022990705745999,0.002620234134125941,0.0019938370724073445,0.0019871370854810597
0.0018040545442181764,0.0022307690870332613,0.0017149630112645185,0.0018441424306254507,0.002311683943682816,0.0026143786343281743,0.0019968724248994076,0.0019883073500179824
0.0017913190465587829,0.002251705365043217,0.001717091988302522,0.0018569265246740649,0.002314007786546223,0.002605251593487793,0.001988657739291048,0.001991484175865352
0.0017905996111775714,0.0022731743003712385,0.0017190642175606903,0.0018703226365887717,0.0023096109286104487,0.0025961007076865977,0.001970302357798361,0.0019947556719216017
0.0018032918925947822,0.0022848543632594583,0.0017351271823310723,0.0018746892398493308,0.0023102600170049866,0.0025921636733842734,0.0019537015834283585,0.0019973576047377286
0.0018152865515154916,0.002286886325391705,0.0017643475663681014,0.0018704757065431889,0.00232006547455064,0.0025942287724191083,0.0019484137160607512,0.0019996107343756564
0.001811063434243832,0.002287027521512488,0.0017905437904282412,0.0018653534726317904,0.0023303646367200887,0.002595080276470165,0.0019511516466241983,0.00200031777317695
0.0017908141433306177,0.0022912528104344996,0.001801000432181558,0.001864973242254142,0.002331604933107103,0.0025863615967015078,0.001949607728815135,0.0019971085525761576
0.0017719228401893575,0.002298621034614604,0.0018010837177488785,0.0018682790274337595,0.002325980436202421,0.0025695438526636676,0.001935961277404729,0.001990138816776327
0.0017711040617709199,0.0023045173307071785,0.0018081904119302023,0.0018708811201418592,0.0023246769967362525,0.002556712874294496,0.0019152579856230954,0.001983593419175026
0.0017852183997160696,0.0023066188301799485,0.0018314551790815977,0.0018703520823034675,0.002333294118294655,0.002557273148749146,0.00190013500608838,0.001981724418434642
0.00179459484454993,0.0023065415804794953,0.0018610822287598524,0.0018673626500992453,0.0023442680450158617,0.0025655163978399714,0.00189705761596792,0.001983794792580115
0.0017851535427648633,0.0023067633274666617,0.0018804408843184149,0.0018635120509254103,0.0023464669395492285,0.0025662793022927692,0.0018990824889813628,0.0019845558155083937
0.001763150781011994,0.002307718630304701,0.0018848461336868959,0.0018599659614574326,0.0023394012995518534,0.002553177980058745,0.0018938404494185724,0.0019799423746268067
0.0017477050243175007,0.00230835714750666,0.0018853336918818776,0.0018578051477208097,0.0023340153795587235,0.0025370125418054234,0.001877316634997652,0.0019712330946934993
0.0017497444079260297,0.002308278066005314,0.0018949859412219236,0.0018576934118504128,0.0023389868946064544,0.0025332296909417167,0.001857938846894356,0.0019633588718940046
0.0017610790471414542,0.0023080741890374734,0.00191426870648104,0.0018584069374325124,0.002349734703994889,0.002542843602401214,0.0018468936206580092,0.0019598847835513447
0.0017655868486728154,0.002308033757286492,0.0019323103895089577,0.0018571923280966097,0.002354356782119414,0.0025514858978546006,0.0018456943566021798,0.0019600825621319765
0.0017567350726063334,0.002307897889517277,0.0019405092473500417,0.0018531021595454686,0.0023483210069807576,0.0025480318558777724,0.0018455453141756266,0.0019602707773840318
0.0017420098216205011,0.002308057634230597,0.0019410272981159168,0.0018492164746436643,0.002339294679601754,0.0025381786101459163,0.0018383848279329268,0.0019571816389084276
0.0017330131407385485,0.002309557627818821,0.001942165533747345,0.0018495506998496886,0.002337146886103908,0.0025360802114847056,0.001825500685643934,0.0019503677632440608
0.0017337907126913179,0.0023121527476645887,0.0019482818391614622,0.0018535930240985736,0.0023422624610396183,0.002545503072640195,0.0018145769813347652,0.001942373622431843
0.0017391113177707652,0.002313775692012697,0.00195628968696182,0.0018562782332149504,0.002346433509996122,0.0025558993458468095,0.0018102916796578264,0.0019367245535578043
0.0017417104704217459,0.0023135244664790836,0.001961070351658074,0.0018546825375755445,0.002343450361116063,0.0025580273763236177,0.0018101133936804209,0.0019349415146927465
0.0017388462249535138,0.002314197084714231,0.0019615315304732294,0.0018526559917049386,0.0023352901525752028,0.002556384524869206,0.0018091608456064624,0.001935053798063561
0.0017328145956625278,0.002319354170751484,0.001960574116842496,0.0018561403528229042,0.002328127946201042,0.0025616488925359325,0.0018064285704966069,0.001933359189894432
0.0017275513338378123,0.0023277168275107328,0.00196078705396181,0.0018646243881019525,0.0023252392549142653,0.002574628403836218,0.001804693790442123,0.0019279851630776882
0.0017255489969416253,0.002333532185404665,0.0019617529580867846,0.0018711072094719627,0.002325146584614196,0.002585153572394339,0.0018057017990012335,0.001920724192063026
0.001727058114043558,0.0023342082608503244,0.0019614409639560374,0.0018717303102603934,0.002324695583308758,0.002587254144924064,0.0018077206930844335,0.001915310028345404
0.0017308100035336987,0.0023349868730700276,0.0019590558242200524,0.001871805035846418,0.0023217628652053937,0.002588082167177178,0.0018083961374906314,0.0019138666181856758
0.0017347720980375283,0.002342655972843533,0.0019559462561142987,0.0018789464631525342,0.002316050043726869,0.0025975837964116923,0.0018085158030304437,0.0019149989581000457
0.0017367152883601008,0.0023556457677931355,0.001954065859638079,0.0018919603690959865,0.002309690140961415,0.002613702487529811,0.0018114076146578972,0.0019152965533897712
0.001735513025891976,0.002365104876940076,0.0019538897741677628,0.0019016902884555536,0.002306834653074889,0.0026248926079615368,0.0018185188209373072,0.0019127615057792494
0.0017329883529146066,0.002366879578443786,0.001953807235376633,0.0019035605813581152,0.0023099629178897404,0.002626275746491756,0.00182675804276142,0.0019089183242498396
0.0017337779409939567,0.002367856739897789,0.001951568503856831,0.0019043297261940749,0.0023158009670079627,0.0026261195218776324,0.001831294986172823,0.001907369642196349
0.0017412801279241058,0.0023768542127941585,0.001946619527252648,0.0019130932631711034,0.002317532234821941,0.0026338650596288635,0.0018308552816632619,0.0019098546531949481
0.0017529605845450053,0.00239191583776191,0.0019411609622237115,0.0019283742409205158,0.0023131394161850487,0.0026470593079440264,0.0018293792159018063,0.0019140654590487393
0.001761555581346423,0.0024025187738564613,0.001938453623443861,0.0019398044196121897,0.0023099207262547786,0.0026557581138203215,0.001831880040314603,0.0019162718478787336
0.0017627117586342914,0.002404197904322075,0.0019394371581338487,0.0019423102293329862,0.0023173062277524223,0.002656870297208941,0.0018390633202983139,0.0019159868267182118
0.001760670892680277,0.00240492086036167,0.0019411270310531524,0.001942947620384424,0.0023346147156792577,0.0026573969434708984,0.001846987960980736,0.0019166644329428625
0.001764227161355484,0.0024140202921470798,0.0019391635711214648,0.001951134405421733,0.0023498250236290356,0.002663210786111873,0.0018517442310609564,0.0019210164036883462
0.0017763701214753417,0.0024289770285487156,0.001932436193776702,0.001965721555952225,0.002353120137791878,0.0026708265625166846,0.0018529903666839763,0.001926994955812231
0.0017903228731325266,0.0024390018120991367,0.001924841185418153,0.001976911904160851,0.002349504888408367,0.002673900789198489,0.001852776300515601,0.0019302955164073633
0.0017975432536606155,0.0024400424616587424,0.0019216263477390269,0.001979709863726588,0.002354584070561924,0.0026734004909414193,0.001852992120850602,0.001930196176353121
0.001797519234044647,0.002439896516431698,0.00192365646321201,0.001979990743690979,0.002376438598098263,0.0026758484141333823,0.0018556007783435667,0.0019305102390832513
0.0017974423215108926,0.002446960099851627,0.0019261033297561074,0.0019858809182114103,0.0024048695176628826,0.0026829282370486557,0.0018634935498394903,0.0019341381197830747
0.0018029753040774846,0.0024588823670990733,0.0019235423341537922,0.001996994896112079,0.002422369298042872,0.0026886879808176918,0.0018774177424839306,0.0019389382426148556
0.001812056795293407,0.00246679320978147,0.0019158845619769564,0.002005970206293846,0.002423849396857291,0.002688568037160016,0.0018919807830326957,0.001940849481336978
0.0018187792603328375,0.002467732471347548,0.001908463137932761,0.002008698717620562,0.002422347275388332,0.0026864871885751425,0.0018990846601016351,0.0019394848847398573
0.0018207051349836431,0.0024674740941459097,0.0019061067344985003,0.0020087104048999776,0.002434413655663376,0.002689535284254767,0.0018980720587279973,0.0019381148145236563
0.001820254266204814,0.002471434034326256,0.0019079799353880161,0.002011322745413502,0.0024613088140549686,0.002698022231246524,0.0018997661072857202,0.001938667450199011
0.001820421580665832,0.0024777477756255306,0.0019091634691643115,0.0020169041940718392,0.0024880604775551996,0.0027051294705921873,0.0019155816451535991,0.001939522392155219
0.0018216704173219455,0.002481483104995685,0.0019065945797696398,0.0020218096468829307,0.002500660183289945,0.002706207671500377,0.0019425703171758414,0.0019388557268037595
0.0018230003161602386,0.002481933617432202,0.0019019938756864676,0.0020237874241922503,0.0025003909273497637,0.0027045412882497565,0.001965032855435746,0.001937556013806395
0.001823833386674045,0.002482330037484648,0.0018989139003692099,0.0020239150152758885,0.002500660077832338,0.00270652020520702,0.001972429056696003,0.0019372898580383342
0.001823937378513309,0.002484272474308113,0.001898412380403714,0.0020240353841647963,0.002511745085820282,0.0027135290498513914,0.0019711482049343835,0.00193762351139658
0.001822951498318675,0.0024860760435768702,0.0018988417143075322,0.0020246042698124664,0.0025307915906556855,0.0027210001526824746,0.0019760486014194878,0.0019371188830676455
0.0018211285030168244,0.0024862719225176634,0.0018990712256389988,0.002025290218184788,0.0025469822767331595,0.0027245317988885366,0.0019924527664871047,0.0019360061990609289
0.0018196816397991053,0.0024855382163992035,0.0018999655931359184,0.002025969071149625,0.002553579506408442,0.002724546666839716,0.002011304108391903,0.0019355621812463567
0.001819346494216503,0.0024846847756623035,0.0019022154735618075,0.0020264028517171574,0.0025531774083268166,0.0027247696696691913,0.0020219682257195106,0.0019357270032899947
0.0018192822967373356,0.0024834723476343055,0.0019043555528807548,0.0020260289975745508,0.002553011890978578,0.00272781634444271,0.002023854665409896,0.0019357816201217494
0.001818549643384008,0.0024823752984452657,0.0019045545656355685,0.002024837415943259,0.0025574276550737562,0.0027331202331745664,0.0020236481871626555,0.0019367315390597692
0.0018180740295697258,0.002482820811346473,0.0019038776234178547,0.0020237786913056936,0.002565147897516511,0.002738301495184489,0.0020254612712531004,0.0019398563044784325
0.0018195206414474937,0.002483948005437217,0.0019058718261958454,0.002023646466340225,0.00257220848053351,0.0027414685769870375,0.0020276903457220473,0.0019427520609895208
0.0018222293688665092,0.0024817136673874305,0.0019120302465535012,0.002024064487989636,0.0025759945965929624,0.002742366830953312,0.0020280357025944484,0.0019407250799309394
0.0018232578247126218,0.0024742505738587686,0.0019189762773922847,0.002024171203437915,0.0025767050734646284,0.002742332294372625,0.0020272274395937515,0.0019340031854058577
0.0018216527195105562,0.0024666098662170953,0.0019219290987071065,0.0020238346642656472,0.0025762729813988013,0.002743682395037505,0.0020270888453464454,0.001930080645919983
0.0018212611170794534,0.002466047795323054,0.0019207647612492851,0.0020235498309866752,0.002576626308576707,0.002748536398933028,0.0020277908525345714,0.0019349058716267454
0.0018269666676917345,0.0024719065159740684,0.0019208060891565562,0.002023525768930084,0.002578675779663332,0.002756942613176852,0.002028203008055845,0.0019434558926777839
0.0018378206979799987,0.002474331586152409,0.0019263565517961424,0.0020235944785624276,0.0025822101156060145,0.002765616952895062,0.0020272426628084586,0.001944234793809722
0.0018463397967769123,0.0024656885026946673,0.0019346045598875275,0.0020237692971915473,0.002586206631269481,0.0027698216106016864,0.0020243604948950076,0.0019333794856455791
0.001846723121336851,0.0024507966696823056,0.001938447268541028,0.002024140632309185,0.002589281417281148,0.0027686457546317036,0.002020787516075445,0.001920289398983399
0.0018431106456951337,0.0024425121052412025,0.0019356045797909987,0.0020243583007120793,0.0025904968141048884,0.00276867797435785,0.002020870921320273,0.0019172845504991309
0.001847088939846826,0.0024469004806441106,0.001932402471414655,0.002024004229552884,0.0025903960838871733,0.002779370801671809,0.002028969493348294,0.0019256422536189641
0.0018646068564580978,0.002455945224168606,0.0019361452032518355,0.002023437752388416,0.002591078225171194,0.0028015638446452877,0.0020426574880522278,0.0019350125340491847
0.0018868789290192986,0.002456829945386741,0.0019446896496101418,0.0020233956187352894,0.00259435055606481,0.002822566665447979,0.0020520030426879428,0.001935384693942687
0.0018984237712158906,0.002446052544422867,0.001947701809639845,0.0020236319182236197,0.002599414808231174,0.002828036485819463,0.002049862966038234,0.0019265228484838083
0.0018947418249440837,0.002432538563850437,0.0019397325703103812,0.0020229697333006055,0.002603161918319955,0.0028204938106781824,0.00204232082758103,0.0019168227303728214
0.0018895801595866866,0.002427699291470677,0.0019287530030005417,0.002021162133005479,0.0026035391306421926,0.002821855930706356,0.0020443892259982294,0.0019155164865152594
0.0019012385647074368,0.0024337898760461284,0.001927714032514496,0.002019668035062499,0.002602151464974271,0.0028504271385848506,0.002062363811903243,0.0019253987714703397
0.001930412355430705,0.0024426376002830447,0.0019374622041241217,0.0020196236108105084,0.0026024898027062356,0.0028952811998276405,0.0020841435708207953,0.0019406090302800908
0.001957004497472777,0.0024446680795832225,0.001943553837155419,0.002019820587881301,0.0026056234393383253,0.002923622334821156,0.0020919695310073123,0.0019507714059442806
0.0019619805532095076,0.0024378881272806474,0.0019333173475060384,0.0020181616343850368,0.0026088847933681387,0.0029176562821059153,0.002082657340733747,0.0019493571868603736
0.0019488686281805526,0.002428747574889534,0.001912397849962894,0.0020149466856339616,0.002609321104338152,0.002899369250162207,0.0020714524554623576,0.0019402991764098155
0.0019412257606984103,0.0024253358599468154,0.0018998844834765944,0.0020130238477041704,0.0026072947660913614,0.00291136310996494,0.0020747915989268724,0.001935986688365209
0.001956758690276064,0.0024297240908571402,0.0019054678174392206,0.0020139139113442223,0.002605653717718444,0.00296643408570687,0.0020914228862830226,0.0019457284021437069
0.001985868940892403,0.002436580453937749,0.0019163158481366625,0.0020151759759556805,0.0026060177658434472,0.0030265244774444347,0.002104822857214914,0.001964857287313072
0.0020018763276547654,0.0024388679698368193,0.0019120068701456185,0.0020132769110956803,0.0026072333387567657,0.0030437683097918676,0.0021027553530483544,0.001977473510115139
0.0019904335713288846,0.002434540922436943,0.001888749412539003,0.0020086134414371484,0.0026074782095368665,0.003015086995141751,0.0020897969301455987,0.0019716533239402434
0.001964881693880275,0.0024278611941234,0.001864162113416581,0.0020058014549085342,0.0026065883180906024,0.002990497934351397,0.002080589363575636,0.001952157907226171
0.001952454511667302,0.0024245900476362395,0.0018571762922499867,0.002008079561359175,0.002605768106700453,0.0030205851525193137,0.0020833483413904607,0.0019374316118983851
0.0019640977896677684,0.002426213573935379,0.0018656722919991448,0.002012630609408633,0.002605836377081064,0.0030942362942578704,0.0020924726384670017,0.0019408490270804081
0.0019817343625251694,0.002429127159347544,0.0018696297696208272,0.0020132521745333033,0.0026064492231993803,0.00314832378269652,0.002096946663601699,0.0019544978588482914
0.001979308873026988,0.002429113953541817,0.0018549044815882611,0.0020076934121720518,0.0026067215623754632,0.003138785939491749,0.002092412393164717,0.0019563721458497004
0.0019515843246712293,0.0024257180615747374,0.0018283187383953666,0.002000978245862675,0.0026062268723111956,0.003088647446105938,0.002083955779911094,0.0019345785146009315
0.0019195477340489134,0.0024219251203444927,0.0018090708285874047,0.0020003390074005874,0.002605646475156448,0.003066539774351119,0.00207942609922403,0.0019014937384520933
0.0019073878703343183,0.0024203032992485256,0.0018070369725487502,0.0020068649268952213,0.002606428351785747,0.003111097758413948,0.002081734022977379,0.0018813270214885758
0.0019150667658555122,0.0024205031725649646,0.001812649539291942,0.002013488543915617,0.0026090160186505932,0.003184101962801901,0.002087216161440261,0.0018822362342814374
0.001919827107750214,0.002420628508469807,0.0018093886224227105,0.0020121782842464284,0.0026112369905015084,0.0032157409653754553,0.00209004432338166,0.0018867937032281058
0.0019040388289884892,0.0024199033668815245,0.0017920459276087504,0.0020026925284678744,0.002609822361127947,0.0031810365389442876,0.0020877065880057044,0.0018741949600177734
0.001874369031303937,0.0024190887729612937,0.001770760361458475,0.001993538799459486,0.00260469420418421,0.0031241946672167192,0.002082996161095414,0.0018448235654976806
0.0018525536141657045,0.0024188563139672325,0.0017589522165991761,0.001993505362478478,0.0026006596970012306,0.003112499261704233,0.002081063562475609,0.0018182450392030512
0.0018498661412331455,0.0024189291052016905,0.0017590730012535917,0.0020020365788246475,0.0026025501090049044,0.0031621155372564933,0.00208404913506642,0.0018090355883098339
0.0018557387798479143,0.0024188984119564473,0.0017615593292688522,0.002009204025566205,0.002608403035734103,0.0032220168926412867,0.0020887218760288237,0.0018108966036391705
0.0018532478204713204,0.0024188616086105183,0.0017564388959319097,0.002005828195743627,0.0026099885755322856,0.003234981488415509,0.00209011663964483,0.0018082507192514893
0.0018390207139318574,0.002418825679204307,0.0017432765567043467,0.0019930539315137705,0.002601855506194409,0.003196090286543627,0.0020872392742816285,0.0017961426437677127
0.0018244375259504517,0.0024183277720947263,0.0017300505279391463,0.0019815756697525466,0.0025886881759942817,0.003153232131945429,0.0020840514075866987,0.001782750103590373
0.001820618908153223,0.002417314868391612,0.0017241421425849442,0.001980891188849297,0.002581458336696362,0.003156365861857852,0.0020844672467784623,0.0017763334071441267
0.0018265157070980656,0.0024166519984642823,0.0017254109983682697,0.0019893616080539547,0.0025853636015612433,0.003205898144784961,0.0020876545640234694,0.00177632523951845
0.0018326814936511597,0.0024166888927542197,0.0017277165517694036,0.0019959992146481075,0.002593183497091808,0.003257442828226868,0.002089634738420123,0.0017777831595160033
0.0018327989285265428,0.00241576704813135,0.0017256211743030016,0.0019918533758585323,0.002592432084435232,0.003271710900254131,0.002088637616197916,0.0017785406022729482
0.0018289956477125224,0.0024117118251790093,0.001718937216571422,0.0019787063280707886,0.0025786008236946822,0.0032504683430801488,0.002086838500055298,0.001779016061462905
0.0018282062830042485,0.0024052040846491637,0.0017119793281169641,0.0019668980790761644,0.002560459422067974,0.0032307380132939757,0.002086704726176278,0.0017791568613106255
0.0018354513686252248,0.002400119010907358,0.0017094277853929884,0.0019649582193462974,0.0025518546083780937,0.0032478148595056783,0.00208779101300993,0.0017793919470952104
0.0018494990489366994,0.002398960941884081,0.0017124037575086428,0.0019714700533948683,0.0025575192696932346,0.0033006851954276127,0.002088453206484528,0.0017822095310402926
0.001863379549183922,0.002398595881122041,0.001717566132809235,0.0019772079750661736,0.0025674050486316816,0.003354839817822363,0.002088858645279144,0.0017886473884187494
0.001870120722658672,0.00239265956169516,0.0017199315287797607,0.001974408835547878,0.0025661591613936052,0.0033781654446445285,0.00208986181025826,0.0017943953994140286
0.0018703738820940437,0.0023790287957662806,0.0017173936033714563,0.0019635259099936384,0.0025484731478698434,0.003372070919068385,0.002089976644304263,0.00179401994372475
0.0018741904192340875,0.0023636467602817417,0.0017130853186551702,0.0019519849050600394,0.0025253743651034158,0.0033695724883419558,0.002086994099446798,0.0017895479995467423
0.001891594414639639,0.002355077946342537,0.0017127466256792946,0.0019470396283552298,0.0025143556227198724,0.0034005054570316437,0.002083053206980946,0.00179029873448173
0.0019196593292442434,0.0023545644999169294,0.0017187574952304244,0.0019494060657421451,0.0025209558983698525,0.0034577034924302198,0.002083849394595974,0.0018009347271452814
0.0019429482616909793,0.0023529190589893514,0.001727031807000285,0.001953167090431149,0.002531176398085788,0.003505305605520013,0.0020897803243702393,0.0018128549426550168
0.0019499795957826872,0.0023390434367053458,0.0017309752157664143,0.0019512711117669805,0.0025251284384940776,0.0035202793087744603,0.002091796906425357,0.0018127199081491366
0.0019475212338781421,0.0023119218840925416,0.001728682049268302,0.0019412415517701211,0.00249815603117228,0.0035176094100546882,0.002082054500409197,0.0017989888311339347
0.0019551894525176514,0.0022837350754234395,0.0017253541362581533,0.0019267642140774945,0.0024671707571697677,0.0035309622243769323,0.0020674384587556476,0.0017861390834901629
0.0019834038139337207,0.002269036305052498,0.0017277180314892945,0.0019146341786628605,0.002453713353456861,0.0035709216163217366,0.00206477795217955,0.0017895483109395766
0.0020199448433830636,0.002268523388933589,0.0017362311022067615,0.0019094051173271047,0.0024593570280090214,0.003613296808559966,0.0020782245725324004,0.0018066951212920965
0.002043050199712613,0.002265213231245143,0.0017443374932437283,0.001909338102242079,0.0024625862135483757,0.0036323873410664467,0.0020892422938575883,0.0018179817936891135
0.002045045008525178,0.0022400088941530454,0.001745972847911847,0.001906858638736074,0.0024427856439783575,0.003632961642211146,0.002078260310663681,0.0018070785058713445
0.002040023771232324,0.0021921385479412338,0.0017424442316503308,0.0018942032753103831,0.002403566789144491,0.0036406223825151004,0.0020519422395484915,0.001778354655556157
0.0020485502830383784,0.002143819368950042,0.0017407222178000004,0.0018709603798779193,0.002369551197633552,0.003665831900823325,0.002039257418972783,0.001754509814345531
0.002075628786780008,0.0021203088794003295,0.0017451506717598264,0.0018469915175936705,0.0023586410615997477,0.003691484907951551,0.0020554024292122053,0.0017546530510944883
0.002106385786903056,0.0021211504839306777,0.0017524548375756038,0.0018350872679602655,0.0023607761946230787,0.0036999580283934934,0.0020793918292059794,0.0017727966991649656
0.0021228196165393,0.002116871401582072,0.001756030935233969,0.0018368584962956927,0.0023504518727458516,0.0036982800866339704,0.0020796926578381517,0.0017822145400572787
0.002121022952434489,0.0020787555381953323,0.0017538116586674618,0.001837507180554146,0.002317058501050389,0.003705994710254608,0.0020535172767517057,0.0017621357698834486
0.002112914600701057,0.002009535520786923,0.0017501286601484154,0.001819711514164962,0.002276762430993773,0.003725123974528657,0.002030514035668865,0.0017191672121014826
0.002113879719859161,0.001944932563144982,0.001749891764334574,0.001784251070912482,0.0022534617242966214,0.003737753208718051,0.002036510600012507,0.0016838105084052177
0.0021287576797077903,0.0019200886970628817,0.0017526016767809417,0.001754216874353387,0.002250453051321465,0.0037344059368423946,0.002061567109982699,0.001681163118714192
0.0021488556059726153,0.001929887167921445,0.0017535598243598647,0.001751863064122577,0.0022475856581542046,0.003729221031307378,0.002074885226728007,0.0017026004048016359
0.002161147422093267,0.0019326370214827508,0.0017502301475425504,0.0017695816045141287,0.002226915909176835,0.003738655663316902,0.0020626752336624266,0.001714441560796441
0.0021595741962488037,0.0018941882916560457,0.001745408658620829,0.0017753056909494281,0.0021939266849756124,0.003755851501805924,0.0020403857849467704,0.0016935931051891174
0.0021492452616963735,0.0018221870630352754,0.0017432606598949815,0.0017498703609597087,0.0021704455077382655,0.0037610557041628983,0.00203119873103877,0.0016502048231916563
0.002141685242422254,0.001761654977546514,0.0017432783785748085,0.0017116346706218147,0.002167956181411896,0.0037523680974936966,0.0020397367153088286,0.0016183215982184
0.002145360217678504,0.001751719155698497,0.0017402875603454511,0.0016985348608413225,0.002173532553553398,0.00374919137063955,0.0020513615494881783,0.0016218214520396445
0.0021589822358087066,0.001781191086431284,0.0017313750777327873,0.001721517630273365,0.0021666986621425707,0.003762382432092165,0.0020519943375787333,0.0016493901773935943
0.0021730375240925693,0.0018009622420635013,0.0017213144930838626,0.001749036079334504,0.0021452337074856637,0.003777259001479021,0.0020411366864984256,0.0016690205603799746
0.0021777924912864165,0.001777322272406546,0.0017182607351798925,0.0017470998656182368,0.0021282833999780094,0.0037772172584832325,0.00202801941351842,0.0016614367286171374
0.00217109096748014,0.001723978121376636,0.0017226569251450022,0.001719265253249432,0.002132283288595181,0.0037706145705520737,0.002020791654248932,0.0016357031348151888
0.0021604853189795014,0.0016880083314121828,0.001723590504598348,0.0017001520682713048,0.002148657550467761,0.0037778152218987844,0.0020203501864810556,0.0016180941044325113
0.0021580458719608164,0.001699952073972314,0.0017106455023948644,0.001711619504253591,0.0021542364336637953,0.003797804384036433,0.002021993621652868,0.0016263756944955364
0.0021705598610533136,0.0017394344807620723,0.0016891827707788182,0.00173651489161662,0.0021416494813614,0.003809104950466621,0.0020211116573212954,0.0016538003946297156
0.00219256992102416,0.0017624586612847535,0.0016787751522722336,0.001745297873074063,0.0021300968097318017,0.0038057581534261483,0.002017404612484869,0.0016787018120997207
0.0022096389810797134,0.001750038909561732,0.0016902562636979556,0.0017329995175990095,0.0021409399623953445,0.003809981258345104,0.0020139684703815094,0.0016857498871934466
0.002210766241291354,0.0017220717621224822,0.0017076695639327295,0.0017192394541684542,0.002167480534372756,0.003837295687196104,0.0020126773688655102,0.0016770854998210353
0.0021999315039815765,0.0017111882173457536,0.0017039408255910245,0.0017191602500482134,0.002182339533000645,0.0038679486540284433,0.002012387374168459,0.0016677414750904014
0.002195426386953842,0.0017266176134968086,0.001674609666567304,0.001726490242107778,0.002174292022958954,0.0038758301314793736,0.0020130434049960805,0.0016718544721256417
0.0022134343971006274,0.0017491019200457237,0.0016490314861263115,0.0017282672358012042,0.0021648746209896267,0.003873384129885595,0.002018728955899906,0.0016910832581253782
0.0022493725156181197,0.0017580794850816197,0.0016589735767855696,0.001723361878473755,0.002180975769865554,0.0038991709583419357,0.0020323063314542523,0.0017146504636648123
0.0022796980846488224,0.0017521946222403687,0.0016953020532088786,0.001719098637001755,0.002216535811318189,0.003957766756539734,0.0020481326915336145,0.0017294628282418308
0.0022857090868934416,0.0017439722402744935,0.001715499660511339,0.0017180732659102047,0.0022389963306319234,0.004005204429888029,0.0020563434792534455,0.0017305536947563275
0.0022746883275974795,0.0017425839045706703,0.0016956915835445456,0.001717864623811237,0.002233522237830288,0.004011911226341006,0.0020565098151182288,0.0017244759214636292
0.0022752107989820708,0.0017462963881001226,0.0016612050867221705,0.0017198335459720048,0.0022245650652634747,0.0040124392745677405,0.0020617980091581496,0.0017239203721360094
0.0023067222742388276,0.0017493404745723695,0.0016600869856507458,0.0017275876428229735,0.002245122295287984,0.004063610511991284,0.0020838112952158653,0.0017369557318922446
0.00235553301449269,0.001749893426705673,0.0017023057608176891,0.0017373379990293601,0.0022906440189666747,0.004159415494596889,0.002115668722319917,0.001759606579163542
0.0023893139089743087,0.0017497478270629206,0.0017454567909416568,0.0017408878407153064,0.002323678198747066,0.004231611894739573,0.002138243582933174,0.0017794439244900673
0.002393142833459936,0.0017501107530971673,0.0017497976167640179,0.001741364880326985,0.002323977838193126,0.004242755333293456,0.002143210787260557,0.0017871620178082695
0.0023856248236091607,0.0017506753697573618,0.0017247391999599285,0.0017556343542411601,0.0023157174222887575,0.004241250806974945,0.002143440975237889,0.0017851514522303318
0.0023982812943521723,0.0017513332887924668,0.0017163262854233189,0.0017919212077736686,0.0023376885532199985,0.0043020768772599974,0.002157572588327458,0.001785164001925334
0.002439411273850368,0.0017521218747331073,0.0017503473154147162,0.0018324005691348314,0.002391734360431849,0.004422690300842031,0.0021871338972215396,0.0017967281563744202
0.0024854182006853556,0.0017519999925451073,0.0018006168580044074,0.001851614615389864,0.002439890391372521,0.004522659953917477,0.002215264341808324,0.0018175735519905315
0.0025095349352668617,0.0017504078177473868,0.0018262331480292523,0.0018499140611020462,0.0024536558480463735,0.0045487060280681845,0.0022272990621918965,0.00183653264552952
0.0025103342303204076,0.0017503376800035886,0.0018205797923563328,0.001859062849296669,0.002448115262769419,0.004540542730175141,0.002226280228134356,0.0018452466327342747
0.0025099597787118354,0.0017564895048583732,0.0018142696733674905,0.0019065892598355452,0.002462851229533722,0.004581439994061989,0.002227454380194906,0.0018456698247843722
0.0025280142548394094,0.0017679330455937176,0.0018360953167739582,0.0019781725190312067,0.0025133538844039,0.004692386947138687,0.0022407205713620448,0.0018465630163579437
0.0025611880163528386,0.0017754862533218836,0.00187904228009461,0.0020313406153090133,0.002573274882521166,0.0048072311834007975,0.002261134475914926,0.0018539053156109062
0.002590520140143524,0.001771166932788865,0.001913322697830357,0.0020430391530745617,0.002608236439599049,0.0048585520407149465,0.002276173559916364,0.001865757601102211
0.0026033901137276997,0.0017603728076858692,0.0019233080308077518,0.002035021100992252,0.0026135522260549056,0.004853971088760877,0.0022789971318187513,0.0018760443764384517
0.0026040593679393037,0.001759792148347714,0.001921648824940288,0.002052705538842333,0.0026156254355810932,0.004860615135013481,0.0022739163736716383,0.001881177365007386
0.002605661741877434,0.0017783544468595101,0.0019313871166024795,0.002114925329862219,0.002641977792649441,0.00492490360146457,0.0022711316342598213,0.0018820900265344978
0.0026159621068403026,0.001803470618320343,0.001959606700443244,0.0021918388884257112,0.002693127507959693,0.005022275878816607,0.0022769841827086474,0.001881541814555327
0.0026319263855420177,0.0018136283990017792,0.0019921681349895576,0.002239657909065144,0.0027451535801293653,0.0050939247475822414,0.002288565364431934,0.0018814503815311708
0.002645779321320488,0.0018034090394975818,0.0020118906855129907,0.0022455278360959527,0.002774912399074417,0.005113691424871091,0.0022971072374992174,0.001882738083257527
0.002653032650480033,0.001791016981841628,0.0020159935449811364,0.0022373081460654535,0.002779730684569115,0.005108075737310227,0.002296385271874202,0.0018857875735476383
0.0026544976309245297,0.0017983811862820067,0.0020164299526934464,0.0022545854507800083,0.002778070871151622,0.005121223549817197,0.0022883740846016904,0.0018896979252597907
0.002653414440525842,0.0018255708320801104,0.002026571124385852,0.002308635205525246,0.0027937535492629033,0.005169354107554596,0.0022814631448498887,0.0018919604079375095
0.0026529324011603695,0.001852028792187425,0.0020483170148467016,0.002374232373280892,0.002834876896742786,0.005231495586036565,0.0022828309315096936,0.001890559741285139
0.0026556322033750796,0.0018614089504084576,0.0020716619426456844,0.0024191180047381956,0.002885069309684628,0.005277344940444387,0.002291744287623568,0.0018867354224611685
0.002662545246336582,0.0018572294211231263,0.00208539175325611,0.0024330456523880355,0.0029172011872597415,0.005295139297124334,0.002300173867879923,0.0018845503364959691
0.0026709393713317676,0.001854734374343991,0.0020873939877502114,0.002431893763672329,0.002918286915084252,0.005296069704352518,0.0023002014280351806,0.001886785713656175
0.0026748503304977623,0.001863074018485281,0.002085861451513656,0.0024412608945429603,0.002903487192442446,0.0053008605641804984,0.00229129125619319,0.001891690021274121
0.0026708140844582213,0.0018791104669106998,0.0020913246118964674,0.0024752681792695845,0.002904491717692414,0.005323640942669918,0.002280947740516349,0.0018947799230198733
0.0026634059267444015,0.0018954782065906113,0.0021068467987667067,0.0025266441936444652,0.0029381995838885684,0.005363032172209428,0.002278004357545763,0.0018937898268462045
0.002662269733910059,0.0019077964044032034,0.002125625215012434,0.0025743106269034044,0.0029872736933912055,0.005404011106073292,0.0022843148502389903,0.0018909807977718924
0.002671369770745818,0.0019139349366501888,0.002138016948842328,0.0026004521548889095,0.0030174181682413705,0.005429450544655868,0.0022927026243179053,0.0018902641164061098
0.0026831048630926173,0.0019127861190874262,0.002140525134033139,0.0026041599642339084,0.00301231969414095,0.005434235351686769,0.002293227978803864,0.0018927177930585526
0.002686372066772755,0.0019073071584028158,0.002138381921654249,0.0026024379221367255,0.0029892489863229212,0.005430509564528088,0.0022819444034547177,0.0018957983582392312
0.0026797422996211314,0.001905251012695406,0.0021401284878567292,0.0026162115132626106,0.002980975862681094,0.005437460545263853,0.0022647031563162684,0.0018967416011136922
0.002673446446355431,0.0019120154099987944,0.002149741407686508,0.002651246944805197,0.0030018618398938582,0.005463429586289283,0.0022526400454635715,0.0018955936356607535
0.002677126842340342,0.0019233529496217373,0.0021637491356334866,0.0026929674872521836,0.0030349300214055326,0.005498311343050584,0.002252079042742808,0.001894446549440718
0.002688317452266071,0.0019292498414263748,0.0021753205270921777,0.0027211355021426794,0.0030532814362943506,0.0055243303036934515,0.0022575744606314328,0.001894524226665495
0.002696330783202258,0.0019252479627000277,0.0021803712394855984,0.0027281727901406643,0.0030475004431534543,0.00553291398292378,0.002256168770376221,0.0018950377720176165
0.0026957548399985146,0.0019168486472996595,0.0021801364607489425,0.00272381018527429,0.003030374160974985,0.005530594747581832,0.0022401594283354316,0.0018947754815159495
0.002691960534430236,0.001912073863926682,0.0021792091611204214,0.0027244770830323513,0.0030199286241749754,0.005530682110979831,0.0022158539116264113,0.0018937377599706079
0.002692961749691166,0.001912799626799559,0.0021817717356209035,0.0027390600708443766,0.003022143580344746,0.005541296773230471,0.0021982005101784793,0.0018927402207240802
0.0026993806246104306,0.0019162844690898057,0.0021890680821277627,0.0027639130864043175,0.0030308346066552526,0.005560906057862561,0.0021949989864544863,0.0018921962275453104
0.00270524777179231,0.0019226112686333847,0.0021992107662060115,0.0027888915953571706,0.0030399907847263033,0.005582365859403753,0.002198300984819519,0.001892126890184562
0.0027067612241090827,0.0019350223266733032,0.002208588301989268,0.002805811352392841,0.0030508010530378824,0.005598901133655671,0.0021942831015360317,0.0018929077647510302
0.0027064346420267917,0.00195198421439456,0.002213830531435069,0.00281249692774348,0.003065901846185689,0.005607367172891861,0.0021793564781272673,0.0018948025729662015
0.00270834470150596,0.0019644203083450575,0.002213846088930949,0.0028125813190707886,0.0030807865000515994,0.005609067104528481,0.0021630213039129796,0.0018967061688512914
0.0027123962088187676,0.001966064617005089,0.002211357805687231,0.0028134889819339507,0.0030868297947663917,0.005609295435168731,0.0021552945491565383,0.0018968869982378732
0.0027153389667204635,0.00196575557934509,0.0022123632457162613,0.0028231621067918975,0.0030863223013096494,0.005615090822904756,0.002155470699573735,0.001896053072827864
0.0027158362966357616,0.0019836814172273314,0.00222202006726601,0.002845409467592834,0.0031011721650931667,0.005630979472155558,0.002156171260620905,0.0018984332403389353
0.0027158958106312074,0.0020294131694667825,0.0022389261252203714,0.002876095820505139,0.0031556345802450474,0.005655100947982966,0.0021545721757131927,0.001907428986087963
0.002717361049060362,0.0020860310450126506,0.0022540580246882404,0.0029042513348988253,0.003243052629630141,0.0056793624642337715,0.002154177097592446,0.00192001356619577
0.002719298157584573,0.0021240405054361276,0.002258236807075279,0.0029195218344876765,0.0033206531360201203,0.005694764925424346,0.002156818069251056,0.0019283273562043398
0.0027199762569487043,0.002132260951055353,0.0022524799226999975,0.0029215681548103016,0.003351353907228584,0.00569867634594796,0.0021590869286600665,0.0019289551790632267
0.0027198360956870544,0.002133428479662399,0.0022496337304829723,0.0029232540825917933,0.0033513481365891945,0.005698365699030385,0.002158771627281325,0.0019291997723966698
0.0027205766943984404,0.0021649918517095204,0.0022620304367632913,0.00294182822661953,0.00338641594181475,0.005706767698302783,0.002159772620964126,0.0019406342460231837
0.0027218043449601637,0.002237373019979714,0.0022865580395021864,0.0029826904016569907,0.003500642950340745,0.005732180275382527,0.0021663249117481074,0.001964865489797927
0.00272086982087168,0.0023183338216759184,0.00230626716080233,0.003031677364008767,0.003653965381196376,0.00577002075631768,0.0021753567150186604,0.0019892812250369906
0.0027169765149963,0.002366817940184993,0.002308851273265324,0.003066482856682055,0.003761898254886698,0.0058049528015241564,0.0021801311698385886,0.0020005310675282953
0.0027136963084548,0.0023756148061534993,0.002300618800157227,0.00307734197038451,0.0037894064398519677,0.005823010796784548,0.0021803231506749973,0.002000704934298603
0.0027151123641916916,0.0023790529812412367,0.0022993930399703706,0.0030772188311575252,0.0037901167607272065,0.005823954290471435,0.0021824117782360975,0.002006729221546498
0.0027196119508120704,0.002417166097246623,0.002313633866968791,0.003090850907884511,0.00384889487874184,0.005823095434722723,0.002188789461871261,0.0020311133478938363
0.0027202164183346114,0.0024903131017565403,0.002333090175272643,0.0031308013006481794,0.003981024633776975,0.005839515631031771,0.0021927252437514587,0.002065624300650682
0.0027128702779353597,0.0025598688751094054,0.0023425678806607815,0.003184391538925749,0.004115492780336861,0.005879013044058787,0.002188686341003981,0.002089900919936026
0.0027029686819006705,0.0025931189094261266,0.0023396811783102053,0.003226274400634752,0.004183382400757194,0.0059269676513257295,0.002182859521084471,0.002095362404677929
0.0027006028009587523,0.002595986180174334,0.0023348704757875814,0.0032426327485475664,0.004190023875289991,0.005959309158934488,0.002186036526837979,0.0020956275188289
0.0027081471307206684,0.002602175681029665,0.0023364759497098665,0.003242782363189691,0.004197734670140217,0.005963225728807251,0.002196678459032032,0.0021104166825539313
0.00271553601398896,0.0026337977059155806,0.002341560002975204,0.0032488909708263216,0.004249986282548964,0.005949913106310435,0.0021998520147844297,0.0021405388482402896
0.0027112593987751086,0.002678621775352989,0.002343149092923542,0.0032743336192185223,0.004327392379197253,0.005946933491390297,0.002186620175230897,0.002166373063910948
0.0026970299659131885,0.002709805981260344,0.0023408739687301792,0.0033119785561012884,0.004383951793667025,0.005973697787813565,0.0021680186481729184,0.002172823984701852
0.0026877280689900263,0.0027180462444816064,0.0023396025341921585,0.0033433325334269446,0.004402798500639854,0.006021363369846771,0.0021632082635967957,0.002168179520686838
0.0026941143106190488,0.002717208864913746,0.0023402135686751706,0.0033566727489155452,0.004403229259948751,0.006058811259559358,0.0021747231886793386,0.0021731187149382244
0.002708276151132681,0.0027231515540991555,0.0023377713329773026,0.003355778172074097,0.004407651529891893,0.00606114677834204,0.0021841843783007267,0.002192981460982231
0.002712056643207334,0.002735375315969431,0.002329797066502335,0.003353735641442059,0.004418438566490708,0.00603400799358676,0.002175170563353591,0.0022105332026431893
0.0026995949849872255,0.0027429961636931785,0.0023214370021782094,0.003360138313458432,0.0044272643337545485,0.006010321062935808,0.002152923606692226,0.002209970110171002
0.0026860009303993552,0.002741906507454525,0.0023192299757792767,0.003374025388592837,0.004431648121865957,0.006019754340395101,0.002137432163169953,0.0021985579863115093
0.0026896856557630635,0.0027384252751289913,0.0023223505842645364,0.0033875951669359154,0.004433873779827973,0.0060587410026090175,0.002139334060461395,0.002196734339918464
0.0027083763962700066,0.0027382001071509596,0.002323983976628898,0.0033947884078417735,0.004432533902111687,0.006093329936532971,0.002148630411815842,0.00220965602353166
0.002721001333825041,0.0027391596140979003,0.0023203027624600094,0.003395821208626128,0.00442519995145532,0.006092912456649926,0.0021490273904107406,0.0022204555109214836
0.002714630642650535,0.002737595134279375,0.0023143029704362525,0.0033947408830272362,0.004416039377127211,0.0060600270392189345,0.00213689893636782,0.0022152399044870386
0.0027017649289183196,0.0027350622048436146,0.0023108839121083477,0.0033943665743769017,0.004411930882064911,0.006027872971264284,0.0021226872230274167,0.0022029740161057143
0.0027053364675574685,0.0027347831885802857,0.002311820989536016,0.0033948706087317975,0.0044121660939065105,0.006028063021987617,0.0021169635772050484,0.0022023863291834793
0.0027286490427799546,0.0027354886466059948,0.002316770270993508,0.003396968383633253,0.004410948488254252,0.006059782816839677,0.002119332339398993,0.002214895701312825
0.0027502568854110487,0.002735095814359869,0.0023254039750326715,0.0034039316181657337,0.004410777860963015,0.00609202297479463,0.002121846226494267,0.0022239286887233843
0.002751922765896279,0.0027383897788554345,0.0023355153063309387,0.0034176357243213412,0.004422871877292042,0.00609512543972666,0.0021197223351739495,0.002221232681593978
0.0027425369102657983,0.0027529900390312516,0.0023420486166973323,0.0034331347463521238,0.004448791847655303,0.006068613813821127,0.0021157920572430146,0.0022196345099429137
0.0027473894070698937,0.002775990322719079,0.0023428762717860353,0.0034413441302819023,0.004471469264285634,0.006040571982097138,0.002115416834825203,0.0022332246204122253
0.002775264692783554,0.0027929360440803767,0.002344838307484402,0.003440087282474744,0.004475913213011191,0.006040551364123228,0.0021193792224498144,0.002254803108925572
0.002806337656559624,0.0027959618004323736,0.0023584031320020627,0.0034403476629903903,0.004474539319995978,0.00607084521497336,0.002123251354219927,0.0022662077786624523
0.002817741649793719,0.002797860060237674,0.0023837813009619747,0.0034564048409531645,0.004498097916758766,0.00610434877830045,0.0021236995561408714,0.0022662146517967788
0.0028123121632804716,0.0028195022752433817,0.002407396324976389,0.0034881345829254227,0.004556056990974125,0.006111546469274746,0.0021240311147233746,0.0022739769007061018
0.0028147845710545776,0.0028623478124888513,0.002416883519845444,0.0035181841380076337,0.004618625450331729,0.006089737130110769,0.0021315630175943448,0.002301557574491034
0.002840554407846423,0.002903223120233965,0.002416909586714125,0.0035306156876896803,0.004649832812677947,0.006066091997326521,0.0021483404077008734,0.002334899922509156
0.0028763361103463924,0.002921048174881916,0.0024249611523830014,0.003529401402365064,0.004650886921123209,0.006069871416507019,0.002166266353659182,0.002352286314519483
0.0028975443598708247,0.0029215762994580933,0.0024500175108317923,0.0035341698278518515,0.004659912988479131,0.006100384713306784,0.0021748088813908803,0.0023533034990702657
0.0028978626541052515,0.002930331808639672,0.002480643534850924,0.003557155364841622,0.004706698000410674,0.0061269703869229405,0.0021742209604745156,0.0023587117792376925
0.0028947685532336874,0.0029621806945536004,0.0024988366376772313,0.0035891017925846038,0.004776841767228147,0.006122792614114486,0.00217843625539938,0.0023824450115388688
0.002907311792795449,0.0030045508666211172,0.0025013752595565426,0.0036113751883565183,0.004830477905464301,0.006094309514908226,0.0022008564754762506,0.0024137972046083243
0.0029340899311458787,0.0030340337233828543,0.002502297722153098,0.0036173288773504206,0.004848228097783853,0.006073453601823176,0.0022370236139307277,0.0024330970154990716
0.002957353917868792,0.0030424141930813346,0.002514776499722622,0.003616940037104706,0.004848203555817563,0.006080548734832085,0.002266859241948486,0.002436236935048277
0.002964503727145477,0.0030419792425152733,0.0025354130338900846,0.003622512438498189,0.004860698182579303,0.006100924444884349,0.0022764290603788234,0.0024363112258913295
0.002959676026441372,0.0030491602026382855,0.0025502279205420067,0.0036351879306763353,0.00489452361052614,0.006103726156163901,0.002274614319874555,0.002444770216608381
0.0029559324611954365,0.0030677413020204227,0.0025523728839230574,0.003647326972174861,0.004933064914676937,0.006078552571437819,0.00228515815951726,0.0024586513775353472
0.0029608789846190297,0.0030887210614410354,0.002548594611768735,0.003653536667970996,0.004957575051822669,0.006045857014176913,0.0023200921516300164,0.0024682523838482247
0.002971386952181641,0.003102167240787415,0.0025489375322230528,0.0036549628865337135,0.004965208684738029,0.006031116040356308,0.0023648178454556213,0.0024705468043029386
0.0029791059075945066,0.0031057565693626645,0.002554563948017842,0.0036546825798308654,0.004965452849248108,0.006035146756339736,0.0023942026980930476,0.0024701144407301566
0.0029777800010087905,0.00310400965942091,0.0025584005518332733,0.0036535016138466232,0.00496691791145341,0.006036157540259116,0.0023996407822258104,0.00247023865521322
0.002966851315637142,0.0031029421770681982,0.0025551921618049765,0.003651247882940939,0.004971547907675791,0.006017779885314849,0.0023970081491895023,0.0024688588899909607
0.0029517980966488498,0.0031059311306371818,0.002547156981611298,0.0036492601550467078,0.004978340911281315,0.005986980402994095,0.002409004003870208,0.0024639903427759683
0.0029410130861193466,0.003112682939732879,0.0025402275853679294,0.003649523666282372,0.004987287868962147,0.005963281404246479,0.002441127542250219,0.002458732400231823
0.0029387436043242167,0.0031204928931109345,0.0025376071088379654,0.0036521906066762097,0.004998228768788916,0.005955817214732173,0.00247743708988248,0.0024577064672289504
0.0029395199885806056,0.003126329586025648,0.002537765802457216,0.003655136794096689,0.0050081573246804805,0.0059558207917226194,0.0024983362201054047,0.0024599190340380238
0.002932176094088342,0.00312848003910577,0.002536776989487324,0.003655775312716827,0.005012279897848298,0.005949952623854313,0.002498654865161991,0.002458587474068259
0.0029117647108486276,0.003127420400042611,0.002531599991320814,0.003653382221659859,0.005009468353469799,0.005935195577535054,0.0024904674162109903,0.0024492095418939277
0.002886496873882586,0.003126235871728168,0.002523000469170027,0.003650787972859778,0.005007319865366333,0.005919237823800838,0.0024917215493022535,0.0024361733481275067
0.002870179526323547,0.0031298272228740486,0.0025167951263452117,0.003653681475493867,0.005019568327668306,0.005910371013397259,0.0025104979894782532,0.0024293350889754745
0.002866913460864711,0.003141385275969274,0.0025201327745579608,0.00366580249769017,0.005053447843176124,0.0059106038708141165,0.002537336580697478,0.002433184648559906
0.0028660806233962058,0.003157903219082984,0.0025334979631535547,0.0036833608093339637,0.00509777834582927,0.005917246924076739,0.0025530491635242236,0.0024407915348492078
0.0028544017198095764,0.003170734542737209,0.002547482353715015,0.0036965625674342554,0.005129013506585886,0.005926650623545689,0.002546532156396602,0.0024406423819076173
0.002830750333850523,0.003173771938118054,0.0025514563996070143,0.003699783273333299,0.0051356256177793125,0.005934759980186606,0.0025273539427281212,0.0024294719368232708
0.0028070542529375774,0.0031717349726186096,0.002546605609732943,0.0036997639067282598,0.0051363055784255625,0.005937912935368481,0.0025193490569433773,0.0024167780732684495
0.0027950668987557115,0.003177445548323686,0.002547513150652275,0.003710222330507439,0.005166061777009241,0.005937781890316986,0.0025364034146255487,0.002415038206340127
0.0027941578540218027,0.0031978375740524053,0.002567084193396304,0.0037362638807563664,0.005236796772204706,0.005944527232367293,0.002565101995049568,0.002425467770396565
0.0027933684550167873,0.003224165256934566,0.002600444229347698,0.0037667258302416756,0.0053176659420562065,0.005968607435069676,0.002578098618947637,0.0024362020333981846
0.0027836417607992182,0.003240193319394857,0.002628555486006578,0.0037852856579161445,0.005365426099515376,0.006005794421589153,0.002564873456179731,0.0024356975585532533
0.0027660072415967227,0.003240317570703409,0.0026385655461272266,0.003788292359695609,0.005372625101511914,0.006035670607852402,0.002545178056113611,0.002425536722645702
0.002748892079082355,0.003236600960747612,0.002637586059633694,0.0037892696640252407,0.005378601280106619,0.006042808483729521,0.002548542794726229,0.002418176071581318
0.0027394258844439094,0.003245668131513479,0.0026450759185124404,0.00380467257617989,0.005427110220689335,0.006038991110666708,0.002579678566673026,0.0024224405132623667
0.002737663064338318,0.00326944115123873,0.002671771504239171,0.0038356735233934782,0.005514955441682773,0.006055407119697212,0.0026124067077910674,0.00243377542129912
0.0027379329289307615,0.0032926996099520525,0.0027083196932851015,0.003866236304428166,0.005594766587384237,0.0061057067016711975,0.0026212482356654772,0.002440740616356303
0.0027343519557978934,0.003300579813811094,0.0027360323849532804,0.003879972315602774,0.0056287445215476,0.006164019244509818,0.002610935754344946,0.002438796417929836
0.00272511827716627,0.0032950210636430903,0.0027459868502268405,0.0038776123394309962,0.005628424207989538,0.006192149159026111,0.0026101799873633736,0.0024345636689983136
0.0027129059315654084,0.003291897989735399,0.0027461201064254565,0.0038767976598537536,0.005638727430697465,0.006186217041937009,0.0026367932368179282,0.0024365613615320056
0.002702233248858417,0.0033026651741150936,0.0027514122607914097,0.003893301746583867,0.005686433764455492,0.006184454483587828,0.0026761166134242113,0.0024445688937973593
0.002696412106105158,0.003321738539254226,0.002768727271526375,0.003922994720497546,0.00575242253094294,0.0062220553389022715,0.00270069723318759,0.0024510477104633267
0.002695976429589179,0.003334219078708877,0.002791966131815776,0.003946085771398072,0.005798196587170605,0.006286657904425344,0.0027038536921173556,0.002452128578258418
0.0026984783219079263,0.003333606697432386,0.002810563871077118,0.003949852499867226,0.005809329073886588,0.006333851091534813,0.0027054815396161435,0.0024532304613669523
0.002699043228417882,0.003328389397953894,0.0028195659998147267,0.003943422215272403,0.005805718978926725,0.006341906573951306,0.002725314259486413,0.002461585654914257
0.0026926354351238043,0.0033310163370445524,0.002821144340900789,0.003947014459406955,0.005814143858368271,0.006334828952459213,0.002757719615368721,0.0024753025121674503
0.002678685382238092,0.0033431958372818673,0.0028198495392898794,0.00396765237240132,0.005839172665550038,0.006348749124126019,0.0027805668755951952,0.0024844277140753605
0.0026644163924530624,0.0033552407292809995,0.0028196640996268527,0.003991381632137038,0.0058646735685031854,0.006387992409954028,0.0027841632760114993,0.0024839369073150516
0.002660467495314108,0.0033589530642949084,0.0028244364456157856,0.004001704272515044,0.0058771569963383405,0.006426668588114718,0.002781861569918012,0.0024818139465450817
0.002669180027418693,0.003357037691072074,0.0028360172377409954,0.003999429215431257,0.005878757659381187,0.006445301630510741,0.0027909102567461046,0.0024903045258458044
0.0026782519060756047,0.0033583788573164483,0.0028492496946035096,0.0039993808039871775,0.00587835373388878,0.006448512145623035,0.0028093668118735963,0.0025097437270040776
0.002671094714073536,0.003366642897245072,0.0028527572727945496,0.004010493154757147,0.005878452860372865,0.0064483599326390535,0.002819477927039999,0.0025263540205102074
0.002645522591527464,0.0033767696456726923,0.002840340483699796,0.004026185180894996,0.005876017789731404,0.006447595215730154,0.0028115169944147485,0.002528266089407411
0.002619370052759624,0.003382316346630437,0.0028215972088685053,0.004035625559857231,0.005872063136423184,0.006446297845414806,0.002796009808375282,0.00251974526479249
0.0026124448501651724,0.0033828956020158433,0.002815344365696415,0.004037339828663357,0.005872616795034991,0.006450611011196043,0.00278978627693466,0.00251606278778893
0.0026220568696860764,0.0033830872230090838,0.0028278644683099605,0.004037335057805732,0.005878656255719296,0.00646070252863207,0.0027942263818363845,0.002524976301419226
0.0026236453749827323,0.003386181610076302,0.00284222727084098,0.004038614293331184,0.005881125292970073,0.0064585912556176335,0.002793961924432793,0.002537722041987385
0.0025985786660784813,0.00339120075637354,0.002836188046783585,0.004039046034967031,0.005871115003710362,0.006426317721773702,0.00277696467428223,0.002540347871336362
0.0025561905116192832,0.0033954345075842196,0.0028086548192152367,0.0040380561179807215,0.005852959906868647,0.006376141890203944,0.0027496620891196916,0.002529750182788065
0.002524304878037241,0.0033976780047533053,0.0027825483333016854,0.004038202416615302,0.005841759356182904,0.006344456033611786,0.0027293792061214434,0.0025155322684953
0.0025169873080578644,0.0033984390474271235,0.002778370571757149,0.004038364786433428,0.005846076671167498,0.006345216419052868,0.0027240409152530965,0.002508035386891455
0.0025175940985447008,0.003398447313562722,0.0027890474432378156,0.004031711829905552,0.005856898969411699,0.006344521074648399,0.002723853333883527,0.002507723856165157
0.002499217210105262,0.0033980393303981084,0.0027890920949425494,0.004015092416336255,0.0058575226561671115,0.006299861268626249,0.002714002937016561,0.002506768683516677
0.0024559954922903394,0.00339759970472274,0.00276593562071075,0.003996630047165172,0.005842654550858655,0.006216618121600283,0.002691360023400188,0.0024983438645977255
0.0024095277356344096,0.0033979924970300294,0.0027339620804927864,0.003987687185167916,0.005824231638659326,0.006146978179120515,0.002666979244332243,0.0024833705305968147
0.002385436169496827,0.00340054338984735,0.0027161043200231083,0.003987586299771824,0.005818027391418821,0.006126409658772307,0.002654466187202207,0.0024703659753079975
0.0023858161869665883,0.003406216416257987,0.0027160469408691224,0.003982607817102192,0.005826842087736294,0.006126863253933529,0.002657466955577006,0.0024688912954047614
0.002388493069562287,0.0034138318537076952,0.0027156475195714187,0.003962445340596266,0.005838680262322762,0.00609159610348566,0.002667579267990882,0.002479930017321077
0.002371583159545321,0.003419411729619471,0.002698865214336915,0.0039332214433148716,0.00584005727084311,0.006005565370589359,0.0026722477335337515,0.0024921957516373127
0.0023352027495972725,0.003419755347697799,0.002670282099622732,0.003910882422695987,0.005829031258585162,0.00591362616020686,0.0026649804101020703,0.0024925878300895376
0.0023023341196299267,0.003418470243915701,0.002647849239344045,0.003903522056815831,0.005816172595635403,0.005867235044741097,0.0026515510540190464,0.002483711022092284
0.0022989606805927953,0.0034262301360517655,0.0026410331563599915,0.003903989662938816,0.005814528458697846,0.005863670573316357,0.002647716584228046,0.00248744056954984
0.002328155370262238,0.00345019425340395,0.002640979009393732,0.0038994490940470715,0.005827813016020424,0.005852694499076585,0.002666447024968161,0.002522375268677356
0.0023641292231149926,0.0034822335996235305,0.00263284362470511,0.0038839230071121217,0.005846458303771074,0.005797488269652654,0.0027029768770654525,0.0025770659908581324
0.00237608568147227,0.0035032557019946016,0.0026128766558619182,0.003861289105017525,0.005855400381291799,0.005713414484225079,0.002735113173478607,0.0026177252024432167
0.0023593287267370255,0.0035041641258441256,0.002590928703820574,0.0038407451456373785,0.005848308927609276,0.005647034847944486,0.002743743507686368,0.002626790103365369
0.0023436935606540735,0.003500965657260315,0.0025783632778142683,0.0038313722353988315,0.005835885441608321,0.005624237936260059,0.0027349926408954056,0.002626972344066142
0.0023656613205738173,0.003521991578236117,0.002576208362839145,0.0038366468030819074,0.005837723558837556,0.005625664942445595,0.002739232741861322,0.0026589830766862287
0.002426300766441631,0.003574595559458365,0.0025758241042464266,0.0038491687645901213,0.00586169604664705,0.005612847508513938,0.0027802171067234636,0.002731568967690712
0.002487042546312326,0.0036310727007256116,0.002568871534289423,0.003852647047659944,0.0058921585828053446,0.00556867845641288,0.002844436850091986,0.0028073452176650793
0.002511532085349603,0.0036569310974498234,0.002554618062701829,0.003835814249285392,0.005904009324558166,0.005509469474610284,0.002892282381066153,0.0028461828856974672
0.0025026579380300613,0.003650755069912909,0.0025388706886812994,0.003807495350933563,0.005890521110135073,0.005464113008709552,0.0029015529391424755,0.0028498254392126574
0.002497354714717286,0.0036495671454305255,0.0025280993478126314,0.0037933900892286156,0.00587379031059215,0.005446072826252882,0.002893430597424493,0.0028579051940519047
0.0025254361719354783,0.0036885070454908734,0.002524627929484129,0.0038101442200038443,0.005882170435821116,0.005445020647288438,0.0029104769671921948,0.002901023199531668
0.0025772657145497553,0.003757526381149186,0.002525446672375703,0.0038428457027627145,0.005916747602359574,0.005440632832931587,0.0029662162691062406,0.0029655249550960836
0.002618876319963321,0.0038115944582051147,0.002524249926405816,0.0038569346647794696,0.0059478435462181805,0.005419882476074285,0.0030282802855439374,0.0030138503822385735
0.002630401909490904,0.0038228232313735565,0.0025158799194966754,0.0038350596013162755,0.005948521985773179,0.005383790336103096,0.0030586848365977684,0.0030289457964460358
0.002621431528291984,0.003811062300557511,0.0025012708608980784,0.003798347621890901,0.005925431993201462,0.0053446659676966,0.0030567500910154014,0.003027998742086362
0.002614537804943494,0.0038198382983088,0.0024884049196489655,0.0037866855468003274,0.0059108449156266936,0.005318879534563712,0.003054714744875694,0.0030372730812356745
0.002621028130308185,0.003864912586825683,0.002485791955369835,0.0038146746318318773,0.005924974687452575,0.005316179390051669,0.0030760612569517565,0.003062211455107998
0.002634732583488022,0.003917906890272896,0.002492955588145329,0.003853930457956908,0.005953815404877661,0.005329273105942064,0.0031098660978593263,0.0030873989257154213
0.002643983045185133,0.003943903547130898,0.0024991992729081376,0.0038652622191110027,0.005968761027275961,0.005335463143588609,0.0031314706698461568,0.003099527239488373
0.0026428679707372507,0.003941057638541987,0.0024946200990269675,0.003841359274914678,0.005960152635298421,0.005316401830833904,0.0031341729346284677,0.0031006566913763627
0.0026328793449409407,0.00393677487836206,0.0024820792110428766,0.003812885157449148,0.005943849593656789,0.005280434460844456,0.003130399134362505,0.0031003269304092835
0.0026201566962872295,0.003951682804618523,0.002475568369125563,0.0038134056233494573,0.0059384014708818485,0.0052604008897706505,0.0031304464475952337,0.003102769994873237
0.0026118334623566105,0.0039778981456654984,0.002484469888785658,0.0038424046663241562,0.005944845029396368,0.005279744836695833,0.0031326959847499313,0.003105540392463515
0.0026103810703226736,0.003995439060400101,0.0025016048935068594,0.003870030634607592,0.005951971848199714,0.0053218534750906895,0.0031333596775460965,0.0031063823343606984
0.002610464749114208,0.003998758252814373,0.002511456161666333,0.0038743048505915784,0.005953546290223248,0.0053460464059466644,0.003133326184770663,0.0031061533908629834
0.002605927106887937,0.003998760915270612,0.0025094194903544343,0.003863243928722638,0.005952587564109074,0.005336876972956375,0.003132822412453419,0.0031060109465312685
0.002601126746795345,0.004003955043306202,0.0025080290983232577,0.0038597126451353904,0.0059516745347984075,0.0053266038748980265,0.0031301761154283706,0.003106041199310606
0.002608866692140477,0.004009553668789019,0.0025211535066797597,0.0038717046496167733,0.005947239760022291,0.005357413965209793,0.003130059088696793,0.0031071482402191654
0.0026318182094018953,0.004007340579308272,0.002544993010666079,0.0038858458703261703,0.005935786451225509,0.005424401707840111,0.0031418987021963026,0.0031108022948889446
0.0026531449693306406,0.003999079663767935,0.0025621190056685423,0.003889497206614928,0.005921090767208889,0.005478063983223409,0.0031631022088841345,0.003115720366649753
0.002656712847385166,0.0039945219378669464,0.0025648068042216044,0.003888832800044499,0.00591150100665342,0.005489749035612281,0.0031761452879039346,0.0031181693931633236
0.002654134114092692,0.003998037462086792,0.0025668215065083088,0.0038986978780293433,0.0059106963304127675,0.005494553588312578,0.003174704242532806,0.0031179959043696162
0.0026778763681577,0.004001892968600253,0.00258611464069799,0.003918974286637252,0.00591214533986624,0.005550227943944725,0.0031826457899085205,0.0031214420880537074
0.002738383106032206,0.003994030754803485,0.0026186713249277643,0.003931100323126969,0.005902236230172165,0.005655791634994643,0.0032269716977462886,0.0031336649065734075
0.00280213516912631,0.003970856686198228,0.0026406095562439957,0.003921297700127175,0.0058705788268506864,0.00574280982290281,0.00329352863726071,0.0031496652606378336
0.002829742562779776,0.003942133427653181,0.0026388948385794833,0.0039007037019298755,0.005821894686643038,0.005760361878840466,0.003337002189854956,0.003158410391252012
0.0028269174426482,0.003923238231542259,0.002630834841565754,0.003895667840067241,0.005778100641864635,0.005744716936820543,0.003340947693298813,0.0031573980529117354
0.00284242443795835,0.003920024530795974,0.0026447960710534834,0.003916873453197078,0.005760062033715611,0.005783363599302708,0.0033455738479147863,0.003157710241285189
0.0029069832530525803,0.0039200119487521595,0.0026823576115181033,0.0039443096742215415,0.005760377918543223,0.005904388722517341,0.0033979757897236148,0.003169731290922363
0.0029890851733220805,0.003901820240415787,0.002713147457169996,0.003948006114232583,0.005741837291276412,0.0060329080013388475,0.0034842232382083145,0.003187177050349537
0.003034628979950172,0.003857162477145564,0.0027123768466157643,0.003920169147754077,0.005674893715278777,0.006080065208393985,0.0035450168501523784,0.0031936038924921034
0.0030354144356109923,0.0038033415239544315,0.0026924397108206094,0.0038838115390992588,0.005576827106922105,0.006047717033252706,0.003554538853896759,0.0031849446691048547
0.003038478584599675,0.003768865096300975,0.0026893939122173667,0.003869653380687627,0.005502336752700474,0.006027474876389322,0.0035525647911907048,0.0031768749705461475
0.0030844713834864554,0.0037622922477458876,0.0027181947916592266,0.0038845679292431844,0.005483097789662648,0.006093963958116482,0.0035894612674437997,0.0031839385170547357
0.003152611153316472,0.00376056282667898,0.0027535937624909115,0.0039052774915043008,0.005485269973439288,0.006214961104641868,0.0036567350532042647,0.0031972258812854515
0.003191224648736196,0.0037343912608342436,0.002763151405193484,0.003903033979063661,0.00544669671932221,0.0062953267718973815,0.0037026668316619644,0.003194429292800746
0.003187952499164775,0.0036810487534768475,0.002746643021253679,0.00387124107641397,0.005350381362694935,0.006289614802950484,0.003705939693247196,0.0031709433961227265
0.003184122169059243,0.0036270724259271176,0.002734041387422605,0.0038301929688310046,0.005245654284900632,0.006244932019787136,0.003700770052906891,0.0031489684887925297
0.0032171297908287896,0.0035989592373983337,0.0027473728357992814,0.003806962980593559,0.0051918281459786345,0.006239265655461651,0.003725269870460371,0.0031490753311133536
0.0032682306365464024,0.0035962699597444437,0.002774930236110714,0.0038097472982589566,0.005189150131032436,0.0062919499457135515,0.003768153583728427,0.003161004709523926
0.003291624609326303,0.0035980838251589466,0.0027903851160767518,0.0038219052967116375,0.0051849214773507955,0.006352947309649231,0.0037903289438229746,0.0031571205343710693
0.0032800782249509937,0.003589063000863092,0.002786672804505492,0.003820485416724564,0.00514172339608976,0.0063729242733748925,0.0037836730884810866,0.0031309490822413444
0.003274814788274293,0.0035710005512450886,0.0027805958852180207,0.0037981285686656406,0.005076204125693303,0.0063553798864136824,0.0037804747948473015,0.0031070178957072593
0.003307385213116535,0.0035536403725733266,0.002787741786344766,0.0037675230796263433,0.005030037782505156,0.006337275984736894,0.003804775901591008,0.0031075965065733633
0.003354128465626992,0.0035444026171398005,0.002803402369685648,0.003747094829222515,0.005018532875297159,0.006338249822342327,0.003838231168552455,0.003121871908249888
0.0033710696902028233,0.0035484322688242955,0.0028132202388271407,0.0037436103399621015,0.00502133783205762,0.006346001946375065,0.0038499547739401065,0.003123049242109567
0.00335654248235704,0.0035690809573283625,0.0028141837504285913,0.0037487641451370217,0.0050166350679193335,0.006346590683480705,0.00384230210687188,0.0031077034644286477
0.0033541301025327187,0.0036010839751132355,0.0028162164718376122,0.003750410542603209,0.005005260225989547,0.0063466595646701,0.0038467292102412373,0.003100365457363012
0.0033921451207119925,0.003628579235857924,0.0028256701360829094,0.0037439095587064636,0.004999418329787852,0.0063565713952734,0.0038781416060855506,0.003117250973740476
0.003442979531659192,0.003638935304749655,0.0028361383697547518,0.003732896653280883,0.005002031989235875,0.00636617744316588,0.003913984390111244,0.003141764652850489
0.0034618911258038464,0.00363870913146108,0.0028386336342528617,0.003722549593680511,0.005005873177191801,0.006355145550987149,0.003927088455796244,0.003148549499346908
0.0034471968307183626,0.0036490333251235608,0.0028345321782471617,0.0037147947088194693,0.005006412819345729,0.006325282960341918,0.003922539289535474,0.00313959911439765
0.0034412471133751996,0.0036811495488007187,0.0028331824938703652,0.0037094265721556497,0.005006266437587077,0.006306289618251756,0.003929088362289525,0.003140891341235649
0.003473253963237613,0.0037215848682544813,0.0028390500975608904,0.0037067725113350005,0.005008690099675112,0.0063205509661843125,0.003959633723043357,0.0031650069401338043
0.0035204025392341887,0.0037474632386785365,0.0028465068891781855,0.003706910476909813,0.005013547989272897,0.006351435735061749,0.003995190470919046,0.0031931957005980303
0.003540355157120607,0.0037523297628798274,0.0028477085834431814,0.003706832996965207,0.005019241039781029,0.00636063158842238,0.0040117920280302736,0.003201957060144325
0.0035254510735055924,0.0037505724118605975,0.0028412559178687133,0.0037008041381160497,0.005022367390650187,0.006333881870936736,0.004010099579911185,0.0031935604648926858
0.003508364870167654,0.003757035628111269,0.0028317466484928315,0.003685367301752394,0.005015388793890312,0.006297637574459019,0.004010635193449832,0.0031893446919072617
0.0035179397962451482,0.003768873946904741,0.0028241368667904546,0.0036641559436628858,0.004992407159880191,0.006287269041510552,0.00402564709519914,0.0031985871232681575
0.003543631019914456,0.0037725764010606913,0.0028206171284561937,0.003646502003841248,0.004960872358978434,0.006306103620814002,0.0040456575579929845,0.003207645120458887
0.0035534724885154965,0.0037642602724093236,0.0028203360829682934,0.0036393177433200444,0.004940133241071906,0.0063252125573747195,0.004055143347807688,0.0032023289551867625
0.0035357541404962586,0.003754660766075212,0.002818954940627011,0.0036392186198473254,0.004939235190188978,0.00631959613073162,0.004052358931038931,0.003188063433246971
0.0035100372480237744,0.0037527277739621816,0.002810187390691352,0.0036336881721843357,0.0049394359064368135,0.006293145516979107,0.004048220633027786,0.0031800265997718835
0.0034996787710799603,0.003751144735671568,0.0027921586151546107,0.00361221726996199,0.004910590247852357,0.006267947001690369,0.004049928411833041,0.0031799044326133487
0.0035033910129514652,0.003734996318543794,0.002772604662052874,0.0035778272494463477,0.004847518476897334,0.006258181898374644,0.004052513914599348,0.003173649417814821
0.0035006048779175586,0.0037029778020546858,0.0027631404614033976,0.0035468950202957794,0.004782156935521424,0.006259865816672788,0.004047476878360507,0.0031525336409030584
0.0034793021880487164,0.0036731743041686455,0.002765331321847533,0.0035342814126579575,0.004750982379726586,0.0062610580861361224,0.004034671099209692,0.0031267474717157533
0.0034497687790284153,0.003663933385814977,0.002766270162882531,0.003536960027220812,0.004751569696770242,0.006253876115928591,0.004022401600923262,0.003113302984110377
0.0034308239474620176,0.003671653158273931,0.002752669344425777,0.0035355592956274897,0.004744115504139544,0.006237456843473335,0.004017461192710855,0.0031148336862551603
0.0034276528259678148,0.0036738025040324463,0.0027275377091987244,0.003514682376646445,0.004697960255228916,0.006216862988861514,0.004017724152755692,0.003117299151056322
0.0034276794091840685,0.0036541435335735147,0.002708153450808929,0.0034801762100560283,0.004625882329052942,0.006201302246705893,0.004014695745567316,0.003107944957448524
0.003416944983566608,0.0036205033889794443,0.002705884272529165,0.003453695555963214,0.004568541187572325,0.0061976902030781815,0.004002029223828583,0.00308925130380091
0.0033955570453451118,0.003596440177035882,0.002712530543671513,0.003449005308468419,0.004548787029739751,0.006202223643938434,0.003981943366900645,0.003073977734543661
0.003376024665499285,0.003596723126964624,0.0027112465916422023,0.0034570101790568314,0.0045497438784904394,0.00620235757632496,0.003964677044575966,0.0030704676715466667
0.0033692343017326055,0.0036134795312793917,0.0026970275133710686,0.003457832094277491,0.004539999745512442,0.0061913980740734495,0.003960600724752206,0.003076017038933083
0.0033745943211012917,0.00362675494759408,0.002680870907958436,0.0034437508856619446,0.00450899982055681,0.0061782649272800715,0.003970137819794641,0.003083043960039691
0.003383409429222441,0.0036245319301701382,0.00267473345576035,0.003425242349808198,0.0044721366036683296,0.006177458689326394,0.003981275719421786,0.003087287466572055
0.003388352818936519,0.003611008164582621,0.002677890541890546,0.0034159482678714757,0.004448350814176653,0.006190324437080113,0.0039796743981794416,0.003088966942552175
0.003387946764778805,0.0035992273831182025,0.0026810473754933398,0.003417321267756046,0.004440913837812374,0.006203005820719354,0.003963208611243618,0.0030893267277897467
0.0033848538648595813,0.0035988368806322453,0.0026792197194719734,0.003420864986517729,0.004440605940018791,0.006204721058679196,0.003946207907835712,0.0030890930414498893
0.0033838811261151986,0.0036101888483655305,0.0026753955195324814,0.003420682345832856,0.004440376526870917,0.0062016564950532005,0.003947127279346387,0.0030899875067545235
0.0033916601070229004,0.0036268270102810625,0.0026735997088232315,0.003418130082333331,0.004441356449300954,0.006208067594615038,0.003970276583175988,0.003095548505526881
0.003413672334697667,0.0036409841153836023,0.0026737334681964753,0.0034159742380174296,0.004446477330473001,0.006227088359395305,0.004000678056846269,0.0031089364389190383
0.0034473293563401413,0.00364743126977438,0.0026739976611539107,0.0034138490957062203,0.0044528234037121035,0.006246942519322336,0.004017902871126272,0.0031292938309668244
0.0034792390562701364,0.003645280901976436,0.002674091539943631,0.003410800722671112,0.0044530046742060295,0.006256156581364678,0.004014724971090659,0.003150069547532669
0.0034949467975048058,0.003638935031506378,0.002673965318805845,0.003408168458450324,0.004445117754878855,0.006256494047306704,0.004003732169399559,0.0031624355854304995
0.0034957220688288625,0.003637609531410289,0.0026726543110415844,0.0034074995297507854,0.004440472645064911,0.006258576456243493,0.0040068841049115365,0.003164011760704769
0.003504487283301861,0.0036508517899173816,0.0026708321312074617,0.003408013152082728,0.00445605911199039,0.006268652185997943,0.004036209162603236,0.0031662102378249416
0.0035472347112210046,0.0036797747487084848,0.002671470219248111,0.0034080611852525576,0.004492542867411731,0.006283097815623415,0.004082018552245775,0.003188422878131905
0.0036222087216046268,0.0037113434997704353,0.002674282387128393,0.0034068266207292184,0.004522629277972006,0.006293746192783524,0.004120272306350834,0.0032372673484106734
0.0036939526142400043,0.0037261106295001997,0.0026722552401404805,0.003402816452481378,0.004513632314717725,0.006294723328363159,0.004133577245973404,0.003292834153258224
0.0037274050839457475,0.003717964644350725,0.0026597653159746095,0.0033939239047119183,0.004468343943659271,0.0062852751924327216,0.004127986662855917,0.003325283511233456
0.003728654628021133,0.003707057207300902,0.002644031587806417,0.0033824110353800705,0.004436163279777685,0.006270483576036744,0.004130059795747165,0.0033286547087727787
0.0037466199504027392,0.003725094581687351,0.002640960853348341,0.0033765276400583685,0.004464161731722654,0.006259587659038988,0.004162701864254667,0.003332838431970303
0.003822152300161742,0.003779076980696377,0.002654264254543624,0.003380709185614167,0.004531881046183489,0.006258464050183985,0.004220211116561585,0.0033726905881241638
0.0039352883158817525,0.0038361441723051212,0.0026650415844947095,0.0033851541475850887,0.004561757731953544,0.006260659635152876,0.004271115925310572,0.0034443141888676697
0.004023009444384435,0.0038565765389536313,0.0026516568271923923,0.0033737801462135177,0.004506063844642354,0.006249878742236581,0.004289563171143273,0.0035067717010467984
0.004050243350602558,0.003840241787604708,0.0026185066317584473,0.003345806659693333,0.004410418608068613,0.0062169003582341915,0.004283208220759138,0.0035302118770277986
0.004050457775639208,0.0038317718346660345,0.00259684405023504,0.003322237836917034,0.004375573674821324,0.0061735701506562685,0.004287201288997857,0.003529230725081279
0.004089581224119834,0.0038704946382675724,0.002609825887984871,0.00332214485917117,0.004437489018789602,0.0061440458813363024,0.004325850976746567,0.003542680427172091
0.004186949139985451,0.003939655973881311,0.002641444804649215,0.003335270837203288,0.004513689839718672,0.006137883445450147,0.004383131395239845,0.003584849376370976
0.00429124666353387,0.003984973216188357,0.0026533196225252444,0.0033310853992659047,0.004501543928112816,0.0061358099147104765,0.004420718385990646,0.0036306611664627475
0.004344901663324631,0.003980547968066808,0.0026293406738991483,0.003296698229006352,0.004398065871045795,0.006108981232023626,0.004422932937711294,0.003652164218438678
0.0043499333417366375,0.003959131808905904,0.002594746085790571,0.0032554996336379496,0.004306530390300555,0.00605204037540964,0.00441425193043004,0.0036524131970081665
0.004359671937010111,0.003971145023050684,0.0025888018463037796,0.0032406470377154798,0.004318657571642993,0.005992224262077177,0.004428271809409059,0.00365456477129995
0.004411192168518154,0.0040203549942042244,0.0026195181534657778,0.003252840820548396,0.004400577724961906,0.005961425935038681,0.0044651677666088215,0.0036672458925545194
0.004482584039752321,0.0040611010262070115,0.002655456457607702,0.0032584728096220566,0.004441464958884229,0.005959644329262972,0.0044934882298972205,0.0036762071553769903
0.004528355796517171,0.004059581011018364,0.0026637815777211444,0.003231811839899207,0.004390412403512175,0.005953169665854283,0.004493081239726568,0.0036705543414725745
0.00453743138308646,0.004034864574254086,0.002644778922769737,0.0031861746079676033,0.004306754093715302,0.005911754578055109,0.004480136281694124,0.003660655766576985
0.004538870235863041,0.004030917215263748,0.002627764674639463,0.0031575195654672413,0.004283912068532735,0.005842805605333299,0.004482803384713207,0.0036612115376960896
0.004558037169493461,0.004058139528293633,0.002637409625884955,0.0031604058113510105,0.004336577545553315,0.005785041106970922,0.004502045347243612,0.003666883681339001
0.004586109180063137,0.004082882380776178,0.0026680662050029137,0.0031713699851367997,0.004393746365336154,0.005766479602925376,0.004512813369497313,0.0036597296139097885
0.0046007669415145695,0.004076236117893248,0.0026942009337709897,0.0031602471408732984,0.004396842507379123,0.005772347463242774,0.004501843607578,0.0036382077852380916
0.004600516323298757,0.004051305727612152,0.002699804160660238,0.0031261686033791382,0.004363230246221303,0.005761725030774608,0.004486234561530342,0.0036233795363844325
0.00460265601852709,0.004042591380217195,0.0026921831792252517,0.0030959823542557703,0.004351901088178763,0.005713691701589651,0.004487837039329649,0.003630164950044754
0.004613872048631298,0.004059043696942665,0.002690276755543383,0.003090723870961539,0.004386700348575858,0.005650678858157656,0.004501912069007651,0.0036443576558622274
0.004621013356491568,0.004075482784805439,0.0027035148245408325,0.003101646337981422,0.004434096854649856,0.0056141829079802,0.004506280472014462,0.0036421295418818545
0.004614978854236994,0.004070620765517276,0.002723945887048686,0.003104349185556857,0.004455156316962105,0.005618359520684848,0.004495485515758127,0.003625979403098798
0.004608146835664441,0.00405496414107249,0.002737688255530777,0.0030891675972788525,0.0044533180917150075,0.005634528980518736,0.004488490615546527,0.0036252715608154434
0.0046168298407065645,0.0040532722296983195,0.0027402507075425285,0.0030700688100435115,0.004462520769044893,0.005625111132140952,0.004499817671484611,0.0036563268126804417
0.004635266545444407,0.00406979115362333,0.002739713865052322,0.003065507205763183,0.004500044059823729,0.005585899365619335,0.00451806729663711,0.003696337900389486
0.004643219649700388,0.004085302873840306,0.0027466816396343584,0.0030765527326720426,0.004545660053944363,0.0055500092248668195,0.004524271990219463,0.003712069123307808
0.004637829161411096,0.004086779448481391,0.0027624968005943466,0.0030881873398792147,0.0045697064395008756,0.005550332188773988,0.004521319056002917,0.003705963546812653
0.004641396326906252,0.004085091969020776,0.002778207096925571,0.0030889235938103073,0.004569593460718629,0.0055820906776206354,0.00453013583071255,0.0037175486653765466
0.004670165438162108,0.004097853527159846,0.002785041142125895,0.003083228959297586,0.004571774395173262,0.005609416409566179,0.004558122380399873,0.003773369458081481
0.0047080199862048824,0.004123598265573196,0.0027848944736860483,0.0030843493473678113,0.0046002048397025316,0.005607155897970052,0.00458675617614171,0.0038486100287824484
0.0047267823001213355,0.004143796331972265,0.002789369127762984,0.0030982329718096027,0.004648165065583574,0.005588687931655314,0.004597322194664994,0.003895749593446959
0.004726755834816808,0.004148339541384073,0.00280715219607977,0.0031172429825138,0.0046855425787592645,0.005589897784082073,0.004597320142124678,0.0039028293935023457
0.004740233787416973,0.004148889103346048,0.0028328785111391675,0.003129410925012508,0.004691573911475246,0.005627198616232188,0.0046104821012943244,0.0039087206222601836
0.0047891346372629625,0.004163612734445495,0.002851546565657722,0.003131583040910123,0.004676935837352166,0.005678068220185699,0.004644173238901543,0.003957027386341464
0.004852412934902443,0.004193862754492048,0.0028552786455297227,0.0031326996352572085,0.004673708346282846,0.0057077199124093035,0.0046792259356751445,0.00404188833874561
0.004890561990172504,0.004222259533614395,0.0028539025271955122,0.0031442073870070887,0.004702366876696618,0.005709172044163769,0.0046952956269131685,0.004115053067966896
0.004895113651692554,0.004232726291656387,0.0028658460727074295,0.003166868637444838,0.004749018582819276,0.0057105798143443,0.004695767720203513,0.004142487805964404
0.0048995297639837215,0.004227221599156826,0.0028968693738981818,0.003188181785449355,0.004778684693767538,0.005741919540237149,0.004700916217371602,0.004139437783413265
0.00493820475993468,0.004222358943923164,0.0029315078367278258,0.0031948690115364206,0.004771151046826719,0.005798977077187335,0.004721198385543979,0.0041498965874497695
0.005003991028676421,0.0042321216973894345,0.002949607479392732,0.003188172764979517,0.004742840513454703,0.0058482439901559975,0.0047461794376940074,0.004196872074860488
0.00505798213485178,0.004254501617184317,0.002949228387626459,0.0031846496471716317,0.004732393573649772,0.005866320054737087,0.004760675385365941,0.004259526339029394
0.005075489785491916,0.004273478491138196,0.002949691633452407,0.0031982775405390374,0.0047605614903703875,0.0058662899205585515,0.004763144134788891,0.004299703394509966
0.005070443408636307,0.004272878537335419,0.0029701796245597237,0.00322211816804111,0.004805675251438787,0.005881663677076209,0.0047633614608703105,0.004300898683261323
0.005075504206588064,0.004250517977451717,0.0030072341215218357,0.003233568456173751,0.004825279010106394,0.005926675471482971,0.0047669992298380775,0.004279831544141216
0.0051055791647930575,0.004222064972348178,0.003038622234988848,0.003220012054966659,0.004801510298095226,0.005979895178322633,0.00476989416478115,0.00426721810081725
0.00514589008503205,0.004209145464499163,0.0030487511153368396,0.0031953803485354052,0.004761828514890555,0.006010421482462739,0.004767660150883384,0.004279048719965182
0.005172196297955703,0.004217906267865523,0.003045424310478725,0.003186279727818214,0.004751548779507592,0.00601339606401948,0.004763754176496594,0.004303617301169168
0.00517474180099363,0.004228893322803188,0.003050288909869667,0.0031999848501935288,0.004782779216398129,0.006013876157253176,0.004763309880353668,0.004314022512238271
0.005163071558756193,0.004213770870185086,0.0030741881394785054,0.0032134019054504952,0.0048186889757675525,0.0060366284891450435,0.004762674270138028,0.004293138911775091
0.005154179463304141,0.0041654116368564495,0.003105636609532489,0.0031997985706234636,0.004815426644647135,0.006077699154960104,0.004752108386134812,0.004249556123655655
0.005158052632449253,0.004109838944081152,0.003125221076261405,0.003161157040819815,0.004772067062550586,0.00611109668198853,0.004729975172529885,0.0042107951553873695
0.005171193986229559,0.004082149746623792,0.003127220001119839,0.003127535412018404,0.004731999578015728,0.006120225297975917,0.004708411934961984,0.004197321440487263
0.005181045677803987,0.004086564559421926,0.003124272579397708,0.0031217731505060256,0.004732545393926463,0.006115576328923698,0.004699902539334305,0.004201692784905148
0.005177448024350473,0.004088641967772863,0.00313205851135091,0.003130523256981521,0.004760045447175006,0.006120085936642025,0.004700591847120458,0.004197129849981687
0.0051621238623001196,0.004053798772394945,0.0031520356863871924,0.0031203577809446716,0.004768207687888077,0.006141490777950812,0.004693763685945574,0.004166862946491487
0.005147235604394589,0.003987395290939156,0.0031715562047366355,0.00307883810899125,0.004735292189102902,0.006165106147091035,0.004670710491141978,0.0041215345862668186
0.0051431955359813476,0.003930268143180536,0.003179384753271978,0.0030300190716457433,0.004688286302227864,0.006173935981727681,0.004642087287574568,0.004086669113144428
0.005148246165020478,0.003912088063355958,0.0031773948577262577,0.0030059009007744417,0.004667643150845964,0.006169045421363009,0.004624958341819318,0.004074918287882477
0.005151971203152484,0.0039166328227342425,0.0031764055503206838,0.003006372865243327,0.004677042603012729,0.006165604158280571,0.004622456926724108,0.004075018601734893
0.005148228476855965,0.0039043911675044674,0.003182889809788979,0.002999522698612397,0.00468285153022775,0.0061717668570525725,0.004622673030929971,0.004068425549589362
0.005141389616657939,0.0038613531120896397,0.0031926746704246316,0.002962363436099604,0.004660514518000059,0.006178709329662155,0.004615952235032411,0.004050184965415748
0.005139160739769792,0.003812516574222442,0.0031979917402817823,0.0029091682355575728,0.004623536605415599,0.006174504716752253,0.004605265774803307,0.004030233631473852
0.005142611860938312,0.0037879849529532028,0.0031973387304817936,0.002873918255614907,0.004601587319052581,0.006161787699442963,0.004598193903355835,0.00401875531724277
0.005146430526012195,0.0037867972040018043,0.0031956018341000735,0.002867556948185093,0.00460124716757539,0.006153975383930213,0.004596233547483122,0.004016080400545495
0.005147246706089222,0.003784676680914292,0.0031957458074270252,0.0028647237540658926,0.00460221983292448,0.006154273355198997,0.004596954662692785,0.004016898252828178
0.005147425530378573,0.0037690909811884184,0.003194421535506263,0.002837697956795475,0.004588867411102729,0.006147585172677201,0.004601065496936419,0.00401837514346202
0.005150163258943499,0.003751213390043603,0.0031878447796239366,0.0027909593424236337,0.004569267033969304,0.006120222878537738,0.004609963669531162,0.00402057200770182
0.005154589648665726,0.00374453388257307,0.0031791426769629764,0.0027541299062659678,0.004559273713480754,0.006082477950484914,0.004619189245078924,0.004022484965454367
0.005157756342754415,0.0037459066832500987,0.0031753480940497282,0.0027438024777569274,0.004559661552754516,0.0060599770448220595,0.004622465530819945,0.004022734020469783
0.005158601300277804,0.003745231680146511,0.003176549372763785,0.002743715392814981,0.0045591910804532836,0.006058450427251445,0.004621734134896352,0.004023499652326526
0.005157058225087845,0.0037436118080498154,0.00317273460898541,0.002728914431884043,0.004554110166496012,0.006048657185464279,0.004624899018995583,0.004028924150489449
0.005151600043687838,0.003749886371618152,0.003155489347217898,0.0026980227244884592,0.004552242796044167,0.005999444574165257,0.004632083911547972,0.004038139463062014
0.005141948365535885,0.0037630661146281297,0.003130839972546703,0.0026719358628564294,0.0045578959126035086,0.0059215550123502955,0.004633293397560746,0.00404412744900934
0.005133077759131338,0.0037711537217597056,0.0031149493237239215,0.0026642532633310697,0.004563802466026834,0.005863001894228369,0.004624323400072392,0.004042785378673762
0.005130512407310714,0.0037695689954890684,0.003114340230985423,0.0026642695957906914,0.004563075731527769,0.005850259191559611,0.0046155672964161955,0.004040011886207352
0.005129862829166788,0.0037700098554949812,0.0031151918119996006,0.0026545118587599902,0.0045613490828617055,0.005846603569710011,0.004615557492059381,0.004044605618297151
0.005117556607133807,0.0037844238747480143,0.0030985080637373633,0.0026353077237825507,0.004569230104815552,0.005791638765606031,0.004612697382327392,0.004054768954550376
0.005087712626415854,0.003806768813356678,0.003063997682443009,0.0026226752310354656,0.004585932500099838,0.0056779949567741465,0.004588277985649883,0.004058225066301576
0.005054337731938993,0.0038201239648210576,0.0030326717330542144,0.002624469401077079,0.004598946055459244,0.00556916895155291,0.004546698874973417,0.004048461529133786
0.0050377585204466925,0.0038192613896590945,0.003022271848155888,0.0026286657749152965,0.004600637755306698,0.005526420877298459,0.004516264082846606,0.004035304800777802
0.005037545883689263,0.003817127931652002,0.003024494521723704,0.0026197647717671846,0.004598173563892926,0.005526496489909955,0.004511104622882546,0.004033375669675542
0.005029248092885257,0.0038274176030855017,0.0030150128169743897,0.0025996255259383354,0.004603777850682986,0.005485765867041775,0.004506540589105618,0.004042142949901358
0.004994453844390432,0.003847472774366999,0.0029840788532244688,0.0025854015637534183,0.004619402750150768,0.005364486605453114,0.004469748803632967,0.004045695660031938
0.004946485053212721,0.003863467434285331,0.002948625814097892,0.0025878158379136424,0.004635701510082861,0.005219279736001227,0.004406424854892202,0.004033896910067451
