9.603150,10.164779,11.162055,11.465751,10.025203,13.690714,9.621376,0.000000,10.657707,10.769819,9.552972,9.932249,12.032250,10.451425,0.000000,0.000000,66.124002,-681.248016,-725.899993,5740.000000,2170.000000,-70.000000
9.578242,10.171235,11.189736,11.618198,10.089910,13.730048,9.665243,0.000000,10.677179,10.779535,9.546375,9.932866,12.071632,10.460894,0.000000,0.000000,66.124000,-681.247986,-725.412018,5600.000000,2240.000000,70.000000
9.592670,10.173360,11.209190,11.681063,10.064335,13.770910,9.656299,0.000000,10.671393,10.787876,9.579297,9.924250,12.058980,10.431166,0.000000,0.000000,64.660000,-679.540008,-722.484009,5460.000000,2100.000000,0.000000
9.475437,10.120309,11.150202,11.712829,9.995150,13.670578,9.580980,0.000000,10.614774,10.715613,9.544103,9.768970,11.960076,10.272791,0.000000,0.000000,64.416003,-681.980011,-724.192017,5040.000000,1750.000000,-140.000000
9.339206,10.016970,11.013810,11.676215,9.931924,13.617095,9.504563,0.000000,10.515956,10.574504,9.444926,9.588163,11.831910,10.068395,0.000000,0.000000,66.368000,-681.736023,-726.876007,5040.000000,1750.000000,70.000000
8.993020,9.618193,10.598951,11.419597,9.622036,13.270938,9.255506,0.000000,10.152492,10.183590,9.077936,9.161433,11.452078,9.669260,0.000000,0.000000,65.392000,-679.783997,-731.756011,5110.000000,2170.000000,70.000000
8.390584,8.996955,10.017955,10.979134,9.122452,12.794858,8.811547,0.000000,9.716705,9.649875,8.553463,8.639111,10.986522,9.219550,0.000000,0.000000,67.831998,-681.735993,-728.828003,5390.000000,2450.000000,140.000000
7.626496,8.311600,9.421734,10.473757,8.500271,12.332617,8.229372,0.000000,9.314391,9.052948,7.974314,8.058449,10.595439,8.846968,0.000000,0.000000,66.368000,-681.980011,-729.316010,5600.000000,2450.000000,210.000000
7.447185,8.184892,9.329699,10.466509,8.341820,12.096217,8.039913,0.000000,9.252921,8.965432,7.855665,8.041286,10.548527,8.835236,0.000000,0.000000,66.612002,-681.980011,-725.656006,5880.000000,2450.000000,140.000000
7.483289,8.201538,9.370364,10.636882,8.385692,12.028965,8.068709,0.000000,9.331800,9.063339,7.914460,8.247089,10.742962,8.999729,0.000000,0.000000,67.100000,-681.492005,-727.364014,6090.000000,2660.000000,280.000000
7.471063,8.170487,9.349309,10.665454,8.396071,12.049710,8.100128,0.000000,9.328122,9.073284,7.915786,8.287666,10.804197,9.051236,0.000000,0.000000,68.076002,-681.736023,-725.412018,5880.000000,2520.000000,350.000000
7.372477,8.073651,9.253665,10.748480,8.221265,12.013483,8.111878,0.000000,9.305854,8.974614,7.784469,8.164383,10.758150,8.936196,0.000000,0.000000,68.320002,-681.980011,-726.388001,6020.000000,2450.000000,420.000000
7.251004,8.012011,9.194789,10.824028,8.088178,11.967851,8.082377,0.000000,9.264458,8.877267,7.628862,8.045134,10.701671,8.822730,0.000000,0.000000,66.856003,-682.467987,-723.460022,5950.000000,2380.000000,280.000000
7.088731,7.920149,9.153007,10.787862,7.897727,11.645635,8.002654,0.000000,9.351239,8.856120,7.487018,7.954912,10.859790,8.875264,0.000000,0.000000,66.611999,-682.712006,-725.900024,5950.000000,2520.000000,420.000000
6.908983,7.779465,9.024524,10.757750,7.625473,10.879478,7.813721,0.000000,9.269999,8.694355,7.259872,7.790021,10.746832,8.762618,0.000000,0.000000,65.879999,-683.932007,-725.167999,6020.000000,2240.000000,350.000000
6.659194,7.658228,8.898383,10.657910,7.209472,10.044524,7.433001,0.000000,9.209058,8.540178,6.959804,7.480561,10.650133,8.609446,0.000000,0.000000,67.100000,-685.152008,-727.364014,5740.000000,2170.000000,350.000000
6.358901,7.287075,8.512372,10.312431,6.657719,9.666566,6.918823,0.000000,8.860276,8.195682,6.491900,7.019288,10.383208,8.315883,0.000000,0.000000,66.123998,-683.444000,-725.656005,5880.000000,2030.000000,490.000000
6.216135,7.126901,8.363553,10.153517,6.459745,9.618902,6.659418,0.000000,8.789913,8.098231,6.306054,6.756553,10.286517,8.166954,0.000000,0.000000,64.416003,-684.420014,-728.340027,5810.000000,1820.000000,280.000000
6.008190,6.901504,8.169834,10.005709,6.381826,9.722908,6.481842,0.000000,8.537723,7.857285,6.139408,6.531153,10.015753,7.914109,0.000000,0.000000,65.636001,-686.128021,-726.876007,5950.000000,1470.000000,420.000000
5.800194,6.695669,8.051867,9.990920,6.406447,9.880875,6.422359,0.000000,8.275547,7.603855,5.994987,6.379828,9.743178,7.660022,0.000000,0.000000,65.635999,-687.104004,-726.388031,6020.000000,1400.000000,490.000000
5.759249,6.677913,8.087748,9.936239,6.400543,9.969927,6.392242,0.000000,8.331383,7.651244,6.003046,6.472950,9.650274,7.557686,0.000000,0.000000,66.612002,-685.640015,-730.536010,6370.000000,1400.000000,560.000000
5.638007,6.547740,7.938080,9.759334,6.329678,9.904419,6.393902,0.000000,8.209701,7.495354,5.901542,6.431252,9.524247,7.420160,0.000000,0.000000,68.808000,-685.884033,-731.756012,6720.000000,1330.000000,630.000000
5.673665,6.562998,7.941610,9.754248,6.437526,9.929876,6.495439,0.000000,8.183547,7.427148,5.865572,6.368921,9.517356,7.357682,0.000000,0.000000,66.368002,-684.664002,-729.559998,7140.000000,1120.000000,840.000000
5.696178,6.594026,8.013054,9.785415,6.598326,10.202229,6.646212,0.000000,8.250656,7.498127,5.909347,6.350736,9.631245,7.428097,0.000000,0.000000,64.904001,-685.884003,-729.559998,7560.000000,1050.000000,1050.000000
5.750170,6.690458,8.136327,9.783998,6.770007,10.737018,6.927330,0.000000,8.299217,7.573041,5.957141,6.318444,10.126613,7.702255,0.000000,0.000000,66.856001,-684.420013,-732.975983,7910.000000,980.000000,1190.000000
5.717402,6.577809,7.998067,9.810002,6.766851,11.673549,7.201593,0.000000,8.482743,7.530773,5.875393,6.121930,10.800652,7.983694,0.000000,0.000000,68.076002,-685.640015,-730.048005,8540.000000,980.000000,1400.000000
5.659480,6.515113,7.895826,9.632147,6.650257,12.928365,7.210594,0.000000,8.468744,7.503573,5.826704,6.043534,10.772820,7.895482,0.000000,0.000000,65.391998,-684.664002,-731.268006,8960.000000,1050.000000,1610.000000
5.551113,6.406374,7.795530,9.485215,6.542000,13.770245,7.206037,0.000000,8.455685,7.409964,5.719557,5.925201,10.828981,7.819076,0.000000,0.000000,68.319999,-687.592011,-729.071991,9240.000000,1330.000000,1820.000000
5.467818,6.304846,7.617885,9.308714,6.510320,14.133964,7.178170,0.000000,8.403345,7.298307,5.585471,5.803478,10.778332,7.683905,0.000000,0.000000,68.807998,-688.079986,-736.636017,10290.000000,1680.000000,2030.000000
5.399604,6.225143,7.404486,9.107459,6.510337,14.129798,7.190332,0.000000,8.244574,7.061746,5.423711,5.743327,10.766430,7.716877,0.000000,0.000000,68.320001,-690.276032,-732.976014,11410.000000,2590.000000,2450.000000
5.346101,6.125427,7.321885,9.202300,6.489214,14.629891,7.171586,0.000000,8.463116,6.971569,5.320693,5.658771,11.575601,8.364976,0.000000,0.000000,68.320001,-688.080017,-731.755981,12810.000000,3080.000000,2800.000000
5.328803,6.132896,7.301179,9.278602,6.596398,15.759527,7.338786,0.000000,8.872530,7.043304,5.362135,5.643718,12.730694,9.061805,0.000000,0.000000,69.540003,-685.640015,-732.732025,13580.000000,3500.000000,2940.000000
5.373326,6.230477,7.405968,9.455285,6.906328,17.106560,7.798840,0.000000,9.473497,7.295101,5.610872,5.669772,13.536160,9.506886,0.000000,0.000000,69.540001,-686.859985,-729.316010,14280.000000,3710.000000,3220.000000
5.449455,6.386438,7.454100,9.504243,7.373342,18.419068,8.500756,0.000000,9.514429,7.323903,5.700464,5.795293,13.561720,9.502849,0.000000,0.000000,68.319999,-687.592011,-729.804016,14980.000000,3780.000000,3360.000000
5.507768,6.494343,7.563060,9.778048,7.522166,19.610385,8.886427,0.000000,9.732082,7.526018,5.761975,5.997419,13.968466,9.979219,0.000000,0.000000,70.516001,-684.664002,-731.268006,15050.000000,3640.000000,3500.000000
5.551690,6.446004,7.565990,9.816641,7.571125,20.365197,9.020119,0.000000,9.892876,7.598856,5.738621,6.049481,14.525204,10.632469,0.000000,0.000000,68.076000,-684.175995,-728.339996,15330.000000,3710.000000,3570.000000
5.528736,6.466698,7.764251,9.935491,7.583584,20.477590,9.095347,0.000000,10.055496,7.612373,5.766626,6.039074,14.796608,10.974787,0.000000,0.000000,68.563999,-683.932006,-729.316009,15330.000000,3640.000000,3570.000000
5.529188,6.508576,8.121408,10.053697,7.608900,20.473202,9.130365,0.000000,10.207682,7.640175,5.780060,6.049460,14.924132,11.136581,0.000000,0.000000,69.296001,-685.395996,-732.243988,15260.000000,3500.000000,3570.000000
5.426646,6.473659,8.304345,10.053490,7.667908,20.545060,9.071394,0.000000,10.311116,7.591108,5.779994,5.985384,15.044317,11.171869,0.000000,0.000000,68.808001,-686.616028,-733.708008,15330.000000,3290.000000,3640.000000
5.278542,6.383899,8.138032,9.947300,7.632500,20.689756,9.005851,0.000000,10.364997,7.622248,5.924854,5.935509,15.194823,11.345770,0.000000,0.000000,68.564003,-687.592011,-737.123992,15890.000000,3360.000000,3640.000000
5.044804,6.268899,7.934165,9.867923,7.676194,20.671807,8.987356,0.000000,10.356603,7.705332,6.194028,5.816851,15.274999,11.557651,0.000000,0.000000,69.540000,-689.544007,-736.148010,16870.000000,3570.000000,3570.000000
4.870152,6.153801,7.841649,10.008320,7.730495,20.644800,8.961835,0.000000,10.352838,7.739037,6.276287,5.681436,15.355035,11.750365,0.000000,0.000000,70.515998,-687.592011,-739.320038,17710.000000,3780.000000,3640.000000
4.964416,6.378849,8.229387,10.325409,7.865210,20.716017,9.133069,0.000000,10.626137,8.039410,6.446278,5.736111,15.705766,12.172576,0.000000,0.000000,71.736000,-688.812011,-738.100006,18970.000000,3710.000000,3710.000000
4.915729,6.431515,8.313102,10.345717,7.795305,20.849898,9.110969,0.000000,10.636175,8.047675,6.484304,5.706110,15.740076,12.197368,0.000000,0.000000,72.712002,-688.568023,-741.028015,20090.000000,4060.000000,3640.000000
4.831726,6.555375,8.330059,10.354749,7.777230,21.134909,8.998468,0.000000,10.635593,8.127420,6.591382,5.759198,15.720362,12.143895,0.000000,0.000000,71.492000,-688.812012,-740.540008,21280.000000,4410.000000,3780.000000
4.696195,6.587716,8.312279,10.353623,7.639985,21.326478,8.829325,0.000000,10.612763,8.115748,6.528079,5.594121,15.658313,12.103638,0.000000,0.000000,72.468002,-690.276032,-743.712006,22120.000000,4620.000000,3710.000000
4.644434,6.586457,8.441459,10.453102,7.682734,21.541640,8.838328,0.000000,10.706958,8.169543,6.458887,5.519300,15.695859,12.145921,0.000000,0.000000,71.979999,-692.228027,-741.027985,23170.000000,4620.000000,3710.000000
4.621922,6.640265,8.493247,10.499018,7.806212,21.799665,8.996005,0.000000,10.729869,8.176164,6.489461,5.474142,15.702613,12.183361,0.000000,0.000000,73.444001,-690.764007,-741.516022,24220.000000,4620.000000,3850.000000
4.616503,7.000576,8.544354,10.473688,7.836759,21.895363,9.053153,0.000000,10.850689,8.333654,6.731200,5.518279,15.929175,12.372959,0.000000,0.000000,73.688000,-690.032013,-740.540008,24710.000000,4690.000000,3920.000000
4.589210,7.389383,8.647225,10.493300,7.869707,21.918975,8.999910,0.000000,11.070798,8.555828,7.014881,5.577688,16.054798,12.573893,0.000000,0.000000,73.444000,-690.276001,-742.003997,25270.000000,4690.000000,3920.000000
4.659837,7.796234,8.730692,10.347221,7.943093,22.041757,8.986813,0.000000,11.206416,8.635575,7.135527,5.609736,16.083703,12.580812,0.000000,0.000000,75.152000,-690.032013,-741.028015,26040.000000,4690.000000,4200.000000
4.627859,7.824200,8.714283,10.199159,8.181548,22.270611,8.915628,0.000000,11.215003,8.634591,7.204471,5.609707,16.083923,12.605982,0.000000,0.000000,75.152000,-691.740020,-740.783997,27020.000000,4830.000000,4200.000000
4.591909,7.831995,8.727181,10.245113,8.463845,22.543305,8.910867,0.000000,11.377452,8.637769,7.188030,5.576399,16.237854,12.698488,0.000000,0.000000,75.152000,-691.007995,-739.564026,28840.000000,5180.000000,4270.000000
4.536221,7.780276,8.735479,10.194173,8.675960,22.660521,8.875208,0.000000,11.439101,8.585412,7.101887,5.593006,16.282988,12.730907,0.000000,0.000000,75.151998,-689.300018,-739.076020,30310.000000,5180.000000,4340.000000
4.511496,7.827084,9.007971,10.430146,8.831644,22.642270,8.843748,0.000000,11.610196,8.649799,7.151221,5.629747,16.461798,12.834611,0.000000,0.000000,73.200001,-690.031982,-735.904022,31220.000000,4620.000000,4620.000000
4.497931,7.817578,9.084180,10.527438,8.797387,22.586014,8.640431,0.000000,11.731591,8.607524,7.153987,5.803828,16.612353,12.872849,0.000000,0.000000,73.444000,-691.984009,-733.220001,32060.000000,5530.000000,4760.000000
4.494812,8.191946,9.371459,10.724629,8.834435,22.523060,8.618780,0.000000,11.973788,8.801803,7.330746,5.835199,16.777146,13.016483,0.000000,0.000000,72.468002,-692.716034,-732.243988,32830.000000,5740.000000,4760.000000
4.496180,8.574796,9.560590,10.894082,8.843734,22.585785,8.601119,0.000000,12.167118,9.022348,7.421702,5.871351,16.861050,13.108923,0.000000,0.000000,71.492000,-693.936004,-727.852020,33320.000000,5950.000000,4690.000000
4.548722,8.791918,9.571303,10.867415,8.983602,22.638366,8.769139,0.000000,12.166520,9.018798,7.473793,5.833802,16.843142,13.114495,0.000000,0.000000,71.004001,-696.864014,-730.048004,33530.000000,6300.000000,4480.000000
4.750170,9.009343,9.649512,10.802544,9.382195,22.660387,9.144880,0.000000,12.142676,8.948367,7.518916,5.767602,16.739094,12.959914,0.000000,0.000000,68.808000,-691.496002,-724.923980,33110.000000,6580.000000,4340.000000
4.782954,9.017747,9.770649,10.777311,9.804766,22.720734,9.260567,0.000000,12.218192,9.045924,7.620771,5.824210,16.787031,12.902100,0.000000,0.000000,67.587999,-693.447998,-723.459991,32620.000000,6160.000000,4340.000000
4.782302,9.008860,9.839066,10.911718,10.153616,22.912583,9.260984,0.000000,12.324899,9.129254,7.692387,5.937240,16.927758,12.932042,0.000000,0.000000,69.783998,-685.639984,-716.872009,31850.000000,5600.000000,4200.000000
4.770600,9.027068,10.022802,11.420726,10.679715,23.134869,9.259455,0.000000,12.582014,9.301436,7.821581,6.010418,17.113804,12.996579,0.000000,0.000000,66.855999,-680.028015,-716.872009,31290.000000,5180.000000,3780.000000
4.751578,9.043808,10.004035,11.587171,10.889726,23.137997,9.253527,0.000000,12.496969,9.232911,7.801225,6.188840,16.961685,12.861347,0.000000,0.000000,67.100002,-675.880005,-714.675995,30240.000000,5250.000000,3570.000000
4.831390,9.258041,10.332571,11.647020,10.952905,23.178514,9.248199,0.000000,12.632153,9.357657,7.827338,6.571280,17.018258,12.950475,0.000000,0.000000,65.636000,-674.660004,-712.480011,28700.000000,5250.000000,3220.000000
4.882048,9.255410,10.427287,11.574549,10.980390,23.242916,9.246303,0.000000,12.618922,9.352038,7.814649,6.730796,17.000246,12.991284,0.000000,0.000000,63.440000,-673.684021,-709.796020,26740.000000,5110.000000,2940.000000
4.910779,9.284900,10.783245,11.778401,10.996940,23.501069,9.230945,0.000000,12.982141,9.625825,7.856941,6.754940,17.426587,13.218864,0.000000,0.000000,62.464003,-671.488006,-709.063995,24570.000000,4760.000000,2800.000000
4.924485,9.293318,11.100623,12.159129,11.029569,23.822325,9.253037,0.000000,13.269987,9.787644,7.915222,6.815896,17.788147,13.405989,0.000000,0.000000,62.463999,-671.731994,-706.624023,21700.000000,4130.000000,2520.000000
4.959435,9.295491,11.438082,12.336014,11.029750,24.016038,9.300035,0.000000,13.475968,9.934938,8.169924,6.892890,17.945555,13.419775,0.000000,0.000000,61.976002,-666.852020,-705.404022,19180.000000,3290.000000,2170.000000
5.125511,9.386209,11.980821,12.505455,11.130230,24.214535,9.341659,0.000000,13.994138,10.366512,8.688090,7.038877,18.298430,13.620827,0.000000,0.000000,61.000000,-668.316010,-706.868011,15890.000000,2940.000000,1470.000000
5.249486,9.489661,12.273336,12.648638,11.266973,24.268873,9.432499,0.000000,14.410933,10.703124,9.033242,7.096714,18.626583,13.934170,0.000000,0.000000,59.535999,-669.292023,-705.160004,13090.000000,2520.000000,1050.000000
5.400070,9.581644,12.471351,12.848362,11.376551,24.194946,9.455484,0.000000,14.583719,10.797693,9.123556,7.140913,18.858679,14.107763,0.000000,0.000000,58.072002,-669.779999,-702.232025,9870.000000,2310.000000,560.000000
5.787384,9.772420,13.124470,13.492119,11.332409,24.296491,9.408349,0.000000,15.024017,11.156779,9.328483,7.425978,19.402311,14.496197,0.000000,0.000000,59.536001,-672.708008,-701.988037,6160.000000,1540.000000,-70.000000
5.895976,9.725835,13.232809,13.594018,11.223411,24.242484,9.284548,0.000000,15.086473,11.161099,9.302737,7.496916,19.501182,14.550353,0.000000,0.000000,60.756000,-675.880005,-702.963989,3500.000000,1610.000000,-630.000000
5.810894,9.607280,13.194419,13.644877,10.967507,24.083861,9.001872,0.000000,15.056347,11.118307,9.304592,7.476953,19.182548,14.436419,0.000000,0.000000,61.000002,-679.296020,-703.208008,770.000000,1610.000000,-1050.000000
6.002017,9.712958,13.540889,13.902399,10.995574,23.787657,8.695550,0.000000,15.004884,11.200810,9.347876,7.598061,18.732823,14.235841,0.000000,0.000000,59.048000,-683.200012,-703.208008,-630.000000,1330.000000,-1400.000000
6.210924,9.854062,13.895219,14.383538,11.089316,23.270490,8.634265,0.000000,15.248399,11.369267,9.449038,7.637389,18.828109,14.355447,0.000000,0.000000,62.952002,-685.152008,-703.696015,-2240.000000,1260.000000,-1400.000000
6.349044,10.019687,14.049270,14.503407,11.176386,22.861945,8.604114,0.000000,15.412870,11.525850,9.657102,7.681077,18.845716,14.469162,0.000000,0.000000,63.195999,-690.520019,-705.648011,-3990.000000,1470.000000,-1470.000000
6.324103,9.976411,13.979733,14.502789,11.212698,22.597028,8.643999,0.000000,15.339313,11.465562,9.661317,7.680426,18.821111,14.495159,0.000000,0.000000,63.684002,-690.764007,-709.796020,-5810.000000,1470.000000,-1610.000000
6.461296,9.976220,14.149105,14.735313,11.351927,22.670718,8.631227,0.000000,15.328029,11.489728,9.651644,7.684833,18.735035,14.383404,0.000000,0.000000,61.732000,-689.787994,-709.064026,-8260.000000,490.000000,-1960.000000
6.606641,9.974184,14.136939,14.678622,11.351158,22.352077,8.633629,0.000000,15.135205,11.416504,9.652816,7.731940,18.329977,14.049217,0.000000,0.000000,65.148000,-691.008026,-709.552002,-10430.000000,-910.000000,-2310.000000
6.753584,10.047367,14.480447,14.945204,11.287686,21.506498,8.513031,0.000000,15.278513,11.543000,9.767600,7.904028,17.865007,13.708443,0.000000,0.000000,63.928001,-694.179993,-709.064025,-11900.000000,-1050.000000,-2450.000000
6.813746,10.016644,14.660727,15.181849,11.081894,20.409495,8.212782,0.000000,15.342232,11.673846,9.851029,8.027352,17.424831,13.451433,0.000000,0.000000,65.635999,-698.328003,-708.576020,-12880.000000,-910.000000,-3010.000000
6.849626,10.002835,14.892177,15.563422,10.709011,19.079532,7.634475,0.000000,15.499269,11.934079,9.988609,8.121574,17.427925,13.481200,0.000000,0.000000,65.392000,-701.256012,-704.671997,-13650.000000,-910.000000,-3360.000000
7.049741,10.206410,15.158609,15.860882,10.608823,17.628962,7.358954,0.000000,15.650417,12.238043,10.127594,8.192535,17.203532,13.267588,0.000000,0.000000,64.904001,-702.231995,-706.380005,-15120.000000,-2380.000000,-3500.000000
7.009493,10.236845,15.241872,16.002673,10.607539,16.888420,7.447011,0.000000,15.584813,12.206149,10.149176,8.173080,16.688297,12.715203,0.000000,0.000000,65.148001,-702.964019,-708.088012,-16520.000000,-4200.000000,-3640.000000
7.228943,10.661533,16.025106,16.670868,10.762827,16.960720,7.356777,0.000000,16.255207,13.000641,10.692575,8.237535,16.537447,12.566012,0.000000,0.000000,67.587999,-704.916015,-705.648011,-17780.000000,-5880.000000,-3920.000000
7.463128,10.839572,16.121609,16.745489,11.196321,17.121625,7.348269,0.000000,16.387977,13.428213,10.990403,8.270950,16.496109,12.519960,0.000000,0.000000,66.856003,-706.135986,-703.696015,-17920.000000,-7350.000000,-4270.000000
7.485564,10.975008,16.277044,17.349199,11.412127,17.750469,7.773245,0.000000,17.023370,14.049302,11.299771,8.252062,16.786271,12.789852,0.000000,0.000000,67.588002,-703.208008,-701.743988,-17780.000000,-7980.000000,-4620.000000
7.595636,11.479618,17.210501,18.468032,11.390545,18.142904,7.953883,0.000000,18.601308,15.319997,11.840985,8.326161,17.772114,13.327370,0.000000,0.000000,68.564001,-706.136017,-695.399993,-17220.000000,-8260.000000,-5040.000000
7.633452,11.345554,17.113829,18.290236,11.306238,18.435544,7.825662,0.000000,18.764475,15.585361,11.905328,8.496309,18.142342,13.479807,0.000000,0.000000,69.296002,-709.308014,-697.596008,-17640.000000,-8120.000000,-5530.000000
7.645088,11.372316,17.149839,18.611150,11.321805,18.801959,7.841032,0.000000,18.874250,15.558601,11.895194,8.468416,18.075483,13.330599,0.000000,0.000000,66.612003,-709.552002,-697.839996,-18130.000000,-8050.000000,-6160.000000
7.638185,11.301853,16.995532,18.510238,11.205176,18.795844,7.661079,0.000000,18.823965,15.506511,11.938056,8.417057,17.793605,12.943716,0.000000,0.000000,66.855999,-711.260010,-703.451996,-19810.000000,-8120.000000,-6650.000000
7.653875,11.333033,17.079623,19.120869,11.223313,18.687876,7.606135,0.000000,19.340100,15.689435,11.916172,8.439562,18.446950,13.186293,0.000000,0.000000,66.368000,-706.136017,-703.696015,-21000.000000,-8820.000000,-7070.000000
7.640307,11.356554,17.144964,19.380103,11.168739,18.315190,7.601217,0.000000,19.697617,15.896397,11.882468,8.439638,18.894755,13.368422,0.000000,0.000000,66.856001,-704.184021,-707.355988,-21910.000000,-9240.000000,-7490.000000
7.655606,11.361320,17.154946,19.383752,11.239449,18.156180,7.598996,0.000000,19.700594,15.912683,11.890359,8.460235,18.919142,13.382569,0.000000,0.000000,69.052002,-704.916015,-709.064026,-22400.000000,-9730.000000,-7700.000000
7.679841,11.472332,17.612154,20.190491,11.239097,17.995121,7.772268,0.000000,20.522910,16.487438,12.065628,8.559683,19.076210,13.497747,0.000000,0.000000,71.736000,-699.792023,-711.260010,-21910.000000,-9730.000000,-7980.000000
7.691337,11.544687,17.895472,20.425612,11.257564,17.867274,7.653598,0.000000,20.870574,16.843145,12.249073,8.594391,19.202020,13.628271,0.000000,0.000000,72.955997,-697.351989,-711.503997,-20720.000000,-9520.000000,-7980.000000
7.737054,11.559385,18.300365,21.134388,11.441671,18.057180,7.590042,0.000000,21.234025,16.957297,12.193027,8.533505,19.336512,13.575272,0.000000,0.000000,74.176003,-697.351989,-708.820007,-19460.000000,-9310.000000,-7770.000000
7.803171,11.552785,18.729053,21.647687,11.597850,18.054968,7.578914,0.000000,21.864458,17.439725,12.265416,8.677933,19.847458,13.798428,0.000000,0.000000,73.200001,-691.740020,-707.355988,-18620.000000,-8750.000000,-7420.000000
7.775761,11.367601,18.808377,21.735962,11.666455,17.916370,7.586731,0.000000,22.015187,17.676930,12.305381,8.807057,20.060718,13.988349,0.000000,0.000000,71.248000,-687.348023,-704.428009,-18480.000000,-8330.000000,-7000.000000
7.776861,11.355876,18.857684,21.777117,11.534104,17.734929,7.591812,0.000000,22.010871,17.709821,12.305037,8.867720,20.085921,13.983918,0.000000,0.000000,71.736000,-689.055999,-706.868011,-19110.000000,-8820.000000,-6860.000000
7.767585,11.405353,19.004739,21.837126,11.389647,17.528556,7.624053,0.000000,22.040376,17.798251,12.350355,8.906912,20.145485,14.013686,0.000000,0.000000,71.492002,-687.104034,-700.279999,-19740.000000,-9590.000000,-6580.000000
7.860409,11.569727,19.286078,21.994066,11.293549,17.371763,7.650772,0.000000,22.361560,18.150075,12.551423,8.963987,20.471980,14.287571,0.000000,0.000000,75.152004,-689.544037,-702.232025,-20300.000000,-9870.000000,-6160.000000
7.936421,11.600704,19.247474,22.069155,11.224891,17.259382,7.626501,0.000000,22.638689,18.438975,12.674072,8.985338,20.713259,14.600009,0.000000,0.000000,74.908001,-688.568023,-701.500000,-20720.000000,-10010.000000,-6230.000000
7.933515,11.732639,19.530262,22.290429,11.281582,17.512862,7.665478,0.000000,22.904260,18.651917,12.733469,8.869869,20.934601,14.859818,0.000000,0.000000,71.248000,-691.984009,-700.036011,-20860.000000,-9520.000000,-6160.000000
8.051550,12.013135,20.294635,23.068103,11.347466,17.836391,7.675018,0.000000,23.699582,19.240486,12.990917,8.913264,21.278780,15.073659,0.000000,0.000000,72.224002,-693.691986,-699.304016,-21210.000000,-9520.000000,-5740.000000
8.063933,11.765332,20.253269,23.030617,11.351895,17.716993,7.723442,0.000000,23.780339,19.317248,13.008894,8.967600,21.584068,15.296019,0.000000,0.000000,72.223999,-694.667999,-696.131989,-21700.000000,-9660.000000,-5460.000000
8.030841,11.601463,20.280332,23.070921,11.232079,17.685270,7.545319,0.000000,23.922363,19.457643,13.073386,8.981233,22.010885,15.743681,0.000000,0.000000,72.467998,-702.232025,-700.280029,-22260.000000,-9870.000000,-5390.000000
7.843713,11.461389,20.318309,23.190608,10.843416,17.676410,7.071360,0.000000,24.165706,19.614386,13.112690,8.841083,22.382780,16.133356,0.000000,0.000000,74.176003,-703.208007,-705.404022,-22470.000000,-9730.000000,-5040.000000
7.824803,11.454932,20.315303,23.274750,10.590614,17.605474,6.900083,0.000000,24.560412,19.726274,13.068575,8.725967,22.899418,16.515484,0.000000,0.000000,72.468002,-709.308014,-698.083985,-22820.000000,-9800.000000,-4550.000000
7.905121,11.571766,20.381092,23.403707,10.597839,17.454905,6.958938,0.000000,24.508212,19.663944,13.057210,8.673233,22.939993,16.568227,0.000000,0.000000,73.200001,-703.940002,-703.208008,-22890.000000,-10080.000000,-4270.000000
7.901776,11.565190,20.448328,23.717669,10.136169,16.873295,7.009782,0.000000,24.821547,19.789933,13.101842,8.766318,23.526858,17.032665,0.000000,0.000000,67.832003,-695.888000,-699.059998,-22750.000000,-9450.000000,-3990.000000
7.922274,11.682001,20.715699,24.106794,10.015076,16.671406,7.048117,0.000000,25.733412,20.357251,13.420292,8.920669,25.023910,17.952921,0.000000,0.000000,68.564001,-703.696015,-694.180024,-22960.000000,-9940.000000,-3500.000000
7.877740,11.606762,20.754392,24.560656,10.209610,16.808514,7.211682,0.000000,25.824810,20.340617,13.411426,8.663175,25.036958,17.897424,0.000000,0.000000,65.392003,-697.596008,-693.936005,-22820.000000,-9870.000000,-3010.000000
7.877370,11.617899,20.877544,24.907587,10.194525,16.787997,7.261494,0.000000,26.154944,20.593090,13.563967,8.589998,25.353792,18.178893,0.000000,0.000000,65.880001,-700.279999,-695.644013,-23030.000000,-9520.000000,-2660.000000
7.869505,11.597172,20.737565,24.898464,10.398779,16.713654,7.531682,0.000000,26.363282,20.799768,13.645783,8.570191,25.983487,18.819486,0.000000,0.000000,61.244000,-698.083985,-698.571991,-23380.000000,-9100.000000,-2380.000000
7.894774,11.604191,20.584956,24.728683,10.646393,16.503348,7.770315,0.000000,26.385112,20.880884,13.712176,8.530600,26.166875,19.095990,0.000000,0.000000,63.927999,-692.472015,-712.480011,-23800.000000,-9660.000000,-2030.000000
7.874886,11.637693,20.490384,24.806219,10.588307,16.246967,7.723784,0.000000,26.420680,20.869131,13.587410,8.452854,26.114463,19.144672,0.000000,0.000000,44.408001,-717.115997,-664.900024,-23800.000000,-9660.000000,-1610.000000
7.861771,11.636779,20.259788,24.762973,10.451670,15.992378,7.720853,0.000000,26.248687,20.713928,13.325472,8.442426,26.189439,19.237835,0.000000,0.000000,55.388001,-704.671997,-703.451996,-24500.000000,-10780.000000,-1330.000000
7.938272,11.891673,20.541103,25.287502,10.369835,16.064369,7.652072,0.000000,26.554265,20.924793,13.375424,8.539194,26.518449,19.385648,0.000000,0.000000,47.823999,-693.936005,-687.592011,-23940.000000,-9100.000000,-1680.000000
8.030250,12.125275,20.755001,25.549717,10.287623,16.106313,7.689199,0.000000,26.993648,21.299859,13.654016,8.843555,26.862988,19.597266,0.000000,0.000000,50.264000,-699.059998,-689.544007,-26040.000000,-10850.000000,-1750.000000
7.817890,11.979593,20.398733,25.247442,10.311181,15.944915,7.767433,0.000000,26.764952,21.125910,13.533680,8.703445,26.588540,19.361939,0.000000,0.000000,48.555999,-688.812011,-695.156006,-27300.000000,-11970.000000,-2100.000000
7.764234,12.055337,20.500299,25.452172,10.303002,15.907198,7.814867,0.000000,26.803850,21.162968,13.545651,8.633164,26.453955,19.290451,0.000000,0.000000,33.672000,-713.700012,-659.044007,-28630.000000,-11970.000000,-2590.000000
7.732047,12.047394,20.474096,25.474711,10.396969,15.799733,7.941551,0.000000,27.060521,21.313864,13.605828,8.590576,26.765491,19.492499,0.000000,0.000000,56.852002,-696.864014,-738.100006,-30660.000000,-11830.000000,-3220.000000
7.606781,12.073139,20.426358,25.655909,10.356781,15.899415,7.937535,0.000000,27.109142,21.315613,13.679742,8.473632,26.861936,19.632304,0.000000,0.000000,55.144001,-700.524017,-739.076020,-28700.000000,-8820.000000,-3640.000000
7.529219,12.074621,20.415088,25.784417,10.520015,16.052622,8.164554,0.000000,27.178398,21.309785,13.682231,8.475217,27.004202,19.691437,0.000000,0.000000,55.388000,-677.343994,-756.399994,-26180.000000,-8540.000000,-3150.000000
7.407572,11.889386,20.300913,25.846939,10.566791,16.201494,8.333894,0.000000,27.078108,21.167719,13.500404,8.438833,26.964710,19.589987,0.000000,0.000000,41.236000,-676.124024,-682.223999,-24220.000000,-7420.000000,-3220.000000
7.467201,11.955124,20.395716,25.965010,10.698752,16.501173,8.522665,0.000000,27.123707,21.211952,13.505214,8.490084,26.946222,19.586543,0.000000,0.000000,42.944000,-676.856018,-670.756012,-27160.000000,-11690.000000,-3850.000000
7.487678,12.050335,20.310968,25.830444,10.579473,16.384544,8.531762,0.000000,27.135269,21.232795,13.570857,8.617929,27.062521,19.691347,0.000000,0.000000,39.284000,-701.011994,-670.756012,-32130.000000,-11970.000000,-4830.000000
7.406865,12.063633,20.300601,25.826698,10.565121,16.365882,8.638863,0.000000,27.189715,21.234922,13.577641,8.656599,27.140321,19.744579,0.000000,0.000000,49.532001,-686.372009,-706.868011,-34580.000000,-12040.000000,-6020.000000
7.338184,12.003097,20.157630,25.688715,10.559382,16.372172,8.775037,0.000000,27.119030,21.238106,13.505700,8.504096,27.055760,19.704061,0.000000,0.000000,56.852001,-676.123993,-764.208008,-36470.000000,-10220.000000,-7280.000000
7.230134,11.972700,19.988353,25.497409,10.587133,16.453734,8.981537,0.000000,26.906214,21.093440,13.405456,8.394509,26.987430,19.724405,0.000000,0.000000,45.140001,-705.648010,-718.580017,-33320.000000,-10290.000000,-6650.000000
7.161778,12.160786,20.190257,25.768603,10.698634,16.966880,9.026790,0.000000,27.214084,21.196076,13.521304,8.243707,27.427589,19.981342,0.000000,0.000000,43.431999,-672.220032,-694.912018,-32410.000000,-10640.000000,-7210.000000
7.017645,12.321216,20.474777,26.203186,10.771686,17.412838,8.965587,0.000000,27.430176,21.249716,13.660743,8.058982,27.548380,20.007786,0.000000,0.000000,45.872000,-702.231994,-698.084015,-35420.000000,-14840.000000,-7910.000000
7.083023,12.533845,20.702235,26.462741,10.803006,17.273848,8.852286,0.000000,27.807092,21.598696,13.952461,8.255389,28.125330,20.367989,0.000000,0.000000,42.456001,-691.007995,-695.156006,-35420.000000,-13860.000000,-8750.000000
6.875610,12.207667,20.112414,26.046319,10.654925,17.004544,8.822837,0.000000,27.491203,21.248054,13.607553,8.476539,28.417901,20.453295,0.000000,0.000000,51.240001,-696.376038,-714.432007,-36890.000000,-15680.000000,-9730.000000
6.684518,12.023950,19.891432,25.952648,10.302444,16.822179,8.794307,0.000000,27.433659,20.992506,13.384822,8.430345,28.596625,20.597639,0.000000,0.000000,50.020001,-690.764007,-738.588012,-36330.000000,-16240.000000,-10500.000000
7.355758,12.135673,19.910526,25.867735,10.079575,16.353584,8.426670,0.000000,27.199546,20.707983,13.246351,8.396186,28.365988,20.461607,0.000000,0.000000,52.215999,-700.036011,-727.119995,-35350.000000,-15680.000000,-11130.000000
7.594247,11.927890,19.275864,25.277368,10.092888,16.058746,8.297940,0.000000,26.229587,19.866238,12.700877,8.277406,28.044159,20.224282,0.000000,0.000000,52.948000,-694.911988,-725.899994,-32480.000000,-15890.000000,-11480.000000
7.483633,12.072678,19.328015,25.334370,9.992084,15.845772,8.284182,0.000000,26.178290,19.661462,12.588973,8.077310,27.906229,20.101603,0.000000,0.000000,52.948000,-690.276001,-730.048004,-31780.000000,-15540.000000,-11550.000000
7.646890,11.998830,19.283329,25.011039,9.890003,15.400027,8.205248,0.000000,26.253948,19.794561,12.651662,8.140557,28.266913,20.400504,0.000000,0.000000,56.852000,-693.447998,-725.656005,-31360.000000,-15680.000000,-11620.000000
7.761496,12.120159,19.526210,25.078120,9.956267,15.350363,8.287568,0.000000,26.269517,19.811002,12.637234,8.139734,28.239356,20.418107,0.000000,0.000000,60.511999,-692.960022,-718.335998,-30170.000000,-15820.000000,-11480.000000
7.782834,12.186698,19.452557,24.655095,10.096743,15.292539,8.323727,0.000000,25.949924,19.679792,12.617065,8.157752,27.979194,20.288054,0.000000,0.000000,64.171999,-695.644013,-727.851990,-29750.000000,-16170.000000,-11480.000000
7.757979,12.212137,19.440327,24.808969,10.149931,15.443863,8.356742,0.000000,25.732619,19.486988,12.575600,8.256345,27.851075,20.226879,0.000000,0.000000,63.927999,-696.132019,-731.024017,-28280.000000,-16100.000000,-11340.000000
7.854217,12.316174,19.524758,25.224307,10.339908,15.666600,8.332624,0.000000,25.756150,19.478453,12.591200,8.513864,27.846343,20.213404,0.000000,0.000000,62.708000,-694.180023,-736.148010,-26320.000000,-15400.000000,-11060.000000
7.943681,12.234863,19.041374,24.683247,10.287749,15.666874,8.212482,0.000000,25.091030,18.976072,12.419048,8.677247,27.765512,20.138163,0.000000,0.000000,66.856003,-689.787994,-735.415985,-23870.000000,-14560.000000,-10640.000000
7.969310,12.174036,18.661179,24.491000,10.136411,15.602762,8.189251,0.000000,24.890444,18.742585,12.264470,8.802236,27.980269,20.256011,0.000000,0.000000,63.927999,-685.152008,-732.000000,-21840.000000,-13090.000000,-10150.000000
7.971956,12.037342,18.505273,24.061680,10.021372,15.494791,8.175323,0.000000,24.603083,18.688257,12.251642,8.890356,28.041420,20.292927,0.000000,0.000000,63.196001,-686.859985,-720.532013,-20370.000000,-12250.000000,-9940.000000
7.875248,11.800489,18.171603,23.682357,9.898793,15.569691,8.149442,0.000000,24.006733,18.198299,12.010882,8.744084,27.738705,19.999790,0.000000,0.000000,66.612004,-683.688018,-729.316010,-19670.000000,-11480.000000,-9870.000000
7.832236,11.773432,18.059669,23.692557,9.747892,15.555735,8.104887,0.000000,23.993504,18.037495,12.037195,8.654880,27.765883,19.973708,0.000000,0.000000,63.196001,-684.664002,-717.604004,-18830.000000,-10080.000000,-9870.000000
7.852477,11.889467,18.023485,23.767893,9.782403,15.437101,8.094083,0.000000,24.129408,18.105273,12.156326,8.738767,27.788185,20.018349,0.000000,0.000000,67.588002,-694.424012,-720.044007,-18550.000000,-9940.000000,-9800.000000
7.879377,12.010961,18.102027,23.995547,9.813571,15.737647,8.177381,0.000000,24.023841,18.033088,12.094230,8.735592,27.770579,20.105577,0.000000,0.000000,63.439999,-700.524018,-712.480011,-17010.000000,-8680.000000,-9240.000000
7.820630,12.196843,18.223495,25.061290,9.918485,16.405297,8.302935,0.000000,24.006054,17.777721,11.951523,8.807584,27.544521,19.924563,0.000000,0.000000,64.903999,-719.067993,-691.007995,-15470.000000,-7980.000000,-8890.000000
7.812549,12.374982,18.410481,25.430838,10.043446,16.412450,8.389349,0.000000,24.593836,18.090517,11.972821,9.041325,28.246533,19.933466,0.000000,0.000000,77.104000,-724.436004,-739.808014,-13090.000000,-7140.000000,-8400.000000
7.930699,12.545219,18.365819,25.693393,10.343886,16.409452,8.360708,0.000000,24.334453,17.870905,11.958128,9.159242,28.082968,19.703351,0.000000,0.000000,78.080002,-739.320007,-747.127991,-6860.000000,-3010.000000,-7700.000000
8.166832,12.660996,18.029405,25.737240,10.705961,16.456171,8.488716,0.000000,23.943036,17.489404,12.060605,9.366729,27.941343,19.735481,0.000000,0.000000,85.400002,-663.436005,-764.940002,1470.000000,1680.000000,-6300.000000
8.155682,12.869304,18.090523,26.020022,10.719009,16.606198,8.551066,0.000000,23.944801,17.357602,12.100749,9.414882,27.733180,19.607109,0.000000,0.000000,62.464003,-665.388001,-732.000031,3010.000000,2870.000000,-5460.000000
8.151479,13.022525,18.057183,26.005351,10.721831,16.587874,8.740119,0.000000,23.808022,17.198953,12.002692,9.397096,27.534033,19.352798,0.000000,0.000000,79.299999,-781.532013,-737.124024,1470.000000,-2030.000000,-4480.000000
8.186061,13.058842,18.021992,26.008243,10.748192,16.689288,8.803937,0.000000,23.566153,17.014385,11.913666,9.468905,27.303984,19.160136,0.000000,0.000000,67.588002,-739.808014,-719.799988,18900.000000,8190.000000,-910.000000
8.173874,13.131604,18.015290,26.029214,10.684333,16.611983,8.787392,0.000000,23.136128,16.801444,11.921077,9.548387,26.882824,18.913272,0.000000,0.000000,65.636002,-656.115997,-729.316010,26250.000000,10500.000000,-350.000000
8.140135,13.239763,17.970217,25.934179,10.390248,16.255425,8.660358,0.000000,23.381378,16.962450,11.996437,9.662809,27.028580,19.064089,0.000000,0.000000,35.624001,-694.912018,-697.351989,20300.000000,3640.000000,-980.000000
8.169351,13.382397,17.876612,25.612667,10.455244,16.249242,8.616684,0.000000,23.273309,16.966608,12.188761,9.740338,27.227916,19.322835,0.000000,0.000000,75.883998,-740.296020,-758.596008,20510.000000,-3500.000000,2100.000000
8.148482,13.258857,17.557867,25.166352,10.421206,16.352116,8.593520,0.000000,22.268471,16.265190,11.900860,9.545729,26.004809,18.652022,0.000000,0.000000,72.956000,-670.024018,-778.116027,27860.000000,6720.000000,2310.000000
8.130313,13.162478,17.354097,24.693575,10.411375,16.284084,8.527433,0.000000,22.083326,16.218987,11.927475,9.616863,25.959642,18.624061,0.000000,0.000000,98.332000,-788.364014,-833.992005,34370.000000,11480.000000,2240.000000
8.080766,13.153147,17.160224,24.410705,10.770335,16.281137,8.756291,0.000000,21.933635,16.076757,11.781308,9.583537,25.945138,18.595662,0.000000,0.000000,77.104000,-588.040008,-805.444031,58800.000000,20720.000000,6370.000000
8.120855,13.274831,17.233176,24.406450,10.884347,16.108450,8.663742,0.000000,21.521816,15.724315,11.737739,9.586095,25.158341,17.851754,0.000000,0.000000,54.412001,-593.895996,-741.028015,49770.000000,17010.000000,4060.000000
8.723340,13.596727,17.777206,24.853783,11.064829,16.211980,8.728502,0.000000,21.829091,16.011131,11.978971,9.818306,25.250139,17.742792,0.000000,0.000000,89.060001,-634.888001,-839.848023,38780.000000,3780.000000,2660.000000
9.432636,13.966273,18.197509,25.387335,11.334257,16.557414,8.879892,0.000000,22.280216,16.450295,12.460935,10.236314,25.526251,17.943595,0.000000,0.000000,82.960003,-654.407989,-805.688018,47250.000000,11690.000000,5390.000000
9.610453,14.149750,18.282845,25.463683,11.448703,16.621091,8.941985,0.000000,22.713614,16.850771,12.754727,10.523739,25.823065,18.115948,0.000000,0.000000,72.712001,-640.256011,-738.588012,55020.000000,14700.000000,5530.000000
9.451760,13.860017,17.691961,24.807871,11.385031,17.336765,8.942668,0.000000,22.469815,16.666517,12.601704,10.631591,26.149636,18.252376,0.000000,0.000000,80.275999,-657.092011,-732.000031,54460.000000,9170.000000,4060.000000
9.303868,13.617118,17.315532,24.558438,11.342208,18.437310,8.921863,0.000000,21.837512,16.100585,12.234009,10.361138,25.782356,17.933508,0.000000,0.000000,80.520001,-662.216003,-747.860016,51310.000000,4340.000000,2940.000000
9.294562,13.632808,17.316817,24.652135,11.359379,18.868799,8.841801,0.000000,21.775934,16.078950,12.272177,10.300893,25.545400,17.811204,0.000000,0.000000,83.203998,-645.623992,-767.380005,49700.000000,3850.000000,3010.000000
9.283517,13.574397,17.161509,24.471204,11.472941,18.824134,8.836732,0.000000,21.730179,16.066572,12.281086,10.294716,25.661045,17.870388,0.000000,0.000000,71.980004,-650.748016,-748.104003,48090.000000,1470.000000,2170.000000
9.369684,13.653984,17.211723,24.621126,11.551125,19.035723,8.841164,0.000000,21.428789,15.851490,12.317358,10.309478,25.325252,17.595224,0.000000,0.000000,70.760002,-685.884002,-737.612000,46830.000000,-420.000000,2240.000000
9.679842,13.738960,17.226319,24.689108,11.635908,19.332802,8.978987,0.000000,21.448158,15.916708,12.714451,10.396806,25.308402,17.650541,0.000000,0.000000,61.244000,-675.636017,-688.080017,48790.000000,-840.000000,2240.000000
10.250928,14.022392,17.463116,24.860243,11.569636,19.825355,9.139404,0.000000,21.897622,16.497263,13.623906,10.868012,25.814135,18.318209,0.000000,0.000000,63.440000,-674.904022,-710.040008,45570.000000,-1050.000000,560.000000
10.456810,14.147609,17.558399,24.869090,11.469935,20.101258,9.003409,0.000000,22.159345,16.841116,14.071506,11.083181,26.144171,18.746615,0.000000,0.000000,96.624000,-686.128021,-842.288025,44520.000000,-70.000000,-1190.000000
10.413206,14.072626,17.456027,24.693200,11.329660,20.282712,8.762905,0.000000,22.107382,16.811717,14.106220,11.033603,26.132312,18.731973,0.000000,0.000000,73.200001,-740.783997,-730.048004,54530.000000,4410.000000,350.000000
10.321768,14.000992,17.428085,24.713847,11.368336,20.745631,8.788338,0.000000,22.175915,16.820617,14.056698,10.945189,26.108167,18.681336,0.000000,0.000000,90.524002,-701.743988,-811.299987,61810.000000,4690.000000,1610.000000
10.352275,14.024729,17.446959,24.696750,11.536361,21.120212,8.972278,0.000000,22.153353,16.853219,14.043143,10.885675,26.030768,18.649544,0.000000,0.000000,108.335998,-737.123993,-906.704010,65800.000000,9730.000000,2100.000000
10.450458,14.086436,17.386770,24.668516,11.644170,21.231743,8.929296,0.000000,22.025309,16.741025,14.061345,10.930812,25.949675,18.620414,0.000000,0.000000,49.531999,-505.324005,-780.555999,74690.000000,23520.000000,5670.000000
10.484330,14.079573,17.394616,24.732423,11.776019,21.148671,8.823693,0.000000,22.059242,16.728157,14.087734,10.920361,25.908196,18.547103,0.000000,0.000000,111.751998,-675.148010,-877.424012,60830.000000,13580.000000,4410.000000
10.435355,13.878310,16.965358,24.315661,11.981072,20.930754,9.075625,0.000000,21.568060,16.398184,13.916687,10.930164,25.408365,18.233944,0.000000,0.000000,50.020000,-614.148010,-602.679993,79170.000000,18690.000000,11410.000000
10.396334,13.583574,16.353781,23.628181,11.917341,21.570059,9.063318,0.000000,21.135057,16.060623,13.831860,10.940334,25.234519,18.104675,0.000000,0.000000,89.792000,-635.131989,-718.824005,68460.000000,8330.000000,10010.000000
10.455495,13.435949,16.117394,23.312941,11.885970,23.096384,8.966516,0.000000,20.625793,15.667259,13.806471,10.855627,24.601836,17.790705,0.000000,0.000000,118.096001,-649.772003,-855.951996,63070.000000,4060.000000,9520.000000
10.524328,13.434736,16.274831,23.252825,11.903700,24.305628,9.127412,0.000000,20.498887,15.557764,13.876043,10.717037,24.245603,17.692118,0.000000,0.000000,67.344002,-651.968018,-745.907989,65240.000000,9450.000000,12180.000000
10.629191,13.473691,16.470523,23.284380,11.920728,24.791740,9.488404,0.000000,20.551381,15.672069,13.992191,10.814133,24.308468,17.675064,0.000000,0.000000,94.672001,-692.959992,-826.428009,60970.000000,8260.000000,14210.000000
10.304588,13.245189,16.208234,23.111661,12.024764,24.716384,9.651539,0.000000,20.343116,15.558577,13.961760,10.832288,24.365151,17.631138,0.000000,0.000000,76.616001,-733.951996,-753.716003,69650.000000,14560.000000,16940.000000
10.117745,13.075901,16.042958,23.180062,12.099416,24.674357,9.636240,0.000000,20.347355,15.571606,14.051949,10.879631,24.079898,17.462544,0.000000,0.000000,65.148001,-726.632019,-730.779999,82880.000000,19390.000000,19530.000000
10.291529,13.284984,16.310561,23.427486,12.328203,25.309550,9.882102,0.000000,20.353492,15.653064,13.985095,10.970527,24.022551,17.378218,0.000000,0.000000,30.988000,-635.620026,-649.528015,86240.000000,21000.000000,18760.000000
10.353342,13.502616,16.620608,23.498184,12.453978,26.555488,10.139232,0.000000,20.297895,15.633435,13.818075,11.019023,23.784504,17.021990,0.000000,0.000000,57.584000,-666.608002,-703.208008,72520.000000,11760.000000,14490.000000
10.300209,13.351644,16.336496,23.432571,12.409577,27.639413,10.164222,0.000000,20.259318,15.584073,13.787510,11.060296,23.974594,17.027615,0.000000,0.000000,62.220004,-677.587982,-716.384033,68180.000000,8260.000000,13090.000000
10.364234,13.331392,16.317385,23.481435,12.327255,28.365581,10.262711,0.000000,20.286815,15.693896,13.979383,11.117871,23.798913,16.968444,0.000000,0.000000,67.100000,-697.839996,-716.384003,64820.000000,9800.000000,11900.000000
10.497950,13.549490,16.371206,23.137011,12.371200,28.799582,10.535808,0.000000,20.689477,16.261104,14.347248,11.111114,23.979957,17.162242,0.000000,0.000000,58.804002,-721.507996,-669.048004,62790.000000,11550.000000,10430.000000
10.477893,13.800038,16.457667,22.657464,12.359666,29.148745,10.921823,0.000000,21.036558,16.793822,14.449547,11.108219,24.537880,17.436550,0.000000,0.000000,68.076002,-716.384003,-708.575989,63420.000000,10780.000000,10500.000000
10.414603,13.855986,16.478254,22.612936,12.410049,29.578600,10.945982,0.000000,20.989570,16.811253,14.468599,11.053946,24.554941,17.416236,0.000000,0.000000,57.096001,-705.160004,-682.223999,64540.000000,11690.000000,10360.000000
10.383333,13.842595,16.561530,22.548917,12.423895,29.631489,10.931462,0.000000,20.865568,16.741471,14.515176,10.916834,24.203540,17.161510,0.000000,0.000000,71.980003,-703.940002,-731.755981,61110.000000,9030.000000,10080.000000
10.471765,14.001666,16.679655,22.383348,12.336636,29.587124,11.060179,0.000000,21.365094,17.407210,14.808284,10.954594,24.512768,17.470747,0.000000,0.000000,55.388001,-681.248016,-671.243988,62370.000000,8750.000000,10080.000000
10.564048,14.069802,16.697736,22.333598,12.223762,29.942782,11.193161,0.000000,21.673133,17.859487,14.929957,11.022519,24.845342,17.766275,0.000000,0.000000,64.172002,-693.204010,-691.739990,56210.000000,4480.000000,9380.000000
10.571853,14.036519,16.702056,22.511911,12.300720,30.711130,11.331525,0.000000,21.476677,17.774552,14.824711,10.998255,24.687740,17.629173,0.000000,0.000000,64.416000,-684.664002,-684.907989,54950.000000,3850.000000,9730.000000
10.653427,14.111990,16.897116,22.573077,12.673443,31.328357,11.626486,0.000000,21.322248,17.692246,14.765170,10.917831,24.646363,17.562613,0.000000,0.000000,84.424000,-692.472015,-801.052002,51520.000000,1540.000000,8820.000000
10.776894,14.118567,17.039040,22.417063,12.785899,31.343130,11.630239,0.000000,21.522782,17.984151,14.909507,11.057029,24.644055,17.464633,0.000000,0.000000,65.880003,-736.148011,-701.012024,53340.000000,7420.000000,9520.000000
10.762765,13.830516,16.706976,21.057163,12.696912,30.926685,11.520610,0.000000,21.378166,18.200029,14.981916,10.979938,24.888903,17.578710,0.000000,0.000000,65.636001,-712.723999,-662.216003,58380.000000,4270.000000,10010.000000
10.713663,13.660303,16.343217,20.407204,12.587545,30.951544,11.503399,0.000000,20.311417,17.546273,14.960728,10.755725,23.788706,17.244502,0.000000,0.000000,81.495998,-730.780029,-723.459992,55720.000000,5250.000000,9100.000000
10.648887,13.597532,16.103455,19.970124,12.326940,31.009424,11.506512,0.000000,20.387434,17.619712,15.285480,10.848303,23.739139,17.429022,0.000000,0.000000,70.760002,-721.020019,-688.324005,62090.000000,6650.000000,9730.000000
10.461651,13.215738,15.515341,19.010964,12.080049,31.101107,11.474702,0.000000,19.826712,17.329756,15.040095,10.848009,23.500116,17.136305,0.000000,0.000000,61.487999,-683.932007,-674.416015,60760.000000,6860.000000,9450.000000
10.552288,13.112244,15.615856,18.651673,12.253655,31.346993,11.515833,0.000000,19.703535,17.388019,14.949678,10.848606,23.503456,17.006093,0.000000,0.000000,67.344002,-691.007995,-686.616027,56070.000000,5530.000000,8330.000000
10.582277,13.002673,15.762709,18.589592,12.389561,31.390503,11.546608,0.000000,19.708424,17.440154,14.979650,10.855208,23.464363,16.938613,0.000000,0.000000,67.343999,-712.724029,-667.584015,52220.000000,2660.000000,8400.000000
10.604621,13.103049,15.761811,18.502222,12.387168,31.331366,11.633211,0.000000,19.773656,17.457575,15.252177,10.821537,23.375047,16.995427,0.000000,0.000000,65.392000,-672.708008,-698.572022,53340.000000,2310.000000,8050.000000
10.681750,13.285969,15.772622,18.417051,12.444615,31.329673,11.897652,0.000000,19.846722,17.499312,15.398004,10.787246,23.293843,16.922849,0.000000,0.000000,46.848000,-701.743988,-651.480011,48580.000000,3150.000000,6580.000000
10.703650,13.431614,15.921582,18.226715,12.487756,31.336032,12.247699,0.000000,19.881602,17.575992,15.455713,10.760942,23.268016,16.798927,0.000000,0.000000,60.756000,-680.272003,-689.544006,43470.000000,-1050.000000,6090.000000
10.747635,13.501152,16.036667,18.021085,12.451824,31.365406,12.612736,0.000000,19.727958,17.492953,15.234515,10.701369,22.678956,16.103932,0.000000,0.000000,41.724001,-693.204010,-623.419983,40180.000000,1050.000000,5040.000000
10.764602,13.522821,16.055145,19.091401,12.443327,31.485368,12.663340,0.000000,19.736245,17.501485,15.324006,10.742619,22.564526,16.102440,0.000000,0.000000,71.492000,-718.824005,-696.376007,34440.000000,-1190.000000,3850.000000
10.827979,13.720844,16.216465,20.338591,12.456195,31.592070,12.653795,0.000000,19.876020,17.592267,15.572455,10.732199,22.575516,16.330880,0.000000,0.000000,93.208000,-710.040008,-740.296020,40880.000000,5180.000000,4480.000000
10.874738,13.751063,16.183545,20.372553,12.302291,31.627660,12.754814,0.000000,19.572957,17.452570,15.610063,10.869252,22.239000,16.067409,0.000000,0.000000,52.948002,-781.044007,-657.824005,47600.000000,9240.000000,5880.000000
10.842396,13.668442,16.102675,20.270824,12.106418,31.656496,13.052820,0.000000,19.521144,17.444266,15.590589,10.927773,22.137382,16.019330,0.000000,0.000000,99.552002,-762.256012,-772.503997,51660.000000,3430.000000,7770.000000
10.425173,13.623944,15.870736,19.796561,11.923640,31.537489,13.532451,0.000000,19.140338,17.226559,15.593161,10.790843,21.638896,15.820700,0.000000,0.000000,51.483999,-633.912018,-765.184021,57610.000000,14630.000000,8960.000000
9.809783,13.512666,15.837515,18.793862,11.852313,31.502007,13.960258,0.000000,18.980309,17.255121,15.352500,10.619406,21.769756,15.820833,0.000000,0.000000,62.463999,-636.839996,-787.144012,50190.000000,21420.000000,10150.000000
9.561443,13.539449,16.131824,18.719947,12.089060,31.868158,14.131086,0.000000,18.704469,17.231866,15.090988,10.382096,21.476681,15.575481,0.000000,0.000000,46.848001,-632.936036,-657.092011,51520.000000,23870.000000,11970.000000
9.561352,13.571249,16.250679,19.102476,12.517208,31.817347,14.275267,0.000000,18.264245,17.045778,14.981166,10.105714,20.595411,15.056418,0.000000,0.000000,37.088000,-646.356018,-589.260010,49420.000000,21980.000000,11060.000000
9.783899,13.724381,16.453577,19.664058,12.993978,31.503397,14.545318,0.000000,18.359573,17.155177,15.250773,10.159201,20.408033,15.076002,0.000000,0.000000,59.536000,-618.052001,-695.400024,35910.000000,13860.000000,7910.000000
9.935427,13.931364,16.849193,19.904247,13.237662,31.308565,14.890440,0.000000,18.757675,17.440282,15.369418,10.209785,20.706544,15.324125,0.000000,0.000000,63.927999,-652.700012,-714.187988,24500.000000,9450.000000,5950.000000
10.025102,14.090704,17.147617,19.809295,13.307231,31.402441,15.311682,0.000000,19.014671,17.690257,15.403760,10.233047,20.924716,15.424392,0.000000,0.000000,67.100002,-682.468017,-695.399993,18970.000000,3990.000000,6510.000000
10.011573,14.137891,17.465387,19.658553,13.285684,31.516735,15.426299,0.000000,19.155459,17.946728,15.321467,10.280244,21.064936,15.445045,0.000000,0.000000,66.611999,-699.304016,-713.212006,17290.000000,1120.000000,7560.000000
9.792919,14.068610,17.562402,19.639295,13.327354,31.629964,15.490846,0.000000,19.090579,18.084964,14.977526,10.461139,21.191248,15.238155,0.000000,0.000000,73.444000,-731.756012,-723.216003,19390.000000,3570.000000,8120.000000
9.203801,13.653027,17.170672,19.164230,13.357211,31.464372,15.446820,0.000000,18.223608,17.460008,14.115939,10.058761,20.420624,14.202501,0.000000,0.000000,56.364001,-709.308014,-714.188018,27230.000000,8540.000000,8960.000000
9.150559,13.615877,17.061877,19.074167,13.476649,31.417211,15.735273,0.000000,17.804053,17.155595,13.867963,9.927839,19.939893,13.646137,0.000000,0.000000,44.896000,-714.188019,-678.564026,28140.000000,10780.000000,8960.000000
9.485273,14.276051,17.603135,19.611446,13.643186,31.538665,15.978374,0.000000,18.535755,17.596476,14.442930,10.285952,20.421410,14.446113,0.000000,0.000000,44.408001,-710.772003,-646.355988,25760.000000,9660.000000,7770.000000
9.876482,15.095824,18.550106,19.853764,13.995127,31.377840,16.540544,0.000000,19.601426,18.543145,14.912106,10.817849,21.439974,15.398290,0.000000,0.000000,49.776001,-701.255981,-651.968018,22820.000000,8190.000000,5810.000000
9.979172,15.471977,19.167959,19.914282,13.996105,31.172693,16.701528,0.000000,20.384014,19.361904,15.133891,11.117145,22.388629,15.988275,0.000000,0.000000,64.172001,-701.500000,-680.760010,16870.000000,8890.000000,3780.000000
9.891534,15.518801,19.280442,20.073361,13.949140,31.284015,16.887189,0.000000,20.543295,19.651334,15.147690,11.179182,22.693471,16.111683,0.000000,0.000000,73.688001,-701.012024,-728.828003,11830.000000,10430.000000,1540.000000
9.919195,15.585775,19.288517,20.472702,13.798908,31.515433,16.832560,0.000000,20.671320,19.689328,15.556993,11.238876,22.794602,16.433394,0.000000,0.000000,79.544003,-711.260010,-745.175994,12390.000000,10920.000000,770.000000
10.118173,15.749863,19.380881,20.584861,13.579882,31.510554,16.689933,0.000000,20.904354,19.844241,15.985865,11.440598,22.974794,16.833243,0.000000,0.000000,74.664002,-761.524017,-713.212005,14350.000000,14350.000000,630.000000
10.238854,15.925846,19.586207,20.534488,13.639060,30.777575,16.838818,0.000000,21.068757,20.005086,15.974803,11.584085,23.094277,17.005701,0.000000,0.000000,63.684002,-710.528016,-686.860015,22960.000000,14700.000000,2100.000000
10.244597,16.076299,19.712891,20.453587,13.747840,29.537302,17.114986,0.000000,21.230754,20.158434,15.765708,11.612855,23.278107,17.036713,0.000000,0.000000,62.463999,-719.800018,-674.904022,21560.000000,13300.000000,1680.000000
10.302663,16.165457,19.682329,20.858739,14.041419,28.839932,17.185150,0.000000,21.107060,20.099935,15.804957,11.681112,23.170290,16.987064,0.000000,0.000000,65.880001,-697.839996,-691.496002,20090.000000,9030.000000,2100.000000
10.237718,16.179057,19.620497,21.182772,14.343706,28.655543,17.107787,0.000000,20.923461,19.931033,15.819100,11.712119,22.794899,16.827308,0.000000,0.000000,61.732003,-699.548004,-671.976013,17780.000000,7000.000000,2310.000000
10.249566,16.226089,19.628697,21.040828,14.476968,28.603430,17.193820,0.000000,21.018571,20.039170,15.888971,12.002594,22.898225,16.977187,0.000000,0.000000,74.908001,-713.456024,-698.328003,14980.000000,3500.000000,2520.000000
10.271776,16.190536,19.645048,20.754588,14.493175,28.522419,17.293431,0.000000,21.014159,20.086480,15.837120,12.038719,22.964004,16.998068,0.000000,0.000000,86.132003,-716.628021,-702.231994,14630.000000,2730.000000,2660.000000
10.155925,15.944398,19.377460,20.517838,14.315656,27.940550,17.139111,0.000000,20.814547,19.935438,15.830947,11.967565,22.814882,17.026734,0.000000,0.000000,82.960003,-726.632019,-700.523987,17850.000000,4830.000000,3430.000000
10.056943,15.818756,19.125504,20.425721,14.371973,26.916900,17.083588,0.000000,20.610275,19.789662,15.858294,11.924396,22.594989,17.019981,0.000000,0.000000,78.812000,-709.796020,-670.512023,20790.000000,5950.000000,4060.000000
10.247660,16.073252,19.558462,20.576630,14.921033,25.940974,17.453011,0.000000,20.742376,19.985999,15.871505,12.143840,22.579781,17.092947,0.000000,0.000000,79.056004,-693.692017,-648.796020,20160.000000,5180.000000,3780.000000
10.226697,16.020160,19.604703,20.543182,14.942662,25.112375,17.394725,0.000000,20.701074,19.948675,15.754007,12.127349,22.622855,17.161958,0.000000,0.000000,91.012001,-695.399994,-675.147980,16730.000000,3080.000000,3150.000000
10.124263,15.758316,19.497831,20.516991,14.864332,24.490701,17.206155,0.000000,20.214966,19.473440,15.489001,12.004329,22.212377,16.953158,0.000000,0.000000,97.111999,-688.812012,-695.888031,15190.000000,3010.000000,2870.000000
10.066151,15.457245,19.362655,20.541620,14.731905,23.943761,16.960304,0.000000,20.005520,19.126438,15.469811,11.843741,21.898627,16.969191,0.000000,0.000000,90.524002,-681.004028,-700.768006,11130.000000,2800.000000,1960.000000
10.053815,15.401267,19.356178,20.513801,14.691038,23.432961,16.961465,0.000000,20.104438,19.191378,15.509823,11.714885,22.027745,17.219838,0.000000,0.000000,89.792000,-686.615998,-692.716003,7350.000000,700.000000,1540.000000
10.048686,15.405998,19.333463,20.559462,14.702533,23.373409,16.982219,0.000000,20.148941,19.222902,15.498839,11.716730,22.159346,17.389437,0.000000,0.000000,85.888004,-696.131989,-690.764007,6650.000000,910.000000,1960.000000
9.959922,15.227768,18.991202,20.601458,14.724227,23.312247,16.891305,0.000000,19.524168,18.454387,15.230523,11.624294,21.423860,16.955514,0.000000,0.000000,79.544002,-706.623993,-666.852020,6860.000000,2730.000000,2800.000000
9.925642,15.204927,18.914808,20.659432,14.753945,22.815481,16.794258,0.000000,19.218826,17.988888,15.178037,11.631838,20.877360,16.727008,0.000000,0.000000,79.300003,-693.936005,-686.127991,7350.000000,2730.000000,3080.000000
9.975519,15.250744,18.996590,20.495369,14.747563,21.848635,16.714778,0.000000,19.248030,18.016205,15.175354,11.658098,20.861950,16.775553,0.000000,0.000000,71.736000,-706.380036,-664.900024,3570.000000,2030.000000,3220.000000
9.994071,15.218620,19.048497,20.428785,14.545169,20.962441,16.610926,0.000000,19.395271,18.184571,15.192236,11.711144,20.944135,16.914896,0.000000,0.000000,74.908001,-714.920013,-680.760010,2030.000000,420.000000,3990.000000
9.848177,15.077089,18.725356,20.248955,14.448308,20.461428,16.577196,0.000000,19.193216,17.902128,15.070902,11.525153,20.763187,16.850425,0.000000,0.000000,73.444005,-715.407989,-684.175995,1890.000000,1610.000000,4690.000000
9.818905,15.043433,18.517667,20.237416,14.436371,20.389371,16.579919,0.000000,19.021847,17.595135,14.958009,11.479269,20.435294,16.739030,0.000000,0.000000,73.444000,-723.947998,-679.540008,1260.000000,1820.000000,5180.000000
9.838740,15.000018,18.527878,20.226082,14.424429,20.282630,16.561296,0.000000,19.052196,17.565180,14.796735,11.473230,20.378041,16.805427,0.000000,0.000000,72.224003,-719.556000,-682.468017,2870.000000,2170.000000,6160.000000
9.799185,14.813378,18.463871,20.094081,14.368780,19.955569,16.572809,0.000000,18.954556,17.529378,14.393769,11.301562,20.416056,16.713302,0.000000,0.000000,69.784001,-714.675995,-671.732025,3290.000000,2730.000000,6440.000000
9.743254,14.680997,18.393980,20.060763,14.314403,19.548646,16.534988,0.000000,18.926057,17.503527,14.296016,11.117006,20.425719,16.727628,0.000000,0.000000,72.712001,-714.919983,-680.028015,1610.000000,1400.000000,6370.000000
9.690708,14.583683,18.208904,19.989980,14.183355,19.128796,16.499914,0.000000,18.830587,17.406056,14.325590,11.088928,20.331902,16.735409,0.000000,0.000000,73.931999,-720.776001,-681.003998,1190.000000,1400.000000,6720.000000
9.677935,14.564385,18.092803,20.030901,14.065810,19.063307,16.380778,0.000000,18.834469,17.348139,14.296698,11.049541,20.235223,16.665849,0.000000,0.000000,72.223999,-719.556000,-679.783997,1610.000000,1960.000000,6930.000000
9.670770,14.487772,18.179828,19.996804,14.061259,19.075608,16.293629,0.000000,18.805844,17.393845,13.929677,11.015188,20.262879,16.385795,0.000000,0.000000,68.808003,-715.164002,-681.492005,1260.000000,2310.000000,6790.000000
9.572762,14.225816,18.139342,19.941286,14.053990,19.091241,16.122564,0.000000,18.702021,17.371439,13.696373,10.970102,20.290628,16.302782,0.000000,0.000000,63.439999,-717.115997,-676.123993,0.000000,1890.000000,6790.000000
9.542579,13.907483,17.949040,19.959213,14.086720,19.134105,15.911014,0.000000,18.329967,17.108749,13.578093,10.923211,19.984455,16.167536,0.000000,0.000000,63.440001,-717.604004,-684.175995,-1260.000000,1260.000000,6720.000000
9.515512,13.714968,17.793138,19.913249,14.113867,19.077426,15.626159,0.000000,18.117612,16.970766,13.593980,10.905494,19.679718,16.067887,0.000000,0.000000,60.756003,-725.168029,-691.007995,-2100.000000,1820.000000,6370.000000
9.539643,13.736719,17.831094,18.926196,14.149667,18.771588,15.686486,0.000000,18.084058,16.961809,13.411740,10.875415,19.572844,15.755981,0.000000,0.000000,55.144001,-722.484009,-683.444001,-1680.000000,2170.000000,6160.000000
9.471519,13.549096,17.741187,17.634595,13.930739,18.382391,15.652084,0.000000,18.025796,16.923156,13.123358,10.817780,19.614207,15.543919,0.000000,0.000000,52.704000,-721.996003,-684.908020,-2800.000000,1540.000000,5460.000000
9.492439,13.496993,17.813469,17.647854,13.787625,18.279778,15.365045,0.000000,18.230363,17.058238,13.144005,10.690707,19.844664,15.622130,0.000000,0.000000,51.484001,-721.996002,-686.615998,-3220.000000,1050.000000,5250.000000
9.522992,13.468442,17.837583,17.776881,13.704374,18.246590,14.996476,0.000000,18.365403,17.117291,13.190084,10.591525,20.052501,15.767503,0.000000,0.000000,50.752001,-727.119995,-685.152008,-3780.000000,1680.000000,4760.000000
9.441025,13.201089,17.581451,17.667665,13.465712,18.137273,14.489712,0.000000,18.219821,16.976374,12.904641,10.524904,20.014069,15.668748,0.000000,0.000000,49.288002,-731.268036,-685.395997,-3360.000000,1680.000000,4200.000000
9.367469,12.876496,17.151832,17.558272,13.280845,17.794975,14.068717,0.000000,17.792554,16.582209,12.671331,10.392498,19.558548,15.442828,0.000000,0.000000,48.800001,-728.584015,-687.347992,-2870.000000,1750.000000,3710.000000
9.327430,12.575955,16.679658,17.384542,12.900569,17.139312,13.828578,0.000000,17.462864,16.145283,12.536871,10.245537,19.172157,15.270453,0.000000,0.000000,49.532001,-733.708038,-689.300018,-2520.000000,1680.000000,2800.000000
9.305790,12.519060,16.530294,16.993015,12.452574,16.684242,13.636889,0.000000,17.427924,16.011940,12.502852,10.157633,18.980028,15.211127,0.000000,0.000000,49.044000,-728.584015,-687.835998,-1470.000000,1820.000000,2310.000000
9.082921,12.362997,16.344184,16.307139,12.037005,16.365480,13.390630,0.000000,17.338943,15.954917,12.205485,10.103080,19.056131,15.158148,0.000000,0.000000,52.460001,-725.167999,-686.128021,-910.000000,1750.000000,1470.000000
8.921629,12.125357,15.942239,15.880816,11.748413,16.242736,13.098398,0.000000,16.934940,15.663806,11.962166,10.066453,18.742902,14.813414,0.000000,0.000000,51.240001,-723.216003,-689.056000,-560.000000,1400.000000,560.000000
8.808783,11.927007,15.582241,15.888449,11.538368,16.060852,12.545512,0.000000,16.659124,15.380461,11.879525,10.077441,18.447193,14.646378,0.000000,0.000000,53.436000,-724.680024,-694.179993,-140.000000,910.000000,-70.000000
8.733048,11.709231,15.090235,15.815971,11.365458,15.625566,12.243045,0.000000,16.438441,15.002698,11.816721,10.019533,18.315045,14.666341,0.000000,0.000000,51.728001,-718.092011,-691.007995,280.000000,770.000000,-700.000000
8.639558,11.589886,14.697626,15.192108,11.156067,14.736497,12.078374,0.000000,16.230770,14.585535,11.768743,9.790099,17.929055,14.603383,0.000000,0.000000,51.240000,-717.360016,-685.640015,560.000000,140.000000,-1190.000000
8.577174,11.603112,14.517388,14.644694,11.035638,13.988109,12.032758,0.000000,16.142579,14.418360,11.641564,9.693567,17.745833,14.591949,0.000000,0.000000,52.460001,-714.432006,-683.932007,-210.000000,-630.000000,-2030.000000
8.382311,11.463867,14.477037,14.348924,10.889256,13.390442,11.677327,0.000000,16.046895,14.304320,11.257338,9.610269,17.599529,14.370296,0.000000,0.000000,54.899999,-715.408020,-690.519989,-1330.000000,-1400.000000,-2800.000000
7.953096,10.651829,13.818205,13.587659,10.596520,12.539448,11.265306,0.000000,15.146519,13.717561,10.512814,9.227617,16.983788,13.558197,0.000000,0.000000,55.388001,-712.235993,-689.787994,-1680.000000,-1610.000000,-3570.000000
7.458628,9.590256,12.607151,13.439835,10.116150,12.302252,10.434425,0.000000,13.678790,12.419438,10.041332,8.655573,15.631017,12.592882,0.000000,0.000000,61.000000,-714.675995,-687.104004,-2030.000000,-1890.000000,-4200.000000
7.407003,9.316737,12.107782,14.067468,10.089436,12.422318,10.089247,0.000000,13.260764,11.691114,10.063345,8.416172,14.998348,12.367958,0.000000,0.000000,58.560001,-711.503997,-688.811981,-2310.000000,-2240.000000,-4620.000000
7.384148,9.231953,11.945498,13.849955,10.072555,11.976468,9.830787,0.000000,13.137610,11.366657,10.028531,8.309056,14.697986,12.331015,0.000000,0.000000,61.488001,-714.675995,-693.204010,-3080.000000,-2450.000000,-5110.000000
7.333986,9.162683,11.986826,13.352186,10.079256,11.383995,9.817150,0.000000,12.971773,11.361427,9.494676,8.229279,14.575214,12.026311,0.000000,0.000000,64.172003,-716.384002,-689.299988,-3500.000000,-2520.000000,-5320.000000
7.257286,8.993473,12.136759,13.471118,10.052940,11.001741,9.759306,0.000000,12.968978,11.383782,8.964841,8.034650,14.608731,11.726330,0.000000,0.000000,65.636001,-714.187989,-690.031982,-3850.000000,-2660.000000,-5600.000000
7.170859,8.750021,12.120306,13.852645,9.963156,11.000587,9.475879,0.000000,13.030340,11.314297,8.900649,7.883900,14.655634,11.627268,0.000000,0.000000,68.076000,-717.360016,-691.251984,-4200.000000,-2870.000000,-5740.000000
7.010812,8.379612,11.757652,13.870095,9.811685,10.938424,9.021778,0.000000,12.768829,11.011805,8.821662,7.738664,14.415998,11.442243,0.000000,0.000000,69.784000,-716.627991,-691.252014,-4480.000000,-2940.000000,-5740.000000
6.849379,8.130715,11.401192,13.150624,9.324355,9.996066,8.753857,0.000000,12.690768,10.896586,8.490344,7.549666,14.336151,11.299091,0.000000,0.000000,71.979999,-718.336029,-690.276001,-4620.000000,-2940.000000,-5390.000000
6.720343,8.017401,11.168405,12.383825,8.659542,9.217682,8.481349,0.000000,12.687690,10.927050,8.273963,7.358775,14.343050,11.229418,0.000000,0.000000,71.492001,-718.580017,-691.008026,-4690.000000,-2660.000000,-5250.000000
6.591377,7.965541,11.103273,12.433926,8.256026,9.241609,8.129625,0.000000,12.593950,10.782322,8.087960,6.900611,14.209863,11.201794,0.000000,0.000000,73.444000,-717.360016,-691.252014,-4690.000000,-2240.000000,-4760.000000
6.477253,7.888601,11.045592,12.468745,8.104154,9.196391,7.872060,0.000000,12.538381,10.656928,8.071575,6.726636,14.057662,11.164279,0.000000,0.000000,73.931999,-717.847992,-690.764007,-4620.000000,-1680.000000,-4340.000000
6.448076,7.856212,11.067633,12.420263,8.068106,8.955464,7.834430,0.000000,12.619980,10.765199,8.062099,6.724913,14.082406,11.112298,0.000000,0.000000,74.908001,-718.335998,-691.252014,-4550.000000,-1330.000000,-3990.000000
6.322968,7.671508,10.817055,12.368272,7.734079,8.663929,7.561039,0.000000,12.558911,10.714019,8.059000,6.606975,14.038132,11.082565,0.000000,0.000000,73.200001,-718.092011,-689.299988,-4690.000000,-630.000000,-3360.000000
5.941603,7.100043,9.961248,12.138025,6.669987,8.407776,6.514414,0.000000,12.197347,10.271997,7.951069,6.118803,13.702432,10.899384,0.000000,0.000000,73.931999,-719.800018,-691.984009,-4830.000000,-420.000000,-2800.000000
5.868601,7.120339,9.868672,12.118078,6.535577,8.420491,6.499524,0.000000,12.153498,10.188319,7.961097,6.065208,13.593787,10.755794,0.000000,0.000000,72.712002,-716.384003,-691.252014,-5110.000000,70.000000,-2240.000000
5.825087,7.168664,9.943201,12.083287,6.574682,8.486522,6.511297,0.000000,12.173709,10.209113,7.837778,6.143437,13.626960,10.685974,0.000000,0.000000,73.687999,-719.556000,-693.936004,-5040.000000,210.000000,-1750.000000
5.749839,7.108690,9.883588,11.996437,6.502068,8.497873,6.461294,0.000000,11.747494,9.893196,7.651588,5.978724,12.903957,10.191886,0.000000,0.000000,74.664002,-720.044007,-691.007995,-5040.000000,350.000000,-1400.000000
5.763542,7.120982,9.946301,12.039911,6.516513,8.605499,6.335307,0.000000,11.668572,9.778118,7.584869,5.954835,12.541211,9.826908,0.000000,0.000000,72.468003,-721.020019,-689.055999,-5110.000000,630.000000,-840.000000
5.888249,7.239574,10.150952,12.225309,6.531015,8.704364,6.251981,0.000000,11.764934,9.949524,7.644568,5.995865,12.426531,9.685201,0.000000,0.000000,72.467998,-721.019989,-690.276001,-5250.000000,630.000000,-420.000000
5.918589,7.301272,10.229406,12.314764,6.500517,8.667293,6.279593,0.000000,11.776607,10.123447,7.623410,5.988720,12.324752,9.704495,0.000000,0.000000,71.492001,-721.996002,-690.764007,-5110.000000,490.000000,-140.000000
5.827182,7.206880,10.120896,12.268631,6.415799,8.593223,6.227662,0.000000,11.648172,9.992223,7.462129,5.799745,12.231077,9.612719,0.000000,0.000000,70.027999,-718.580017,-693.936005,-4900.000000,700.000000,70.000000
5.736477,7.124186,10.073522,12.172450,6.273200,8.358626,6.143186,0.000000,11.692084,9.976883,7.526328,5.781574,12.245878,9.617450,0.000000,0.000000,71.248001,-720.288025,-691.008026,-5180.000000,770.000000,0.000000
5.539571,6.911190,9.852068,12.053923,6.036252,8.179286,5.964157,0.000000,11.565289,9.791126,7.489256,5.677399,12.126799,9.455788,0.000000,0.000000,71.248001,-721.264007,-692.716003,-5040.000000,490.000000,-140.000000
5.500962,6.885655,9.793411,12.055111,6.000186,8.225074,5.943116,0.000000,11.538967,9.730441,7.463028,5.620082,12.093882,9.379900,0.000000,0.000000,69.296000,-719.556000,-690.276032,-5180.000000,140.000000,-280.000000
5.499115,6.885974,9.784118,11.978724,6.035200,8.245866,5.939444,0.000000,11.572638,9.824213,7.464717,5.626727,12.143012,9.461899,0.000000,0.000000,72.956001,-716.140015,-697.839997,-5180.000000,-210.000000,-420.000000
5.462002,6.896944,9.748168,11.965573,6.042710,8.288103,5.917882,0.000000,11.553596,9.825875,7.459049,5.640776,12.104949,9.405644,0.000000,0.000000,68.320002,-716.872009,-693.936005,-4690.000000,-350.000000,-490.000000
5.468082,6.917455,9.764989,11.881637,6.076639,8.226478,5.878436,0.000000,11.563666,9.850909,7.381385,5.654122,12.090529,9.289647,0.000000,0.000000,69.784002,-717.116027,-691.984009,-5250.000000,-700.000000,-630.000000
5.397499,6.809540,9.688730,11.693208,5.838939,8.005280,5.736963,0.000000,11.463450,9.764660,7.213889,5.506910,11.980458,9.135067,0.000000,0.000000,67.343999,-714.432007,-691.496002,-4830.000000,-560.000000,-840.000000
5.423016,6.833200,9.795629,11.659188,5.800501,7.926516,5.632509,0.000000,11.544109,9.766763,7.243126,5.360809,12.043726,9.162697,0.000000,0.000000,68.076000,-714.675995,-689.300018,-4760.000000,-350.000000,-840.000000
5.462262,6.836238,9.809861,11.584608,5.847156,7.871408,5.635587,0.000000,11.581695,9.800758,7.290180,5.387594,12.088225,9.188670,0.000000,0.000000,65.636004,-714.188019,-690.032013,-4970.000000,-490.000000,-1190.000000
5.475141,6.784610,9.715513,11.490610,5.985765,7.938832,5.703475,0.000000,11.607296,9.802159,7.362517,5.444233,12.120638,9.278406,0.000000,0.000000,64.903999,-711.260010,-688.812012,-5460.000000,-700.000000,-1260.000000
5.507725,6.807003,9.748724,11.483486,5.937588,7.930147,5.553078,0.000000,11.605199,9.779731,7.352528,5.437659,12.086062,9.285281,0.000000,0.000000,67.100001,-708.576019,-688.812011,-6160.000000,-1190.000000,-1610.000000
5.418198,6.739485,9.674636,11.409216,5.749055,7.782036,5.232944,0.000000,11.577573,9.775212,7.274544,5.302264,12.071212,9.298545,0.000000,0.000000,65.635999,-708.332001,-689.056000,-6930.000000,-1540.000000,-2030.000000
5.350147,6.648343,9.576294,11.343793,5.569370,7.763633,4.943362,0.000000,11.519039,9.751856,7.220043,5.110411,12.059758,9.379270,0.000000,0.000000,64.172002,-709.063995,-688.812011,-7700.000000,-2030.000000,-2170.000000
5.287543,6.543860,9.458302,11.277492,5.337706,7.707004,4.619253,0.000000,11.478200,9.715531,7.184995,5.029431,12.051197,9.380114,0.000000,0.000000,66.612004,-708.332001,-685.640015,-8820.000000,-2520.000000,-2590.000000
5.283469,6.514833,9.330389,11.094001,5.339320,7.681359,4.631681,0.000000,11.355815,9.644376,7.199699,5.009701,11.998775,9.365432,0.000000,0.000000,69.540001,-708.332001,-691.739990,-9870.000000,-2870.000000,-3080.000000
5.168805,6.439484,9.182973,10.892502,5.412500,7.711131,4.665004,0.000000,11.048977,9.355535,7.072212,4.973006,11.659834,9.173091,0.000000,0.000000,66.856003,-711.503998,-686.372009,-10990.000000,-3640.000000,-3430.000000
5.099400,6.359168,9.081964,10.664929,5.347829,7.657267,4.548470,0.000000,10.776145,9.144824,6.915427,4.987007,11.264507,8.915587,0.000000,0.000000,67.100002,-711.503997,-688.812011,-11970.000000,-4480.000000,-3780.000000
5.101840,6.377342,9.057375,10.599267,5.333447,7.696494,4.520355,0.000000,10.712843,9.132947,6.860308,5.034485,11.130026,8.841936,0.000000,0.000000,68.563999,-711.992005,-687.348023,-12880.000000,-4970.000000,-4200.000000
5.143788,6.459530,9.031054,10.614347,5.410275,7.879498,4.542786,0.000000,10.616885,9.093520,6.876037,5.007147,11.036849,8.807979,0.000000,0.000000,69.540001,-712.968017,-688.567993,-13720.000000,-5110.000000,-4480.000000
5.141267,6.481779,9.039173,10.575847,5.464917,7.940484,4.604155,0.000000,10.579808,9.089584,6.870268,4.989560,10.982484,8.762281,0.000000,0.000000,68.807999,-712.723999,-687.347992,-14350.000000,-5390.000000,-4690.000000
5.108314,6.454103,9.045900,10.543366,5.481182,7.903298,4.655628,0.000000,10.562198,9.028101,6.864434,5.004276,10.913574,8.740205,0.000000,0.000000,69.784005,-712.968017,-687.104004,-14840.000000,-5390.000000,-4760.000000
5.097413,6.454372,9.041258,10.492365,5.463312,7.775730,4.646568,0.000000,10.486783,8.954596,6.867851,5.045586,10.676832,8.689715,0.000000,0.000000,70.516002,-711.992004,-688.080017,-15190.000000,-5040.000000,-4830.000000
5.094521,6.484966,9.095366,10.556083,5.497000,7.772497,4.520492,0.000000,10.592105,9.055957,6.976604,5.045247,10.835749,8.848756,0.000000,0.000000,70.760002,-711.992005,-689.056030,-15680.000000,-4970.000000,-4760.000000
5.132963,6.485295,9.040837,10.606701,5.515436,7.698587,4.510738,0.000000,10.561952,9.005498,7.019252,4.978478,10.769544,8.798183,0.000000,0.000000,69.784000,-711.748016,-684.420013,-16100.000000,-4760.000000,-4830.000000
5.248100,6.691582,9.162817,10.660729,5.529987,7.753580,4.503453,0.000000,10.679297,9.120493,7.115146,5.085946,10.711623,8.748154,0.000000,0.000000,67.832000,-707.356018,-685.152008,-16660.000000,-4410.000000,-4620.000000
5.233832,6.713438,9.168658,10.651882,5.536932,7.843715,4.456171,0.000000,10.688699,9.133504,7.129323,5.195925,10.705755,8.793250,0.000000,0.000000,70.760003,-709.552002,-683.688019,-17500.000000,-4270.000000,-4480.000000
5.282271,6.763937,9.308080,10.699155,5.531459,7.932603,4.250165,0.000000,10.819150,9.318509,7.304982,5.601068,10.851554,8.985398,0.000000,0.000000,69.052002,-708.332001,-684.420013,-18410.000000,-4480.000000,-4270.000000
5.259074,6.678821,9.329268,10.646575,5.463425,7.884102,4.168194,0.000000,10.837752,9.355543,7.341242,5.706284,10.872033,9.010448,0.000000,0.000000,69.052002,-707.844025,-683.200012,-19880.000000,-4410.000000,-4270.000000
5.251292,6.575838,9.249696,10.654242,5.445158,7.958518,4.166622,0.000000,10.812165,9.311480,7.341665,5.774539,10.898916,9.072463,0.000000,0.000000,70.760002,-708.332001,-683.444000,-21350.000000,-4760.000000,-4130.000000
5.254365,6.616899,9.234353,10.441503,5.428025,7.878154,4.181073,0.000000,10.754390,9.343917,7.310856,5.765494,10.741640,8.954479,0.000000,0.000000,67.587999,-709.308014,-686.860016,-22400.000000,-4900.000000,-4060.000000
5.141316,6.364392,8.815667,9.452044,5.212640,7.548751,4.099126,0.000000,10.003762,9.030554,7.024684,5.770227,9.948135,8.467174,0.000000,0.000000,66.855999,-709.063996,-685.396027,-23590.000000,-5320.000000,-3850.000000
5.092346,6.288158,8.754644,9.312849,5.163785,7.487739,3.972075,0.000000,9.913032,9.007611,6.910694,5.774621,9.872646,8.368700,0.000000,0.000000,67.344002,-709.796020,-686.127991,-24570.000000,-5390.000000,-3710.000000
5.041989,6.224155,8.715017,9.201270,5.241599,7.390760,4.044305,0.000000,9.803482,8.930496,6.783682,5.875563,9.814265,8.318452,0.000000,0.000000,67.832000,-713.455993,-687.592011,-25830.000000,-5530.000000,-3500.000000
4.699831,5.958040,8.255303,8.538770,5.300584,7.156757,4.106667,0.000000,9.233754,8.475816,6.408857,5.809630,9.390885,8.024770,0.000000,0.000000,66.611999,-715.164002,-690.032013,-26320.000000,-5250.000000,-3290.000000
4.445122,5.820725,7.868088,7.773359,5.485833,6.960995,4.197991,0.000000,8.631747,8.103305,6.194834,5.868700,8.964019,7.795014,0.000000,0.000000,66.124000,-713.944000,-690.276001,-26460.000000,-5320.000000,-3220.000000
4.437601,5.870233,7.984389,7.671062,5.690628,7.066637,4.156416,0.000000,8.577097,8.095741,6.213012,5.987252,8.885584,7.805155,0.000000,0.000000,67.343998,-718.092011,-690.520019,-26950.000000,-5250.000000,-3080.000000
4.393169,5.791987,7.895792,7.645156,5.681458,7.443319,4.081216,0.000000,8.492765,8.022688,6.151240,5.921393,8.857541,7.802578,0.000000,0.000000,70.028000,-718.092010,-691.252014,-26600.000000,-4900.000000,-3010.000000
4.541337,5.890945,7.884523,7.702889,5.706556,7.752719,4.236064,0.000000,8.470014,8.004004,6.153826,5.963856,8.845572,7.849320,0.000000,0.000000,67.344000,-716.872009,-690.276001,-26530.000000,-4830.000000,-2870.000000
4.560998,5.892987,7.914775,7.463349,5.700952,7.638021,4.392901,0.000000,8.344769,7.947841,6.121828,5.926234,8.596657,7.594172,0.000000,0.000000,66.855999,-715.164002,-689.055999,-26040.000000,-4340.000000,-2940.000000
4.623053,5.922244,7.964522,7.452350,5.745159,7.593026,4.502468,0.000000,8.360626,7.956618,6.112184,5.949129,8.604997,7.546782,0.000000,0.000000,67.344001,-714.920013,-689.299988,-25550.000000,-4130.000000,-2940.000000
4.642972,5.932709,7.921709,7.441460,5.828020,7.909208,4.544237,0.000000,8.267582,7.790109,6.003321,5.909548,8.515999,7.462075,0.000000,0.000000,64.660000,-711.260010,-691.984009,-25690.000000,-3920.000000,-2800.000000
4.599496,5.882945,7.887971,7.385180,5.886057,8.521209,4.554607,0.000000,8.267824,7.765303,5.937523,5.931779,8.517025,7.467521,0.000000,0.000000,66.612002,-709.552002,-691.984009,-25620.000000,-3850.000000,-2730.000000
4.546697,5.860210,7.871642,7.237833,5.878277,9.054815,4.570487,0.000000,8.376354,7.834036,5.880637,5.992147,8.591286,7.534891,0.000000,0.000000,65.392000,-709.552002,-690.276001,-26040.000000,-3710.000000,-2730.000000
4.486979,5.792756,7.808520,7.058435,5.947033,9.247351,4.612535,0.000000,8.291043,7.779389,5.779712,5.952839,8.479988,7.481245,0.000000,0.000000,64.660000,-703.696015,-691.007995,-26390.000000,-3710.000000,-2590.000000
4.475331,5.736073,7.691508,7.001414,5.898840,9.153824,4.563177,0.000000,8.258756,7.737037,5.728329,5.817300,8.395925,7.467959,0.000000,0.000000,65.880001,-705.160034,-690.519989,-27370.000000,-3640.000000,-2590.000000
4.513034,5.774619,7.692808,7.100858,5.893089,9.122856,4.610374,0.000000,8.320332,7.768445,5.790079,5.791471,8.324383,7.487705,0.000000,0.000000,65.635998,-705.404022,-694.912018,-27720.000000,-3570.000000,-2240.000000
4.658596,5.940586,7.723983,7.125747,6.026872,9.182877,4.743099,0.000000,8.371913,7.835130,5.844033,5.804024,8.376449,7.537536,0.000000,0.000000,64.660000,-704.183991,-696.132019,-28420.000000,-3360.000000,-2240.000000
4.685994,6.072340,7.686144,7.074625,6.290437,9.328041,4.931841,0.000000,8.304246,7.744581,5.775844,5.834870,8.413464,7.445568,0.000000,0.000000,62.708000,-704.672028,-698.084015,-29190.000000,-3080.000000,-2030.000000
4.725122,6.140412,7.692306,6.896062,6.321424,9.526864,4.913375,0.000000,8.184260,7.601307,5.706979,5.864388,8.197628,7.153284,0.000000,0.000000,62.708000,-703.451996,-700.280029,-29540.000000,-3080.000000,-1610.000000
4.843917,6.315935,7.782475,6.887822,6.323277,9.691739,4.917344,0.000000,8.260519,7.781603,5.898491,5.995682,8.147784,7.185342,0.000000,0.000000,61.732000,-703.208008,-704.183990,-29960.000000,-2660.000000,-1260.000000
4.834936,6.290633,7.764889,6.873224,6.317061,9.682771,4.900398,0.000000,8.098060,7.698542,5.793407,5.961814,8.010902,7.105611,0.000000,0.000000,61.732003,-701.500000,-706.868011,-30100.000000,-2450.000000,-910.000000
4.793808,6.239451,7.643284,6.910643,6.279870,9.681417,4.866810,0.000000,8.026325,7.568610,5.658217,5.975984,7.952663,7.002228,0.000000,0.000000,60.755999,-701.255981,-705.648010,-30520.000000,-2240.000000,-560.000000
4.807278,6.314789,7.666412,7.026218,6.324585,9.879998,4.909381,0.000000,8.115017,7.635379,5.694523,6.031948,7.987808,7.061043,0.000000,0.000000,59.535999,-699.548004,-706.624023,-30660.000000,-2100.000000,-350.000000
4.818769,6.296985,7.668619,7.018618,6.348992,10.225783,4.974048,0.000000,7.993958,7.472808,5.656579,6.072590,7.796373,6.920077,0.000000,0.000000,58.804001,-696.132019,-702.720032,-31150.000000,-1960.000000,-280.000000
4.903016,6.310910,7.699148,7.119354,6.331792,10.715629,4.962527,0.000000,7.964150,7.401894,5.672266,6.067064,7.742535,6.829753,0.000000,0.000000,57.095999,-702.476013,-695.644013,-32060.000000,-2310.000000,-280.000000
5.038080,6.331142,7.694421,7.160132,6.307759,10.973218,4.945974,0.000000,7.853878,7.298339,5.697928,6.040637,7.551294,6.721912,0.000000,0.000000,61.488001,-702.963989,-713.699981,-32830.000000,-2380.000000,-350.000000
5.057650,6.320285,7.663316,7.159852,6.336460,11.004540,4.973482,0.000000,7.844556,7.276615,5.685804,6.033548,7.535033,6.746418,0.000000,0.000000,60.268000,-695.644013,-708.088012,-32340.000000,-980.000000,-210.000000
5.001421,6.262992,7.510046,7.127217,6.279265,10.995341,4.902352,0.000000,7.725131,7.200100,5.578094,6.052872,7.428245,6.688760,0.000000,0.000000,61.487999,-700.279999,-709.064026,-32830.000000,-1190.000000,-420.000000
4.943756,6.212373,7.478948,7.153357,6.205922,11.008445,4.851222,0.000000,7.680622,7.137974,5.495478,6.033597,7.357866,6.657666,0.000000,0.000000,58.072002,-699.548004,-707.111999,-32410.000000,-980.000000,-420.000000
4.867785,6.161982,7.428202,7.128327,6.020715,10.986934,4.807633,0.000000,7.530879,7.026641,5.542512,5.985237,7.210773,6.549951,0.000000,0.000000,60.268001,-697.108002,-703.208007,-32130.000000,-280.000000,-490.000000
4.919465,6.148157,7.399764,7.186627,5.877031,11.153180,4.765616,0.000000,7.519759,6.985545,5.581408,5.979873,7.195547,6.538856,0.000000,0.000000,60.024002,-694.912018,-705.891998,-32760.000000,-70.000000,-770.000000
5.156566,6.296939,7.577239,7.463777,5.817034,11.702052,4.875757,0.000000,7.718373,7.126786,5.692632,5.990985,7.368172,6.620144,0.000000,0.000000,61.732000,-694.911987,-709.795990,-33180.000000,210.000000,-980.000000
5.333877,6.378081,7.731875,7.774898,5.811968,12.259243,4.886538,0.000000,7.916358,7.301168,5.781314,6.083623,7.522297,6.595327,0.000000,0.000000,64.903999,-694.667999,-711.016021,-33390.000000,210.000000,-1330.000000
