4.901400,6.039109,7.071023,8.728712,5.651806,4.524519,4.566354,7.134832,7.713904,6.725566,7.073392,6.249641,8.503572,7.074400,6.434531,4.036023,71.736000,-694.912018,-706.380005,-490.000000,70.000000,-70.000000
4.873770,5.950533,7.049305,8.792677,5.542616,4.404091,4.456343,7.168192,7.780345,6.734877,7.102273,6.073321,8.556851,7.137830,6.405090,3.907398,73.444004,-698.084015,-708.087982,-770.000000,-70.000000,70.000000
5.057448,6.244026,7.326027,9.199013,5.686621,4.541209,4.589877,7.481466,8.094029,6.933321,7.352711,6.187403,8.720971,7.262298,6.417815,3.956221,67.832000,-695.399994,-707.600006,-910.000000,-350.000000,210.000000
5.155476,6.379899,7.401390,9.412877,5.809294,4.657621,4.700048,7.689696,8.134971,6.956916,7.467742,6.192044,8.733521,7.267699,6.411430,3.964582,71.980002,-698.328003,-708.576020,-1120.000000,-700.000000,70.000000
5.163519,6.416459,7.416652,9.503544,5.841503,4.693845,4.737393,7.749673,8.154489,6.971551,7.499710,6.163694,8.798561,7.305383,6.466886,3.978153,70.760002,-699.792023,-708.332001,-1120.000000,-700.000000,210.000000
5.185774,6.435286,7.441290,9.541885,5.843382,4.710677,4.753889,7.744546,8.217119,7.042452,7.546977,6.093104,8.933422,7.430298,6.551648,4.067908,68.808001,-700.036011,-709.552002,-840.000000,-700.000000,210.000000
5.236145,6.435424,7.466339,9.567390,5.880313,4.746237,4.785425,7.741686,8.284678,7.089090,7.570665,5.949664,9.061984,7.497631,6.541425,4.128138,69.295999,-702.476013,-709.552001,-910.000000,-840.000000,210.000000
5.242089,6.458960,7.480549,9.531321,5.887409,4.747990,4.789654,7.737499,8.321276,7.132311,7.589833,5.952419,9.106270,7.510393,6.587370,4.188443,69.783998,-703.451996,-710.527985,-560.000000,-630.000000,350.000000
5.200417,6.438822,7.431814,9.482400,5.862456,4.723863,4.761843,7.715351,8.328870,7.131820,7.568473,5.960426,9.162015,7.538839,6.584352,4.164467,68.808003,-702.720001,-706.624024,-420.000000,-490.000000,280.000000
5.176082,6.420799,7.402503,9.463867,5.836067,4.723915,4.756298,7.716244,8.325280,7.118025,7.556675,5.975859,9.183725,7.568136,6.595407,4.148158,67.832001,-703.452027,-702.476013,-210.000000,-420.000000,350.000000
5.159787,6.379207,7.374603,9.409682,5.824015,4.689575,4.727359,7.697267,8.304143,7.119826,7.522300,6.024421,9.192368,7.572793,6.546396,4.148008,68.807998,-704.428009,-707.600006,-210.000000,-490.000000,210.000000
5.173789,6.284400,7.266809,9.254354,5.807428,4.614096,4.660300,7.536391,8.168424,7.062530,7.497797,6.282166,9.064244,7.508556,6.539861,4.243654,70.272003,-703.208008,-712.480011,-560.000000,-420.000000,0.000000
5.158827,6.247880,7.277540,9.147873,5.899699,4.689253,4.742768,7.488937,8.250904,7.196797,7.522123,6.315609,9.183017,7.640613,6.610742,4.306772,69.296001,-702.964020,-714.920013,-210.000000,350.000000,210.000000
5.119248,6.177034,7.237829,9.028629,6.020934,4.837745,4.895319,7.474634,8.199161,7.217947,7.503296,6.325830,9.134868,7.694128,6.656510,4.421443,69.296001,-704.916015,-711.015992,700.000000,840.000000,280.000000
5.127141,6.144632,7.151634,8.941863,6.100438,4.991169,5.050655,7.471828,8.168205,7.173106,7.507292,6.212327,9.149835,7.710401,6.662823,4.470314,66.855999,-704.183990,-708.332031,1260.000000,1120.000000,420.000000
5.059136,6.011015,6.924297,8.877298,6.005129,4.925263,4.988938,7.358620,8.029506,6.993055,7.404996,5.878083,8.999092,7.581351,6.521591,4.345050,69.540001,-701.256012,-706.868011,1470.000000,1260.000000,350.000000
5.018525,5.975524,6.857703,8.837799,6.007133,4.926571,4.993076,7.346258,7.952578,6.915963,7.355955,5.723433,8.907479,7.507888,6.424501,4.270215,67.831999,-701.256012,-705.404022,1330.000000,1190.000000,490.000000
5.025341,6.021042,6.905584,8.856146,6.006068,4.919455,4.985787,7.345015,8.007205,6.964401,7.375839,5.664294,8.897993,7.511578,6.429406,4.294525,69.052000,-699.304016,-708.088013,1190.000000,1260.000000,350.000000
5.015180,6.053699,6.956634,8.884274,6.011938,4.930918,5.000162,7.406697,8.066115,6.991518,7.360550,5.596224,8.919278,7.507802,6.425482,4.299463,67.344002,-698.572022,-706.380005,700.000000,1120.000000,350.000000
4.978935,6.016291,6.947313,8.874822,5.995912,4.920473,4.995488,7.384200,8.064828,7.000254,7.337774,5.585092,8.944832,7.552297,6.489154,4.343004,68.076000,-698.083985,-707.600006,630.000000,980.000000,420.000000
4.975766,5.966139,6.913897,8.796178,6.070542,5.026407,5.101004,7.371069,7.966827,6.973066,7.311417,5.584109,8.896753,7.504630,6.516933,4.318517,71.004002,-697.596008,-708.088012,420.000000,910.000000,350.000000
5.000488,5.976863,6.912254,8.773528,6.080066,5.130289,5.197242,7.398549,7.885240,6.977919,7.320375,5.522363,8.805944,7.448001,6.515905,4.398597,68.320002,-697.108002,-708.332001,560.000000,980.000000,350.000000
5.025766,6.028309,6.936392,8.828055,6.093015,5.153342,5.227507,7.440400,7.927520,7.002990,7.322521,5.489875,8.853859,7.457589,6.510576,4.390179,70.760002,-698.328033,-711.260010,700.000000,1120.000000,280.000000
5.004703,6.008737,6.746399,8.569528,6.058789,5.183709,5.254758,7.356713,7.768193,6.882404,7.207163,5.385314,8.728241,7.415018,6.484126,4.457919,68.564001,-697.596008,-712.235993,980.000000,1050.000000,350.000000
4.995327,5.993617,6.658406,8.510568,6.021703,5.184643,5.257510,7.337832,7.726555,6.796697,7.135565,5.262530,8.667952,7.385111,6.437889,4.456225,69.784000,-698.816010,-713.456025,1190.000000,910.000000,350.000000
5.028137,6.050644,6.723478,8.593255,6.054636,5.201091,5.270189,7.407502,7.805986,6.841488,7.157726,5.234701,8.694243,7.390063,6.422025,4.462603,70.516002,-698.083985,-711.015991,1260.000000,770.000000,490.000000
5.025321,6.067548,6.740423,8.537003,6.076771,5.216055,5.281619,7.426095,7.758198,6.838594,7.159169,5.183455,8.693114,7.398373,6.410625,4.441116,72.467998,-699.059998,-711.992004,1540.000000,770.000000,420.000000
5.013725,6.075377,6.706424,8.457943,6.045317,5.187600,5.258863,7.385221,7.701922,6.825696,7.145145,5.183122,8.739272,7.435117,6.432833,4.441825,71.979999,-698.571991,-711.259979,1610.000000,700.000000,350.000000
5.043995,6.111506,6.859281,8.602017,6.053794,5.221052,5.290832,7.485946,7.876783,6.987414,7.173968,5.171889,8.937376,7.558772,6.569300,4.459545,71.979999,-698.572022,-709.063995,1540.000000,490.000000,490.000000
4.993614,6.048341,6.794209,8.547319,5.988871,5.247152,5.320775,7.511115,7.727653,6.860046,7.070695,5.122388,8.741425,7.413724,6.485949,4.460278,71.492000,-701.256012,-709.552002,1470.000000,210.000000,280.000000
4.867877,5.945396,6.683162,8.520633,5.856843,5.249772,5.312433,7.416730,7.626906,6.736954,6.940889,5.067223,8.620515,7.332719,6.347768,4.403580,72.468002,-701.500031,-708.575988,1400.000000,140.000000,420.000000
4.832137,5.914424,6.645092,8.519767,5.831769,5.266322,5.326126,7.338527,7.593982,6.721907,6.885917,5.065410,8.662454,7.358410,6.390829,4.453527,72.224003,-699.791992,-708.332001,1260.000000,-140.000000,350.000000
4.756444,5.789552,6.473979,8.353093,5.791149,5.311621,5.372832,7.183503,7.486162,6.544221,6.654449,5.032834,8.620803,7.260598,6.246156,4.423239,72.223999,-703.695984,-708.332001,1050.000000,-420.000000,350.000000
4.756610,5.836392,6.602776,8.519816,5.754449,5.299003,5.358877,7.282572,7.765020,6.658643,6.596907,5.040303,8.748986,7.303869,6.211052,4.407405,72.468002,-702.964020,-707.356018,910.000000,-770.000000,420.000000
4.781324,5.840948,6.606038,8.477259,5.716409,5.289663,5.348878,7.281705,7.783961,6.639692,6.573023,4.978816,8.800121,7.323146,6.162503,4.359653,71.979999,-704.672028,-710.040008,840.000000,-980.000000,420.000000
4.806108,5.866617,6.600539,8.499357,5.719243,5.291028,5.345633,7.282663,7.858874,6.721885,6.623683,4.974635,8.956991,7.452221,6.236097,4.395886,73.200001,-704.184021,-706.868011,700.000000,-910.000000,420.000000
4.785222,5.851373,6.604345,8.632813,5.663152,5.246957,5.293378,7.303184,7.976299,6.812049,6.636790,4.934470,9.086865,7.537053,6.305009,4.406230,70.272003,-703.696014,-706.380005,700.000000,-1120.000000,560.000000
4.828464,5.902167,6.709262,8.804207,5.699316,5.310507,5.337343,7.509595,8.106367,6.940910,6.667116,4.891101,9.228628,7.628143,6.439371,4.456357,71.248001,-702.232025,-706.623993,490.000000,-1190.000000,560.000000
4.845743,5.890402,6.705807,8.854427,5.641826,5.289148,5.316099,7.591430,8.122859,6.952798,6.629813,4.910248,9.241666,7.617733,6.447555,4.471646,71.492000,-702.231994,-706.868011,490.000000,-770.000000,630.000000
4.800719,5.821279,6.682928,8.788911,5.543606,5.225158,5.251042,7.567784,8.178361,7.020923,6.488498,4.914821,9.326301,7.636038,6.506405,4.481151,70.516002,-700.279999,-705.160004,210.000000,-770.000000,700.000000
4.715405,5.693388,6.604786,8.671413,5.442775,5.176473,5.194304,7.476983,8.088464,6.928388,6.236544,4.890727,9.260917,7.530250,6.444807,4.456992,71.004001,-699.792023,-705.160004,0.000000,-770.000000,770.000000
4.553261,5.427430,6.356508,8.546782,5.259489,5.135165,5.143811,7.215317,7.792923,6.654621,5.912903,4.815289,8.975662,7.277065,6.173729,4.287051,70.760002,-698.084015,-707.355988,-280.000000,-1120.000000,840.000000
4.410383,5.247362,6.170180,8.397814,5.156442,5.095684,5.101955,6.959315,7.555722,6.433564,5.658228,4.753539,8.718652,7.016069,6.016430,4.231976,69.540003,-699.548004,-707.600037,-700.000000,-1120.000000,840.000000
4.278860,5.168973,6.146925,8.478085,5.064412,5.019699,5.029837,6.827406,7.566218,6.397590,5.512724,4.650769,8.599581,6.940075,5.877029,4.159367,69.296001,-694.912018,-708.088012,-700.000000,-1050.000000,840.000000
4.238671,5.170098,6.163213,8.518976,5.053220,4.997540,5.004454,6.853136,7.611103,6.427386,5.452454,4.585542,8.556745,6.927019,5.838354,4.153853,69.784001,-696.131989,-708.820007,-840.000000,-1190.000000,770.000000
4.259996,5.222075,6.238887,8.647653,5.057019,5.017800,5.024726,6.964162,7.710675,6.520760,5.448112,4.492053,8.569277,6.960561,5.864512,4.183709,69.296001,-696.619995,-712.236023,-910.000000,-980.000000,630.000000
4.289352,5.256322,6.283468,8.666268,5.117264,5.077015,5.077146,7.054223,7.702850,6.588273,5.462959,4.390932,8.541597,7.011407,5.933473,4.229382,70.760000,-696.376007,-711.260010,-700.000000,-840.000000,630.000000
4.230213,5.269939,6.323401,8.681782,5.023044,4.991054,4.984991,7.055420,7.724864,6.620510,5.487887,4.391620,8.524919,7.012486,5.993228,4.226830,69.784002,-698.328002,-711.015991,-700.000000,-770.000000,700.000000
4.274923,5.324807,6.368601,8.743134,5.098569,5.060426,5.055079,7.091233,7.779566,6.686186,5.579041,4.416527,8.704493,7.191172,6.162309,4.366456,71.980002,-697.108002,-711.992005,-350.000000,-630.000000,840.000000
4.214553,5.314618,6.384999,8.847106,5.088837,5.019313,5.006015,7.091423,7.819414,6.706290,5.560178,4.472321,8.694495,7.180477,6.167273,4.420648,70.760002,-698.815979,-711.747986,-350.000000,-490.000000,980.000000
4.196210,5.285156,6.341965,8.753275,5.091792,5.024555,5.010562,7.037781,7.766999,6.692518,5.490643,4.604462,8.791702,7.168358,6.162172,4.476068,70.515999,-698.084015,-710.528015,-280.000000,-140.000000,1120.000000
4.120466,5.184726,6.192472,8.484645,5.093284,5.019856,5.007421,6.910316,7.613791,6.606472,5.333762,4.583661,8.744896,7.033089,6.148568,4.491463,70.272001,-697.839996,-711.748016,-70.000000,-280.000000,1120.000000
3.970844,4.873177,5.913367,8.160822,5.008850,4.939292,4.929093,6.801795,7.205594,6.342484,4.939862,4.342628,8.402832,6.751039,5.997109,4.407361,71.492002,-697.839996,-713.212006,140.000000,-280.000000,1260.000000
4.042380,4.880879,6.064139,8.447329,4.961051,4.886771,4.886533,6.919943,7.365089,6.418895,4.823181,4.291768,8.466840,6.797803,5.965371,4.483377,70.516001,-698.571991,-714.188019,420.000000,-280.000000,1400.000000
4.189475,4.987737,6.195043,8.690051,4.960921,4.913538,4.916012,6.954751,7.609738,6.597314,4.847571,4.246819,8.629692,6.939625,5.988411,4.607563,72.468001,-698.572022,-714.188019,980.000000,-350.000000,1470.000000
4.137393,4.953308,6.159988,8.666757,4.963726,4.902936,4.907181,6.971623,7.542905,6.509605,4.722128,4.226024,8.508043,6.815734,5.854649,4.467948,72.955999,-697.595978,-712.723999,1190.000000,-420.000000,1540.000000
4.201906,5.065430,6.330656,8.713112,4.943442,4.924667,4.927002,7.205745,7.578064,6.507001,4.766220,4.343878,8.478016,6.784857,5.869462,4.443034,70.516001,-697.596008,-712.235992,1330.000000,-630.000000,1470.000000
4.183201,5.048765,6.307704,8.732738,5.004076,4.926667,4.923145,7.222664,7.536129,6.462313,4.746374,4.307977,8.417927,6.755334,5.801991,4.381116,69.783998,-698.084015,-711.260010,1750.000000,-910.000000,1400.000000
4.201205,5.033520,6.285476,8.706881,5.000109,4.916388,4.914230,7.217075,7.486886,6.423040,4.740876,4.287498,8.401251,6.769427,5.803799,4.404854,71.247999,-697.108002,-708.087982,2100.000000,-700.000000,1260.000000
4.392242,5.052407,6.323121,8.782025,5.023324,4.946104,4.949094,7.225066,7.571979,6.455752,4.769766,4.300915,8.542156,6.837549,5.803682,4.488921,68.320002,-699.059998,-712.480011,2310.000000,-770.000000,1190.000000
4.495773,5.048064,6.323015,8.842869,5.035367,4.960991,4.968000,7.228993,7.507268,6.399056,4.744149,4.233730,8.388103,6.700453,5.749921,4.504957,69.296001,-701.256012,-708.820007,2800.000000,-700.000000,1050.000000
4.385529,4.944406,6.238112,8.835176,4.964100,4.889743,4.892856,7.221182,7.469174,6.296589,4.550630,3.895885,8.540745,6.732093,5.721529,4.456042,71.491999,-699.304016,-709.308014,3220.000000,-770.000000,1120.000000
4.393292,4.935123,6.204793,8.867132,4.847381,4.814005,4.819895,7.160831,7.430984,6.207761,4.484242,3.849274,8.634952,6.780524,5.788372,4.500719,69.539999,-698.572022,-710.040008,3640.000000,-770.000000,1050.000000
4.411235,4.953874,6.200252,8.858533,4.693701,4.695212,4.696840,7.097294,7.364163,6.128511,4.432728,3.874534,8.575893,6.660910,5.720855,4.397511,69.295999,-698.571991,-711.016022,3500.000000,-770.000000,840.000000
4.411589,4.950529,6.209943,8.865024,4.558380,4.541960,4.543238,7.064611,7.418948,6.174654,4.456925,3.867674,8.648479,6.698462,5.721861,4.361626,68.320000,-699.548004,-710.772003,3780.000000,-910.000000,980.000000
4.383306,4.928192,6.193845,8.815591,4.566226,4.546242,4.546940,7.048465,7.421211,6.178990,4.433583,3.845250,8.672328,6.677074,5.694247,4.357926,70.271999,-699.059998,-711.016022,4130.000000,-840.000000,980.000000
4.383767,4.935363,6.210796,8.827695,4.549096,4.558239,4.557313,7.059100,7.404308,6.159837,4.415787,3.840746,8.732813,6.687294,5.672042,4.392487,70.516001,-700.279998,-710.527985,4130.000000,-1050.000000,840.000000
4.444385,4.875367,6.159176,8.884651,4.562090,4.639086,4.641065,7.073630,7.378315,6.115022,4.385613,3.829883,8.940152,6.803026,5.756636,4.532153,67.588003,-702.476014,-709.308014,4200.000000,-910.000000,910.000000
4.474052,4.867664,6.213869,9.119590,4.546979,4.619323,4.617756,7.137677,7.398921,6.153382,4.441139,3.823272,8.986188,6.843030,5.768700,4.534649,67.587999,-701.743988,-709.552002,4410.000000,-840.000000,910.000000
4.594848,4.941259,6.344652,9.273010,4.620492,4.648976,4.640264,7.201011,7.467033,6.279899,4.593859,3.947437,8.996019,6.841424,5.755036,4.587338,71.980002,-702.232025,-708.576020,4410.000000,-560.000000,980.000000
4.654525,4.969622,6.391143,9.305326,4.575947,4.594935,4.588087,7.195956,7.538342,6.319464,4.662227,4.045763,9.000956,6.818147,5.730332,4.596805,70.760002,-703.696015,-708.820007,4480.000000,-490.000000,1050.000000
4.632242,5.024437,6.441391,9.356621,4.492708,4.509092,4.497912,7.224471,7.594683,6.365759,4.683957,3.996291,9.081233,6.901811,5.816002,4.612371,69.540001,-704.916015,-705.892028,4620.000000,-140.000000,1260.000000
4.617147,4.977211,6.391693,9.280797,4.462468,4.470577,4.455671,7.181780,7.544691,6.336908,4.660606,3.998603,9.018611,6.883892,5.816728,4.606274,71.980002,-702.720002,-709.064026,4760.000000,-70.000000,1330.000000
4.620452,4.949091,6.322091,9.290123,4.416610,4.428956,4.417145,7.196352,7.525459,6.337316,4.656243,3.977084,8.990490,6.881587,5.807138,4.541872,71.248001,-703.451996,-711.992005,5320.000000,420.000000,1540.000000
4.611308,4.953741,6.312520,9.291866,4.437791,4.455056,4.438945,7.240443,7.544876,6.348071,4.657434,3.978651,8.993306,6.877026,5.827087,4.540812,73.688004,-705.160003,-709.063995,5530.000000,770.000000,1750.000000
4.584296,4.934956,6.271652,9.227531,4.423914,4.463119,4.442692,7.215375,7.522292,6.351254,4.663868,4.005627,9.001008,6.880486,5.861729,4.538953,73.200001,-706.380005,-710.528015,6230.000000,1190.000000,1960.000000
4.673857,4.976797,6.363564,9.388299,4.430911,4.487264,4.471734,7.254926,7.688184,6.476442,4.776243,4.028512,9.175050,6.977683,5.930094,4.631034,73.444000,-705.648010,-711.503998,6860.000000,1750.000000,2240.000000
4.721740,5.051847,6.500143,9.553867,4.465804,4.499719,4.482487,7.367299,7.798708,6.538393,4.839179,4.039480,9.262030,7.016005,5.925526,4.653895,75.152000,-704.916015,-708.820007,7560.000000,2170.000000,2450.000000
4.694892,4.993073,6.398450,9.480682,4.465017,4.462912,4.440658,7.316904,7.663561,6.398672,4.801660,3.987580,9.095081,6.890139,5.750466,4.624679,73.688004,-702.231995,-708.088013,8330.000000,2520.000000,2730.000000
4.689255,4.957543,6.442736,9.523374,4.370775,4.412923,4.383552,7.262873,7.816603,6.514377,4.842680,3.940703,9.330844,7.084870,5.778799,4.679331,74.420002,-702.231994,-709.308014,8610.000000,2660.000000,2940.000000
4.726816,4.922673,6.458363,9.513087,4.266499,4.358838,4.341946,7.208804,7.936886,6.600792,4.826845,3.972158,9.495998,7.166130,5.745702,4.703066,75.883999,-701.011993,-709.796020,9170.000000,2660.000000,2940.000000
4.772646,4.934044,6.516745,9.462683,4.238513,4.339688,4.330335,7.206744,8.038412,6.658065,4.820155,4.023306,9.587459,7.189468,5.648961,4.657739,73.444004,-698.083985,-710.772034,9450.000000,2450.000000,3010.000000
4.773798,4.920267,6.512084,9.471128,4.125129,4.253203,4.239133,7.212607,8.043724,6.703069,4.818984,4.044132,9.566740,7.191906,5.615370,4.637197,73.932003,-699.548005,-710.284027,9310.000000,2170.000000,3150.000000
4.770474,4.848856,6.399075,9.367385,4.173922,4.324748,4.310747,7.101215,7.853572,6.614097,4.782551,4.152263,9.579770,7.210306,5.662378,4.643209,72.712001,-699.792023,-707.600036,9310.000000,1890.000000,3150.000000
4.715507,4.840532,6.378671,9.427422,4.159420,4.311625,4.299954,7.075484,7.963388,6.683433,4.795215,4.141245,9.717058,7.253956,5.698521,4.671882,72.956001,-699.548004,-710.772003,9170.000000,1890.000000,3220.000000
4.703289,4.843830,6.365431,9.441712,4.153872,4.301043,4.293007,7.084993,7.888258,6.585154,4.722658,4.108583,9.543995,7.104943,5.571207,4.620409,72.468003,-697.352020,-709.064026,9240.000000,1680.000000,3290.000000
4.686073,4.818481,6.349867,9.355730,4.157183,4.324109,4.317906,7.053004,7.836691,6.536690,4.669095,4.113765,9.592044,7.122084,5.584418,4.643875,71.736000,-697.352020,-708.088012,8610.000000,1470.000000,3360.000000
4.561761,4.675240,6.221488,9.242818,4.025451,4.186165,4.192354,6.842309,7.848393,6.496145,4.608089,3.962945,9.690928,7.160150,5.540622,4.620259,71.736000,-694.423980,-709.308014,7700.000000,1050.000000,3430.000000
4.533054,4.694189,6.302765,9.228345,4.017573,4.190583,4.208851,6.778797,8.031922,6.634641,4.642976,3.853858,9.992365,7.345102,5.668823,4.704976,72.224003,-696.864014,-708.088013,7070.000000,840.000000,3430.000000
4.525345,4.694773,6.340173,9.293258,4.008606,4.188258,4.208343,6.736812,8.106681,6.606896,4.644542,3.879641,10.053265,7.365185,5.540214,4.670591,70.271999,-695.156005,-709.796020,6580.000000,1120.000000,3710.000000
4.567985,4.741625,6.433650,9.420963,4.006297,4.199137,4.213148,6.848626,8.187547,6.662249,4.701266,3.902217,10.109524,7.413264,5.445880,4.666165,67.100000,-696.619995,-710.772034,5880.000000,1120.000000,3570.000000
4.535920,4.746604,6.459065,9.328578,3.958377,4.105747,4.109339,6.875240,8.251526,6.737236,4.688177,3.866025,10.204754,7.465575,5.492093,4.701701,66.856003,-696.132019,-710.528016,5530.000000,1470.000000,3710.000000
4.561559,4.743056,6.437590,9.157025,3.975161,4.130766,4.131094,6.872141,8.254583,6.737070,4.679176,3.894304,10.254394,7.500913,5.518864,4.715699,66.612002,-699.060028,-709.552032,5180.000000,1540.000000,3850.000000
4.554280,4.685909,6.305809,8.897283,3.951397,4.133800,4.130191,6.835515,8.118140,6.603038,4.591031,3.900753,10.261246,7.451454,5.525186,4.718285,63.927999,-698.328033,-710.283997,5040.000000,1890.000000,3920.000000
4.558006,4.654742,6.282255,8.867476,3.925409,4.137505,4.136574,6.782513,8.055944,6.554348,4.598080,3.893592,10.225888,7.400981,5.511298,4.710557,63.928004,-699.303985,-710.284027,5040.000000,2380.000000,3990.000000
4.545687,4.603997,6.230205,8.856856,3.859489,4.087031,4.092038,6.684624,8.073358,6.552122,4.672584,3.914670,10.304395,7.405428,5.529041,4.711269,62.952002,-700.280029,-713.212006,4830.000000,3010.000000,4060.000000
4.523796,4.570961,6.187689,8.989676,3.772981,4.027079,4.039660,6.642496,8.061766,6.493231,4.653460,3.914389,10.277449,7.356426,5.430218,4.670389,63.927999,-701.256012,-710.772003,4900.000000,3220.000000,3920.000000
4.793129,4.816246,6.619331,9.428102,3.966016,4.240002,4.258443,6.941680,8.461883,6.866238,4.919906,4.101484,10.545338,7.625764,5.687320,4.805913,62.708000,-704.184021,-708.820007,5040.000000,3850.000000,3780.000000
4.909635,4.940234,6.929940,9.656134,3.945816,4.244995,4.261693,7.133879,8.679397,7.012822,4.920406,4.078536,10.684525,7.613812,5.593367,4.668300,63.927999,-702.476013,-707.356019,4900.000000,4340.000000,3780.000000
4.920360,4.955587,7.055430,9.671914,3.951883,4.264882,4.284258,7.241852,8.776137,7.050664,4.873913,3.989738,10.939353,7.669151,5.604980,4.614931,63.928002,-702.720002,-709.308014,5040.000000,4480.000000,3430.000000
4.948768,5.086921,7.416920,10.253702,4.075461,4.390169,4.404336,7.841318,8.973928,7.167223,4.924172,3.784988,10.872652,7.620323,5.640353,4.610314,63.928001,-703.451996,-706.380005,5250.000000,4480.000000,3290.000000
4.999138,5.307627,7.779772,10.870860,4.219524,4.520981,4.536433,8.133222,9.222331,7.371191,5.018584,3.733120,10.852633,7.626057,5.630146,4.626396,65.148000,-702.720001,-706.867980,5040.000000,4410.000000,3010.000000
4.967311,5.349760,7.797420,10.838614,4.152801,4.470502,4.485660,7.984521,9.320827,7.536898,5.105626,3.818809,10.955287,7.703804,5.795114,4.765814,64.660002,-701.744019,-704.916015,5110.000000,4130.000000,2590.000000
4.834806,5.171976,7.617379,10.502023,4.030040,4.337585,4.346005,7.757650,9.177982,7.418775,4.999135,3.783057,10.900560,7.579597,5.752488,4.693242,64.659999,-702.231994,-704.428009,4760.000000,3780.000000,2170.000000
4.688023,5.006782,7.502767,10.247138,3.949129,4.248654,4.255291,7.719046,8.990425,7.224657,4.912415,3.764522,10.825636,7.389068,5.644729,4.539997,66.611999,-700.035981,-703.451996,4690.000000,3500.000000,1680.000000
4.680266,5.009612,7.505544,10.239260,3.932956,4.275442,4.280114,7.740967,8.967912,7.219635,4.952694,3.725382,10.778567,7.356359,5.621437,4.535435,66.856001,-701.988006,-705.648010,4340.000000,3150.000000,1190.000000
4.555624,4.865744,7.409167,10.303453,3.860793,4.259261,4.271142,7.645370,8.900443,7.130819,4.898746,3.549804,10.698675,7.315565,5.551913,4.477901,68.320001,-701.500030,-703.451995,3920.000000,2660.000000,700.000000
4.580567,4.850594,7.437950,10.360212,3.802532,4.251143,4.263225,7.650916,8.914847,7.121207,4.942489,3.574164,10.821198,7.482622,5.659003,4.663845,68.320002,-700.524017,-707.112030,3920.000000,2030.000000,210.000000
4.590873,4.983928,7.665165,10.470684,3.881092,4.346462,4.369889,7.724608,9.067607,7.241687,4.969815,3.662440,11.032230,7.572213,5.685919,4.686641,69.052002,-698.816010,-707.111999,3570.000000,1680.000000,-350.000000
4.479394,5.062822,7.695002,10.413172,3.905816,4.334531,4.353599,7.726766,9.054008,7.318899,5.016511,3.737449,10.982025,7.523477,5.691611,4.689309,70.271999,-699.548004,-706.867981,3500.000000,1120.000000,-560.000000
4.364383,5.087501,7.790216,10.438816,3.883560,4.296683,4.305919,7.894209,9.121178,7.359431,5.091919,3.771775,11.059641,7.638612,5.740299,4.733471,71.248001,-700.768006,-707.843994,3360.000000,980.000000,-770.000000
4.375719,5.188461,8.005153,10.560742,3.911256,4.338373,4.345209,8.067876,9.320755,7.521621,5.242127,3.772348,11.393335,7.992891,5.878450,4.757869,71.736000,-699.303985,-710.772003,3290.000000,1050.000000,-1120.000000
4.422592,5.234690,8.123689,10.609666,3.961915,4.395189,4.400459,8.201435,9.422326,7.581989,5.300578,3.734641,11.674526,8.262350,5.889826,4.678581,71.004002,-698.328003,-707.843994,3430.000000,980.000000,-1260.000000
4.523716,5.405910,8.254015,10.777300,4.133861,4.450204,4.462768,8.554574,9.587303,7.733461,5.490266,3.733780,11.974852,8.637028,6.068125,4.808498,73.200000,-699.059998,-710.040008,3360.000000,1050.000000,-1120.000000
4.575423,5.447895,8.292549,10.857389,4.196610,4.516647,4.524826,8.737159,9.629491,7.758756,5.555703,3.739779,12.034476,8.734123,6.176269,4.894703,72.955999,-700.035980,-711.015991,3500.000000,1400.000000,-1190.000000
4.579008,5.445568,8.294053,10.910473,4.173963,4.506986,4.515962,8.797463,9.614770,7.755004,5.593677,3.759962,12.076096,8.750699,6.223393,4.906997,73.200000,-699.304016,-711.016022,3500.000000,1750.000000,-980.000000
4.576510,5.459137,8.323362,10.997038,4.158893,4.465075,4.475204,8.833225,9.624187,7.766936,5.624045,3.761911,12.013686,8.738660,6.226832,4.881945,74.419998,-700.768006,-708.820007,3500.000000,2170.000000,-770.000000
4.504649,5.471118,8.334815,10.921313,4.159240,4.336862,4.346500,8.824066,9.744343,7.874105,5.641345,3.819510,12.077713,8.807878,6.194139,4.771621,74.664001,-701.011994,-711.992005,3640.000000,2450.000000,-560.000000
4.532443,5.485899,8.307013,10.742832,4.188962,4.353407,4.360852,8.754173,9.760166,7.876794,5.639192,3.996823,12.141594,8.856132,6.306783,4.923193,74.420002,-699.548035,-713.700012,3850.000000,2800.000000,-210.000000
4.434724,5.461598,8.261003,10.619508,4.111300,4.304366,4.316913,8.683012,9.733790,7.808794,5.567218,3.958246,12.136070,8.827148,6.307663,4.905672,75.396000,-696.864014,-712.236023,3850.000000,2940.000000,140.000000
4.387296,5.468497,8.281611,10.698192,4.149582,4.300318,4.329499,8.885487,9.684607,7.771749,5.505857,3.897849,12.119606,8.811989,6.272286,4.897881,74.908001,-697.352020,-712.968018,4060.000000,3360.000000,770.000000
4.480096,5.507425,8.320103,10.714323,4.341897,4.424169,4.467611,9.132766,9.666484,7.753749,5.517791,3.912413,12.076607,8.762060,6.211707,4.835022,73.688000,-696.864014,-717.115997,4270.000000,3290.000000,1050.000000
4.590661,5.629760,8.425690,10.872210,4.550946,4.573954,4.621093,9.407233,9.677554,7.775958,5.615286,3.920970,12.080441,8.777989,6.280577,4.891263,74.664001,-698.816010,-715.407989,4550.000000,3570.000000,1470.000000
4.596832,5.668284,8.449257,10.956372,4.552762,4.577594,4.624355,9.417978,9.705560,7.786971,5.709225,3.920516,12.065410,8.786423,6.314874,4.909148,72.955999,-697.596008,-714.432006,4760.000000,3430.000000,1890.000000
4.609103,5.712507,8.520817,10.981503,4.536921,4.550828,4.604188,9.408209,9.784195,7.900874,5.860250,3.936254,12.219622,8.899015,6.441046,5.008362,73.932003,-698.571991,-710.772003,4970.000000,3640.000000,2380.000000
4.644987,5.725465,8.628381,11.109195,4.519712,4.505750,4.561314,9.433593,9.999861,8.030255,5.989591,3.989490,12.510338,9.065847,6.567843,5.097984,74.176002,-699.059998,-714.432007,5460.000000,3570.000000,2730.000000
4.651585,5.719489,8.612197,11.021739,4.527356,4.498463,4.550454,9.472790,10.080756,8.079320,6.065276,4.106756,12.550333,9.101861,6.669502,5.115587,72.712000,-701.988006,-713.212006,5880.000000,3780.000000,3220.000000
4.643539,5.688930,8.496953,10.827354,4.570887,4.563230,4.609298,9.435146,10.060908,8.087053,6.094141,4.211400,12.485153,9.075951,6.757565,5.160019,73.931999,-702.963990,-714.188019,6510.000000,3920.000000,3430.000000
4.701188,5.775977,8.539628,10.819064,4.737652,4.723866,4.780420,9.500811,10.076067,8.123795,6.119092,4.341296,12.515768,9.081981,6.753607,5.167363,73.444002,-702.231995,-711.992035,6790.000000,4060.000000,3640.000000
4.662274,5.748915,8.468943,10.773954,4.744689,4.701558,4.759270,9.435813,10.035453,8.057653,6.104977,4.324137,12.568167,9.037017,6.768391,5.151221,71.492000,-701.744019,-708.088012,7140.000000,4130.000000,3850.000000
4.604497,5.720525,8.388230,10.715084,4.757079,4.703321,4.761115,9.420020,9.974148,7.980281,6.076612,4.296518,12.559438,9.019715,6.776899,5.169654,70.516002,-702.475982,-711.992004,7350.000000,4060.000000,3850.000000
4.549333,5.680319,8.332497,10.736744,4.753504,4.685613,4.740628,9.398668,9.900856,7.941001,6.065824,4.251604,12.491155,8.983350,6.748567,5.170280,70.028002,-700.768005,-710.772003,7700.000000,4060.000000,3990.000000
4.539462,5.676047,8.336467,10.806241,4.751607,4.665085,4.720297,9.404506,9.945005,7.932025,6.082307,4.229161,12.602827,9.065017,6.770218,5.193755,71.736002,-698.084014,-710.772003,7700.000000,3920.000000,3850.000000
4.532992,5.665352,8.323075,10.760785,4.744782,4.614542,4.675365,9.386150,9.872436,7.891569,6.075599,4.110875,12.489671,8.982588,6.713751,5.192606,68.808000,-699.059998,-711.992035,8120.000000,3990.000000,3850.000000
4.561957,5.635783,8.343646,10.731494,4.765425,4.649614,4.711165,9.385451,9.841256,7.853947,6.031652,4.130379,12.431500,8.937768,6.668795,5.162461,69.295999,-696.864014,-714.920013,8190.000000,3990.000000,3780.000000
4.599596,5.613499,8.344770,10.693434,4.764261,4.670247,4.731029,9.418795,9.951487,7.926727,6.050728,4.199846,12.729656,9.104996,6.806944,5.261626,70.516001,-697.108002,-715.407989,8610.000000,3920.000000,3640.000000
4.705960,5.656436,8.358278,10.706020,4.783390,4.693946,4.747533,9.416841,9.991126,7.968998,6.098541,4.271242,12.692572,9.147715,6.855419,5.351864,69.784000,-696.376007,-716.140015,9030.000000,3990.000000,3500.000000
4.798781,5.736460,8.398782,10.807271,4.799795,4.723448,4.769086,9.443232,9.892635,7.911367,6.113212,4.267276,12.537750,9.094967,6.830211,5.373675,69.540001,-699.791992,-714.675995,9310.000000,3850.000000,3290.000000
4.825933,5.812967,8.403596,10.843092,4.821771,4.730159,4.769593,9.449451,9.771216,7.876823,6.086977,4.266586,12.309965,9.030687,6.781030,5.357639,68.076002,-698.816010,-716.384002,9660.000000,3500.000000,2940.000000
4.798625,5.788691,8.313785,10.757279,4.857211,4.745871,4.781450,9.439145,9.621929,7.813197,6.068010,4.258701,12.158747,8.982386,6.756322,5.362492,67.588003,-699.548004,-713.212006,10360.000000,3290.000000,2660.000000
4.772825,5.761085,8.276883,10.707915,4.931441,4.819397,4.859829,9.422846,9.622290,7.756455,6.038680,4.304290,12.196516,8.912555,6.748036,5.330665,66.856003,-701.012023,-714.188019,11060.000000,3360.000000,2310.000000
4.801791,5.778745,8.350638,10.851521,5.002268,4.911590,4.948153,9.483247,9.805161,7.813116,6.141200,4.512524,12.578945,9.126842,6.971373,5.398600,67.100003,-701.500000,-713.212036,11830.000000,3430.000000,2030.000000
4.863924,5.852908,8.436117,10.879040,5.069245,5.010296,5.033506,9.500697,9.857334,7.906065,6.334547,4.686619,12.654109,9.258247,7.114124,5.483342,67.831998,-702.476014,-711.748016,12250.000000,3710.000000,1820.000000
4.890448,5.915660,8.460220,10.863467,5.106355,5.085407,5.102347,9.529828,9.945145,7.960344,6.420863,4.782203,12.746652,9.296169,7.161802,5.529129,67.343999,-700.768005,-710.284027,12740.000000,3990.000000,1400.000000
4.953870,5.979076,8.565572,11.015289,5.116512,5.112186,5.129200,9.657794,10.177656,8.068574,6.481015,4.856783,12.977388,9.382259,7.172280,5.549344,69.052002,-699.059998,-710.283997,13160.000000,4060.000000,910.000000
5.026447,5.951907,8.553776,10.952254,5.131914,5.112662,5.128264,9.678029,10.139860,8.002755,6.425006,4.866780,12.963046,9.345653,7.175393,5.555088,70.028000,-699.060028,-709.552032,13510.000000,4340.000000,840.000000
5.189754,6.073559,8.659338,11.069877,5.156368,5.140197,5.156015,9.716357,10.319550,8.129810,6.495639,4.895721,13.150532,9.488669,7.376887,5.586864,70.271999,-699.548035,-707.843994,13790.000000,4480.000000,630.000000
5.295313,6.290525,8.645704,11.144381,5.280974,5.143566,5.173319,9.718921,10.326102,8.075254,6.489787,4.825282,13.179199,9.384940,7.284743,5.502306,71.248001,-699.791992,-707.112000,13790.000000,4340.000000,490.000000
5.160132,6.159436,8.371879,10.903177,5.220468,5.073804,5.103361,9.579830,10.108186,7.897287,6.386261,4.861151,13.019999,9.275776,7.188052,5.492206,71.980000,-699.059998,-711.016022,13650.000000,4130.000000,280.000000
5.126117,6.233637,8.334110,10.790017,5.211391,5.048331,5.078231,9.445800,10.053129,7.961740,6.397832,4.925525,12.777125,9.211097,7.242878,5.592011,72.224001,-699.059998,-709.796020,13650.000000,3990.000000,210.000000
5.086905,6.127724,8.000416,10.175687,5.146799,4.986599,5.022670,8.993116,9.932451,7.887736,6.377320,4.917290,13.068258,9.352406,7.340729,5.667972,72.712000,-699.548004,-706.868011,13440.000000,3780.000000,140.000000
5.049952,5.971528,7.777609,9.547636,5.141717,4.958993,4.989690,9.009211,9.978693,7.838327,6.479076,4.992065,13.933982,9.826159,7.645497,5.744452,73.200003,-701.256012,-710.527985,13440.000000,3570.000000,210.000000
5.099524,6.123915,8.195715,9.984709,5.222943,5.025673,5.049288,9.430243,10.785268,8.221026,6.727286,5.031199,15.146925,10.489398,7.918964,5.735007,75.152000,-702.964020,-709.307984,13370.000000,3500.000000,280.000000
5.218799,6.357499,8.499119,10.288475,5.278259,5.114232,5.126703,9.611990,11.084749,8.541092,6.983967,5.143784,15.348207,10.720849,8.074789,5.789126,73.444001,-703.696015,-711.503998,13510.000000,3500.000000,280.000000
5.244597,6.359371,8.468653,10.355647,5.276154,5.134646,5.140136,9.607614,11.202990,8.592258,6.969704,5.184872,15.663717,10.873037,8.087577,5.834798,75.640001,-704.916015,-711.503998,13650.000000,3780.000000,560.000000
5.342077,6.406238,8.529136,10.735884,5.325065,5.116337,5.125935,9.633193,11.896463,8.989416,7.107186,5.372263,17.163784,11.669532,8.502580,6.144085,75.396002,-706.380005,-715.164002,14210.000000,3710.000000,700.000000
5.370863,6.395568,8.442754,10.762344,5.329004,5.036450,5.049725,9.493498,12.260334,9.125800,7.109645,5.416762,18.432480,12.384904,8.837229,6.286564,75.152000,-703.940002,-715.895996,14910.000000,3990.000000,1050.000000
5.356216,6.438423,8.519228,11.016793,5.330329,5.023989,5.037115,9.568845,12.697050,9.272095,7.145741,5.399491,19.068546,12.712963,8.941019,6.201719,75.396000,-705.403991,-716.628021,15470.000000,4480.000000,1260.000000
5.442719,6.352946,8.521627,11.123877,5.358376,5.035106,5.038021,9.691459,12.695213,9.229646,7.214309,5.411185,19.126812,12.800904,9.058798,6.262788,73.200002,-704.671997,-717.604004,16380.000000,4760.000000,1610.000000
5.493698,6.373480,8.890552,11.785734,5.387146,5.092489,5.088308,10.185862,13.128949,9.377011,7.270377,5.352831,19.404622,12.971168,9.168456,6.267688,75.152000,-702.963989,-716.139984,17220.000000,5390.000000,1960.000000
5.583746,6.599392,9.392909,12.642617,5.501449,5.206598,5.200771,10.607657,13.996382,9.883569,7.425052,5.321796,20.088393,13.355429,9.314959,6.233895,73.932001,-703.452026,-717.847992,18340.000000,5880.000000,2240.000000
5.621222,6.566660,9.247000,12.562273,5.553338,5.255264,5.249481,10.648713,13.982446,9.847557,7.375101,5.366154,20.155139,13.276666,9.305140,6.335975,74.664000,-700.768006,-718.092011,19180.000000,6440.000000,2450.000000
5.692810,6.634321,9.506951,13.059353,5.675584,5.255052,5.243422,11.216319,14.175934,9.890036,7.385452,5.391874,20.285695,13.152057,9.230530,6.353085,74.420000,-702.476013,-717.604003,19950.000000,7140.000000,2590.000000
5.662012,6.489437,9.549123,13.369252,5.536789,5.147148,5.130911,11.259350,14.490314,9.903230,7.250831,5.408640,20.937651,13.229926,9.158294,6.265832,75.151998,-703.208008,-719.312011,20930.000000,7840.000000,2940.000000
5.667020,6.446677,9.556283,13.469148,5.502527,5.081157,5.072318,11.173302,14.900785,10.122831,7.234381,5.577866,22.323460,14.012490,9.537931,6.452076,73.444000,-700.279999,-719.556000,21910.000000,8610.000000,3150.000000
5.681672,6.552590,9.851982,13.907702,5.627490,5.187179,5.174169,11.556695,15.680353,10.590448,7.330122,5.676372,23.558342,14.773823,9.942835,6.602489,74.176001,-699.059998,-720.532013,23170.000000,9940.000000,3430.000000
5.810389,6.677480,10.048907,14.014423,5.762151,5.256871,5.240839,11.705108,15.864849,10.776049,7.488769,5.708064,23.816132,15.062695,10.165702,6.744791,74.176001,-696.619995,-720.776001,24080.000000,11340.000000,3920.000000
5.841472,6.794999,10.156230,14.354481,5.754704,5.264321,5.246537,11.914160,16.084661,10.873746,7.584028,5.658781,24.360158,15.393845,10.245680,6.707012,75.883998,-697.840027,-718.336029,24990.000000,12180.000000,4060.000000
5.800662,7.166193,10.336995,14.787204,5.903449,5.482708,5.464150,12.437851,16.389238,11.072785,7.597608,5.554550,24.891914,15.740108,10.329366,6.645360,75.640003,-698.328003,-718.092011,26110.000000,13230.000000,4270.000000
5.819428,7.738872,10.693066,15.261411,6.305615,5.985208,5.969273,12.906018,16.636593,11.300512,7.639986,5.560123,25.168414,15.869521,10.382365,6.637671,74.664002,-696.864014,-716.628021,26530.000000,14070.000000,4340.000000
5.857172,7.940438,10.762867,15.294987,6.218515,5.950429,5.912890,12.748269,16.689923,11.331154,7.635814,5.534554,25.247289,15.888724,10.426627,6.664806,73.932003,-692.960022,-712.235993,26950.000000,14420.000000,4480.000000
6.078991,7.899012,10.733827,15.671917,6.385695,6.036886,5.979041,13.161548,16.964256,11.332173,7.672822,5.552080,25.413020,15.931506,10.463433,6.700450,73.200001,-693.448029,-713.455994,26670.000000,14350.000000,4410.000000
6.258822,8.106260,10.899085,16.052771,6.771204,6.470281,6.416563,13.685450,17.139056,11.409478,7.784194,5.693377,25.424680,15.963200,10.463419,6.794216,72.223999,-690.276001,-709.308014,25830.000000,14210.000000,4550.000000
6.301632,8.141746,10.952886,16.005089,6.855381,6.598895,6.556627,13.715860,17.169086,11.443385,7.810084,5.811743,25.709593,16.254027,10.574597,6.879769,72.712002,-689.544007,-709.796020,25060.000000,13300.000000,4130.000000
6.344587,8.101560,10.983970,16.132802,6.884898,6.626071,6.586247,13.945317,17.237735,11.382380,7.706934,5.811390,25.899080,16.401961,10.526933,6.818540,71.003997,-688.324005,-706.135986,24430.000000,12740.000000,3920.000000
6.309745,8.056385,10.889965,16.136050,6.873145,6.620220,6.581309,13.964613,17.279612,11.303650,7.578270,5.778963,26.046789,16.483560,10.458038,6.812554,72.712002,-687.835999,-703.451996,23380.000000,11900.000000,3640.000000
6.249246,8.030892,10.835286,16.131947,6.859278,6.619099,6.579576,13.919463,17.306056,11.265416,7.463140,5.691766,26.203862,16.609894,10.416017,6.793814,74.419998,-688.079987,-701.743988,21980.000000,10640.000000,3010.000000
6.383592,8.084202,10.890547,16.208473,6.993278,6.803886,6.769186,14.138500,17.285074,11.235238,7.456218,5.611341,26.197664,16.610464,10.354116,6.759159,71.979999,-690.276001,-700.768005,20720.000000,9730.000000,2730.000000
6.589135,8.162501,11.068512,16.332515,7.184280,7.044122,7.003070,14.392803,17.404221,11.328605,7.541686,5.658981,26.395517,16.737134,10.486877,6.807391,73.200001,-692.228028,-696.376008,18550.000000,8470.000000,2310.000000
6.689480,8.176627,11.148643,16.350832,7.212242,7.115963,7.071639,14.406859,17.395477,11.342325,7.561812,5.710499,26.291871,16.681055,10.441966,6.815479,76.127998,-693.691986,-694.912018,16940.000000,7630.000000,1890.000000
6.800922,8.241344,11.300646,16.430960,7.230831,7.115208,7.070592,14.485810,17.686028,11.608157,7.796702,5.908675,26.872105,16.996839,10.741350,7.111829,75.640003,-697.596008,-692.959992,14980.000000,6090.000000,1470.000000
6.916239,8.263070,11.304719,16.402214,7.235256,7.118902,7.073435,14.717695,17.791880,11.759141,8.078122,6.228998,26.987710,17.098691,10.962199,7.413739,76.860001,-703.451996,-694.667999,13300.000000,5180.000000,1050.000000
7.056751,8.780171,12.009749,17.584843,7.420734,7.312126,7.262799,15.893737,18.099881,11.927289,8.076446,6.223557,27.032625,17.190654,10.982005,7.423756,77.836002,-701.011994,-690.519989,11270.000000,4200.000000,490.000000
7.266784,9.471861,12.945470,18.657093,7.517034,7.416922,7.367555,16.356396,18.832896,12.394925,8.243095,6.305106,27.301675,17.416993,11.097476,7.510363,77.104004,-705.648011,-690.276001,9240.000000,3150.000000,70.000000
7.278432,9.615460,13.041680,18.814636,7.527457,7.399001,7.351226,16.402720,19.157897,12.574383,8.388132,6.387265,27.389755,17.411237,11.086522,7.503701,76.616001,-705.648010,-689.788025,7910.000000,2730.000000,-210.000000
7.272969,9.657725,13.046687,18.868829,7.524280,7.411783,7.365283,16.398100,19.187323,12.580102,8.415379,6.378215,27.421289,17.393875,11.002158,7.427437,78.568001,-709.552002,-688.079986,6230.000000,2100.000000,-280.000000
7.258927,9.660351,13.068505,19.069989,7.554451,7.496380,7.449063,16.577566,19.149673,12.531755,8.380337,6.393988,27.518670,17.465221,11.007110,7.369789,75.396000,-714.188018,-689.544007,5320.000000,1890.000000,-210.000000
7.203307,9.712683,13.174977,19.377789,7.717504,7.645479,7.600220,17.140516,19.148015,12.514966,8.350131,6.473156,27.600592,17.587911,11.147130,7.414381,75.639999,-718.092011,-690.276001,4690.000000,1610.000000,0.000000
7.208361,9.774679,13.332217,19.632682,7.971440,7.855286,7.815868,17.735255,19.135254,12.460986,8.323216,6.484819,27.608808,17.561765,11.139267,7.408101,74.176003,-721.264007,-692.960022,4060.000000,1680.000000,350.000000
7.237202,9.942156,13.586976,19.859814,8.057779,7.888741,7.854040,18.005084,19.245959,12.564930,8.367588,6.472776,27.732814,17.645324,11.189593,7.441733,75.152004,-722.239990,-699.059998,3990.000000,1610.000000,630.000000
7.324122,10.096577,13.804526,20.209482,8.033534,7.867159,7.828700,18.363156,19.536080,12.804775,8.501845,6.427647,27.920212,17.851269,11.330206,7.542987,75.152004,-720.532013,-703.940002,4130.000000,1750.000000,1260.000000
7.451886,10.346871,14.053190,20.433808,8.043694,7.841955,7.802286,18.480787,19.991819,13.212702,8.769435,6.357494,28.121231,18.008763,11.363922,7.532178,79.300002,-724.680023,-707.844024,4830.000000,2170.000000,1820.000000
7.435999,10.444164,14.122685,20.530368,8.289773,8.073573,8.044973,19.072302,20.367789,13.512710,9.000330,6.301440,28.370609,18.132886,11.394134,7.552251,77.592001,-722.484009,-708.576020,4970.000000,2660.000000,2310.000000
7.442326,10.739749,14.611806,21.480227,8.675253,8.422473,8.400853,20.778605,20.531434,13.693289,9.289066,6.326025,28.456941,18.181019,11.411763,7.600669,75.396002,-708.088013,-701.256012,4410.000000,3080.000000,2310.000000
7.511197,11.382907,15.884696,23.376870,8.901239,8.637636,8.613566,21.666443,21.605007,14.496946,9.847263,6.517255,28.685660,18.310969,11.501373,7.630764,69.052000,-714.432007,-699.548004,5670.000000,3080.000000,2450.000000
7.493218,11.529487,16.096603,23.546623,8.893742,8.674634,8.653834,21.705772,22.178409,15.150992,10.221151,6.708473,29.004122,18.591271,11.759964,7.908715,65.879999,-717.359985,-701.500030,6930.000000,4550.000000,2590.000000
7.462198,11.608157,16.369877,24.155262,9.144505,8.944344,8.932911,22.714202,22.239482,15.165234,10.216081,6.690117,29.196820,18.772797,11.881390,8.120740,66.368002,-713.699982,-698.328003,7000.000000,6020.000000,3150.000000
7.270054,11.469008,16.346976,24.199168,9.069763,8.965279,8.945008,22.774949,22.408104,15.292049,10.269464,6.643754,29.359712,18.970587,12.002572,8.234338,68.563999,-711.015991,-700.279999,7420.000000,6510.000000,3640.000000
7.297486,11.504834,16.414520,24.379438,9.148716,9.025491,9.009692,23.069099,22.423579,15.306252,10.297180,6.634344,29.314124,18.960749,12.049315,8.285595,69.052002,-708.332001,-704.428009,7840.000000,7560.000000,3710.000000
7.286916,11.514716,16.550431,24.839068,9.220907,9.085025,9.071958,23.398904,22.805952,15.529009,10.366768,6.699304,29.811333,19.315809,12.224893,8.284964,68.563999,-707.600006,-701.256012,7280.000000,7630.000000,3570.000000
7.301289,11.547007,16.686393,25.103241,9.327102,9.192063,9.177903,23.631302,23.245786,15.975958,10.559459,6.977449,30.473746,19.978622,12.686401,8.405339,70.760002,-706.868011,-702.964020,7210.000000,7350.000000,3710.000000
7.307194,11.559382,16.696742,25.061625,9.272828,9.148771,9.135946,23.512763,23.333076,16.137226,10.618553,7.205378,30.476154,20.051439,12.694476,8.392083,70.760002,-706.136017,-699.304016,7000.000000,7210.000000,3570.000000
7.301011,11.574159,16.793991,25.197615,9.234736,9.098530,9.089560,23.525819,23.350868,16.053439,10.588188,7.236146,30.037203,19.742041,12.466967,8.356787,71.979999,-703.940002,-700.768006,6090.000000,6580.000000,3360.000000
7.212181,11.470691,16.752641,25.244976,9.187761,9.040508,9.037081,23.470198,23.374422,15.944853,10.444841,7.187179,29.966391,19.635964,12.379363,8.361351,72.223999,-707.844025,-700.279999,4830.000000,5180.000000,3220.000000
7.211398,11.488139,16.777295,25.271536,9.186860,9.026503,9.026736,23.453919,23.407525,15.985368,10.466525,7.152965,29.887344,19.650551,12.422292,8.452830,71.980003,-712.235993,-698.328003,4060.000000,4690.000000,3150.000000
7.151752,11.460791,16.762318,25.111744,9.160088,9.020400,9.018835,23.441389,23.116491,15.814558,10.376830,7.036558,29.389139,19.440662,12.350283,8.449945,75.884002,-716.140015,-699.304016,3080.000000,4340.000000,3080.000000
7.158991,11.472250,16.775556,25.100694,9.143239,9.019121,9.017776,23.480054,22.940228,15.737195,10.357965,7.016192,28.768581,19.124106,12.320491,8.470917,78.812001,-719.800019,-701.500000,2940.000000,4550.000000,2800.000000
7.309724,11.721217,17.062932,25.293592,9.160861,9.022522,9.021348,23.615693,22.876282,15.918867,10.410646,7.070733,28.386534,18.883898,12.228107,8.520345,76.860000,-719.312012,-701.012024,2520.000000,4760.000000,2660.000000
7.284412,11.828437,17.097416,25.294679,9.109217,9.007300,9.010455,23.637879,23.048068,16.202186,10.514616,7.104765,28.457653,18.995517,12.215666,8.480696,78.568003,-721.507995,-701.256012,700.000000,4620.000000,1820.000000
7.247396,11.834793,16.921694,24.989012,9.069886,8.989331,8.995620,23.482937,22.980334,16.388187,10.665190,7.347597,28.688156,19.344048,12.421974,8.584201,77.592003,-717.604004,-702.963989,-840.000000,3360.000000,1260.000000
7.172490,11.696859,16.595411,24.572075,9.012071,8.951287,8.957343,23.324895,22.414698,16.112439,10.607790,7.464181,28.302818,19.253453,12.455030,8.688637,74.908003,-719.312012,-703.940002,-2870.000000,1960.000000,980.000000
7.124832,11.730359,16.718153,24.931317,9.021205,8.967321,8.972081,23.495623,22.463118,16.091494,10.630734,7.464978,28.037362,19.135025,12.378544,8.613653,72.224001,-718.092011,-702.720032,-4200.000000,1680.000000,840.000000
7.051553,11.677751,16.537143,24.790048,9.015741,9.026142,9.036145,23.277944,22.368963,16.041722,10.602241,7.452853,27.865949,19.093596,12.402415,8.687468,71.735998,-723.704010,-699.059998,-5320.000000,1050.000000,700.000000
7.044565,11.707392,16.582951,24.631647,9.033309,9.077303,9.091385,23.133182,22.503140,16.231307,10.649496,7.401229,27.700462,19.105396,12.512400,8.946705,71.491998,-723.704010,-697.108032,-5880.000000,700.000000,560.000000
7.043389,11.804770,16.687857,24.635208,9.188050,9.206792,9.228146,23.403955,22.310743,16.192258,10.651306,7.248934,26.899831,18.797638,12.413634,9.138095,73.199999,-727.608002,-699.304016,-5670.000000,840.000000,350.000000
7.160157,12.008406,16.911351,24.817187,9.223744,9.217249,9.246734,23.675349,21.823642,15.973067,10.686920,7.194142,25.854344,18.247880,12.124429,9.153341,71.736000,-725.900024,-699.548004,-4690.000000,980.000000,140.000000
7.085248,11.940379,16.816101,24.824310,9.176834,9.196450,9.231518,23.807451,21.698383,15.862662,10.598727,7.189657,25.720150,18.069519,11.953140,9.048830,72.468000,-726.144012,-696.619995,-3780.000000,1120.000000,-140.000000
7.078662,11.893427,16.788183,24.732648,9.216450,9.248514,9.283934,23.822788,21.634026,15.930228,10.693942,7.251033,25.417863,18.000180,12.034215,9.155359,72.955999,-724.679993,-691.007995,-2520.000000,770.000000,-210.000000
7.126987,11.735500,16.671152,24.536296,9.107379,9.130661,9.165377,23.574635,21.660702,15.978327,10.867936,7.415368,25.607423,18.409515,12.508731,9.609641,74.175998,-723.947998,-687.591979,-630.000000,420.000000,-350.000000
7.218470,11.597073,16.600597,24.385845,8.929289,8.824334,8.854611,23.648965,21.482252,15.916497,11.027920,7.381109,25.466906,18.349640,12.547763,9.705404,72.956001,-723.216003,-683.200012,840.000000,560.000000,-490.000000
7.335322,11.976574,17.358690,25.640003,9.309294,9.061311,9.076407,25.277774,21.806378,16.280037,11.352722,7.446823,26.325031,18.936802,13.082321,9.989515,74.908001,-725.167999,-683.687988,2310.000000,840.000000,-630.000000
7.354593,12.607882,18.317656,26.471288,9.085710,8.888082,8.905374,25.421204,22.812390,17.240037,11.935163,7.625270,26.838311,19.298806,13.301733,9.993577,76.128002,-723.216003,-679.052002,3360.000000,980.000000,-770.000000
7.231001,12.630679,18.438505,26.349871,8.682250,8.497928,8.511415,25.072574,22.807807,17.280544,11.892773,7.558806,26.875182,19.301937,13.308719,9.999622,76.127999,-721.996002,-677.832031,3920.000000,840.000000,-1120.000000
7.228819,12.638253,18.449213,26.408067,8.658050,8.472592,8.481045,25.058910,23.065577,17.466184,11.950071,7.535537,27.321343,19.459411,13.506616,10.136198,71.492002,-717.604004,-678.320007,3920.000000,490.000000,-1680.000000
7.510319,13.020819,18.798972,26.630905,8.679177,8.493110,8.503176,25.000419,23.496325,18.099161,12.499219,7.792404,27.576346,19.601135,13.786089,10.312649,72.224003,-715.407989,-679.296020,3430.000000,-70.000000,-1890.000000
7.712135,13.347486,19.220327,27.100077,8.696149,8.498545,8.507538,25.280235,23.742928,18.537608,12.862880,7.877471,27.485661,19.547164,13.821802,10.297294,72.224001,-715.652008,-677.343994,2310.000000,-840.000000,-2170.000000
7.723659,13.394705,19.428884,27.502618,8.754342,8.532738,8.537450,25.473717,23.754894,18.550035,12.883224,7.868456,27.268355,19.412266,13.804289,10.294647,73.444002,-717.848023,-677.587982,1610.000000,-1260.000000,-2170.000000
7.627318,13.358342,19.473265,27.555499,8.670921,8.400327,8.400929,25.450101,23.804371,18.571032,12.897303,7.900775,27.395432,19.496888,13.901090,10.353312,71.736002,-716.384003,-681.492004,1330.000000,-1260.000000,-2030.000000
7.445166,13.297113,19.407578,27.576366,8.528944,8.206813,8.206573,25.383750,23.742693,18.497530,12.837410,7.832131,27.217329,19.399646,13.821760,10.329875,71.248001,-717.360016,-687.348023,1750.000000,-1120.000000,-1890.000000
7.361621,13.338549,19.404185,27.603313,8.507203,8.141426,8.146252,25.442309,23.726729,18.504903,12.886857,7.828438,27.210510,19.413720,13.841126,10.403213,73.688000,-717.360016,-687.347992,1680.000000,-1050.000000,-1540.000000
7.315443,13.432313,19.597274,27.903052,8.551475,8.203572,8.203007,25.757176,23.728122,18.425415,12.850101,7.741839,26.976794,19.285157,13.695302,10.239622,72.224003,-716.140015,-689.056000,2310.000000,-560.000000,-1050.000000
7.206433,13.467497,19.828105,28.269897,8.577631,8.226059,8.225851,25.933434,24.125291,18.538437,12.785170,7.597032,27.638194,19.687937,13.871095,10.217541,72.712002,-715.895996,-685.884002,2870.000000,-210.000000,-490.000000
7.104675,13.170512,19.466143,27.667904,8.482104,8.115807,8.122661,25.481068,23.968277,18.485653,12.840344,7.712548,27.645925,19.660288,13.965549,10.324386,72.955997,-715.164032,-689.056000,3290.000000,-70.000000,-140.000000
6.944094,12.858347,19.004648,27.145229,8.661137,8.266328,8.276847,25.573522,23.444892,18.181102,12.752603,7.673834,27.424242,19.486428,13.873424,10.248873,74.176003,-714.675995,-690.032013,3850.000000,420.000000,70.000000
6.924974,12.785641,18.946457,27.038522,8.788255,8.402364,8.411897,25.672469,23.243890,18.141255,12.655295,7.600224,27.612781,19.738940,14.063100,10.338697,74.419998,-712.968017,-691.008026,4200.000000,770.000000,210.000000
6.901627,12.748436,18.948150,27.025629,8.933884,8.513002,8.530158,25.835203,23.276152,18.219410,12.686397,7.591733,27.749482,19.922145,14.314927,10.403702,73.932003,-714.188019,-690.764007,4270.000000,1330.000000,420.000000
6.883573,12.755364,18.932633,26.886146,9.057643,8.628491,8.652480,25.779503,23.360316,18.267744,12.706233,7.539314,27.682579,19.872845,14.323442,10.448022,74.420002,-706.623993,-700.768006,4410.000000,1820.000000,420.000000
7.021866,12.907880,19.066097,27.070536,9.257891,8.834534,8.853781,26.197435,23.426379,18.265635,12.710740,7.565354,27.781362,19.900605,14.266950,10.556411,72.956001,-711.503997,-692.228028,4550.000000,1540.000000,770.000000
7.004493,12.942612,19.007821,27.183594,9.476490,9.126729,9.139351,26.843532,23.498544,18.403300,12.753719,7.605985,28.141057,20.183373,14.456166,10.675918,73.687999,-708.088012,-699.059998,4410.000000,700.000000,770.000000
6.996267,12.927146,18.931848,27.225759,9.779379,9.535147,9.547921,27.268917,23.425102,18.372962,12.748875,7.622959,28.039733,20.100630,14.420303,10.652188,71.492001,-708.332031,-693.936005,4060.000000,210.000000,770.000000
6.937872,12.853905,18.799432,27.034551,10.007306,9.804818,9.821643,27.239065,23.149137,18.223926,12.652439,7.633370,27.808885,19.943052,14.320000,10.617430,71.980003,-712.236023,-694.912018,3570.000000,-140.000000,560.000000
6.849030,12.685877,18.625829,26.818794,10.013330,9.829721,9.848792,27.177112,22.636907,17.866471,12.392626,7.522904,27.561723,19.762603,14.258914,10.613205,72.224003,-715.164002,-695.888000,3710.000000,-70.000000,560.000000
7.002302,12.698165,18.639813,26.748139,9.804511,9.645007,9.658565,26.831645,22.353908,17.724072,12.315955,7.502783,27.417398,19.638464,14.176565,10.575663,73.200001,-716.628021,-696.376007,4060.000000,140.000000,630.000000
7.039959,12.531401,18.434722,26.253823,9.773168,9.692616,9.704515,26.152408,22.377562,17.878192,12.330281,7.503533,27.451483,19.787520,14.257150,10.662913,72.468003,-720.532013,-698.816010,4130.000000,140.000000,770.000000
6.909696,11.940951,17.349921,24.695423,10.049986,10.105861,10.124727,26.115045,21.696682,17.784168,12.139745,7.520936,27.858511,20.333958,14.629756,11.038842,71.248002,-720.287994,-692.227997,4270.000000,0.000000,910.000000
6.995509,12.283749,17.619507,25.448925,10.497778,10.564262,10.583152,27.062746,21.306900,17.286770,11.837407,7.371218,28.280298,20.719999,14.832003,11.308394,74.663998,-722.727997,-692.228028,4060.000000,70.000000,1050.000000
7.122481,12.591737,17.641365,25.318986,10.634295,10.664219,10.678952,26.834886,21.326481,17.266789,11.806046,7.385409,28.806752,21.150919,15.115747,11.468439,71.980004,-726.144012,-688.568024,3850.000000,-420.000000,1260.000000
7.120596,12.528444,17.521949,25.107180,10.602507,10.592284,10.609516,26.746729,21.055543,17.072976,11.691379,7.383409,28.538345,20.949766,14.948869,11.354278,70.027999,-726.876007,-683.444001,3360.000000,-980.000000,1400.000000
7.159212,12.585165,17.620660,25.303286,10.715335,10.687508,10.709916,27.458325,21.247747,17.317445,11.854144,7.554890,29.472002,21.544530,15.310162,11.745611,67.100000,-728.828033,-680.272003,3080.000000,-2030.000000,1470.000000
7.218080,12.636337,17.731460,25.462155,11.142442,11.016852,11.053069,28.291835,20.870937,17.198727,11.829382,7.489061,29.522654,21.587426,15.350858,11.909514,63.684002,-723.460022,-674.416016,2030.000000,-3360.000000,1260.000000
7.224977,12.609292,17.687219,25.367733,11.169785,10.985263,11.023379,28.263852,20.320951,16.733813,11.654901,7.296773,28.527042,20.775777,14.814359,11.788997,60.512003,-724.436004,-666.608002,770.000000,-4760.000000,910.000000
7.358055,12.775451,17.964878,25.827037,11.460937,11.234176,11.269666,29.143355,20.191350,16.532847,11.591967,7.085082,28.169725,20.433458,14.632301,11.965709,57.584001,-721.508026,-653.432037,-490.000000,-6370.000000,140.000000
7.723317,13.169844,18.494990,26.514337,12.095542,11.866747,11.901947,30.484272,19.973898,16.622143,11.694283,7.239564,28.034737,20.453731,14.729858,12.129381,50.020000,-718.092011,-626.104004,-3080.000000,-8680.000000,-910.000000
8.023896,13.509055,18.829010,26.854161,12.298403,12.167792,12.203197,30.766988,19.995039,16.761436,11.907462,7.330012,27.991269,20.495972,14.745806,12.134807,44.896000,-716.628021,-601.216003,-7490.000000,-12880.000000,-2800.000000
8.144399,13.644403,18.887303,26.904179,12.398935,12.311841,12.348411,31.046919,19.853603,16.741013,11.988518,7.425327,27.909370,20.424343,14.797698,12.170670,42.456001,-719.312012,-584.868011,-15260.000000,-18130.000000,-5040.000000
8.233453,13.705487,19.096863,27.277619,12.547078,12.433159,12.472876,31.725272,20.037783,16.736092,11.963499,7.442399,28.157978,20.476763,14.729472,12.071960,50.508001,-721.020019,-603.412018,-27230.000000,-24990.000000,-8610.000000
8.365104,13.774347,19.381630,27.652383,12.808694,12.591621,12.629511,32.500680,20.204203,16.890311,12.227050,7.624045,28.286653,20.716922,14.884578,12.300067,60.268000,-732.000000,-633.180023,-34160.000000,-28070.000000,-11060.000000
8.420402,13.712654,19.501474,27.892294,13.229705,12.823608,12.857990,33.458997,20.623644,17.220682,12.603701,7.870943,29.607337,21.906752,15.911096,13.150101,67.588002,-744.932007,-646.600006,-39970.000000,-29190.000000,-12810.000000
8.935315,14.207573,19.930424,28.318256,13.834526,13.132388,13.158235,34.016610,20.333135,16.941471,12.521398,7.848000,29.836756,22.120900,16.198370,13.519676,70.028000,-749.324005,-657.335998,-40810.000000,-29260.000000,-13720.000000
9.028312,14.320067,19.955964,28.526425,13.869291,13.107443,13.132922,34.013829,20.765776,16.961507,12.482716,7.772971,30.669837,22.797041,16.668639,14.023500,73.200001,-750.544006,-664.411988,-39900.000000,-28140.000000,-14000.000000
9.051950,14.347759,20.052163,28.580652,14.010798,13.365525,13.394842,34.218640,20.810158,17.073648,12.526429,7.949207,31.082675,23.043698,16.935927,14.334263,70.028002,-746.640014,-663.192017,-39200.000000,-26880.000000,-14000.000000
9.444476,14.504052,20.071243,28.304123,14.169259,13.608097,13.641817,34.218104,20.931705,17.485347,12.942466,8.397411,31.664520,23.517461,17.445492,14.730016,64.660000,-743.712006,-653.919983,-38780.000000,-26600.000000,-13650.000000
10.471834,15.457938,21.134467,28.818506,14.580442,13.949690,13.967428,34.785894,21.542146,18.321197,13.854963,8.777651,31.765748,23.684877,17.591048,14.781634,62.464000,-737.124023,-642.451996,-39550.000000,-27160.000000,-13160.000000
10.926950,15.719013,21.153968,28.820658,14.973733,14.333046,14.350918,35.116815,21.261550,18.145956,13.901770,8.824594,31.996707,23.674610,17.554553,14.573301,61.976002,-734.195984,-649.283997,-41650.000000,-28210.000000,-12950.000000
10.959850,15.656819,21.138512,28.894222,14.918123,14.414299,14.426654,34.911370,21.624986,18.326373,13.936312,8.836610,32.242669,23.686099,17.516433,14.274038,63.684000,-731.756012,-651.235993,-43680.000000,-28630.000000,-12880.000000
10.918369,15.495519,20.894223,28.628879,14.863573,14.379844,14.391838,34.699160,21.640263,18.337508,13.870722,8.816780,32.254102,23.701403,17.500444,14.161577,63.928002,-731.756012,-649.040008,-46060.000000,-29540.000000,-13020.000000
10.927414,15.537092,20.933999,28.746238,14.892216,14.378650,14.389792,34.792190,21.689450,18.341113,13.867301,8.811797,32.274582,23.682811,17.483240,14.162694,69.540003,-735.660004,-661.972015,-47670.000000,-30870.000000,-13090.000000
11.009742,15.970647,21.149313,28.978566,15.003755,14.336899,14.348093,34.916105,21.824112,18.417468,13.868224,8.842961,32.300252,23.620317,17.438036,14.106285,73.932001,-739.076020,-680.272033,-48510.000000,-30730.000000,-12880.000000
10.989185,16.248882,21.195370,28.962088,15.072213,14.349537,14.361926,34.908784,21.697943,18.391517,13.829536,8.802674,31.935064,23.359455,17.212662,13.878705,76.372002,-739.320007,-693.936005,-47110.000000,-28420.000000,-12740.000000
11.062351,16.690016,21.284436,29.041703,15.237938,14.342003,14.356951,34.906925,22.132320,18.657570,13.959829,8.992923,32.746036,23.999889,17.492155,13.922234,75.152002,-719.312011,-701.988006,-44590.000000,-25620.000000,-12320.000000
11.124062,16.465283,20.636144,27.982334,15.231618,14.281676,14.306692,34.100281,21.836956,18.337136,13.702891,8.956928,32.610182,23.982626,17.345336,13.809568,89.304001,-662.459992,-794.463990,-42140.000000,-22400.000000,-11900.000000
11.017147,16.059754,19.899698,27.242035,15.248256,14.305860,14.330075,33.787742,20.909907,17.614720,13.239340,8.812436,32.430878,23.805546,17.209020,13.815738,83.204001,-745.420014,-723.948028,-42630.000000,-20300.000000,-11760.000000
11.032618,16.015637,20.086670,27.647833,15.271298,14.310176,14.335988,34.019757,21.541536,18.172123,13.544292,8.947163,32.853578,24.088187,17.392086,13.834939,92.476002,-858.636017,-670.023987,-38990.000000,-16800.000000,-10290.000000
11.149379,16.370119,20.434633,28.247820,15.336598,14.336050,14.361751,34.669199,21.621104,18.035851,13.455847,8.956172,32.456918,23.818993,17.150290,13.756506,72.956001,-861.075988,-623.420013,-20090.000000,-7280.000000,-6580.000000
11.043984,16.613438,20.555773,28.736856,15.410428,14.351172,14.376391,35.174606,21.484514,17.505006,13.000720,8.697486,32.145489,23.568304,16.854852,13.613028,62.220000,-676.856018,-686.372009,-210.000000,3500.000000,-5740.000000
10.937502,16.806982,20.597882,28.986540,15.532771,14.395495,14.423460,35.298498,22.100324,17.453396,12.810260,8.636553,33.076796,24.084679,17.100870,13.754897,40.748000,-499.467987,-767.624024,-13650.000000,-1680.000000,-9170.000000
10.981914,16.928099,20.439002,28.642555,15.702721,14.508471,14.539632,35.514674,22.532960,17.782231,12.960599,8.711559,34.354783,24.854962,17.450788,13.924427,86.375999,-683.444001,-814.959991,-31710.000000,-4410.000000,-10430.000000
11.017056,16.991697,20.418165,28.732928,15.834967,14.595338,14.631912,35.789558,22.538018,17.810508,12.969694,8.696712,34.745359,25.130729,17.494119,13.935183,73.931999,-745.908020,-694.668030,-32480.000000,1890.000000,-4970.000000
11.030047,16.988992,20.438622,28.800387,15.808260,14.571657,14.608404,35.833276,22.527707,17.818836,12.971976,8.750328,34.745898,25.138502,17.495090,13.948780,61.976000,-729.560029,-691.008026,-13930.000000,11690.000000,-1050.000000
11.025380,16.957998,20.471868,28.764740,15.865035,14.763787,14.800164,36.030911,22.996487,18.250594,13.004184,8.869951,35.800312,25.643826,17.842366,13.931503,59.536003,-693.936005,-750.056030,-7980.000000,11200.000000,-2660.000000
11.106671,17.104986,20.417592,28.724744,16.103273,15.126816,15.168675,36.411866,23.466911,18.685113,13.087939,8.887153,37.151166,26.369794,18.327806,14.028382,61.244000,-687.104004,-760.059998,-8610.000000,3360.000000,-4550.000000
11.131590,17.335873,20.267906,28.592140,16.223552,15.284241,15.328380,36.588873,22.883890,18.410797,12.941543,8.832376,36.774300,26.113248,18.233057,14.036679,70.028000,-681.003997,-764.451996,-7280.000000,70.000000,-4340.000000
11.115314,17.532058,20.304237,28.722341,16.226944,15.308510,15.354580,36.745133,22.781991,18.350776,12.900029,8.796651,36.949226,26.245797,18.359724,14.196915,74.176001,-651.235993,-783.727997,-2170.000000,1050.000000,-3290.000000
11.125195,17.897229,20.340417,28.780872,16.100985,15.211041,15.258117,36.648611,22.830474,18.460636,13.020822,8.831269,36.897205,26.198166,18.359160,14.207628,86.863998,-620.980011,-810.079987,-1260.000000,2170.000000,-3080.000000
11.120226,17.952718,20.334322,28.788843,16.164522,15.267965,15.314382,36.873479,23.157289,18.755967,13.207462,8.981114,37.362481,26.389842,18.551295,14.343802,86.619999,-675.391998,-766.891998,-3500.000000,980.000000,-2730.000000
11.182406,18.020204,21.045261,29.667188,16.423362,15.394552,15.438946,37.833262,23.042363,18.587212,13.121458,9.038400,37.206329,26.257370,18.464805,14.508113,88.084003,-717.604003,-708.820007,5320.000000,-1890.000000,-1050.000000
11.289049,18.548817,21.471591,30.144375,16.452122,15.343650,15.393950,38.010714,23.295716,18.911511,13.346257,9.127175,37.580760,26.623925,18.689978,14.586041,78.323997,-716.627991,-671.244019,13370.000000,-3150.000000,-1330.000000
11.281903,19.211362,21.430004,29.976696,16.331634,15.193244,15.245548,37.707182,23.404948,19.098149,13.478792,9.119732,37.732023,26.732694,18.751831,14.562565,77.348000,-707.355988,-677.587982,13440.000000,-7770.000000,-3220.000000
11.430227,19.475864,21.549257,30.087755,16.100560,14.899696,14.957333,37.077597,23.502204,19.050279,13.519005,9.107746,37.476672,26.545775,18.600578,14.476779,76.372002,-698.571991,-684.664002,8820.000000,-13510.000000,-5040.000000
11.664835,19.904167,21.486215,29.897719,15.875108,14.877474,14.930539,36.703868,23.491234,19.110843,13.661900,9.182029,37.459009,26.551409,18.657066,14.530364,76.372002,-694.912018,-690.520019,4900.000000,-16240.000000,-6370.000000
11.701247,19.954315,21.503714,29.882820,15.749347,14.921762,14.973039,36.636879,23.563393,19.153273,13.674534,9.201110,37.521352,26.577151,18.694895,14.492205,77.591999,-699.059998,-689.544007,2170.000000,-16590.000000,-7070.000000
11.671033,19.941642,21.788599,30.101222,15.756782,14.924531,14.976133,36.677925,23.881801,19.440089,13.787185,9.401503,37.622789,26.606777,18.715207,14.522664,73.931999,-700.036011,-689.055999,420.000000,-16940.000000,-8260.000000
11.620881,19.917148,21.858929,30.353026,15.863150,14.936365,14.986621,36.925598,23.772107,19.353260,13.681301,9.490904,37.492253,26.636758,18.816997,14.620136,76.128000,-704.671997,-691.740020,-1960.000000,-18690.000000,-9590.000000
11.692474,19.947198,21.824797,30.275040,15.747074,14.677445,14.729813,36.426674,23.683199,19.175906,13.497635,9.478166,37.408862,26.729607,18.943962,14.683056,75.396000,-708.575988,-693.692016,-4550.000000,-20790.000000,-10640.000000
11.723986,19.989739,21.874300,30.245407,15.457550,14.208303,14.260180,35.906446,23.518588,18.873112,13.374298,9.340371,37.218915,26.695023,18.889463,14.496810,77.592003,-718.580017,-700.035980,-6090.000000,-22050.000000,-11060.000000
11.995752,20.279582,22.061778,29.951354,15.263371,13.858213,13.908813,35.440734,23.535188,19.146048,13.788308,9.461992,36.633809,26.307499,18.710400,14.242155,75.152000,-725.412018,-700.523986,-6790.000000,-21140.000000,-11200.000000
12.403762,20.520043,22.369655,29.962762,15.164041,13.639553,13.693263,35.340107,23.436578,19.301943,14.199687,9.621583,36.042517,25.827149,18.415550,14.051281,73.931999,-727.608002,-698.572021,-6790.000000,-20090.000000,-10850.000000
12.579007,20.655104,22.573058,30.201507,15.153571,13.632131,13.683796,35.431050,23.463561,19.315626,14.261736,9.631604,36.287168,25.944390,18.413675,14.053095,71.248001,-732.000000,-687.592011,-5460.000000,-18340.000000,-10290.000000
12.556313,20.624189,22.632332,30.097399,15.026400,13.549979,13.595903,34.861578,23.399613,19.165001,14.096544,9.527731,35.756560,25.607200,18.176369,13.866882,80.764000,-742.736023,-719.068023,-4480.000000,-16870.000000,-9450.000000
12.557474,20.717406,22.981953,29.992580,14.699132,13.285763,13.318211,34.373497,23.440104,19.214339,14.135989,9.515760,35.352462,25.315087,18.031721,13.826028,76.616001,-740.784027,-726.388031,-2800.000000,-15540.000000,-8260.000000
12.714985,21.080114,23.687722,30.511747,14.761377,13.312963,13.343295,34.776887,23.571305,19.482187,14.430650,9.664548,35.425097,25.315435,18.040430,13.805633,70.028000,-736.392028,-705.648010,3220.000000,-10150.000000,-6580.000000
12.952850,21.242939,23.726200,30.211878,14.839724,13.336388,13.368432,34.196535,23.503235,19.646002,14.737544,10.289120,35.478866,25.417988,18.189039,13.997155,72.224001,-743.956024,-718.092010,7770.000000,-5600.000000,-5040.000000
12.826280,20.948651,23.214900,29.747610,14.418747,12.831200,12.856375,33.138473,23.370651,19.523584,14.672255,10.676086,35.507244,25.417775,18.345955,14.397157,71.735998,-732.732025,-716.627991,11130.000000,-4130.000000,-3710.000000
12.720527,20.731869,22.870559,29.457984,14.253800,12.534101,12.558325,33.044186,23.254175,19.521054,14.577371,10.736844,35.834725,25.564688,18.510305,14.514683,67.588001,-729.560028,-715.895996,15890.000000,-1120.000000,-2240.000000
12.712712,20.659938,22.826810,29.438446,14.184677,12.407217,12.428191,32.782332,23.585817,19.598810,14.514571,10.733631,36.279973,25.677049,18.664253,14.501151,64.416000,-723.459991,-712.723999,20020.000000,1750.000000,-1260.000000
12.678373,20.634453,22.658817,29.090793,14.114244,12.386793,12.405552,32.168097,23.536028,19.657933,14.642021,10.742696,36.117466,25.665954,18.867063,14.557573,63.684002,-718.824005,-703.940002,23590.000000,4130.000000,-420.000000
12.583781,20.591555,22.420662,28.696710,13.885983,12.242629,12.262746,31.360423,23.458087,19.598177,14.545156,10.658443,36.143990,25.525282,18.691061,14.346115,61.244000,-712.480011,-707.600006,26040.000000,5460.000000,-70.000000
12.500490,20.501189,22.010755,28.168478,13.486434,11.990151,12.016553,30.207783,23.281680,19.334099,14.363817,10.610755,35.777296,24.609511,17.855535,13.546827,59.780000,-713.455993,-709.063996,28000.000000,6230.000000,140.000000
12.117527,20.078360,21.413328,27.658754,12.805604,11.575710,11.611256,29.452767,23.432508,19.386133,14.509243,10.740815,35.692122,24.229426,17.511333,13.155309,58.804001,-714.432007,-708.088013,29400.000000,6650.000000,210.000000
12.164036,20.117202,21.540465,27.832193,12.890281,11.725593,11.764907,29.786658,23.119000,19.217723,14.620793,10.807266,34.590412,23.162670,16.885052,12.786753,60.268001,-713.212006,-709.064026,30660.000000,6860.000000,210.000000
12.264037,20.444502,21.872260,28.361764,12.948484,11.619076,11.660319,30.091448,23.314693,19.183033,14.680395,10.593653,34.106034,22.738530,16.496091,12.383217,63.684002,-710.040008,-706.380005,31570.000000,6930.000000,70.000000
12.025475,20.424557,21.796377,28.401576,12.860592,11.356734,11.388477,30.007844,23.215638,18.805551,14.280557,10.215067,34.095512,22.456744,15.953416,11.815972,64.903999,-705.648010,-707.600006,32690.000000,6440.000000,0.000000
11.142057,19.803152,20.957058,27.976798,12.405431,10.954730,11.001157,29.477555,22.726813,18.145082,13.532815,10.113910,34.089769,22.291179,15.801406,11.719093,70.271999,-707.600006,-723.216034,34720.000000,6160.000000,210.000000
10.688221,19.607760,20.892215,28.068848,11.995041,10.551779,10.602946,29.517896,22.946192,18.311353,13.622242,10.324406,34.186890,22.614815,16.214067,12.108601,67.588001,-703.208008,-726.388001,36960.000000,7070.000000,210.000000
10.889236,19.635925,20.913921,28.056187,11.983700,10.377211,10.433922,29.582087,22.699731,18.230858,13.595410,10.315407,33.719092,22.328474,16.049229,12.115488,67.344000,-698.816010,-718.335998,41440.000000,9450.000000,630.000000
10.969823,19.600316,20.836815,27.923919,12.014182,10.449867,10.496860,29.515186,22.730171,18.421607,13.592896,10.329162,33.985034,22.476440,16.191147,12.205033,70.271999,-702.964019,-719.556000,42560.000000,9520.000000,560.000000
10.945146,19.640216,20.882949,27.850786,12.001591,10.543409,10.583182,29.393843,22.972239,18.693577,13.634955,10.323795,34.336981,22.691174,16.310514,12.201668,72.711999,-702.963990,-731.268006,43890.000000,9590.000000,560.000000
10.929132,19.394373,20.834865,27.738154,11.856739,10.580538,10.613700,29.258511,23.005491,18.663954,13.741401,10.345078,34.385953,22.866866,16.427692,12.286821,75.396000,-700.768005,-730.048004,46130.000000,10640.000000,700.000000
11.047123,19.226915,21.083396,27.952696,11.776702,10.537350,10.571100,29.263794,23.588275,19.113395,14.120865,10.420327,34.997658,23.538944,17.066735,12.636655,74.908003,-700.036010,-726.388031,47810.000000,11270.000000,560.000000
10.940621,18.608059,20.890117,27.857726,11.611091,10.567369,10.607089,29.035439,23.510816,18.985373,13.991089,10.263674,34.595200,23.272082,17.050168,12.580367,76.372001,-697.839996,-728.584015,49910.000000,11690.000000,560.000000
10.866808,18.441221,20.917842,27.928191,11.347889,10.461213,10.497613,28.737432,23.602010,19.104170,13.994129,10.262949,34.300157,22.984181,16.938565,12.514104,78.079998,-691.984009,-730.291992,51590.000000,11760.000000,630.000000
10.913098,18.313322,20.747500,27.579567,11.365619,10.547191,10.597179,28.621388,23.482602,18.927224,13.890173,10.260870,34.524625,23.061741,17.005332,12.562570,77.348000,-697.840027,-726.876007,53130.000000,11970.000000,700.000000
10.985758,18.312376,20.421188,27.057210,11.333955,10.566203,10.615624,28.412954,23.145386,18.498204,13.783851,10.212025,34.498889,23.137310,16.917955,12.584728,80.032002,-706.380005,-719.556030,53480.000000,12110.000000,560.000000
11.050606,18.075644,20.211828,26.768126,11.235457,10.538718,10.586906,27.646822,23.350066,18.904934,14.124481,10.290797,34.728677,23.600718,17.123556,12.593100,79.788002,-709.796020,-717.360015,54250.000000,12250.000000,700.000000
11.091857,17.762495,19.895675,26.292354,11.219286,10.617673,10.657503,27.109034,23.212516,18.892685,14.244719,10.457505,34.720269,23.688453,17.202859,12.621513,78.568001,-710.528015,-713.212006,55370.000000,11900.000000,980.000000
11.123220,17.275016,19.373219,25.469043,11.091771,10.637279,10.675192,26.696698,22.215574,18.394054,14.102120,10.610833,33.670663,23.112504,16.956274,12.560176,76.128002,-704.915985,-708.088012,55230.000000,11410.000000,630.000000
11.156770,17.271991,19.555009,25.715929,10.830618,10.472332,10.514727,26.503216,22.016852,18.240771,14.134051,10.716032,32.444903,22.479709,16.724086,12.497215,77.348003,-703.940002,-701.744019,53830.000000,10430.000000,350.000000
11.234514,17.464310,19.754660,25.883984,10.674351,10.381407,10.423341,26.291009,22.422305,18.595976,14.519626,10.895763,32.169906,22.630988,16.920015,12.625280,77.104000,-699.548004,-701.500000,53060.000000,9170.000000,350.000000
11.265167,17.585920,19.791038,25.913746,10.664815,10.385753,10.440556,26.206182,22.613898,18.781122,14.776554,10.919868,32.332207,23.034332,17.128128,12.715336,76.860000,-697.108002,-700.523987,51660.000000,8750.000000,210.000000
11.301556,17.613385,19.734985,25.927838,10.594649,10.123685,10.175547,25.948218,22.171779,18.341822,14.709800,10.839700,31.171023,22.467318,16.744599,12.655331,78.812000,-694.180023,-704.916015,49700.000000,7840.000000,0.000000
11.252343,17.717450,20.018062,26.117484,10.357906,9.572629,9.621593,25.729852,22.147780,18.464888,14.844120,10.841267,29.709411,21.816668,16.263543,12.520217,79.055999,-694.912018,-703.696014,47180.000000,6860.000000,-420.000000
11.397901,17.931588,20.322266,26.157107,10.360904,9.357016,9.399749,25.440978,22.833011,19.066287,15.260827,11.090037,29.760151,21.950630,16.154824,12.375032,82.716000,-701.256012,-706.624024,45780.000000,6510.000000,-420.000000
11.540135,17.975752,20.330086,25.967085,10.406294,9.309935,9.347192,25.059796,23.066880,19.318598,15.564459,11.368692,29.487384,21.852323,15.979621,12.139609,81.251998,-702.720001,-707.600006,43680.000000,5950.000000,-210.000000
11.656456,17.768026,20.310042,25.899200,10.572258,9.487886,9.529542,25.059272,23.039897,19.371721,15.755301,11.718186,29.507416,21.957874,16.153730,12.392311,80.276001,-709.795990,-707.356018,43120.000000,6370.000000,-140.000000
11.655263,17.710903,20.331618,25.907751,10.440813,9.404110,9.460005,24.679913,22.679678,19.000994,15.590996,11.646646,28.598695,21.438388,15.643416,12.137962,78.324002,-709.307984,-704.672028,42420.000000,6440.000000,-140.000000
11.591053,17.697417,19.822558,25.135801,9.985102,9.139582,9.193773,23.182382,23.031044,19.222510,15.662551,11.663324,28.890676,21.767804,15.589347,11.979025,76.372002,-711.992005,-702.232025,42140.000000,7140.000000,-350.000000
11.515010,17.309138,19.630325,24.766116,9.848141,9.040949,9.091878,22.964539,22.837081,19.033024,15.520557,11.638077,28.725098,21.718230,15.538697,12.019223,79.299999,-719.067993,-697.596008,41580.000000,7630.000000,-350.000000
11.669049,16.715406,19.764435,24.539604,9.933729,9.146636,9.212271,22.679844,22.805812,19.129111,15.614069,11.677492,28.521200,21.585615,15.473030,11.880235,79.056004,-707.111999,-691.739990,40460.000000,6860.000000,-420.000000
11.557557,16.289640,19.575245,23.972504,9.943564,9.214323,9.283126,22.499650,22.711615,19.137427,15.636230,11.722752,28.576188,21.668530,15.530123,11.936154,79.543998,-710.528016,-688.567993,40600.000000,6440.000000,-140.000000
11.320775,15.684510,19.562834,23.975021,10.000937,8.865888,8.942595,22.378095,22.821396,19.146278,15.593762,11.860053,28.880541,21.950511,15.719955,12.166083,84.668003,-714.432007,-692.472015,38780.000000,5110.000000,-280.000000
11.302781,15.652903,19.608957,23.968889,10.082360,8.574988,8.661195,22.279674,22.757573,19.110015,15.630676,11.952932,28.793762,21.892815,15.695547,12.243786,83.936000,-715.652008,-688.812012,38080.000000,4480.000000,0.000000
11.358964,15.707411,19.345287,23.731947,10.165939,8.750109,8.864143,22.176544,22.600430,18.956128,15.681393,11.940590,28.744495,21.943514,15.674417,12.198454,85.399997,-715.408020,-687.104004,36890.000000,3850.000000,280.000000
11.330843,15.674276,19.201191,23.379925,9.955736,8.731381,8.856528,21.576124,22.620346,18.947796,15.761414,11.911279,28.762593,21.891088,15.622656,12.104432,82.959999,-715.164002,-685.884003,36960.000000,3570.000000,630.000000
11.223471,15.564830,19.082715,23.172898,9.793783,8.643080,8.775095,21.446659,22.572557,18.933782,15.778287,11.863891,28.736260,21.646242,15.407098,11.922094,82.228001,-713.700012,-686.860016,36960.000000,3290.000000,980.000000
11.197405,15.506354,18.966404,22.938203,9.753345,8.654232,8.773609,21.257781,22.465387,18.893799,15.722085,11.878502,28.591185,21.345460,15.228418,11.895914,81.984002,-713.212006,-695.156006,35490.000000,2520.000000,1120.000000
10.874193,14.841391,18.370365,22.338571,9.631350,8.701323,8.802949,20.858177,22.279208,18.655272,15.425285,11.829737,28.604275,21.341211,15.127871,11.857796,76.128000,-709.552002,-679.783997,34650.000000,2450.000000,1260.000000
10.308816,14.169351,17.732929,21.807151,9.371691,8.705271,8.787353,20.286801,22.295250,18.541793,15.118131,11.752149,28.689967,21.391123,15.117186,11.834874,77.104000,-720.044006,-685.639984,33390.000000,2730.000000,1400.000000
10.131802,13.940442,17.456298,21.506433,9.463519,8.808809,8.876201,20.221800,22.230892,18.547178,15.123971,11.882160,28.364838,21.270286,15.243112,11.973332,76.859999,-711.748016,-688.567993,31430.000000,770.000000,1330.000000
10.144488,13.943152,17.271464,21.298730,9.627281,8.969545,9.038429,19.970118,22.172939,18.522295,15.132814,11.956425,28.330371,21.235608,15.257402,11.909433,77.348003,-715.408020,-695.156006,31080.000000,210.000000,1540.000000
10.192556,14.045951,16.885679,21.316859,9.628985,9.030716,9.115174,19.763406,22.345877,18.582431,15.264407,12.031316,28.607290,21.423418,15.386335,11.827228,76.128002,-716.384003,-698.571991,30870.000000,1120.000000,1610.000000
10.197616,14.267335,16.592027,21.534728,9.801892,9.304201,9.421765,19.810957,22.679293,18.795641,15.476497,12.146575,28.890258,21.754915,15.701895,12.019995,76.128000,-714.920014,-697.108002,30800.000000,1400.000000,1750.000000
9.912550,14.168855,16.472806,21.735911,9.695727,9.284093,9.418146,19.889043,22.860269,18.835145,15.455791,11.890678,28.992953,21.916104,15.764848,11.735775,74.907999,-713.944031,-693.936005,30730.000000,2310.000000,1890.000000
9.816932,14.145110,16.323462,21.177035,9.639860,9.204680,9.356363,19.544293,22.949647,18.907367,15.479686,11.499802,29.111978,22.131186,15.595079,11.037486,72.712000,-711.748016,-697.839996,31220.000000,3780.000000,2170.000000
9.746400,14.127679,16.321074,20.961242,9.647296,9.226932,9.376577,19.305616,22.986215,18.846796,15.484938,11.367099,28.745120,22.084701,15.419054,10.846103,69.540001,-711.015991,-691.252014,31430.000000,5390.000000,2310.000000
9.683155,14.140561,16.313086,20.879157,9.634139,9.224618,9.374800,19.314921,22.651620,18.753701,15.495088,11.381323,28.022129,21.942632,15.234672,10.874163,70.760002,-711.748016,-695.156006,30940.000000,5460.000000,2380.000000
9.659311,14.149506,16.322181,20.868640,9.580413,9.132400,9.287341,19.228320,22.511472,18.723400,15.411011,11.462613,27.709025,21.724212,15.023941,10.849521,73.444002,-712.480011,-700.036010,30520.000000,4900.000000,2310.000000
9.660496,14.282142,16.344055,20.939104,9.682817,9.146016,9.304062,19.333237,22.454058,18.693083,15.343468,11.517940,27.488216,21.729975,15.114798,10.947415,75.396000,-701.988007,-713.699982,31710.000000,6020.000000,2170.000000
9.738107,14.930340,16.915654,21.456073,9.938834,9.251534,9.412221,19.584677,22.577592,18.864712,15.417594,11.496512,26.980875,21.824695,15.179838,10.932953,68.807998,-701.500000,-685.640015,31780.000000,5740.000000,2100.000000
9.779556,15.369548,17.280640,21.766352,9.974390,9.270550,9.426465,19.834680,22.753195,19.037093,15.504090,11.478244,26.897044,21.963250,15.303909,10.974466,77.347999,-722.728028,-700.523987,33950.000000,7630.000000,2730.000000
9.682597,15.646052,17.380194,21.583723,9.823836,9.102324,9.255323,19.406297,22.807960,19.179871,15.570458,11.540936,27.115002,22.172274,15.556273,11.171226,81.740002,-705.892029,-715.164001,30940.000000,5040.000000,2170.000000
9.511355,15.338871,16.909298,20.841549,9.527572,8.824630,8.970862,18.362151,22.582296,19.028445,15.397833,11.556787,27.121775,22.180076,15.591272,11.329003,74.420002,-696.132020,-704.428009,30590.000000,6230.000000,2170.000000
9.503044,15.511808,17.114623,21.100236,9.401541,8.757417,8.907509,18.368735,22.811410,19.377957,15.475757,11.498568,26.835300,22.145734,15.674539,11.330935,80.032001,-700.279999,-704.428009,30870.000000,7700.000000,2590.000000
9.550287,15.822232,17.293653,21.186099,9.420202,8.752942,8.903683,18.377640,23.117805,19.811872,15.590401,11.407997,27.182755,22.453153,15.902024,11.380870,83.447998,-704.915985,-706.868011,29960.000000,5950.000000,2590.000000
9.477760,15.888998,17.489663,21.445910,9.335368,8.628018,8.775178,18.120286,23.286241,19.792697,15.495692,11.199709,26.809886,22.163850,15.442349,11.045006,82.472000,-706.136017,-704.916016,30520.000000,5390.000000,2590.000000
9.279262,15.937842,17.692365,21.621315,9.372020,8.731877,8.878894,18.340084,23.504586,19.838556,15.683656,11.248450,26.881371,22.238384,15.470415,11.048908,79.299999,-706.623992,-702.232025,30730.000000,5600.000000,2870.000000
9.141116,16.203104,17.757790,21.682494,9.321636,8.905708,9.054129,18.140819,23.563011,19.776366,15.864338,11.244474,26.833572,22.253293,15.470841,11.011523,77.592003,-709.063995,-693.936004,31290.000000,7070.000000,3220.000000
9.189811,16.993654,18.048990,21.948123,9.302539,8.875711,9.027707,18.171921,23.487204,19.705136,16.039060,11.270075,26.482921,22.114923,15.464171,11.026517,78.812000,-713.456024,-691.739990,31220.000000,7630.000000,3220.000000
9.175498,17.799686,18.209253,22.231077,9.367180,8.900504,9.057631,18.361618,23.495827,19.684851,16.058744,11.225103,26.517880,22.037568,15.474185,11.036182,80.032001,-707.356018,-690.764008,30800.000000,6720.000000,3080.000000
9.055650,18.359402,18.022225,22.128760,9.450126,9.016521,9.174487,18.459445,22.886121,19.247419,15.742517,11.105712,25.718966,21.296212,14.896118,10.772267,78.324001,-704.428009,-692.716003,30380.000000,6510.000000,3150.000000
9.027988,18.806117,18.065349,22.200957,9.285505,8.971952,9.126418,18.504143,22.616084,19.070657,15.632246,11.114756,25.148311,20.849442,14.543124,10.703851,72.956001,-704.183990,-676.124024,29890.000000,6440.000000,3360.000000
9.052965,18.900104,17.992314,21.987029,9.355456,9.117255,9.273897,18.480358,22.445154,18.915223,16.012743,11.317044,25.016484,20.870732,14.536677,10.927426,81.984001,-720.287994,-685.640015,27370.000000,4900.000000,3360.000000
9.011257,18.943877,18.137333,22.197307,9.314400,8.997368,9.144932,18.815835,22.293709,19.045930,16.110150,11.419123,24.374593,20.687422,14.459174,10.868619,80.032002,-704.671997,-690.032013,28140.000000,6650.000000,3780.000000
9.029284,19.182736,18.602375,22.714059,9.408230,8.943692,9.092004,19.424452,22.475613,19.446752,16.178434,11.532959,24.513764,20.683877,14.656466,10.851598,79.056004,-705.892029,-683.688018,27510.000000,8260.000000,4200.000000
8.823470,19.148275,18.430349,22.358876,9.451027,9.010994,9.156772,19.501801,21.987121,19.137079,15.925706,11.475936,24.361137,20.331373,14.681083,10.886444,80.032001,-711.015991,-687.835999,26320.000000,7910.000000,4270.000000
8.634723,18.771569,17.956654,21.608571,9.258278,8.897536,9.050242,18.803549,21.527744,18.819037,15.645225,11.379910,24.259228,20.230898,14.699779,11.040973,81.984002,-710.528015,-686.372009,25620.000000,7420.000000,4410.000000
8.594054,18.761887,17.916148,21.629921,9.397384,8.961416,9.109172,18.894906,21.502463,18.757058,15.547799,11.191123,24.303259,20.273754,14.663261,10.988009,81.008003,-712.724030,-685.152008,24710.000000,7980.000000,4130.000000
8.604127,18.752378,17.711940,21.364454,9.565854,9.111173,9.248788,18.784891,21.191581,18.584959,15.401338,11.065024,24.151472,20.027903,14.516992,10.854853,79.788002,-714.187989,-681.736023,23520.000000,8890.000000,3920.000000
8.461574,18.682179,17.535460,21.201053,9.585268,9.087931,9.220144,18.675888,20.824271,18.286540,15.038877,10.887137,23.944360,19.470047,14.195537,10.690028,76.860001,-715.652008,-684.908020,22050.000000,9240.000000,3500.000000
8.592684,18.623085,17.680648,21.341182,9.653311,9.175319,9.306599,18.885265,20.885313,18.366282,14.960161,11.021455,23.995176,19.198818,14.140740,10.586880,75.883999,-712.968017,-678.563995,20510.000000,9030.000000,3080.000000
8.815852,18.705819,17.921339,21.600410,9.789588,9.263592,9.397619,19.101331,20.959698,18.541128,15.148939,11.224114,23.984159,19.195155,14.194060,10.592367,73.688000,-712.723999,-671.731995,19460.000000,8890.000000,2870.000000
8.834417,18.497037,17.524750,21.047244,9.761134,9.280231,9.410569,18.539063,20.238425,18.033170,15.034853,11.380713,23.294841,18.747737,14.056902,10.587644,72.468002,-721.996032,-671.731995,18130.000000,8330.000000,2450.000000
8.581039,18.105673,17.108610,20.804744,9.585151,9.230526,9.362730,18.453182,19.452899,17.401962,14.616342,11.171357,22.657427,18.246056,13.808306,10.507123,71.003997,-721.264038,-668.804016,16660.000000,7490.000000,1820.000000
8.565948,18.094171,17.298055,21.209302,9.620658,9.301890,9.424086,18.880130,19.395053,17.296271,14.309152,10.833016,22.502352,17.997197,13.625831,10.395476,71.248001,-721.264008,-670.755981,15890.000000,7280.000000,1610.000000
8.536723,18.099328,17.369139,21.338110,9.563860,9.231552,9.321470,19.065409,19.552218,17.318709,14.024630,10.420999,22.525366,17.911484,13.456403,10.088507,70.271999,-717.115997,-672.220032,15890.000000,7700.000000,1680.000000
8.602460,18.144705,17.432147,21.487813,9.567128,9.209114,9.281384,19.272317,19.625794,17.399986,14.067136,10.401260,22.409812,17.892531,13.508421,10.110231,71.736004,-715.895996,-671.243988,15260.000000,8050.000000,1680.000000
8.755249,18.126679,17.410672,21.457333,9.577725,9.134591,9.204170,19.378992,19.395367,17.301957,14.107294,10.375917,22.083635,17.582543,13.477233,10.154373,73.444000,-716.872009,-672.464020,14420.000000,7770.000000,1470.000000
9.004301,18.182920,17.499151,21.759287,9.630562,9.220759,9.285197,19.510772,19.667455,17.330948,14.206373,10.415320,22.056613,17.446373,13.395569,10.014198,72.223999,-720.776001,-672.220001,13930.000000,7280.000000,1470.000000
9.008228,18.116389,17.337829,21.864982,9.487789,9.124954,9.178753,19.467738,19.735010,17.202829,14.147092,10.455290,22.122718,17.498962,13.417109,10.023346,74.420002,-720.532013,-670.755981,14420.000000,7140.000000,1540.000000
8.997784,18.098622,17.431738,22.004950,9.426045,9.025976,9.072965,19.565914,19.837603,17.140467,14.060968,10.393349,22.283902,17.535170,13.456336,9.978189,73.932003,-723.216003,-671.000031,14560.000000,7490.000000,1610.000000
8.995691,18.098476,17.541630,22.074740,9.333354,8.922747,8.971035,19.588830,19.857057,17.065326,13.982384,10.155603,22.081117,17.303015,13.260702,9.656329,73.688004,-724.679993,-671.244019,14420.000000,7560.000000,1540.000000
8.950332,18.055605,17.475112,22.023649,9.205026,8.790609,8.837865,19.574362,19.873199,17.064026,13.926535,10.090834,22.166039,17.355370,13.273025,9.597357,77.104000,-728.828003,-669.048035,14280.000000,7140.000000,1540.000000
8.952229,17.983333,17.476840,22.056837,9.043475,8.561392,8.586259,19.570909,19.773845,17.009877,13.790726,9.935578,21.942527,17.203213,13.260903,9.577579,76.372002,-729.072022,-669.048004,14350.000000,6790.000000,1330.000000
9.299926,18.229162,17.929421,22.445320,9.198709,8.522126,8.545309,20.111375,19.966036,17.193853,13.815270,9.798184,22.148204,17.305992,13.289171,9.554912,77.104000,-729.804016,-671.000000,14140.000000,6300.000000,1190.000000
9.480909,18.320076,18.120492,22.640105,9.225660,8.524613,8.541351,20.363344,20.031204,17.287290,13.856834,9.809533,22.119431,17.305798,13.296537,9.555799,76.372002,-728.340027,-670.511993,14000.000000,6090.000000,1050.000000
9.503287,18.315027,18.119774,22.652214,9.206158,8.495255,8.522367,20.415450,19.998531,17.270450,13.863475,9.782536,22.036307,17.257089,13.290357,9.551378,77.591999,-728.096009,-674.903992,14000.000000,6370.000000,910.000000
9.529796,18.308311,18.164311,22.649774,9.160084,8.457665,8.497774,20.351537,20.053243,17.266864,13.896189,9.735326,22.124152,17.326943,13.378275,9.614852,78.080002,-728.828033,-675.391998,12950.000000,6860.000000,700.000000
9.528369,18.201176,18.030406,22.511519,9.103038,8.415919,8.467033,20.292041,19.927712,17.148622,13.798240,9.652523,22.116228,17.364112,13.421232,9.681946,77.348000,-728.339996,-674.904022,11760.000000,7070.000000,280.000000
9.497157,18.180873,18.147003,22.546107,9.024519,8.322809,8.381080,20.337821,19.930967,17.096414,13.671985,9.513996,22.072510,17.285538,13.276623,9.594397,79.300003,-725.656006,-670.023987,12390.000000,6860.000000,280.000000
9.519202,18.150422,18.184577,22.530571,8.798580,8.031252,8.093541,20.291173,19.946656,17.113843,13.663515,9.381378,22.083737,17.295854,13.245064,9.507539,76.372001,-729.316010,-670.268005,12670.000000,7630.000000,350.000000
9.514667,17.996405,17.957179,22.132077,8.725983,7.947380,7.997676,19.983224,19.662068,16.931847,13.493353,9.298482,21.743043,17.114218,13.121549,9.462218,77.347999,-727.608002,-668.316010,12810.000000,7840.000000,140.000000
9.343011,17.710440,17.465568,21.383366,8.411665,7.647299,7.662539,19.417058,19.137431,16.388963,12.963477,8.998708,21.265763,16.697812,12.745583,9.266059,77.348000,-728.584015,-670.023987,12180.000000,7420.000000,-70.000000
9.214681,17.658113,17.277931,21.306508,8.143169,7.397871,7.384393,19.450792,18.838959,16.081390,12.567696,8.632880,21.023764,16.369882,12.407581,9.117156,76.128002,-732.244018,-667.096008,11620.000000,7000.000000,-350.000000
9.151149,17.680503,17.247626,21.409855,8.126322,7.448184,7.425527,19.479985,18.713322,15.989473,12.425419,8.497829,20.873541,16.032111,12.205771,9.058180,79.299999,-730.292023,-671.244019,11060.000000,6230.000000,-420.000000
9.155028,17.702242,17.246554,21.406859,8.121396,7.428500,7.406888,19.442463,18.598915,15.914051,12.366415,8.507988,20.708021,15.779941,12.084428,9.026923,79.056002,-732.731995,-669.536011,10640.000000,6090.000000,-630.000000
9.230580,17.863386,17.470100,21.503954,8.278369,7.599578,7.593423,19.687949,18.626783,15.893566,12.418759,8.455961,20.678538,15.697628,11.952996,8.852590,79.056004,-732.244019,-669.048004,10150.000000,6090.000000,-630.000000
9.272132,17.951766,17.578745,21.580945,8.249833,7.625523,7.617057,19.819496,18.607201,15.865872,12.455465,8.336942,20.598455,15.602538,11.868255,8.729763,80.520001,-732.731995,-670.756012,10080.000000,6090.000000,-560.000000
9.275112,17.877943,17.545705,21.478903,8.123206,7.601902,7.590675,19.680599,18.603766,15.851687,12.452791,8.187592,20.595888,15.434992,11.712241,8.511352,81.740002,-727.608032,-672.220032,10150.000000,6020.000000,-700.000000
9.173345,17.507702,17.237541,21.215150,7.822159,7.416143,7.399496,19.508923,18.373614,15.690456,12.311943,8.035575,20.416939,15.325787,11.611016,8.448650,82.472000,-729.316009,-671.488037,9940.000000,5810.000000,-630.000000
9.249547,17.520159,17.372738,21.402578,8.025374,7.466697,7.455789,19.712336,18.309390,15.735601,12.253708,7.995430,20.178010,15.184825,11.467357,8.286774,82.227999,-729.559998,-671.488006,10010.000000,5740.000000,-420.000000
9.323746,17.404587,17.246107,21.248026,8.173832,7.480186,7.473624,19.623479,18.088300,15.649290,12.112333,7.872766,19.813853,14.875948,11.131117,7.778439,86.376003,-743.224030,-673.684021,10290.000000,5670.000000,-350.000000
9.367356,17.419442,17.316447,21.231342,8.206368,7.437208,7.432920,19.584231,18.133844,15.745398,12.232755,7.974573,19.862223,14.918997,11.143629,7.577894,85.400002,-732.488006,-671.732025,10570.000000,5740.000000,-210.000000
9.367685,17.201671,17.120143,20.906277,8.228879,7.402412,7.398529,19.464053,17.672371,15.305666,12.184688,8.100457,19.341990,14.672539,11.013155,7.624007,83.448002,-730.536010,-675.148011,10990.000000,5600.000000,-70.000000
9.328223,16.909571,16.929199,20.630573,8.217784,7.418517,7.411655,19.395902,17.177347,14.766414,12.041413,8.054942,18.655246,14.207793,10.697169,7.558919,83.936001,-733.951995,-670.755981,11270.000000,5390.000000,0.000000
9.338868,16.821505,16.674912,20.115626,8.212430,7.421426,7.414091,19.051137,16.646176,14.553756,11.969174,8.062451,18.105786,13.839179,10.583445,7.513534,82.716000,-736.148010,-671.488007,11550.000000,5600.000000,280.000000
9.341912,16.815250,16.362923,19.803786,8.245506,7.311782,7.294267,18.854052,16.137977,14.341053,11.730134,7.997917,17.779436,13.586427,10.486713,7.498574,81.984001,-734.440002,-673.928009,11760.000000,5600.000000,490.000000
9.504027,16.746045,16.427918,19.877327,8.310042,7.002610,6.982875,18.946484,16.039432,14.325872,11.678884,8.090926,17.464882,13.440665,10.428276,7.459402,83.448002,-734.683990,-672.464020,11690.000000,5740.000000,630.000000
9.584133,16.036284,16.130927,19.514854,8.286679,6.895215,6.876556,18.630549,15.913275,14.240159,11.525257,8.162446,17.346612,13.462040,10.374864,7.430842,81.740001,-734.196015,-671.000000,11690.000000,5600.000000,630.000000
9.584318,14.992767,15.755138,18.988602,8.177691,6.812348,6.792534,18.373778,15.591147,14.055612,11.249351,8.143039,16.963760,13.255980,10.124111,7.290498,81.984001,-733.708008,-673.440002,11200.000000,5600.000000,630.000000
9.567186,14.061628,15.646018,18.940051,8.061797,6.669063,6.643604,18.356797,15.518771,14.045934,11.163895,8.109544,16.843628,13.161236,10.046273,7.191980,86.132000,-738.832001,-672.951996,10920.000000,5320.000000,420.000000
9.708702,13.585726,15.904334,19.276849,8.175938,6.650146,6.621348,18.562473,15.815488,14.338685,11.350660,8.199608,16.999263,13.306931,10.129564,7.169820,82.959999,-737.368011,-678.563996,10710.000000,5460.000000,350.000000
9.598293,13.411931,15.920302,19.372484,8.097610,6.470634,6.437056,18.558828,15.862790,14.369646,10.796475,7.900096,16.952686,13.265904,10.049106,6.883660,85.644001,-740.052032,-678.563996,10080.000000,5740.000000,70.000000
9.532120,13.476918,15.719938,19.141923,8.200808,6.681242,6.658446,18.443913,15.707977,14.102410,10.667065,7.764012,16.872777,13.199437,10.079307,6.859860,84.424000,-741.272003,-682.468017,9940.000000,5810.000000,-70.000000
9.509280,13.613379,15.391675,18.865748,8.535184,6.873397,6.855522,18.323160,15.144616,13.376355,10.433672,7.472799,15.982890,12.606294,9.620972,6.632253,82.228001,-740.295990,-679.783997,9730.000000,5880.000000,-280.000000
9.675527,14.033408,15.897214,19.228828,8.745914,6.752485,6.737998,18.460883,15.542538,13.784553,10.751952,7.496304,15.838278,12.599507,9.525628,6.459518,80.764000,-735.660004,-679.783997,9800.000000,5950.000000,-140.000000
9.678300,13.926364,15.968028,19.258178,8.776114,7.062103,7.039019,18.480460,15.599711,13.876516,10.834512,7.455699,15.703197,12.521631,9.417825,6.250863,82.716003,-736.148010,-677.343995,10080.000000,5810.000000,-70.000000
9.611148,13.729023,16.354763,19.255398,8.645759,7.412871,7.401835,18.331598,15.600243,13.851779,10.830225,7.502487,15.634658,12.376460,9.379896,6.212443,79.056004,-733.220001,-675.391998,10220.000000,5880.000000,-70.000000
9.575714,13.687547,16.591655,19.196823,8.560902,7.615273,7.613411,18.189118,15.607685,13.854963,10.823048,7.503371,15.655556,12.356621,9.391548,6.213010,79.299999,-732.488006,-675.148011,10360.000000,5740.000000,280.000000
9.651324,13.520936,16.544827,19.101106,8.479485,7.619053,7.619904,18.137366,15.451357,13.777750,10.805392,7.524746,15.394479,12.233588,9.331558,6.203847,78.324002,-732.732025,-674.171997,10850.000000,6160.000000,350.000000
9.489558,13.472798,16.274837,18.740854,8.378776,7.454473,7.433166,17.798069,15.099518,13.410516,10.574924,7.237754,14.972834,11.888929,9.047949,6.117982,77.591999,-731.268006,-673.928009,10920.000000,6230.000000,420.000000
9.232221,13.312928,16.082451,18.330024,8.284632,7.284093,7.256453,17.436913,15.006287,13.198326,10.287136,6.944550,14.942002,11.847508,9.016535,6.116236,78.324002,-731.755981,-670.511994,10570.000000,6370.000000,490.000000
9.196533,13.285298,16.185031,18.305033,8.289660,7.246580,7.218304,17.562997,15.059581,13.188682,10.189469,6.597281,14.915132,11.850456,8.971210,6.066919,76.128002,-733.220001,-668.559998,10360.000000,6300.000000,280.000000
9.354950,13.657052,16.633874,18.568614,8.422871,7.288024,7.258842,17.877300,15.392650,13.588956,10.493803,6.553985,15.005242,12.054148,9.115241,6.083811,76.616002,-733.952026,-669.779999,10150.000000,6300.000000,280.000000
9.281389,13.735777,16.680997,18.388935,8.345575,7.197446,7.182644,17.692791,15.414571,13.696426,10.686332,6.586742,15.265220,12.307975,9.277938,6.138803,76.128002,-732.975983,-670.023986,10150.000000,6230.000000,-140.000000
9.125148,13.635126,16.592214,18.112338,8.260278,7.057460,7.073718,17.228017,15.266676,13.590856,10.725561,6.655723,15.402697,12.389762,9.280471,6.113916,76.128002,-732.243988,-667.583985,10010.000000,6230.000000,-280.000000
9.093030,13.672488,16.639979,17.953356,8.304270,6.895136,6.925232,17.026525,15.130143,13.606106,10.743485,6.651510,15.420012,12.383603,9.211806,6.072065,79.056000,-729.071991,-673.196015,9940.000000,6300.000000,-630.000000
9.185562,13.994555,17.042587,18.340341,8.536599,6.952987,6.998470,17.310883,15.412952,13.880347,10.889760,6.877928,15.474265,12.376500,9.059012,5.827070,80.032001,-727.852020,-671.732025,10010.000000,6790.000000,-770.000000
9.132745,14.385178,17.438855,18.663873,8.528335,6.882954,6.924089,17.550697,15.931260,14.439153,11.262836,7.218884,15.887175,12.754674,9.311885,5.972831,82.228001,-726.143981,-671.731994,9940.000000,7070.000000,-910.000000
8.898628,14.338041,17.391778,18.560034,8.448591,6.846716,6.884217,17.537548,15.745893,14.357409,11.174743,7.081506,15.756529,12.668536,9.215039,5.947115,82.472004,-724.436005,-670.511994,10010.000000,7490.000000,-980.000000
8.882721,14.365621,17.288953,18.453278,8.416092,6.832314,6.873280,17.396822,15.600035,14.344347,11.188281,7.061473,15.512071,12.507894,9.093578,5.872908,83.692002,-726.388001,-671.976013,10150.000000,7840.000000,-1260.000000
8.946850,14.454182,17.342131,18.592035,8.496958,6.908612,6.947561,17.476033,15.592004,14.458688,11.310128,7.185313,15.509263,12.537987,9.146991,5.895180,84.668003,-724.924011,-671.244019,10150.000000,8120.000000,-1190.000000
8.960560,14.442380,17.379669,18.622114,8.491881,6.916739,6.950251,17.424490,15.559717,14.487225,11.335878,7.108669,15.393185,12.458607,9.088086,5.863242,84.180004,-726.876007,-671.244019,10360.000000,8330.000000,-1190.000000
8.869827,14.412566,17.324032,18.544412,8.471051,6.925167,6.959870,17.431053,15.510408,14.356629,11.270621,7.054686,15.154925,12.307690,8.976667,5.839933,84.180000,-727.852020,-670.268005,10220.000000,8470.000000,-1190.000000
8.587445,14.218785,16.903810,18.167453,8.281271,6.893385,6.937597,16.875324,15.430590,14.130476,11.148370,7.098253,14.920988,12.157896,8.876897,5.787017,84.911999,-729.316009,-669.780029,10150.000000,8260.000000,-1190.000000
8.459612,14.126766,16.678001,17.891739,8.247524,6.936433,6.986794,16.546788,15.370037,14.030754,11.123857,7.140647,14.908522,12.155893,8.904077,5.835469,81.008000,-730.048004,-672.220032,9940.000000,8400.000000,-1260.000000
8.422790,14.125962,16.677696,17.867312,8.243347,6.931474,6.979859,16.480236,15.370913,14.028041,11.118240,7.141261,14.922225,12.182982,8.919822,5.834920,85.644001,-732.000030,-669.292023,9730.000000,7980.000000,-1330.000000
8.369761,14.107804,16.605949,17.818273,8.294518,7.018093,7.064506,16.520711,15.175880,13.925011,11.024299,7.156357,14.619440,11.913147,8.748565,5.753901,82.960003,-732.000000,-670.511994,9380.000000,7280.000000,-1330.000000
8.365429,14.114994,16.667528,17.838834,8.287948,7.021690,7.065743,16.545336,15.143033,13.917993,11.031703,7.170172,14.481368,11.793411,8.667533,5.610976,89.548001,-722.727997,-675.880005,9100.000000,6930.000000,-1470.000000
8.427396,14.052343,16.490069,17.691181,8.294398,7.086184,7.146006,16.327313,15.117787,13.887375,11.017507,7.119638,14.486494,11.782435,8.635117,5.470424,87.840000,-747.860016,-680.515991,9030.000000,5530.000000,-1400.000000
8.443902,14.107059,16.504877,17.795156,8.297049,7.086287,7.141883,16.400296,15.309315,13.972266,11.110423,7.131152,14.623558,11.970262,8.710040,5.498801,88.572002,-730.048004,-670.756012,8260.000000,5390.000000,-1120.000000
8.455716,14.116973,16.563711,17.818954,8.292947,7.088091,7.147207,16.344005,15.459729,14.076082,11.188182,7.183573,14.770640,12.224358,8.844149,5.673052,92.720001,-746.152008,-676.611999,8610.000000,5670.000000,-1890.000000
8.403746,14.015988,16.548405,17.703504,8.257384,7.092417,7.159211,16.068941,15.500473,14.110026,11.199143,7.183268,14.693533,12.199043,8.825684,5.627968,87.840000,-737.368011,-673.440002,9100.000000,5670.000000,-1960.000000
8.381308,13.819493,16.443984,17.402744,8.212580,7.065274,7.136463,15.689224,15.497986,14.095455,11.175323,7.193948,14.536668,12.114905,8.799965,5.478593,85.888001,-738.100007,-667.584015,10850.000000,6090.000000,-1400.000000
8.378562,13.753648,16.389234,17.312736,8.175382,6.952017,7.025946,15.638136,15.507583,14.098273,11.180848,7.248174,14.493408,12.143257,8.821540,5.366510,83.447998,-733.220002,-665.631989,12040.000000,8190.000000,-700.000000
8.457155,13.761566,16.372053,17.354762,8.210396,6.986762,7.056926,15.603455,15.532053,14.154333,11.192768,7.236285,14.552023,12.207452,8.887331,5.367171,80.032002,-737.368011,-667.828003,10710.000000,9030.000000,-770.000000
8.512002,13.656884,16.259232,17.418299,8.053748,6.845444,6.903449,15.375852,15.682727,14.248331,11.192828,7.166064,14.704502,12.298549,8.923238,5.364409,81.739998,-736.392029,-671.000031,9030.000000,8820.000000,-980.000000
8.549736,13.623444,16.207439,17.498967,8.032109,6.802367,6.858723,15.297340,15.882370,14.405108,11.279693,7.177860,14.975300,12.513065,9.139475,5.453229,81.495999,-732.732025,-671.244019,9030.000000,8680.000000,-910.000000
8.565684,13.611020,16.226567,17.510690,8.031981,6.771566,6.830155,15.300795,15.894918,14.422880,11.294550,7.189557,14.938319,12.542761,9.168064,5.461340,81.495998,-732.731995,-671.244019,9380.000000,9240.000000,-840.000000
8.548895,13.479840,16.033386,17.131743,7.986608,6.772097,6.832359,14.968190,15.731614,14.276769,11.200922,7.171216,14.769380,12.481073,9.153320,5.491989,78.324001,-735.171997,-671.731995,8960.000000,10080.000000,-700.000000
8.376898,13.080202,15.477256,16.403504,7.748011,6.716583,6.777091,14.281752,15.308311,13.869970,10.916955,7.038781,14.540390,12.314754,9.103884,5.545608,80.276001,-734.928009,-673.928009,8750.000000,10220.000000,-630.000000
8.241891,12.850727,15.318859,16.272893,7.622688,6.703234,6.755957,14.186956,15.227692,13.682258,10.721553,6.814906,14.578065,12.258307,9.057481,5.495291,82.959999,-735.903992,-670.755981,9100.000000,10150.000000,-560.000000
8.245996,12.734497,15.240869,16.255881,7.555972,6.673513,6.723995,14.110367,15.190854,13.596453,10.592436,6.652365,14.556635,12.238427,9.023361,5.438341,81.007999,-736.391998,-670.756012,9730.000000,10500.000000,-350.000000
8.257747,12.726361,15.322622,16.365255,7.523675,6.639554,6.689971,14.183573,15.349496,13.711601,10.617264,6.664516,14.679585,12.317639,9.075948,5.395418,81.251998,-737.856019,-670.268006,9870.000000,10640.000000,-210.000000
8.332934,12.906255,15.477813,16.527633,7.615391,6.649604,6.702238,14.281853,15.452705,13.808660,10.751484,6.847126,14.703012,12.375414,9.134339,5.440394,81.740001,-734.440033,-669.780029,10010.000000,10920.000000,0.000000
8.402142,13.076633,15.633704,16.668612,7.764546,6.726453,6.776498,14.401512,15.580881,13.939957,10.867835,7.000989,14.832060,12.494308,9.230760,5.519905,81.251998,-735.171997,-668.559998,10150.000000,11130.000000,-140.000000
8.316475,13.016986,15.657920,16.680515,7.652492,6.692765,6.745754,14.198928,15.624334,13.976724,10.866964,7.005534,14.909548,12.593294,9.321306,5.598381,81.984001,-731.755981,-668.560028,10150.000000,11130.000000,0.000000
8.193559,12.923576,15.580994,16.584276,7.667912,6.759763,6.807875,14.085175,15.481261,13.786258,10.682598,6.933857,14.702525,12.383393,9.197635,5.602608,83.203998,-734.684021,-665.144013,10220.000000,11060.000000,-70.000000
8.102451,12.858039,15.604458,16.448600,7.721921,6.840319,6.889897,13.909379,15.363440,13.681773,10.559929,6.886630,14.501679,12.190494,9.106660,5.612883,85.888000,-735.660004,-665.876007,10150.000000,10570.000000,140.000000
8.115623,12.905044,15.930871,16.346833,7.805672,6.896014,6.953729,13.759578,15.394481,13.788783,10.637840,6.951283,14.406256,12.155046,9.132513,5.632109,88.328003,-737.124024,-665.388031,10010.000000,10080.000000,210.000000
8.132152,12.908083,16.199429,16.204629,7.825136,6.882726,6.941539,13.685153,15.386620,13.803481,10.630516,6.975183,14.351670,12.128145,9.102249,5.621780,88.572002,-737.124023,-664.412018,10360.000000,9660.000000,350.000000
7.982512,12.661334,16.055332,15.589539,7.707435,6.870876,6.930119,13.210020,15.088961,13.572283,10.431737,6.856837,14.183790,11.962494,9.024417,5.599583,88.816002,-736.148011,-663.192016,10430.000000,9520.000000,560.000000
8.000270,12.725162,16.071208,15.615454,7.751334,6.862539,6.920702,13.312987,15.110679,13.587104,10.450408,6.833581,14.210958,11.947993,9.045824,5.541691,90.035999,-734.928009,-661.971985,10430.000000,9450.000000,840.000000
7.988625,12.739750,16.383327,15.840994,7.661446,6.664603,6.714116,13.333778,15.347878,13.759685,10.624215,6.842642,14.399949,12.219474,9.045953,5.533612,87.108002,-731.024017,-661.483979,9940.000000,9310.000000,1260.000000
7.852771,12.039715,16.428753,15.553457,7.139585,6.480772,6.531913,12.828124,15.261844,13.723512,10.661571,6.912255,14.361242,12.352288,9.068752,5.577008,87.108002,-731.756012,-660.996002,9590.000000,9380.000000,1540.000000
7.698635,11.288411,16.120185,15.009893,6.826204,6.441906,6.494110,12.258887,14.807145,13.226630,10.378520,6.898359,13.900272,12.095655,8.856417,5.595807,86.864002,-730.291992,-661.728028,9100.000000,9590.000000,1820.000000
7.640365,11.219333,16.139861,15.000653,6.811880,6.131842,6.180676,12.284119,14.761013,13.125187,10.304934,6.837292,13.881904,12.050403,8.760589,5.430290,86.376003,-729.804016,-661.484008,8470.000000,9800.000000,2310.000000
7.691841,11.230552,15.690114,14.829183,6.769823,5.503269,5.539936,12.299452,14.764994,13.184011,10.384727,6.821749,13.842377,12.076475,8.777666,5.412791,86.375999,-733.951996,-664.656006,7560.000000,10010.000000,2520.000000
7.754945,11.031655,15.435636,14.897380,6.684125,4.993903,5.013097,12.474322,14.903561,13.318719,10.561705,6.857983,13.955799,12.254437,8.891655,5.505306,85.155998,-733.464020,-663.436005,7140.000000,10010.000000,2870.000000
7.660461,10.938629,15.473451,14.848645,6.703180,4.978286,4.992362,12.526753,14.986912,13.385755,10.652035,6.885262,13.999390,12.346234,8.931867,5.516509,87.352001,-736.391998,-665.876007,6440.000000,10360.000000,3010.000000
7.602183,10.984920,15.508171,14.802665,6.726137,4.964579,4.979639,12.570343,14.985458,13.407578,10.689976,6.892496,13.954717,12.352091,8.890732,5.508765,89.060001,-737.123993,-666.608002,6160.000000,10360.000000,3220.000000
7.626740,11.055642,15.509576,14.874581,6.699738,4.994882,5.005836,12.642540,15.064523,13.520067,10.778299,6.966625,14.025598,12.434265,8.915682,5.556312,86.619998,-735.660004,-665.631989,5880.000000,10570.000000,3570.000000
7.519784,10.853061,15.271280,14.801982,6.578341,5.003289,5.016156,12.430613,14.949786,13.394202,10.688181,6.970011,13.987640,12.379750,8.884584,5.585466,86.132000,-735.904022,-667.584015,5530.000000,10780.000000,3780.000000
7.379643,10.430296,14.809656,14.478298,6.549927,5.148494,5.166085,12.045871,14.591148,12.969146,10.401977,6.922706,13.759974,12.161132,8.728129,5.555892,86.863998,-733.220001,-666.851989,4970.000000,10780.000000,4060.000000
7.363954,10.217560,14.499962,14.247756,6.599467,5.159743,5.175262,11.914068,14.289607,12.653780,10.217155,6.901020,13.418491,11.933333,8.569509,5.559711,87.107997,-733.952026,-666.119995,4690.000000,10920.000000,4270.000000
7.406152,10.219020,14.416775,14.268974,6.504795,4.998756,5.010569,12.020516,14.282648,12.598310,10.225163,6.827682,13.342890,11.966035,8.611025,5.546716,87.108002,-732.976013,-664.411988,3780.000000,11200.000000,4340.000000
7.393216,10.192110,14.309629,14.330796,6.343327,4.944653,4.942727,12.067289,14.409999,12.609939,10.293806,6.781464,13.511348,12.153648,8.738582,5.558197,85.888000,-732.243988,-661.484009,3080.000000,11270.000000,4480.000000
7.202386,9.890209,13.831882,13.859568,6.235840,5.046379,5.024955,11.737984,13.981095,12.241771,10.128101,6.650491,13.222106,11.953529,8.664405,5.581703,88.328003,-732.488006,-663.436005,2450.000000,11200.000000,4550.000000
6.842591,9.132507,12.938981,12.750488,6.179992,5.037557,5.023406,11.059448,12.641891,11.107843,9.409968,6.193680,12.089197,11.003118,8.077431,5.300054,87.596000,-731.268005,-661.727997,1750.000000,11060.000000,4760.000000
6.802858,8.984798,12.794286,12.510927,6.152625,5.005087,4.987145,10.868779,12.468768,10.970204,9.282348,6.117211,12.001159,10.895044,8.055048,5.276657,89.060001,-733.464020,-664.167999,1050.000000,10780.000000,4690.000000
6.911234,9.070499,12.918053,12.570830,6.260085,5.066836,5.046226,11.022340,12.521188,11.084769,9.368187,6.283694,12.014134,10.973816,8.110774,5.339518,87.352002,-731.756012,-663.679993,490.000000,10430.000000,4620.000000
7.047495,9.234762,13.045061,12.617563,6.372531,5.111374,5.099246,11.202929,12.540368,11.166874,9.444546,6.430016,11.820353,10.906516,8.043080,5.308289,88.816002,-732.731994,-663.436004,-210.000000,10570.000000,4690.000000
7.188215,9.397206,13.195948,12.754482,6.477396,5.146668,5.139024,11.337951,12.681623,11.345299,9.601923,6.549402,11.876803,10.974614,8.148523,5.337388,88.815998,-732.488006,-667.584015,-630.000000,10430.000000,4690.000000
7.299707,9.430068,13.220339,12.758116,6.563079,5.179844,5.168177,11.384391,12.595559,11.372077,9.662120,6.561783,11.827259,10.988321,8.144146,5.342232,90.036000,-734.684021,-663.680024,-1260.000000,10010.000000,4690.000000
7.381274,9.524910,13.359574,12.784462,6.669320,5.221596,5.197445,11.513538,12.580678,11.429064,9.752446,6.546100,11.848753,11.099363,8.167604,5.362594,89.060001,-734.440002,-662.704010,-1540.000000,9800.000000,4480.000000
7.354426,9.612959,13.453268,12.903439,6.687778,5.185562,5.153787,11.600839,12.737009,11.523923,9.820723,6.472611,11.920049,11.185663,8.155284,5.295322,90.768002,-736.148011,-662.704010,-1750.000000,9380.000000,4760.000000
7.452513,9.791940,13.625445,13.105997,6.856896,5.373726,5.341934,11.823724,13.016896,11.738259,9.983128,6.522843,12.088190,11.313272,8.234594,5.290387,91.012001,-737.611999,-662.704010,-1960.000000,9030.000000,4690.000000
7.461394,9.816041,13.600083,13.108478,6.847852,5.371266,5.338269,11.819170,13.093148,11.773036,10.031310,6.488825,12.148552,11.420777,8.258836,5.221111,90.524002,-733.464019,-661.972015,-2520.000000,8890.000000,4690.000000
7.452504,9.818912,13.533507,13.065422,6.857839,5.380831,5.346736,11.757459,13.102998,11.768475,10.045994,6.482245,12.132022,11.449129,8.209283,5.171464,91.987999,-736.148011,-661.971984,-2940.000000,8680.000000,4760.000000
7.413601,9.806442,13.515455,13.055155,6.788668,5.282163,5.233019,11.667384,13.087868,11.783100,10.081788,6.471175,12.115699,11.456478,8.207985,5.163523,90.767998,-734.440002,-661.972015,-3500.000000,8330.000000,4760.000000
7.387568,9.744729,13.489009,12.964346,6.793574,5.271056,5.229723,11.552956,12.894450,11.719978,10.048099,6.458202,11.916256,11.301630,8.151248,5.180022,91.500000,-733.952026,-660.507996,-3920.000000,8050.000000,4830.000000
7.387225,9.750546,13.499558,13.087070,6.903197,5.362357,5.336037,11.633787,12.742802,11.660383,10.047046,6.451621,11.647134,11.022300,8.024695,4.939502,91.012001,-736.148010,-661.484009,-4620.000000,7490.000000,4760.000000
7.567977,9.850076,13.611573,13.330104,7.084721,5.563550,5.538922,11.817447,12.824083,11.778294,10.210843,6.522427,11.740449,11.089640,8.135152,4.913471,91.744000,-735.171997,-656.847992,-5250.000000,7560.000000,4830.000000
7.578336,9.898917,13.705301,13.496420,7.114908,5.559327,5.533322,11.899591,12.846275,11.846683,10.279797,6.548274,11.706442,11.083530,8.162513,4.940932,89.792000,-733.708007,-657.824005,-5950.000000,7070.000000,4760.000000
7.573772,9.847054,13.698037,13.484481,7.102872,5.499235,5.467688,11.896726,12.773365,11.817646,10.268120,6.536328,11.594155,10.999896,8.159088,4.964247,88.084000,-735.416015,-659.044007,-6580.000000,6720.000000,4690.000000
7.484038,9.833174,13.661532,13.413343,7.063043,5.457802,5.428617,11.859717,12.755854,11.772443,10.237485,6.553088,11.523504,10.956367,8.117068,4.954581,88.328002,-736.392029,-661.484009,-7140.000000,6160.000000,4690.000000
7.311399,9.763618,13.499396,13.211380,7.072525,5.481776,5.459299,11.728991,12.488944,11.571197,10.108421,6.548080,11.313831,10.844986,8.035017,4.947398,88.083999,-737.368011,-660.020019,-7910.000000,5600.000000,4620.000000
7.244103,9.733547,13.404893,13.043225,7.113619,5.564659,5.543704,11.586886,12.175614,11.341300,9.960622,6.506790,10.886109,10.569620,7.764013,4.861303,87.352001,-738.100007,-659.776032,-8470.000000,4760.000000,4480.000000
7.235349,9.833715,13.415014,13.096222,7.136867,5.579179,5.551161,11.633418,12.210436,11.368859,9.982224,6.520717,10.865171,10.561842,7.754278,4.844135,84.424004,-737.611999,-659.531982,-8960.000000,4060.000000,4270.000000
7.335673,9.916725,13.392366,13.109129,7.225145,5.741236,5.712381,11.718655,12.221983,11.401327,10.079157,6.629598,10.795936,10.501154,7.759190,4.792672,84.668003,-739.075989,-657.580017,-9240.000000,3220.000000,4270.000000
7.450970,9.922345,13.392840,13.195276,7.299980,5.955133,5.920926,11.831303,12.303686,11.466480,10.213512,6.714933,10.791219,10.542419,7.779096,4.738418,83.448002,-739.807984,-658.312012,-9730.000000,2730.000000,3990.000000
7.433748,9.848557,13.323173,13.297135,7.259767,6.036733,6.010131,11.816084,12.369011,11.486112,10.230417,6.724865,10.782069,10.591740,7.756692,4.707109,81.984001,-739.076019,-656.116028,-10290.000000,1960.000000,3710.000000
7.403108,9.801219,13.289809,13.374216,7.292132,6.155803,6.136294,11.869089,12.384600,11.478858,10.228955,6.652331,10.780754,10.611326,7.734450,4.686403,85.644001,-738.343994,-654.652008,-10990.000000,1610.000000,3570.000000
7.379724,9.719058,13.150254,13.293712,7.308084,6.206045,6.188434,11.765023,12.144523,11.335428,10.157729,6.470860,10.575861,10.447231,7.596624,4.636221,83.936001,-736.880035,-656.360016,-11620.000000,910.000000,3430.000000
7.325280,9.511328,12.904417,13.101908,7.235779,6.184062,6.166815,11.573340,11.846828,11.120688,9.973838,6.243886,10.272525,10.145588,7.393044,4.505076,82.715999,-736.636017,-654.164002,-12390.000000,210.000000,3290.000000
7.235924,9.275960,12.722539,12.983795,7.145450,6.138679,6.132335,11.425988,11.638546,10.956284,9.836370,6.100121,10.070572,9.975842,7.292088,4.420443,82.716003,-736.636017,-654.164032,-13510.000000,-630.000000,3010.000000
7.234455,9.214972,12.627284,12.858584,7.126270,6.137937,6.133009,11.411093,11.550082,10.839455,9.770438,6.081009,9.918774,9.883463,7.158876,4.334889,82.959999,-735.660034,-656.847992,-14630.000000,-1330.000000,2800.000000
7.173644,9.143714,12.509895,12.687505,7.057929,6.161497,6.158681,11.395607,11.457994,10.748831,9.649741,6.031895,9.829770,9.869551,7.074376,4.296624,84.668003,-736.148010,-654.407989,-15680.000000,-1960.000000,2520.000000
7.151325,9.035370,12.278671,12.482558,6.936343,6.144902,6.144390,11.340703,11.363365,10.624594,9.597304,5.983002,9.734345,9.848382,7.036879,4.263444,84.180000,-735.903992,-653.187989,-16800.000000,-2800.000000,2520.000000
7.061456,8.841293,11.756517,12.199194,6.796063,6.103902,6.099551,11.158568,11.154335,10.363035,9.483012,5.838026,9.584528,9.748397,6.965511,4.230210,84.180000,-737.123993,-654.164002,-17990.000000,-3360.000000,2380.000000
7.068310,8.890080,11.397966,12.109958,6.856885,6.168798,6.163675,11.081435,11.097499,10.282887,9.485310,5.823501,9.589379,9.721513,6.968645,4.258616,84.423999,-735.903992,-651.724029,-19110.000000,-3990.000000,2240.000000
7.055194,8.869043,11.148510,12.014282,6.838603,6.193451,6.188004,11.002334,11.064254,10.271755,9.483757,5.785004,9.558346,9.707497,6.949957,4.261421,83.692001,-736.880005,-654.652008,-20160.000000,-4550.000000,2170.000000
7.028934,8.772058,11.096923,11.896065,6.783006,6.185940,6.180258,10.889609,11.005069,10.237324,9.440084,5.793888,9.464011,9.587568,6.907942,4.259675,83.692001,-739.076019,-655.627990,-21070.000000,-4760.000000,2170.000000
6.954010,8.531845,10.539156,11.526064,6.739568,6.204427,6.198797,10.641603,10.679818,9.973193,9.222504,5.723876,9.106926,9.222208,6.730921,4.233520,85.888000,-738.588012,-654.407989,-22050.000000,-5040.000000,2240.000000
6.880541,8.440859,9.838224,11.296872,6.790979,6.281994,6.269370,10.533483,10.496450,9.756930,9.032805,5.615993,8.933369,8.949253,6.582245,4.182604,84.423999,-739.564026,-657.824005,-22610.000000,-5180.000000,2310.000000
6.838446,8.327707,9.238226,11.119987,6.724027,6.269197,6.248946,10.466070,10.367056,9.620533,8.893792,5.499618,8.856332,8.843156,6.473305,4.049574,83.204002,-736.635986,-657.824005,-23380.000000,-5250.000000,2520.000000
6.838656,8.305625,9.042691,11.055974,6.715622,6.252607,6.239241,10.397067,10.319286,9.583150,8.871855,5.476474,8.818236,8.819431,6.465485,4.075769,82.472000,-738.588012,-660.996002,-24150.000000,-5180.000000,2800.000000
6.820960,8.347799,9.186682,11.052104,6.613495,6.213508,6.201703,10.224673,10.381205,9.754365,8.889839,5.550400,8.758178,8.855223,6.461306,4.007584,82.716003,-737.856018,-660.507995,-24640.000000,-5110.000000,3080.000000
6.707592,8.174832,9.074583,10.864593,6.555850,6.173837,6.166965,9.949130,10.171899,9.606834,8.670974,5.454034,8.523054,8.648940,6.358913,3.922459,82.959999,-739.320007,-664.411987,-25480.000000,-4970.000000,3360.000000
6.658005,8.194085,9.049544,10.885340,6.605998,6.193460,6.184597,9.881815,10.063637,9.514937,8.556747,5.425770,8.464677,8.514227,6.419332,4.105699,81.008000,-738.100007,-662.459992,-25970.000000,-4970.000000,3430.000000
6.660334,8.218496,9.059820,10.971047,6.590404,6.191747,6.180665,9.833270,10.194572,9.586491,8.584198,5.411180,8.707796,8.605254,6.554055,4.245836,81.984001,-738.100006,-664.167999,-26250.000000,-5040.000000,3640.000000
6.619789,8.197465,8.936981,10.988291,6.478367,6.175665,6.162491,9.745214,10.272678,9.579377,8.579781,5.249394,8.872285,8.640946,6.598745,4.307526,80.032001,-739.563995,-668.316010,-26670.000000,-5320.000000,3780.000000
6.698443,8.374175,9.051196,11.099698,6.544450,6.228258,6.214515,9.840755,10.416870,9.722030,8.769520,5.306778,8.989903,8.734446,6.697923,4.476061,79.300003,-736.392029,-666.852020,-27230.000000,-5320.000000,3920.000000
6.718148,8.447409,9.058417,11.108034,6.451987,6.099443,6.084912,9.754658,10.446004,9.808404,8.840927,5.354014,8.975215,8.711182,6.734250,4.589789,77.591999,-736.148010,-667.339996,-27160.000000,-5390.000000,3920.000000
6.638243,8.370522,8.979335,10.985624,6.314218,6.027018,6.016022,9.579809,10.311768,9.723575,8.719933,5.322732,8.865320,8.612855,6.694542,4.533870,78.080002,-735.660034,-670.511994,-27440.000000,-5180.000000,3850.000000
6.565822,8.214407,8.857066,10.795474,6.268840,6.033179,6.026267,9.357462,10.062994,9.532629,8.555584,5.362628,8.731036,8.506413,6.642104,4.661155,77.347999,-734.928009,-673.440002,-27580.000000,-5110.000000,3850.000000
6.527668,8.111205,8.767933,10.623363,6.221093,6.011206,6.009820,9.210839,9.792561,9.344757,8.380553,5.347920,8.355022,8.180861,6.478800,4.674940,78.568001,-732.000031,-669.291992,-27860.000000,-5390.000000,3500.000000
6.422463,7.955458,8.580887,10.466070,6.106796,5.899028,5.905543,8.990303,9.559872,9.142945,8.207885,5.226542,8.036326,7.894475,6.400759,4.652887,77.592003,-740.540008,-667.340027,-28630.000000,-6160.000000,3080.000000
6.506257,8.008427,8.560939,10.467953,6.320134,6.060900,6.070841,8.999847,9.562582,9.210939,8.222690,5.266718,8.036942,7.923584,6.582093,4.882682,79.299999,-738.100006,-675.880005,-28490.000000,-6230.000000,2870.000000
6.596652,8.075461,8.594697,10.472101,6.619999,6.229754,6.239067,9.098831,9.577410,9.287113,8.244253,5.282034,8.045593,7.949806,6.669559,4.999608,77.836002,-727.608002,-674.171998,-27860.000000,-5530.000000,2520.000000
6.551505,7.988969,8.401747,10.277093,6.758894,6.300819,6.312867,8.958779,9.447630,9.160130,8.130303,5.118123,7.976380,7.876280,6.618766,5.024551,78.324001,-731.756012,-673.440002,-28420.000000,-6370.000000,2100.000000
