-225.417343,11638.195710,508.189262,296.048855,4609.779073,-1158.870895,1496.471643,6761.760326,-5407.132853,6603.845251,1618.288650,16823.219278,2170.108517,6783.843849,-2706.595088,4717.089798,-48.312000,-950.135986,-313.295990,2100.000000,1400.000000,-1120.000000
-171.996674,11701.339388,565.253266,356.465621,4673.280379,-1096.576583,1554.921455,6828.368524,-5362.071736,6665.200790,1679.688892,16887.145267,2226.077286,6847.188693,-2649.307567,4776.321921,-44.896000,-949.160034,-316.223999,2240.000000,1680.000000,-1120.000000
-1496.426940,11615.061654,-182.189069,-902.362275,3360.987110,-2105.444921,640.779810,7165.432831,-6684.445642,5582.996378,526.718858,14642.046647,924.423447,5927.101484,-3551.423973,4102.126253,-10.736000,-992.104004,-173.727997,-4060.000000,-5880.000000,-1680.000000
-1488.648532,11629.634992,-172.913095,-898.070740,3364.071651,-2101.712179,638.924615,7166.036328,-6666.251322,5587.936114,526.338878,14654.094238,929.698459,5936.086885,-3554.799086,4100.226355,-9.272000,-993.080017,-168.848007,-3780.000000,-7140.000000,-1680.000000
-1551.680452,11556.813008,-234.603910,-966.243561,3288.634513,-2170.041462,572.025844,7096.991789,-6721.862462,5515.427055,451.818162,14577.830085,865.481897,5872.898504,-3617.696895,4037.149732,-9.760000,-994.056030,-169.335999,-3780.000000,-7840.000000,-1960.000000
-1606.397522,11486.852048,-291.891431,-1028.426114,3220.193472,-2228.826550,510.022105,7033.848111,-6775.305483,5451.992804,394.664752,14508.964361,810.563661,5810.425378,-3672.816297,3977.515278,-8.784000,-993.080017,-169.824005,-3780.000000,-8400.000000,-2100.000000
-1608.833862,11483.633397,-294.484233,-1029.387239,3223.568585,-2224.847940,515.073599,7038.653736,-6780.625198,5450.092906,396.765816,14508.696140,811.122455,5807.497300,-3671.095213,3983.974932,-9.760000,-991.616028,-165.919998,-3220.000000,-9100.000000,-2100.000000
-1572.936961,11527.755741,-258.274407,-987.589477,3272.720071,-2181.731425,560.827620,7086.978207,-6750.785619,5494.483470,439.569406,14554.584271,848.069888,5847.953957,-3631.018535,4030.578319,-8.784000,-994.544006,-166.408005,-2520.000000,-10080.000000,-2240.000000
-1554.161495,11549.615747,-241.912930,-966.355320,3290.445005,-2167.918046,573.635170,7097.841155,-6735.295860,5514.868261,455.461497,14574.767897,861.704452,5865.365966,-3615.148796,4040.278976,-8.296000,-991.616028,-167.384003,-2100.000000,-10640.000000,-2240.000000
-1542.739754,11562.579758,-232.592253,-954.888875,3298.961019,-2161.771317,580.653617,7103.451443,-6723.315325,5524.948898,463.664587,14586.502562,869.415804,5874.083146,-3605.559898,4046.425706,-7.808000,-991.616028,-166.408005,-1820.000000,-10920.000000,-2240.000000
-1507.871033,11598.610771,-196.270668,-917.762627,3342.099886,-2124.019220,619.433894,7139.728324,-6695.710921,5563.818582,504.657686,14626.623944,906.005610,5910.337676,-3567.226656,4081.048558,-9.760000,-995.520020,-168.360001,-1540.000000,-11200.000000,-2240.000000
-1490.771948,11615.396931,-172.242543,-901.982296,3366.686805,-2094.425511,643.372612,7168.405613,-6684.825621,5589.232515,529.713992,14649.847406,931.084267,5938.143246,-3550.284034,4104.562593,-7.808000,-992.592041,-165.432007,-1120.000000,-10500.000000,-1820.000000
-1533.463780,11565.373727,-218.957689,-957.347567,3303.967810,-2146.482724,588.432025,7113.487376,-6714.732255,5539.052849,477.522669,14594.884467,884.391473,5887.315379,-3605.604602,4050.694889,-9.760000,-991.616028,-167.384003,-1120.000000,-9940.000000,-1400.000000
-1589.700769,11495.926857,-283.777748,-1027.576748,3226.116684,-2217.717733,513.263108,7039.592509,-6764.397831,5471.394118,411.227394,14521.079006,821.895995,5816.773274,-3675.498506,3979.348121,-12.200000,-988.200012,-161.528000,-560.000000,-9380.000000,-840.000000
-1606.241060,11472.882208,-302.620268,-1046.307510,3210.179890,-2235.375611,499.852061,7028.774265,-6787.017797,5451.501066,394.195365,14500.493050,804.305172,5803.026951,-3689.535402,3971.525010,-17.080000,-990.640015,-163.968002,-140.000000,-8120.000000,-140.000000
-1571.595856,11514.009418,-268.176230,-1003.950954,3256.559760,-2198.651695,540.085201,7066.839286,-6760.061593,5490.169584,434.674374,14543.698972,838.436286,5838.745038,-3647.782343,4008.718313,-19.520000,-988.687988,-165.432007,-140.000000,-7420.000000,140.000000
-1549.892312,11542.731409,-244.617491,-977.754709,3284.030054,-2172.500154,564.493306,7092.364978,-6738.335697,5516.857566,459.395404,14571.415135,860.050423,5863.242550,-3622.189596,4030.153636,-18.544001,-986.247986,-159.087997,140.000000,-6160.000000,700.000000
-1542.940920,11550.286299,-236.414401,-967.539962,3293.373083,-2164.900561,577.479670,7100.769234,-6731.719581,5523.026648,462.926979,14579.461763,865.705414,5871.043309,-3610.633744,4040.435438,-21.472000,-986.247986,-164.944000,-280.000000,-4620.000000,980.000000
-1519.158664,11578.136573,-212.587442,-941.030793,3321.580985,-2143.062907,606.559289,7125.311449,-6709.256078,5546.563035,487.111567,14606.485022,886.403130,5893.283295,-3584.057520,4065.447040,-24.400000,-984.296021,-162.992004,-560.000000,-3220.000000,1260.000000
-1485.429881,11622.035399,-173.226020,-898.450720,3368.139668,-2097.465348,650.636929,7174.373528,-6678.723595,5587.511431,529.378716,14650.786179,924.110523,5935.192816,-3543.287938,4108.317686,-23.912001,-983.320007,-164.456009,-840.000000,-2240.000000,1400.000000
-1507.826329,11593.603980,-196.851813,-929.363183,3333.941499,-2124.913290,618.092789,7144.042211,-6697.432005,5561.002262,498.980343,14620.790138,896.617877,5910.740007,-3572.322854,4078.589866,-26.352001,-987.223999,-166.895996,-1120.000000,-1820.000000,1400.000000
-1572.892257,11514.523508,-265.359910,-1007.638992,3248.669594,-2198.606992,540.085201,7065.475829,-6756.619424,5484.581647,423.096171,14539.429789,826.925138,5840.846102,-3646.664756,4005.723179,-30.743999,-983.320007,-164.456009,-1260.000000,-1820.000000,1260.000000
-1606.755150,11474.782106,-300.608611,-1047.469800,3207.721199,-2236.984937,497.125148,7023.678067,-6786.928390,5443.141513,385.299371,14498.749614,791.229402,5802.937544,-3688.909553,3966.831144,-28.792000,-981.856018,-164.456009,-1820.000000,-1680.000000,980.000000
-1586.996208,11499.056101,-282.727216,-1017.674925,3242.612272,-2213.582660,535.279576,7057.876236,-6771.885666,5464.398022,410.936822,14524.096492,807.300306,5825.535157,-3655.985434,4004.002095,-24.888000,-982.832031,-166.895996,-1960.000000,-1960.000000,700.000000
-1556.933112,11537.836377,-253.334672,-982.046244,3280.319665,-2180.390320,570.327112,7091.426205,-6743.677764,5499.222040,445.850247,14561.692126,829.428533,5856.022937,-3622.010782,4034.892206,-25.864000,-986.247986,-167.872009,-2240.000000,-1960.000000,420.000000
-1545.667833,11549.571043,-239.923625,-972.233829,3291.048502,-2172.746023,576.742062,7097.662341,-6735.429971,5512.566032,457.137878,14575.863132,837.430458,5866.282388,-3614.679410,4040.323679,-24.888000,-984.296021,-167.384003,-2240.000000,-2520.000000,140.000000
-1535.386030,11560.344584,-229.105381,-960.767384,3302.716112,-2160.050232,589.013170,7110.134615,-6729.685572,5525.932375,470.750090,14586.770783,850.573284,5878.084109,-3603.302372,4051.208979,-18.544001,-986.736023,-163.968002,-1960.000000,-3220.000000,-420.000000
-1491.844832,11610.390140,-182.032607,-910.073627,3359.534247,-2108.730627,641.115086,7162.236531,-6693.408691,5577.006111,521.555605,14639.543252,899.948287,5930.051914,-3554.642624,4101.075721,-19.520000,-986.247986,-162.503998,-1680.000000,-4060.000000,-980.000000
-1492.113053,11610.993637,-175.908229,-912.778188,3357.969625,-2103.790892,636.980013,7158.772011,-6690.078281,5580.358872,523.120227,14641.219633,908.084322,5937.271528,-3560.029395,4098.281753,-16.592001,-987.712036,-164.456009,-1540.000000,-4760.000000,-1260.000000
-1549.646443,11538.439874,-238.135485,-985.644875,3279.582057,-2173.394224,567.019053,7088.833402,-6737.732200,5513.258936,455.439145,14567.592987,846.147638,5869.433983,-3628.001050,4031.159464,-17.568001,-988.687988,-162.503998,-1960.000000,-5460.000000,-1820.000000
-1592.762958,11485.980330,-289.186870,-1038.193826,3221.154597,-2229.251233,509.865643,7032.529358,-6774.411413,5459.435935,401.280868,14510.596038,796.794986,5813.867547,-3678.024254,3977.850554,-10.248000,-983.320007,-163.479996,-1680.000000,-6160.000000,-2100.000000
-1589.924287,11489.556609,-289.298628,-1033.365850,3228.150693,-2225.496140,516.235890,7037.513797,-6774.500820,5461.738165,407.941688,14514.731111,801.354742,5813.062884,-3672.793945,3984.623132,-9.760000,-986.247986,-161.040009,-1540.000000,-7420.000000,-2380.000000
-1553.446240,11534.036581,-251.188904,-989.601134,3275.290522,-2183.161936,558.435983,7080.652664,-6744.191854,5504.094720,451.102907,14562.519141,841.811400,5850.859684,-3632.851378,4024.029258,-3.416000,-987.223999,-162.992004,-1820.000000,-7560.000000,-2940.000000
-1545.220798,11549.124008,-238.895445,-972.613808,3288.947438,-2168.879171,573.188135,7094.980132,-6733.753590,5514.242412,460.043604,14576.198408,854.015452,5864.874228,-3618.099227,4037.708525,-4.392000,-986.247986,-159.576004,-1680.000000,-7980.000000,-3080.000000
-1543.075030,11551.672107,-235.676794,-970.155116,3291.428482,-2164.453526,581.055949,7102.333856,-6730.199662,5517.885747,463.932808,14578.321824,859.558685,5868.651672,-3612.645401,4046.023374,-2.440000,-985.272034,-163.968002,-2100.000000,-8540.000000,-3360.000000
-1513.302507,11585.602055,-203.244412,-935.912244,3330.208758,-2129.540101,614.248289,7137.336688,-6703.422273,5556.464858,503.540099,14615.313961,895.366179,5900.346446,-3578.000197,4077.137003,0.976000,-986.736023,-161.528000,-2100.000000,-8540.000000,-3500.000000
-1489.788471,11615.665152,-175.684711,-906.027961,3362.618788,-2098.761749,645.339566,7167.377432,-6680.243514,5586.349140,532.306794,14646.271127,922.970584,5931.080095,-3549.613482,4106.082512,7.320000,-984.296021,-162.503998,-1960.000000,-8260.000000,-3640.000000
-1526.758257,11569.061764,-212.363924,-955.894703,3308.125235,-2148.516732,592.634152,7111.632182,-6710.686590,5543.746715,486.642180,14598.438394,880.323455,5889.215277,-3599.346113,4056.573398,3.416000,-985.272034,-159.576004,-2100.000000,-7560.000000,-3500.000000
-1583.866964,11498.810232,-274.702939,-1025.185111,3232.710449,-2217.941251,522.270861,7036.642079,-6763.459058,5476.087985,420.749238,14525.594059,818.856158,5823.165872,-3666.066070,3990.121661,4.392000,-985.760010,-165.432007,-1960.000000,-7420.000000,-3360.000000
-1604.542327,11471.429345,-300.698018,-1051.448411,3208.481158,-2245.903283,499.449730,7011.272849,-6789.163564,5451.009327,401.906717,14497.922599,797.085559,5795.002674,-3689.580105,3969.088670,6.344000,-983.807983,-163.479996,-1680.000000,-6860.000000,-3220.000000
-1582.928191,11500.665426,-273.920628,-1018.703105,3248.691946,-2207.480634,537.358288,7054.411716,-6776.087794,5478.457269,434.182636,14530.667905,828.199187,5824.372867,-3654.331404,4004.382074,6.832000,-985.272034,-162.992004,-2100.000000,-6580.000000,-2940.000000
-1560.531743,11532.091979,-248.841971,-990.092872,3276.296351,-2173.036596,559.821792,7089.973341,-6752.149076,5501.926601,455.372090,14562.005050,851.467353,5855.419440,-3628.448084,4034.266357,5.368000,-982.832031,-161.040009,-2800.000000,-5460.000000,-2940.000000
-1552.641577,11541.949098,-242.628186,-982.783852,3284.275923,-2167.940398,569.120117,7097.461176,-6741.420238,5508.408607,458.389575,14571.817466,856.272978,5866.349443,-3619.038000,4043.363517,1.464000,-985.272034,-160.063995,-2940.000000,-5180.000000,-2660.000000
-1532.815580,11564.770229,-220.924642,-960.476811,3311.947383,-2145.342785,595.182251,7120.103493,-6725.550500,5529.866282,478.819070,14595.890295,877.931819,5886.868344,-3595.255744,4062.384851,2.928000,-982.832031,-161.528000,-2940.000000,-5040.000000,-2380.000000
-1485.429881,11627.556280,-170.566162,-898.629534,3376.521573,-2091.676246,655.733127,7179.402671,-6680.489383,5583.443413,527.925852,14655.792970,925.853959,5939.551406,-3536.671822,4117.727771,1.464000,-985.760010,-162.016006,-2800.000000,-4620.000000,-1960.000000
-1501.389027,11608.400835,-187.777005,-918.343773,3351.398212,-2116.173758,632.800237,7152.133543,-6688.066624,5567.372509,506.356419,14634.715275,904.731560,5921.580603,-3556.520171,4094.213735,-0.976000,-982.832031,-163.968002,-3080.000000,-4340.000000,-2100.000000
-1565.426775,11527.487520,-254.854590,-996.686637,3266.930970,-2190.381550,552.825696,7068.873294,-6742.068439,5494.550525,433.512084,14554.293699,837.519865,5851.284367,-3631.420866,4018.575432,-3.416000,-986.247986,-159.576004,-3500.000000,-3500.000000,-1820.000000
-1602.776540,11480.615912,-292.740797,-1040.607815,3222.428646,-2227.597204,509.642125,7028.461340,-6780.312274,5452.864522,395.670580,14508.494974,802.517033,5809.911288,-3672.682187,3979.415176,-1.952000,-981.367981,-162.503998,-3640.000000,-3640.000000,-1820.000000
-1581.274161,11502.364159,-273.428890,-1017.250242,3248.379022,-2207.659448,533.156160,7052.243597,-6768.309387,5476.490316,422.671488,14533.193652,822.879472,5826.451579,-3650.241035,4001.677513,-3.904000,-987.712036,-166.895996,-4620.000000,-2940.000000,-1400.000000
-1550.004071,11540.831511,-239.700108,-978.984055,3290.199136,-2170.756718,572.808155,7092.677902,-6740.593224,5513.147177,458.724851,14574.969062,856.138868,5864.270731,-3614.187671,4038.826113,-7.808000,-990.152039,-165.432007,-4480.000000,-2380.000000,-1540.000000
-1540.906911,11553.683764,-230.759410,-969.417509,3299.743330,-2163.358291,584.118138,7101.573897,-6730.087904,5524.188939,468.067881,14586.882542,863.917275,5872.809097,-3607.750369,4048.660880,-11.224000,-989.664001,-164.456009,-4480.000000,-2100.000000,-1400.000000
-1530.356888,11567.877122,-219.516482,-957.347567,3310.874499,-2152.249474,594.645809,7111.095740,-6713.994648,5536.214177,480.808375,14599.198353,876.166031,5882.710920,-3596.976828,4058.719165,-13.176001,-991.616028,-164.456009,-3640.000000,-2520.000000,-1120.000000
-1494.415283,11611.932410,-177.606961,-911.168863,3364.183410,-2103.790892,645.160752,7163.018842,-6681.517563,5581.029425,529.244605,14646.516996,920.109561,5928.554348,-3551.692194,4106.797767,-15.616000,-989.664001,-161.040009,-3500.000000,-3220.000000,-980.000000
-1494.482338,11613.273515,-173.874220,-913.292278,3362.954064,-2099.767578,645.384269,7165.835162,-6678.008339,5584.471593,532.820884,14647.500473,922.970584,5933.807008,-3553.346223,4106.440140,-11.712000,-988.200012,-167.384003,-2800.000000,-3640.000000,-1120.000000
-1550.048774,11544.363087,-233.620433,-983.901439,3284.588848,-2167.046328,570.148298,7090.822708,-6723.561194,5518.869223,466.167982,14576.265463,861.659749,5871.579751,-3623.888329,4034.355764,-12.200000,-991.127991,-163.968002,-2520.000000,-3360.000000,-1120.000000
-1589.030217,11493.959903,-280.849669,-1032.114152,3230.072943,-2219.550576,521.823826,7040.732448,-6760.866256,5465.247389,411.406208,14523.470643,812.351800,5820.662477,-3669.754108,3989.205240,-14.640000,-990.152039,-163.479996,-3080.000000,-3500.000000,-1400.000000
-1585.543345,11495.748043,-280.290875,-1030.840103,3232.352821,-2220.668163,520.482721,7039.011364,-6763.324948,5466.856714,413.641383,14526.130501,813.379981,5817.644992,-3670.201143,3986.567734,-14.152000,-986.247986,-164.944000,-2940.000000,-3360.000000,-1260.000000
-1550.451106,11536.808197,-246.807962,-987.880050,3281.772528,-2180.949113,568.382510,7084.519516,-6735.228805,5508.676828,455.170924,14570.588120,849.790972,5855.374736,-3626.771704,4031.338278,-10.248000,-987.223999,-168.360001,-2800.000000,-3920.000000,-1260.000000
-1535.162513,11557.662375,-228.501884,-963.069613,3307.298220,-2160.877247,594.198775,7105.731321,-6721.884814,5526.826444,469.632503,14592.671644,867.314740,5878.709957,-3600.955439,4054.807610,-13.664001,-990.640015,-162.992004,-2660.000000,-4060.000000,-1260.000000
-1530.960385,11562.490351,-221.170511,-953.123087,3316.462435,-2154.730517,602.424217,7111.073388,-6718.308534,5532.727305,475.488660,14598.170173,874.288484,5887.628303,-3592.528831,4061.334319,-16.104000,-990.640015,-165.432007,-2520.000000,-4200.000000,-1120.000000
-1497.499823,11603.215230,-188.335799,-915.594508,3355.242712,-2120.398238,639.215188,7149.473685,-6680.265865,5571.194657,515.319468,14636.682229,908.732523,5919.099560,-3555.715508,4096.381855,-14.152000,-989.176025,-164.944000,-1680.000000,-4620.000000,-980.000000
-1472.912904,11634.932355,-159.725566,-889.442967,3385.708140,-2087.854098,666.394909,7178.620360,-6658.539970,5599.916649,543.974405,14670.254549,937.208645,5950.324947,-3532.223825,4121.460512,-16.592001,-988.687988,-163.968002,-1400.000000,-5180.000000,-980.000000
-1516.990544,11584.372709,-203.199709,-945.188218,3327.481845,-2134.949223,611.454321,7123.478606,-6692.536973,5549.535817,490.151404,14616.610362,890.694665,5906.649638,-3588.617276,4069.202133,-10.736000,-988.200012,-167.872009,-560.000000,-5180.000000,-700.000000
-1575.462708,11508.644999,-268.578561,-1018.591347,3246.456772,-2208.285297,536.508922,7047.482675,-6745.600014,5480.603037,421.196273,14538.334553,824.287632,5835.079352,-3657.259483,3998.123586,-10.736000,-985.760010,-164.944000,-560.000000,-5180.000000,-700.000000
-1592.204165,11488.416670,-288.404559,-1034.997527,3227.837769,-2229.117123,517.867567,7029.020134,-6760.195704,5461.179371,403.001953,14517.078044,804.148710,5813.308753,-3672.995111,3982.812641,-17.080000,-985.760010,-163.968002,-560.000000,-4900.000000,-560.000000
-1565.516182,11524.000648,-260.107250,-994.339704,3268.964978,-2195.656561,556.357271,7066.682824,-6738.983898,5492.516517,435.724906,14553.354925,832.669536,5843.774181,-3635.086553,4020.318868,-11.712000,-987.712036,-167.384003,-840.000000,-4760.000000,-560.000000
-1541.622167,11552.007383,-234.715669,-968.903419,3296.994066,-2168.387433,580.340693,7090.688597,-6720.744875,5522.758427,464.871581,14583.820353,859.402223,5869.590446,-3612.354828,4041.754191,-11.712000,-987.223999,-166.895996,-700.000000,-4620.000000,-420.000000
-1535.274271,11558.824665,-226.803151,-964.231904,3301.196194,-2162.106593,584.252248,7092.700254,-6714.911069,5531.676773,473.521706,14590.347062,867.828830,5875.960693,-3608.487977,4043.251758,-12.688000,-987.223999,-168.360001,-700.000000,-4760.000000,-420.000000
-1520.991507,11577.153096,-209.927584,-942.662471,3325.179616,-2141.163008,611.342563,7116.258993,-6703.243459,5549.044078,494.375884,14608.407272,885.307894,5896.121966,-3585.197459,4068.598636,-12.200000,-988.200012,-172.264008,-700.000000,-4340.000000,-140.000000
-1476.288018,11629.053846,-162.094851,-893.175708,3379.717872,-2094.738435,658.460040,7164.538761,-6666.206618,5599.335503,543.996757,14663.973709,930.793694,5943.597072,-3539.488141,4112.855090,-10.248000,-991.127991,-172.751999,-980.000000,-3920.000000,-280.000000
-1502.864242,11601.896477,-183.373712,-924.490502,3347.844285,-2116.732552,628.843979,7140.443580,-6684.602104,5570.546457,511.743189,14634.715275,908.285488,5923.189929,-3569.886514,4087.754081,-9.272000,-987.223999,-170.311996,140.000000,-4200.000000,-140.000000
-1577.116737,11515.618743,-259.369643,-1009.047152,3257.163257,-2190.359198,551.059908,7066.168733,-6750.740916,5487.040339,430.226377,14543.967193,835.195283,5846.501094,-3644.563692,4016.854348,-10.248000,-985.760010,-169.335999,280.000000,-3920.000000,140.000000
-1604.095293,11480.370042,-294.551288,-1042.887693,3218.517091,-2229.407695,513.419570,7026.181463,-6777.048919,5451.702231,395.536470,14506.483317,799.901879,5806.670285,-3676.861963,3981.672702,-9.272000,-986.247986,-168.360001,700.000000,-4060.000000,280.000000
-1586.236249,11500.553668,-280.380282,-1023.285213,3240.086524,-2214.096751,528.641108,7041.313594,-6765.180143,5471.572932,416.010668,14527.628067,817.224481,5819.902518,-3660.858114,3996.626019,-10.736000,-983.320007,-172.264008,980.000000,-4060.000000,420.000000
-1552.909798,11542.932575,-244.841009,-983.499108,3284.655903,-2175.450584,567.041405,7080.742071,-6734.804122,5512.364866,453.896875,14571.526894,853.009624,5859.085126,-3625.162378,4033.394639,-9.272000,-983.320007,-170.311996,420.000000,-4060.000000,420.000000
-1543.589120,11554.197854,-234.626262,-973.865506,3295.228278,-2164.341767,576.630303,7089.168678,-6725.863424,5521.953764,461.921151,14582.300434,862.196191,5870.864495,-3617.518081,4041.709488,-5.856000,-984.296021,-165.432007,560.000000,-4200.000000,280.000000
-1527.786437,11568.346509,-221.885767,-958.889837,3308.706380,-2153.031785,589.728426,7100.702179,-6713.368799,5536.102418,476.092157,14596.337330,874.512002,5881.123946,-3600.240183,4053.064174,-4.880000,-983.807983,-171.776001,700.000000,-3780.000000,280.000000
-1488.268553,11613.295867,-180.579743,-913.471092,3356.963796,-2108.104778,635.080115,7148.110229,-6682.478688,5582.437585,524.215463,14643.030124,918.075552,5921.290031,-3556.184895,4094.303142,-7.320000,-983.807983,-164.944000,700.000000,-4060.000000,280.000000
-1484.848736,11621.364846,-173.941275,-907.123197,3363.803430,-2101.980400,643.752592,7155.039269,-6675.035557,5589.791309,528.417591,14651.300270,922.925880,5930.655412,-3551.714546,4101.053369,-4.392000,-982.343994,-168.360001,700.000000,-4060.000000,0.000000
-1537.934129,11558.154113,-230.200616,-973.194954,3290.735577,-2168.096860,572.919914,7081.367920,-6715.246345,5528.167549,463.351663,14585.094402,864.274903,5872.674986,-3616.400494,4032.791142,-5.368000,-985.760010,-165.919998,560.000000,-4060.000000,0.000000
-1586.839746,11496.664464,-286.683474,-1032.941167,3226.898995,-2225.987879,515.699448,7023.208681,-6759.703965,5468.667205,405.460644,14521.526041,809.222556,5815.119244,-3671.184620,3979.012844,-0.488000,-987.712036,-169.335999,140.000000,-3500.000000,-140.000000
-1591.175984,11491.769432,-293.679570,-1033.522312,3227.770713,-2225.719658,520.326259,7027.410808,-6766.990634,5462.855752,404.723037,14516.899230,804.685152,5810.604192,-3667.094251,3985.383092,-5.856000,-987.223999,-166.408005,140.000000,-3500.000000,-420.000000
-1555.815525,11535.601203,-255.525143,-990.830480,3276.899848,-2183.474861,566.460260,7073.745975,-6739.967375,5505.078197,449.068898,14562.809713,844.694775,5850.189132,-3627.039925,4029.639546,-0.976000,-988.200012,-165.432007,140.000000,-3360.000000,-560.000000
-1549.601740,11544.966584,-244.975119,-983.744977,3286.555801,-2172.053119,575.691530,7085.681806,-6736.011116,5515.382351,461.071785,14573.583254,856.697661,5861.812039,-3620.937898,4038.826113,-0.488000,-988.687988,-170.800003,140.000000,-3360.000000,-700.000000
-1543.320899,11550.532168,-237.375526,-979.542849,3291.160261,-2167.716881,578.284333,7087.715815,-6730.847863,5522.512558,466.726776,14579.573522,862.777336,5868.115231,-3617.160453,4039.653127,-1.464000,-988.687988,-168.848007,-140.000000,-3360.000000,-700.000000
-1511.067332,11589.401852,-201.635087,-936.694555,3337.540130,-2129.495398,624.016002,7130.295888,-6706.104482,5558.901198,502.623678,14618.689074,897.757816,5906.627286,-3574.580380,4081.964979,-0.488000,-989.176025,-167.872009,-280.000000,-2520.000000,-840.000000
-1481.987713,11625.276402,-170.007368,-903.770435,3371.470078,-2094.604325,656.537790,7166.729232,-6678.835354,5593.881678,534.899597,14656.955261,929.340831,5939.283185,-3544.673746,4112.095131,-1.952000,-987.223999,-167.872009,0.000000,-2520.000000,-980.000000
-1522.354963,11582.651625,-210.978116,-954.531247,3313.914336,-2139.285462,599.831414,7113.241507,-6702.774072,5545.378392,481.881259,14609.010769,886.201964,5896.837222,-3598.094415,4058.026261,-0.976000,-989.176025,-167.872009,-420.000000,-2520.000000,-980.000000
-1578.435490,11517.429235,-272.065434,-1015.842082,3246.635586,-2205.804253,540.196960,7046.230977,-6749.243349,5476.177392,410.735656,14538.468664,821.225443,5834.900538,-3654.085535,4001.476348,-3.904000,-986.736023,-166.895996,-420.000000,-2660.000000,-840.000000
-1595.266354,11494.496345,-293.634867,-1036.562149,3224.261489,-2227.664259,520.303907,7023.700419,-6768.890532,5456.105525,393.971848,14515.893402,801.757074,5810.023047,-3673.218629,3982.477365,-4.880000,-988.687988,-166.895996,-280.000000,-2800.000000,-840.000000
-1566.209086,11530.415598,-264.756413,-1000.844061,3263.153525,-2195.209526,554.211504,7058.032698,-6746.114105,5491.398930,430.919281,14553.019649,832.557777,5837.873320,-3640.272157,4014.127435,-2.928000,-990.152039,-168.848007,-420.000000,-2660.000000,-840.000000
-1539.655213,11561.171599,-237.017898,-970.825669,3296.010589,-2167.046328,584.587524,7086.374710,-6723.292973,5523.272517,460.669453,14585.675548,859.178705,5867.131754,-3610.454930,4040.882473,-1.952000,-990.640015,-170.800003,-280.000000,-2660.000000,-560.000000
-1534.111981,11566.580721,-231.698183,-965.550657,3300.659752,-2163.604160,589.817833,7091.180335,-6719.247308,5528.346363,465.497430,14590.011786,864.811345,5872.004434,-3606.275154,4043.050592,-4.880000,-991.127991,-170.311996,-560.000000,-2100.000000,-560.000000
-1522.846701,11577.711889,-218.175378,-954.888875,3314.562537,-2147.913235,603.072417,7108.614696,-6709.747816,5541.332727,482.149480,14602.752281,879.608200,5886.331902,-3595.591020,4055.969901,-2.440000,-994.544006,-169.335999,-700.000000,-1260.000000,-560.000000
-1481.339512,11627.779797,-172.019025,-904.016304,3369.681939,-2097.241830,655.688424,7163.018842,-6677.293083,5591.154765,532.329146,14654.921252,924.088171,5934.902243,-3544.696098,4105.702532,-4.880000,-991.616028,-171.776001,-560.000000,-840.000000,-420.000000
-1498.483300,11611.083044,-187.061749,-923.954061,3344.692689,-2118.632450,631.280319,7137.761371,-6688.915990,5573.385128,509.910346,14635.184662,904.977430,5918.049028,-3566.824325,4081.272075,-5.856000,-995.031982,-171.287994,-280.000000,-420.000000,-280.000000
-1562.409289,11532.561366,-255.569846,-1002.498091,3260.091336,-2192.572021,551.328129,7057.630367,-6744.817703,5498.059749,432.819180,14554.673678,837.050478,5847.462219,-3644.161361,4006.907822,-7.808000,-990.152039,-167.872009,420.000000,-700.000000,140.000000
-1597.993266,11487.008510,-294.953620,-1044.139390,3216.170158,-2232.134608,509.530367,7017.240765,-6781.429861,5455.189104,393.636572,14509.254934,799.857175,5803.876317,-3684.193335,3967.680510,-7.320000,-990.152039,-167.872009,560.000000,-980.000000,140.000000
-1584.850441,11500.620723,-281.989608,-1031.175379,3235.392658,-2215.996649,528.730515,7038.251405,-6773.226771,5470.723566,411.540319,14525.750521,815.257527,5816.393294,-3668.077727,3988.646446,-7.808000,-992.104004,-169.824005,560.000000,-560.000000,280.000000
-1550.518161,11544.251328,-245.489209,-989.131747,3281.146679,-2177.708111,570.505925,7078.596303,-6743.655413,5510.174395,450.141782,14570.185789,851.176781,5856.693489,-3624.916509,4027.002040,-6.832000,-992.104004,-165.432007,560.000000,-420.000000,420.000000
-1545.310205,11555.695421,-237.576692,-977.240619,3291.942572,-2166.532238,584.073434,7091.023873,-6737.262814,5517.572822,457.450802,14581.004033,859.178705,5869.076356,-3610.834910,4041.262453,-8.784000,-992.104004,-168.848007,980.000000,-420.000000,700.000000
-1537.554149,11567.273625,-226.557282,-964.075442,3304.437197,-2154.305834,597.372722,7103.138519,-6729.931442,5527.854625,467.643197,14592.828106,870.108708,5880.766318,-3598.273229,4052.684194,-13.176001,-990.640015,-168.848007,1260.000000,-280.000000,980.000000
-1499.623239,11614.100529,-185.608886,-918.366124,3353.968662,-2107.635392,643.149095,7153.251130,-6698.594296,5573.541590,515.453579,14639.967935,913.493444,5922.832301,-3555.737860,4096.672427,-9.760000,-993.080017,-164.944000,1260.000000,-560.000000,840.000000
-1496.717512,11618.101492,-177.964589,-918.030848,3355.555636,-2100.147557,643.864351,7157.609720,-6696.515584,5580.090652,520.750942,14645.041781,920.333078,5931.102446,-3556.520171,4097.499442,-11.224000,-989.664001,-161.528000,1820.000000,-560.000000,980.000000
-1544.550245,11558.444686,-231.206445,-981.152175,3288.612162,-2164.185305,580.295990,7087.380539,-6733.217148,5521.394971,459.350700,14581.451068,862.620874,5875.871286,-3615.327610,4035.294537,-11.712000,-987.712036,-165.432007,1400.000000,-700.000000,1120.000000
-1586.549173,11505.091072,-282.481346,-1034.192864,3230.184702,-2222.076323,526.249471,7027.544919,-6769.382271,5469.427165,406.198252,14523.023608,810.876585,5820.349553,-3664.076765,3984.153746,-11.224000,-990.152039,-166.408005,1400.000000,-420.000000,1120.000000
-1589.924287,11501.514793,-289.052759,-1037.165646,3226.675478,-2227.597204,521.242681,7022.493425,-6775.663111,5463.928636,403.337229,14518.709721,805.690981,5812.928774,-3669.888219,3979.817507,-9.272000,-990.152039,-164.456009,1120.000000,-140.000000,980.000000
-1551.926321,11547.939366,-252.060622,-992.551564,3274.619970,-2186.492346,564.158030,7067.576893,-6743.588357,5506.106377,447.906607,14564.754315,844.203036,5850.189132,-3629.006878,4019.380095,-13.176001,-988.200012,-170.311996,1260.000000,140.000000,980.000000
-1542.069202,11559.629328,-238.247244,-982.292114,3289.193307,-2169.795593,580.139527,7088.878106,-6739.565043,5520.232680,462.658758,14578.768859,859.178705,5864.449544,-3616.311087,4035.518054,-13.664001,-986.247986,-164.456009,1260.000000,0.000000,980.000000
-1541.510408,11561.864503,-233.061639,-977.374730,3295.652961,-2163.246532,585.526298,7095.203649,-6742.984860,5522.803130,465.385671,14582.300434,865.213676,5872.809097,-3612.064256,4041.664784,-10.248000,-989.176025,-165.919998,1120.000000,-140.000000,1120.000000
-1514.956536,11591.547619,-205.859566,-950.351471,3328.241805,-2130.612985,615.097656,7129.759446,-6721.996572,5555.816657,500.299096,14614.665760,895.969676,5901.307571,-3590.964209,4073.784241,-6.832000,-988.200012,-166.895996,980.000000,140.000000,980.000000
-1485.563992,11629.456178,-172.309598,-914.275755,3367.603227,-2094.336104,653.050918,7167.086860,-6693.766319,5593.434643,535.525445,14654.876549,928.245595,5938.143246,-3554.441459,4109.099997,-8.296000,-988.200012,-167.872009,980.000000,280.000000,840.000000
-1525.037172,11584.260951,-210.508729,-960.566218,3315.523662,-2137.631433,602.983010,7115.499033,-6722.309497,5548.306471,486.619829,14607.200278,885.821985,5898.491251,-3595.322799,4059.300311,-10.736000,-988.200012,-168.360001,1120.000000,140.000000,840.000000
-1581.721196,11517.295124,-274.054739,-1026.705030,3240.734725,-2206.363047,535.190169,7043.191140,-6764.509590,5479.328988,415.608336,14534.199480,820.286670,5831.748942,-3658.131201,3996.201336,-9.272000,-986.736023,-165.919998,1260.000000,280.000000,980.000000
-1597.389769,11497.916162,-296.182966,-1042.842989,3221.735742,-2227.440742,518.292250,7023.767474,-6777.205381,5457.804258,395.849394,14514.172317,800.617135,5808.637239,-3674.783251,3982.186792,-9.760000,-990.152039,-164.944000,1260.000000,420.000000,1120.000000
-1574.836859,11529.655639,-268.533858,-1005.247355,3263.913484,-2194.248401,555.932588,7061.363108,-6762.028547,5487.152098,427.052430,14549.152797,830.389658,5839.169722,-3639.065163,4017.659011,-6.344000,-985.760010,-164.944000,1400.000000,280.000000,980.000000
-1561.939903,11546.933537,-249.624282,-991.903364,3282.912467,-2169.348558,572.048196,7083.893667,-6752.059669,5506.195784,448.241883,14568.777629,851.959092,5860.672100,-3626.369372,4034.959261,-8.296000,-986.736023,-166.895996,1260.000000,560.000000,1120.000000
-1554.832048,11552.633232,-242.896407,-988.282381,3286.488746,-2162.955959,577.993760,7089.034568,-6742.023735,5514.041247,455.550904,14574.320862,857.323510,5865.835353,-3620.401456,4039.876645,-5.856000,-986.736023,-169.824005,1120.000000,980.000000,980.000000
-1536.682431,11569.911131,-225.596157,-970.713910,3306.314743,-2145.342785,597.506833,7108.927621,-6728.500930,5536.571805,477.388558,14594.213914,875.048444,5882.733271,-3600.128424,4058.875627,-9.760000,-985.760010,-166.408005,980.000000,1540.000000,980.000000
-1489.274381,11627.243355,-176.154098,-916.130950,3364.876314,-2095.945429,648.982900,7159.487266,-6687.396072,5590.573620,532.418553,14652.037877,923.372915,5933.024696,-3549.635833,4105.590773,-6.832000,-983.320007,-169.824005,840.000000,1960.000000,980.000000
-1508.228661,11607.842041,-190.012180,-936.895721,3341.004651,-2111.614002,629.782752,7141.471760,-6700.248325,5569.965311,509.575070,14629.462615,905.715037,5919.367781,-3571.071156,4087.485860,-5.368000,-985.760010,-164.944000,700.000000,2660.000000,1120.000000
-1573.048720,11530.125026,-258.207352,-1014.277460,3257.073850,-2185.933552,552.870399,7063.374765,-6754.093677,5492.471813,431.723944,14546.984678,836.402278,5849.473876,-3646.731811,4016.295554,-6.344000,-984.783997,-169.335999,420.000000,2800.000000,980.000000
-1601.278973,11494.071662,-293.366646,-1050.062603,3218.762960,-2227.708963,515.721800,7020.772340,-6781.318102,5454.116220,394.709455,14508.338512,801.242983,5811.051227,-3681.891105,3981.605647,-5.368000,-985.760010,-170.311996,420.000000,3080.000000,980.000000
-1579.709539,11519.664409,-276.356968,-1024.849835,3244.042783,-2212.308611,534.005527,7034.317498,-6765.403660,5475.953874,416.211834,14534.512405,817.179777,5825.535157,-3660.500486,3997.028350,-6.344000,-988.200012,-164.456009,280.000000,3360.000000,1260.000000
-1550.182885,11559.450514,-241.756468,-987.120090,3286.935781,-2173.818907,574.037501,7076.808164,-6739.408581,5513.594212,453.561598,14576.444277,852.361423,5862.482591,-3624.894157,4036.143903,-6.344000,-984.783997,-166.408005,420.000000,3220.000000,1260.000000
-1554.072088,11558.556444,-238.403706,-985.600172,3289.930915,-2165.504058,580.541859,7085.525344,-6742.381363,5513.750674,454.545075,14577.293644,857.815249,5867.757603,-3619.619145,4042.223578,-7.320000,-987.712036,-162.992004,700.000000,3500.000000,1120.000000
-1544.706708,11566.156038,-230.133561,-976.011273,3297.754025,-2156.250436,590.734254,7094.846022,-6737.575738,5524.814787,466.346796,14584.602664,867.471202,5874.820754,-3607.862128,4049.309081,-6.832000,-985.272034,-162.016006,560.000000,3500.000000,1400.000000
-1496.561050,11620.247259,-185.117148,-920.310726,3354.281587,-2107.993020,645.250159,7146.702069,-6697.633171,5577.497849,518.739285,14639.431493,914.342810,5921.155920,-3554.754383,4097.655904,-7.320000,-990.152039,-162.992004,560.000000,3780.000000,1400.000000
-1490.906059,11629.567937,-176.735243,-914.119293,3362.462325,-2095.140767,653.430897,7158.459086,-6689.921819,5585.320960,523.768428,14648.662764,923.752895,5934.544615,-3549.322909,4105.858994,-8.784000,-995.520020,-166.895996,840.000000,4200.000000,1120.000000
-1542.069202,11567.273625,-232.569901,-980.794547,3289.930915,-2158.597369,581.815908,7087.246428,-6729.864386,5523.428979,457.495506,14583.574484,865.660711,5876.519486,-3616.579308,4038.244967,-8.296000,-998.447998,-164.944000,980.000000,4900.000000,980.000000
-1590.930115,11506.476880,-288.739835,-1043.446486,3221.936908,-2221.852806,515.967669,7020.928803,-6770.321044,5464.330967,397.481072,14519.447329,808.261431,5814.806320,-3676.884315,3977.045891,-11.712000,-1000.888000,-155.184006,1540.000000,5460.000000,840.000000
-1591.868888,11506.409825,-293.076073,-1042.798286,3226.697830,-2224.490312,521.421495,7023.476901,-6774.612579,5460.374708,395.648229,14517.167451,803.142882,5812.548794,-3674.045643,3983.438490,-13.664001,-1002.840027,-153.231995,2100.000000,5600.000000,840.000000
-1559.078879,11547.358221,-258.766146,-1000.553489,3272.585961,-2182.893715,563.554533,7067.688652,-6752.551407,5498.484433,438.161247,14559.345193,840.380888,5849.697393,-3632.761971,4023.448112,-11.224000,-1001.376038,-159.576004,3080.000000,5880.000000,980.000000
-1546.897179,11560.724564,-243.477552,-992.126881,3282.308970,-2167.046328,569.388338,7077.590475,-6744.013041,5515.538814,456.936712,14574.052641,856.831772,5863.063736,-3628.224567,4029.080752,-10.736000,-993.080017,-158.112000,3920.000000,5320.000000,1120.000000
-1539.699917,11569.397041,-236.056773,-982.023893,3293.820118,-2160.229046,586.286257,7091.292094,-6735.675840,5522.691372,463.642235,14581.205199,862.687929,5872.943207,-3616.221680,4045.621043,-9.272000,-990.152039,-157.136002,4200.000000,5040.000000,1260.000000
-1510.396780,11606.456233,-205.457235,-943.221264,3332.108656,-2126.410857,622.809008,7128.284231,-6708.920802,5555.995471,496.767521,14617.325618,894.606220,5904.123891,-3579.900095,4079.059253,-13.176001,-983.320007,-161.040009,4060.000000,4900.000000,1260.000000
-1484.647570,11640.497940,-172.644874,-910.811235,3368.117317,-2090.201031,655.911941,7164.047022,-6687.016092,5588.919591,530.406896,14654.094238,928.402058,5938.992612,-3550.060517,4110.239936,-10.248000,-982.343994,-168.360001,3500.000000,4900.000000,1540.000000
-1523.830178,11595.392119,-209.458197,-959.359224,3316.753008,-2132.848159,607.095731,7114.917888,-6717.347409,5544.081991,483.110605,14608.183754,889.152394,5900.100577,-3594.518136,4063.323625,-13.176001,-976.488037,-167.384003,2660.000000,4480.000000,1680.000000
-1582.257638,11523.687723,-271.663102,-1027.621451,3241.986423,-2202.876175,538.744097,7042.498236,-6771.282169,5473.808107,411.942650,14533.975963,825.293461,5833.380620,-3656.454820,3998.525917,-9.760000,-974.536011,-167.872009,1960.000000,3640.000000,2240.000000
-1597.210955,11502.565325,-291.757320,-1047.380393,3221.869853,-2227.172521,517.353477,7017.844262,-6790.370559,5454.138572,394.150662,14511.825384,806.473292,5809.106625,-3673.933884,3977.336464,-12.200000,-977.463989,-170.800003,1540.000000,2940.000000,2520.000000
-1565.158554,11541.569119,-263.169439,-1013.115169,3258.526714,-2194.740140,549.271768,7052.489466,-6762.050898,5488.470851,430.204026,14550.292736,836.804609,5836.398105,-3642.775553,4009.053589,-6.344000,-977.463989,-170.311996,1120.000000,2380.000000,2660.000000
-1536.704783,11578.963587,-234.738020,-979.878125,3292.099034,-2164.744099,580.050120,7083.111356,-6734.513549,5521.059694,460.200067,14585.854362,863.202019,5867.802306,-3612.801863,4038.356726,-11.712000,-978.440002,-171.776001,840.000000,2240.000000,2660.000000
-1529.865149,11587.144326,-227.808979,-969.328102,3302.961982,-2156.250436,594.802272,7096.410644,-6728.567985,5528.972212,465.005692,14593.856286,870.064005,5879.402862,-3602.520061,4051.320738,-7.320000,-981.856018,-172.264008,700.000000,2380.000000,2380.000000
-1519.113960,11598.901343,-216.163721,-953.659529,3322.787979,-2138.525503,613.175406,7117.086007,-6723.672953,5541.042154,478.394387,14608.340217,885.330246,5896.546650,-3587.745558,4069.470354,-3.904000,-986.736023,-173.727997,700.000000,2800.000000,1680.000000
-1480.847774,11643.873053,-173.091909,-909.403075,3374.733433,-2088.926982,661.254008,7169.053813,-6692.536973,5588.629018,528.015259,14656.418819,929.854921,5940.847807,-3545.210188,4116.520776,-0.976000,-990.640015,-172.751999,700.000000,3080.000000,980.000000
-1503.020704,11617.229774,-192.940258,-937.700383,3343.440991,-2107.657743,637.181179,7145.137447,-6704.718674,5566.299625,504.680038,14629.350856,910.230089,5922.273507,-3569.215962,4092.067968,-0.488000,-988.687988,-164.944000,1540.000000,2520.000000,420.000000
-1561.403461,11546.777075,-258.453221,-1009.538890,3260.426612,-2180.993817,560.425289,7063.441821,-6750.048012,5494.863450,431.746296,14553.623146,843.286615,5852.491361,-3639.176922,4017.010810,0.488000,-989.664001,-163.968002,1960.000000,840.000000,0.000000
-1594.439339,11506.655694,-296.093559,-1050.621396,3216.773655,-2222.053972,517.174663,7020.414712,-6779.954646,5455.434973,395.491766,14510.886611,807.412065,5810.648896,-3680.281780,3978.901086,0.488000,-988.687988,-160.063995,2240.000000,-560.000000,-280.000000
-1587.622057,11513.025941,-286.527012,-1039.177303,3233.872740,-2208.955849,531.993870,7038.206701,-6778.188858,5467.929598,412.121464,14522.330704,820.554891,5821.288326,-3667.518934,3995.731949,0.976000,-986.736023,-161.528000,2660.000000,-1960.000000,-420.000000
-1553.133315,11558.154113,-249.289006,-992.462157,3282.778356,-2168.700358,576.429138,7081.569085,-6746.203512,5508.319200,451.169962,14568.889388,857.189400,5863.287254,-3622.904852,4037.350897,4.880000,-988.687988,-156.160004,2940.000000,-2660.000000,-420.000000
-1542.315071,11572.414526,-239.633052,-981.219230,3291.853165,-2158.329148,585.481594,7090.889763,-6733.328907,5518.064561,458.210761,14579.975853,865.034862,5874.731347,-3613.584174,4043.832903,2.440000,-991.127991,-158.600006,3920.000000,-2940.000000,-140.000000
-1531.005088,11584.931503,-229.798285,-972.211477,3299.653923,-2152.204770,591.918897,7096.544754,-6720.543709,5528.301660,466.905590,14590.458821,873.796746,5880.878077,-3605.559898,4047.811514,5.368000,-988.687988,-157.136002,3640.000000,-2660.000000,0.000000
-1487.575649,11635.066466,-185.117148,-921.249499,3356.472058,-2105.467272,647.351223,7149.138409,-6684.333883,5577.050814,516.817035,14644.103008,918.589642,5927.637926,-3555.961377,4099.399340,4.392000,-990.640015,-158.600006,3920.000000,-1120.000000,420.000000
-1478.612599,11647.494036,-172.242543,-911.213566,3368.564352,-2093.263220,659.242351,7161.923607,-6676.600179,5589.232515,526.987079,14657.670517,929.072610,5943.082981,-3546.126610,4110.999895,2.440000,-992.592041,-158.600006,4480.000000,840.000000,980.000000
-1537.285928,11578.002462,-232.346384,-981.442747,3292.993104,-2156.764526,585.839222,7089.213382,-6727.360991,5521.842005,458.188410,14586.569618,869.751080,5882.710920,-3612.913622,4041.754191,-2.440000,-992.104004,-160.552002,4480.000000,2660.000000,1400.000000
-1594.171118,11508.041502,-292.785501,-1050.286120,3221.176949,-2216.130759,518.962803,7024.326268,-6779.753480,5455.636138,394.441234,14515.468718,812.396504,5819.656649,-3678.270123,3980.800984,-2.440000,-991.127991,-159.576004,4760.000000,4900.000000,2380.000000
-1595.489871,11504.711092,-299.759245,-1052.744812,3220.439341,-2220.802274,516.727628,7022.091093,-6782.569800,5451.322252,392.004894,14511.132480,805.847443,5812.191166,-3680.415890,3979.795156,-7.320000,-986.247986,-161.528000,4760.000000,6300.000000,2940.000000
-1554.988510,11552.141494,-258.967311,-1006.074370,3272.742423,-2176.925799,563.688643,7068.023928,-6746.672898,5496.629238,438.228302,14561.870940,845.275920,5854.212446,-3635.310070,4023.537519,-13.176001,-984.783997,-155.671997,4340.000000,8120.000000,3360.000000
-1541.555112,11565.753706,-241.845875,-991.568088,3288.410996,-2158.619721,579.781899,7086.262952,-6737.195758,5514.734151,456.154401,14579.551170,862.397356,5873.479649,-3618.099227,4037.663822,-14.152000,-985.272034,-161.040009,4060.000000,9520.000000,3780.000000
-1530.446295,11580.349395,-230.312375,-974.178430,3302.827871,-2150.103706,593.684684,7094.533097,-6725.192872,5526.558224,465.430375,14592.224609,872.567400,5885.259019,-3598.049712,4046.872741,-17.568001,-985.760010,-165.919998,3640.000000,10500.000000,3920.000000
-1502.618373,11618.213250,-200.741017,-936.895721,3343.575101,-2113.603307,635.594205,7135.481493,-6698.013150,5555.459029,495.515823,14629.060284,903.099883,5918.160786,-3560.297616,4087.597619,-20.496000,-981.367981,-163.968002,3220.000000,11480.000000,3780.000000
-1473.024663,11656.255919,-165.760537,-900.820005,3382.690654,-2075.895915,670.597037,7175.647578,-6675.795516,5590.439509,530.831579,14668.779334,938.415639,5954.080040,-3528.312269,4121.527567,-20.496000,-984.783997,-162.992004,2800.000000,11480.000000,3920.000000
-1512.296678,11607.171489,-205.658401,-953.503067,3326.878348,-2120.219424,618.361010,7126.183167,-6706.149185,5547.546512,484.563468,14617.727949,897.534299,5913.310458,-3580.347130,4075.438270,-24.888000,-980.392029,-163.479996,2520.000000,11900.000000,3640.000000
-1570.590028,11534.684781,-271.663102,-1027.777914,3245.093315,-2193.220221,540.800457,7046.566253,-6753.937215,5478.390214,415.474226,14538.826291,830.434362,5842.388373,-3651.738602,4003.040970,-22.448000,-983.320007,-163.479996,1960.000000,11760.000000,3360.000000
-1592.159461,11503.593505,-295.981800,-1055.829353,3215.656068,-2221.226957,510.022105,7017.151358,-6780.379329,5453.356260,396.207022,14509.657265,806.674457,5811.945297,-3679.343007,3974.341330,-22.936001,-981.856018,-166.895996,1820.000000,11480.000000,3080.000000
-1565.426775,11535.064761,-268.064471,-1020.960631,3255.486876,-2190.314494,546.366041,7051.975376,-6761.089773,5484.805165,431.209854,14543.788379,835.351746,5841.248434,-3648.184675,4009.008886,-19.520000,-981.367981,-166.895996,1540.000000,10640.000000,2520.000000
-1546.539551,11563.183256,-243.298738,-993.333875,3286.332284,-2161.503096,575.535068,7083.290170,-6741.688459,5510.442616,457.830782,14572.555074,860.676272,5868.182286,-3622.994259,4038.244967,-20.496000,-983.807983,-165.432007,1680.000000,10360.000000,2240.000000
-1538.448219,11569.777020,-236.392049,-988.438843,3288.969790,-2156.183381,578.664312,7087.626408,-6732.479540,5518.444540,463.798697,14578.567693,866.577133,5873.747870,-3616.668715,4039.966052,-17.080000,-981.367981,-165.432007,1820.000000,9520.000000,1820.000000
-1516.096475,11595.459175,-216.007258,-964.164849,3311.679162,-2138.391392,601.217222,7108.927621,-6711.781825,5541.444485,485.748111,14602.931095,886.023150,5892.635094,-3593.981694,4059.210904,-17.080000,-982.343994,-165.432007,1820.000000,8960.000000,1400.000000
-1471.616503,11652.590233,-166.945179,-906.519700,3374.018177,-2085.462461,661.343415,7167.377432,-6670.766374,5592.473518,534.005527,14661.269148,933.475904,5945.966357,-3538.951700,4115.246727,-14.152000,-980.392029,-168.848007,1820.000000,8400.000000,840.000000
-1487.888573,11635.513501,-179.305694,-925.921014,3352.895779,-2098.962915,644.266682,7152.044136,-6678.947112,5574.815640,511.877300,14643.275993,916.890909,5935.818665,-3556.542522,4099.712265,-11.224000,-984.296021,-169.824005,1680.000000,7840.000000,420.000000
-1548.350042,11563.160904,-243.052869,-999.547660,3271.826002,-2169.594427,569.008359,7075.623521,-6728.389171,5503.826499,438.138895,14567.414173,851.154429,5868.092879,-3626.615241,4028.164331,-11.224000,-984.783997,-168.848007,1540.000000,7560.000000,140.000000
-1581.989417,11518.949153,-282.570753,-1039.892559,3229.581205,-2208.777035,530.719820,7036.329155,-6758.206398,5463.280435,399.582136,14521.995428,814.184644,5825.982192,-3663.607378,3994.413196,-10.736000,-983.320007,-171.287994,1960.000000,7000.000000,0.000000
-1573.473403,11528.783921,-274.814698,-1026.637975,3244.825094,-2197.891736,541.895693,7046.543902,-6752.193779,5474.031624,413.596679,14533.774797,825.427571,5832.419495,-3650.978643,4004.873813,-12.688000,-984.296021,-168.360001,2380.000000,6020.000000,-420.000000
-1536.302452,11573.755631,-237.688451,-981.889782,3294.624781,-2161.145468,588.767301,7092.007350,-6722.667125,5517.684581,455.841476,14582.076917,862.643226,5871.333882,-3608.398570,4050.449020,-13.664001,-984.296021,-170.800003,2100.000000,5740.000000,-700.000000
-1527.249995,11583.277474,-228.501884,-974.111375,3304.079569,-2151.847142,596.635115,7101.082158,-6715.559270,5528.547529,466.346796,14593.252789,871.896848,5883.157955,-3600.933087,4057.758040,-11.224000,-985.760010,-174.216003,2380.000000,5320.000000,-840.000000
-1521.796169,11589.737128,-222.019878,-966.891762,3311.701514,-2142.057078,601.038408,7106.804205,-6708.920802,5534.738962,471.755918,14599.734795,879.630551,5892.433929,-3596.350979,4062.876590,-10.248000,-987.712036,-173.240005,2660.000000,5180.000000,-980.000000
-1476.980922,11642.956632,-176.288209,-912.040581,3369.279607,-2092.235040,652.693290,7156.782705,-6672.643920,5583.957503,520.728591,14653.378982,925.272813,5939.909034,-3546.528941,4110.821081,-9.760000,-985.272034,-173.727997,2660.000000,5180.000000,-980.000000
-1472.085890,11652.254957,-165.224095,-904.396284,3376.096890,-2079.315731,659.175296,7167.668005,-6669.179400,5596.407425,532.954995,14663.459619,937.186293,5950.012022,-3541.298633,4115.246727,-11.224000,-987.712036,-169.824005,2660.000000,4900.000000,-980.000000
-1527.317050,11585.780869,-222.042229,-976.950047,3297.217583,-2145.521599,583.224068,7095.494222,-6713.324095,5535.431866,470.146593,14595.309150,878.736482,5885.951923,-3613.852395,4043.519979,-7.808000,-985.760010,-169.824005,2520.000000,5320.000000,-1120.000000
-1583.196412,11519.642057,-282.838974,-1036.808018,3233.492760,-2207.659448,530.719820,7037.558500,-6762.162657,5469.136592,404.052485,14527.091626,818.833806,5826.831559,-3663.048585,3994.167327,-9.760000,-986.247986,-165.919998,2380.000000,5600.000000,-1260.000000
-1591.041874,11509.762586,-291.802024,-1041.546588,3228.351859,-2217.449512,527.478817,7032.059971,-6773.025605,5459.301824,398.106920,14517.681541,810.161330,5815.342762,-3663.160344,3990.546345,-10.248000,-988.687988,-168.848007,2100.000000,6160.000000,-980.000000
-1558.140106,11555.941290,-256.776840,-998.452425,3274.463507,-2177.596352,568.538972,7073.813030,-6742.359011,5498.327970,437.803619,14562.340327,844.583016,5852.021975,-3624.178901,4031.226519,-10.248000,-985.760010,-165.432007,1820.000000,6720.000000,-700.000000
-1543.589120,11570.313462,-241.108267,-987.030683,3288.343941,-2161.927779,580.832431,7088.207553,-6730.892567,5519.718590,456.735546,14580.020556,861.168010,5867.958768,-3613.673581,4043.229406,-8.296000,-986.736023,-161.528000,1680.000000,7140.000000,-560.000000
-1537.196521,11573.889741,-234.112171,-983.230887,3294.267153,-2156.831581,586.107443,7089.481603,-6726.578680,5527.273479,464.893933,14584.915588,867.381795,5874.284312,-3608.823253,4046.626871,-10.248000,-991.616028,-164.456009,1120.000000,7420.000000,-420.000000
-1504.652381,11611.038340,-203.669095,-948.093945,3332.555691,-2123.929813,621.579662,7124.484435,-6697.588467,5561.024614,498.198032,14621.080711,897.042560,5906.694342,-3577.173183,4080.869744,-10.248000,-989.664001,-163.479996,980.000000,8120.000000,-280.000000
-1469.113108,11654.110152,-165.514668,-907.391418,3378.041491,-2083.271990,660.628159,7167.623301,-6663.367947,5600.989533,536.710088,14666.588863,935.264043,5947.799200,-3542.818551,4118.711247,-8.784000,-989.664001,-167.384003,280.000000,8680.000000,-140.000000
-1501.746655,11616.156890,-198.125863,-947.222227,3332.801560,-2122.991040,619.210377,7123.947993,-6685.116194,5562.879808,493.951201,14625.908688,900.797653,5914.919783,-3580.123613,4078.746328,-10.736000,-988.687988,-165.432007,140.000000,9240.000000,0.000000
-1562.252827,11541.971450,-262.431832,-1020.670059,3252.759964,-2192.326151,548.087126,7052.064783,-6736.592261,5492.471813,423.252633,14548.370486,837.028126,5846.568149,-3647.335308,4012.249888,-10.736000,-988.687988,-165.919998,140.000000,9660.000000,140.000000
-1588.337313,11511.193098,-290.773844,-1046.531027,3226.228443,-2218.410637,525.087181,7029.444817,-6761.626215,5462.833400,397.436368,14517.301562,811.591841,5818.136730,-3671.072861,3992.714464,-12.200000,-989.664001,-167.384003,-140.000000,9940.000000,-140.000000
-1571.662911,11532.829587,-271.953675,-1024.827483,3253.139943,-2193.980180,546.433097,7055.126972,-6750.830323,5486.302732,424.191406,14540.994411,834.927062,5837.985079,-3653.459686,4015.468540,-12.688000,-988.200012,-170.311996,-560.000000,10640.000000,-140.000000
-1540.459876,11573.040375,-239.945977,-989.288210,3291.495537,-2161.681910,577.926705,7084.921847,-6721.638944,5521.082046,457.003767,14580.333481,864.163144,5870.283350,-3625.207081,4043.944662,-14.152000,-985.760010,-169.824005,-980.000000,11060.000000,-280.000000
-1532.793228,11578.337738,-231.832293,-984.929619,3293.775415,-2156.205732,580.184231,7087.715815,-6713.704075,5529.508654,464.759822,14586.815487,870.600447,5875.625417,-3622.591927,4042.894130,-8.296000,-989.176025,-174.216003,-840.000000,11340.000000,-420.000000
-1516.834082,11598.946047,-216.275479,-961.817916,3316.216566,-2137.854950,606.648696,7112.414493,-6700.829470,5547.434753,483.132956,14605.546249,886.872516,5893.104481,-3599.569631,4068.062194,-9.760000,-990.640015,-173.240005,-840.000000,11480.000000,-560.000000
-1475.863335,11653.171379,-168.666264,-906.609107,3375.783965,-2085.998903,659.935255,7167.511543,-6666.161915,5596.586239,533.156160,14660.911520,935.241691,5943.418258,-3549.389964,4117.817178,-9.272000,-992.104004,-174.216003,-560.000000,11200.000000,-560.000000
-1496.091663,11626.259878,-184.468947,-933.677069,3350.504142,-2101.689828,638.946967,7149.272519,-6686.099671,5576.134393,511.251451,14637.039857,919.349601,5930.096618,-3570.847639,4099.712265,-10.736000,-990.152039,-169.824005,-140.000000,10780.000000,-700.000000
-1561.425812,11546.084171,-254.295797,-1013.070466,3262.818249,-2174.131831,560.291178,7072.941312,-6740.481465,5497.858584,432.752124,14553.064353,849.209827,5858.056946,-3643.736678,4028.834883,-9.272000,-989.176025,-171.287994,420.000000,10360.000000,-560.000000
-1595.199298,11506.633342,-292.427873,-1046.687489,3222.518053,-2215.974297,523.589614,7031.344716,-6773.718509,5454.652662,389.546202,14511.355997,810.094274,5816.952088,-3675.498506,3992.513298,-7.808000,-989.664001,-172.751999,280.000000,9660.000000,-700.000000
-1578.994284,11527.398113,-279.866192,-1022.391143,3244.914501,-2203.814948,545.561379,7047.035640,-6759.391041,5470.410641,404.812444,14531.181995,821.784237,5828.306774,-3651.224512,4012.227537,-6.344000,-992.104004,-171.776001,700.000000,8960.000000,-840.000000
-1540.415173,11574.001500,-242.047041,-976.123032,3293.641304,-2161.994834,589.862536,7090.621542,-6727.450398,5514.823558,449.828857,14580.244074,861.302121,5867.981120,-3605.023456,4054.047651,-8.784000,-989.176025,-172.751999,420.000000,9100.000000,-980.000000
-1529.954556,11581.914017,-231.139389,-970.982131,3300.168014,-2152.025956,593.572926,7096.343588,-6719.090845,5526.893500,462.524648,14590.391766,872.545048,5878.531143,-3601.134253,4057.422764,-7.320000,-990.152039,-172.264008,280.000000,8820.000000,-1120.000000
-1530.289832,11583.121012,-225.953785,-971.652683,3303.118444,-2143.062907,597.551536,7104.904307,-6719.090845,5530.469779,467.620846,14591.934036,878.937647,5884.253190,-3600.061369,4064.083584,-7.320000,-986.247986,-171.287994,140.000000,8680.000000,-1120.000000
-1487.821518,11636.072294,-181.540868,-917.181482,3358.684881,-2096.638333,649.340528,7153.698165,-6680.623493,5578.861306,514.850082,14643.991249,922.389438,5929.202548,-3548.361784,4111.134006,-12.200000,-990.152039,-166.895996,0.000000,8540.000000,-1120.000000
-1471.661207,11659.251053,-161.692519,-893.510985,3383.383558,-2077.393481,670.194706,7171.557208,-6662.518580,5597.636771,530.697469,14666.566511,940.181427,5953.230673,-3528.088752,4128.344849,-10.248000,-991.127991,-166.895996,-140.000000,8540.000000,-980.000000
-1519.248071,11605.562163,-212.274517,-951.200837,3318.742313,-2134.971575,606.603993,7105.507804,-6695.040368,5540.773933,470.705386,14606.037987,886.917220,5902.000475,-3585.935066,4066.765793,-11.712000,-990.152039,-168.848007,-420.000000,8680.000000,-1260.000000
-1573.853382,11533.142511,-272.266599,-1024.760428,3243.662804,-2199.210489,537.872379,7039.279585,-6746.248215,5477.719662,410.892118,14535.205309,828.780333,5834.386448,-3653.437335,4004.672647,-13.664001,-991.127991,-163.479996,-140.000000,8540.000000,-1260.000000
-1578.435490,11523.464206,-280.939076,-1034.774010,3236.532597,-2208.955849,527.009431,7030.763570,-6755.591244,5470.120069,407.964040,14527.404550,821.672478,5821.869471,-3663.808544,3997.989475,-14.152000,-988.687988,-168.360001,-420.000000,8540.000000,-1120.000000
-1544.662004,11561.953910,-249.266654,-998.027742,3276.899848,-2170.600256,564.090975,7071.533152,-6730.154959,5509.481491,448.934787,14567.056545,856.764717,5856.849951,-3630.593852,4035.428647,-13.176001,-991.127991,-167.872009,-420.000000,8680.000000,-1260.000000
-1535.587196,11574.917921,-235.877959,-981.845079,3293.596601,-2153.344709,583.447586,7091.605019,-6723.114159,5522.870186,460.602398,14581.920455,872.098013,5875.334844,-3614.880576,4053.578264,-15.128000,-990.640015,-167.872009,-560.000000,9100.000000,-1400.000000
-1536.548321,11575.946102,-232.882825,-977.419433,3296.859955,-2147.600311,588.655542,7097.863507,-6722.890642,5524.434808,461.228247,14583.663891,875.428423,5880.252228,-3608.912660,4057.355709,-16.592001,-990.152039,-170.800003,-560.000000,8960.000000,-1400.000000
-1511.849643,11604.198707,-206.463064,-948.317462,3328.353563,-2119.459464,618.673935,7130.340592,-6704.763377,5552.754468,491.961895,14613.503470,900.708246,5905.308533,-3579.095433,4086.591791,-14.640000,-992.592041,-170.800003,-560.000000,8820.000000,-1400.000000
-1481.317160,11643.046039,-170.253238,-908.754874,3371.604189,-2080.880354,656.090755,7168.763240,-6679.796479,5592.764091,532.150332,14653.647203,936.515741,5944.804066,-3542.460923,4120.052352,-16.592001,-991.616028,-164.944000,-560.000000,8540.000000,-1260.000000
-1511.804940,11603.036416,-202.931488,-957.571084,3318.787017,-2122.588709,603.005362,7118.471815,-6702.572906,5557.358927,491.425454,14611.514164,902.384627,5906.202603,-3593.735825,4070.543238,-16.592001,-988.687988,-171.287994,-560.000000,8680.000000,-1540.000000
-1570.590028,11531.108502,-265.739890,-1028.962556,3243.148713,-2194.203698,531.166855,7045.180445,-6753.892512,5486.123918,418.826988,14538.267498,836.692850,5839.907329,-3662.869771,4004.717351,-16.592001,-986.736023,-168.848007,-420.000000,8400.000000,-1680.000000
-1589.633714,11508.846165,-290.505623,-1047.782725,3221.132245,-2218.120065,515.386524,7023.990992,-6769.650491,5458.675976,392.854261,14512.071253,810.675420,5813.979306,-3677.376053,3989.875792,-12.200000,-987.223999,-168.848007,-700.000000,8120.000000,-1680.000000
-1562.006958,11542.977279,-264.823468,-1012.824597,3257.543237,-2188.548707,550.568169,7055.439896,-6744.460075,5488.224982,424.481979,14546.068257,836.625795,5840.913158,-3641.859131,4023.179891,-15.128000,-985.760010,-169.824005,-280.000000,7980.000000,-1820.000000
-1537.397687,11573.576817,-237.867264,-984.907268,3288.902734,-2158.373852,581.502984,7089.258085,-6721.996572,5520.053866,457.339043,14578.165362,865.303083,5868.316396,-3611.617221,4054.338223,-13.664001,-985.272034,-171.287994,-420.000000,7700.000000,-1680.000000
-1533.352021,11580.371747,-230.290023,-980.079291,3293.998932,-2151.400107,586.241554,7092.767309,-6717.280354,5525.328878,460.557695,14584.110926,872.075662,5875.714824,-3608.778549,4057.243950,-14.152000,-986.736023,-175.192001,-560.000000,7420.000000,-1960.000000
-1515.828254,11602.701140,-212.207462,-956.073517,3317.803540,-2134.435133,607.654525,7108.324123,-6700.695360,5542.919700,476.874468,14604.652179,888.258325,5893.305647,-3589.220773,4074.566552,-11.712000,-989.176025,-174.216003,-840.000000,7700.000000,-1960.000000
-1469.917771,11656.747658,-163.972397,-903.926898,3376.432166,-2083.651970,660.762270,7162.102421,-6660.484572,5595.848631,528.283480,14661.626775,936.471037,5942.635947,-3540.069287,4124.522701,-12.200000,-984.783997,-168.360001,-420.000000,7420.000000,-1960.000000
-1490.079044,11633.658306,-177.897534,-926.256290,3358.170790,-2094.157290,644.601958,7149.898368,-6677.293083,5576.447317,507.004619,14642.024296,922.478845,5934.835188,-3558.822400,4111.022247,-10.248000,-988.200012,-175.192001,-980.000000,6860.000000,-2100.000000
-1556.374318,11550.353354,-246.517390,-1008.018971,3268.808516,-2167.582770,563.196905,7072.471925,-6739.587395,5501.636028,432.416848,14557.177074,854.350728,5862.549646,-3634.036021,4035.920386,-13.176001,-986.736023,-168.848007,-1260.000000,7140.000000,-2240.000000
-1588.404368,11509.382607,-286.348198,-1046.486324,3224.485007,-2210.900451,521.063867,7027.969602,-6771.662148,5457.670147,391.088473,14513.121785,813.938774,5818.919041,-3672.056338,3997.140109,-10.736000,-985.272034,-170.311996,-1120.000000,6860.000000,-2100.000000
-1576.759109,11526.258174,-276.982817,-1029.119018,3244.467466,-2199.076378,536.866550,7044.979280,-6762.989672,5469.762441,406.712342,14528.924469,824.913481,5828.574995,-3656.141896,4013.054551,-11.712000,-988.687988,-169.824005,-1120.000000,6720.000000,-2100.000000
-1545.131391,11566.759535,-242.471724,-992.909192,3283.985351,-2164.051195,567.510792,7081.434975,-6734.558253,5509.056808,447.347814,14569.872864,862.039728,5864.874228,-3624.827102,4043.005889,-13.176001,-986.736023,-169.824005,-840.000000,6440.000000,-2100.000000
-1535.453085,11576.862523,-232.100514,-981.129823,3296.211755,-2156.406898,575.803289,7085.905324,-6726.623383,5520.366790,457.227285,14582.211027,871.896848,5876.452431,-3617.205157,4048.102087,-11.712000,-984.783997,-174.216003,-1120.000000,6720.000000,-2100.000000
-1525.528911,11583.433936,-224.277404,-973.418471,3306.158281,-2148.404974,586.666237,7094.935428,-6718.599107,5531.296793,467.464384,14591.799926,879.384682,5884.946094,-3608.622087,4057.892151,-13.664001,-985.760010,-170.800003,-1260.000000,7000.000000,-2100.000000
-1488.961457,11626.058713,-186.949991,-928.357354,3355.890913,-2104.796720,638.678746,7145.249205,-6687.105499,5573.094556,510.133864,14636.190490,918.164959,5926.140359,-3562.733956,4105.970753,-15.128000,-987.712036,-165.432007,-1400.000000,6580.000000,-2100.000000
-1479.081986,11641.660230,-172.823688,-915.818026,3368.497296,-2091.318618,648.714679,7156.916816,-6674.633226,5585.790346,523.455503,14651.121456,931.620709,5939.841979,-3552.116877,4114.084436,-14.640000,-983.807983,-167.872009,-1400.000000,6440.000000,-2100.000000
-1533.977870,11578.874180,-225.797322,-979.922829,3299.408054,-2148.896712,585.727463,7093.951952,-6717.168595,5524.568918,459.931846,14585.787307,877.618894,5886.309551,-3612.198366,4055.388755,-14.152000,-986.247986,-166.408005,-1260.000000,6020.000000,-1960.000000
-1585.945676,11516.982200,-285.074149,-1039.847856,3230.654088,-2214.029695,523.477855,7028.595451,-6762.453230,5462.453420,397.861051,14519.112053,817.269184,5822.920003,-3669.061204,3994.770824,-11.712000,-985.760010,-168.360001,-1260.000000,5880.000000,-2100.000000
-1594.729912,11505.135775,-298.418140,-1048.118001,3221.087542,-2225.697306,515.230061,7018.313648,-6772.332701,5449.824685,386.215792,14507.846774,804.998077,5808.681942,-3676.549038,3985.338388,-12.688000,-985.272034,-170.800003,-1540.000000,5740.000000,-1960.000000
-1566.276141,11539.400999,-267.751547,-1014.478626,3260.292501,-2186.604105,551.372832,7058.636195,-6749.668032,5484.268723,422.202101,14544.481283,840.000908,5841.539006,-3646.642404,4022.039953,-12.688000,-987.223999,-169.335999,-1960.000000,5880.000000,-2100.000000
-1550.942844,11557.550616,-248.372584,-997.603059,3279.738519,-2170.868477,568.136641,7076.294074,-6738.022773,5506.352247,444.151514,14565.424867,856.921179,5858.816905,-3632.247881,4039.183741,-13.664001,-986.247986,-164.456009,-1680.000000,5880.000000,-2100.000000
-1548.484152,11561.797447,-241.510599,-992.283343,3287.360464,-2165.705224,574.238667,7083.223114,-6735.541729,5510.308505,446.900779,14571.392783,860.720975,5865.790649,-3625.207081,4045.062249,-16.104000,-986.736023,-165.919998,-1400.000000,5040.000000,-1960.000000
-1520.075085,11595.392119,-214.330878,-958.800430,3320.664563,-2136.133866,605.374647,7111.520423,-6709.569002,5541.019802,476.315674,14603.355778,889.018284,5893.439757,-3594.339322,4071.951398,-14.640000,-985.272034,-165.432007,-1120.000000,4480.000000,-2100.000000
-1483.552335,11637.793379,-176.779947,-922.389438,3360.718889,-2095.051360,640.444534,7150.792438,-6677.337787,5585.656236,517.308774,14647.120493,928.804389,5932.354144,-3561.549313,4104.316724,-14.152000,-984.783997,-168.848007,-980.000000,4340.000000,-1960.000000
-1519.739809,11595.347416,-211.335744,-963.740166,3316.417732,-2131.641165,605.151129,7115.275516,-6708.183194,5546.205407,474.505183,14604.719234,892.862784,5900.145280,-3597.781491,4071.683177,-15.616000,-986.736023,-171.287994,-980.000000,4340.000000,-2100.000000
-1580.670664,11523.330095,-275.954637,-1035.444562,3238.119571,-2203.144396,528.350535,7036.172692,-6756.753535,5472.891685,399.559784,14528.209213,826.791027,5832.039515,-3667.138954,3998.190641,-11.712000,-985.760010,-174.703995,-980.000000,4340.000000,-2240.000000
-1600.340200,11500.106633,-303.670800,-1061.283178,3210.403408,-2229.474751,502.109587,7010.401131,-6772.377404,5446.762496,374.503478,14501.230657,802.159405,5802.311695,-3691.323542,3975.011882,-11.712000,-987.712036,-173.727997,-420.000000,4620.000000,-2380.000000
-1577.608475,11530.236784,-280.648503,-1030.571882,3244.534522,-2199.389303,533.893768,7045.225149,-6756.731183,5473.115203,404.208947,14531.830195,827.841559,5827.613870,-3660.634596,4007.578374,-15.616000,-987.712036,-171.776001,140.000000,4620.000000,-2240.000000
-1546.181923,11563.540883,-246.338576,-997.133672,3281.638417,-2169.773241,566.907295,7077.568123,-6734.267680,5511.359037,442.028098,14571.839818,860.184534,5859.889789,-3628.179863,4037.194435,-14.640000,-986.736023,-171.776001,840.000000,4200.000000,-2240.000000
-1537.956481,11569.151171,-237.755506,-989.422320,3290.489708,-2162.464221,578.418443,7083.804260,-6726.288107,5519.249203,451.527590,14578.679452,866.755946,5869.657501,-3618.725076,4046.023374,-13.664001,-984.296021,-175.192001,1120.000000,3920.000000,-2240.000000
-1524.523082,11582.763384,-223.383334,-974.401948,3305.800653,-2148.136753,593.014132,7098.489356,-6715.358104,5536.102418,468.850192,14593.230437,882.357464,5884.767280,-3605.917526,4059.300311,-12.200000,-984.296021,-176.167999,1400.000000,3640.000000,-2240.000000
-1487.553297,11628.450349,-181.674979,-927.016250,3357.589645,-2100.527537,642.411487,7150.121886,-6684.110365,5580.917666,516.258242,14641.309040,926.055125,5929.694287,-3561.214037,4105.166090,-13.176001,-984.296021,-172.751999,1540.000000,3500.000000,-2240.000000
-1501.009047,11612.982942,-193.476700,-945.255273,3337.808351,-2114.899709,625.535920,7134.609775,-6692.671084,5565.718480,500.142634,14624.768749,912.845244,5917.736103,-3578.626046,4087.776433,-12.200000,-983.320007,-174.216003,2240.000000,3220.000000,-2380.000000
-1566.074975,11536.696438,-259.481401,-1021.899405,3256.559760,-2186.514698,550.523466,7059.887893,-6745.957642,5491.287171,424.437275,14544.861262,847.041708,5849.786800,-3652.610320,4018.240156,-11.712000,-983.320007,-171.287994,2520.000000,2660.000000,-2100.000000
-1606.330467,11490.540086,-302.329696,-1065.865286,3209.777559,-2232.805161,504.456521,7012.166919,-6780.401681,5442.672127,376.001045,14496.581494,803.299344,5803.786910,-3696.039760,3976.911780,-12.688000,-980.880005,-170.800003,2520.000000,2240.000000,-2240.000000
-1599.915516,11501.201868,-294.461881,-1050.666100,3226.653126,-2222.501006,521.443846,7025.756779,-6778.814707,5449.556464,382.728920,14508.807899,810.384847,5812.705256,-3679.343007,3991.865098,-9.760000,-977.463989,-172.751999,2800.000000,2520.000000,-2380.000000
-1563.593932,11544.586604,-258.766146,-1009.114207,3270.194324,-2182.759605,561.341710,7066.727527,-6748.841017,5491.823613,425.644270,14553.690201,848.740440,5851.887864,-3640.965061,4028.589014,-11.224000,-983.320007,-171.287994,2660.000000,2100.000000,-2520.000000
-1553.580350,11553.236729,-252.887637,-1004.286230,3275.044653,-2173.908314,566.594370,7074.662396,-6741.576700,5503.245354,438.183598,14562.116809,858.821077,5861.677928,-3638.796942,4035.741572,-8.784000,-981.856018,-171.776001,3080.000000,2240.000000,-2660.000000
-1538.358812,11569.128820,-240.236549,-989.735244,3289.036845,-2163.581808,577.502021,7083.334873,-6726.198700,5518.690410,450.678223,14577.628920,869.952246,5875.357196,-3627.241090,4045.576339,-9.272000,-981.367981,-171.776001,3220.000000,1680.000000,-2520.000000
-1499.198556,11614.569916,-198.259973,-942.617767,3340.311747,-2116.911366,627.167598,7134.319202,-6692.760491,5564.980872,496.409893,14626.489833,912.107636,5918.138435,-3580.324779,4093.230259,-10.248000,-979.416016,-168.360001,3500.000000,1680.000000,-2520.000000
-1488.000332,11629.143253,-181.317351,-929.184369,3355.734450,-2098.091197,642.143266,7151.664156,-6681.405804,5582.437585,513.464274,14643.723028,929.631404,5935.684554,-3565.282055,4106.194270,-12.200000,-982.832031,-173.240005,3360.000000,1540.000000,-2800.000000
-1539.901083,11568.927654,-235.006241,-990.830480,3285.214697,-2157.815058,577.636132,7086.307655,-6719.649639,5522.199633,451.035851,14578.970024,874.020263,5878.709957,-3624.268308,4043.743496,-11.712000,-979.903992,-169.824005,3500.000000,1680.000000,-2800.000000
-1598.619115,11502.453566,-295.937097,-1051.783687,3218.874719,-2218.880024,519.968631,7025.399151,-6766.320082,5452.462191,382.840679,14507.466794,812.776484,5817.622640,-3681.265257,3989.965199,-12.688000,-980.392029,-171.776001,3500.000000,1680.000000,-3080.000000
-1608.073903,11491.434156,-306.867100,-1060.456164,3210.917498,-2231.799332,507.384599,7014.178576,-6777.048919,5439.833455,373.140022,14497.542619,801.108873,5803.809262,-3692.865812,3979.973969,-13.176001,-981.856018,-171.776001,3220.000000,1540.000000,-3080.000000
-1571.573504,11537.366991,-267.416271,-1014.970364,3260.627778,-2190.135680,551.328129,7058.479733,-6747.656375,5483.888743,416.882386,14546.224719,839.218597,5843.170684,-3650.643367,4020.274165,-8.784000,-984.783997,-174.216003,3360.000000,1960.000000,-3220.000000
-1553.669757,11560.501046,-247.634977,-993.222117,3283.538316,-2168.476840,572.718748,7079.982111,-6733.507721,5505.301715,436.283700,14569.425830,858.329339,5866.952940,-3631.353811,4039.183741,-14.152000,-981.856018,-173.240005,3500.000000,1960.000000,-3220.000000
-1541.286891,11570.849904,-239.543645,-985.153137,3288.858031,-2163.447698,576.920876,7081.680844,-6722.197738,5516.969325,447.683090,14577.986548,865.951284,5873.233780,-3623.955384,4040.122514,-12.200000,-985.760010,-170.311996,3500.000000,2240.000000,-3360.000000
-1509.323896,11604.757500,-211.045171,-951.469058,3324.732581,-2136.737363,613.041295,7113.889708,-6695.397996,5550.921625,481.635390,14612.654103,894.539165,5901.151109,-3588.885497,4074.499497,-13.176001,-986.247986,-169.335999,3500.000000,2660.000000,-3500.000000
-1478.567896,11642.643707,-175.952932,-915.438046,3368.676110,-2096.548926,656.046052,7158.839066,-6670.878133,5589.254867,521.980288,14653.513092,932.023040,5939.864330,-3551.759249,4115.827872,-16.104000,-988.687988,-172.264008,3360.000000,2520.000000,-3640.000000
-1518.041076,11596.107375,-210.575785,-963.382538,3319.301107,-2136.715011,606.022847,7113.643839,-6705.992723,5550.228721,482.194183,14609.256638,896.863746,5901.240516,-3599.010837,4069.269189,-14.640000,-990.152039,-173.727997,3360.000000,2800.000000,-3640.000000
-1590.997170,11509.092034,-281.609628,-1047.872132,3231.905786,-2208.799387,523.768428,7036.798541,-6773.494991,5470.053014,401.951421,14522.665980,827.573338,5828.865567,-3680.214725,3994.592010,-12.200000,-991.127991,-177.143997,3780.000000,2520.000000,-3640.000000
-1611.940755,11488.327263,-308.565832,-1067.943998,3208.279992,-2233.743934,502.713085,7013.172747,-6790.370559,5442.180388,375.576362,14496.022701,803.276992,5801.439977,-3701.203013,3975.458917,-16.104000,-990.152039,-172.264008,3780.000000,2380.000000,-3780.000000
-1581.095348,11525.028828,-283.688341,-1032.315318,3244.690984,-2208.374704,533.938472,7041.313594,-6761.916788,5473.741051,405.035961,14532.232527,827.886263,5824.708143,-3668.211838,4003.398598,-15.616000,-990.152039,-169.335999,4060.000000,2800.000000,-3780.000000
-1552.194542,11563.764401,-251.904160,-991.411625,3289.640342,-2172.455451,577.323208,7082.999597,-6734.625308,5506.754578,438.138895,14572.175094,857.167048,5862.482591,-3625.989393,4043.587034,-18.544001,-992.104004,-171.776001,3920.000000,2240.000000,-3920.000000
-1548.618263,11573.755631,-246.137410,-980.280457,3299.408054,-2165.347596,586.465071,7089.727472,-6729.529110,5510.375561,442.765706,14578.902969,862.218542,5871.333882,-3616.489901,4050.426668,-15.128000,-990.640015,-171.776001,4200.000000,1960.000000,-3920.000000
-1533.061449,11580.394099,-234.872131,-975.944218,3304.839528,-2153.188247,595.651638,7101.395083,-6719.426122,5529.955689,462.435241,14588.938902,876.814231,5879.156992,-3607.325686,4059.054441,-14.152000,-993.567993,-171.776001,4200.000000,2100.000000,-3920.000000
-1488.983809,11632.875995,-184.804223,-923.104694,3365.032776,-2102.159214,645.272511,7153.474647,-6682.881019,5582.594047,513.307811,14645.555871,924.758723,5928.710810,-3559.448249,4107.267154,-18.544001,-988.687988,-171.776001,4480.000000,2380.000000,-4060.000000
-1500.964344,11623.823538,-190.995656,-934.973471,3354.236883,-2109.982325,634.543673,7145.226854,-6690.637075,5569.406518,497.572183,14635.318772,916.667392,5925.000420,-3573.127517,4098.885250,-16.592001,-987.712036,-172.751999,4760.000000,2240.000000,-4060.000000
-1565.873810,11541.367953,-261.046023,-1020.580652,3260.337205,-2184.123061,552.959806,7066.615768,-6747.186988,5494.282305,421.732714,14549.622184,847.041708,5851.262015,-3653.593797,4023.112836,-17.568001,-987.712036,-171.776001,4760.000000,2520.000000,-4200.000000
-1602.329505,11492.864668,-304.408408,-1067.206391,3206.044818,-2232.358126,501.148462,7013.060989,-6780.446384,5448.952967,378.616199,14497.989654,803.567565,5800.769425,-3698.721969,3971.100327,-15.128000,-988.687988,-171.776001,4760.000000,2520.000000,-4200.000000
-1592.070054,11504.465223,-296.607649,-1051.850742,3223.859158,-2223.193911,514.648916,7023.678067,-6775.439593,5458.653624,390.708493,14510.596038,811.390675,5808.301962,-3685.623847,3983.505545,-15.128000,-989.176025,-169.824005,4900.000000,2380.000000,-4200.000000
-1556.888408,11549.459284,-258.140297,-1002.118111,3280.140851,-2177.551648,569.388338,7076.361129,-6746.181160,5502.306581,432.908587,14560.172207,850.573284,5854.011280,-3636.517064,4036.412124,-18.544001,-988.200012,-169.824005,4760.000000,2240.000000,-4340.000000
-1546.830123,11562.959738,-246.383279,-990.785776,3291.830813,-2165.973445,579.267809,7086.844097,-6735.161750,5516.432883,444.553845,14574.298510,863.984330,5869.076356,-3624.938861,4045.576339,-17.080000,-988.687988,-168.848007,5040.000000,1960.000000,-4480.000000
-1536.436562,11575.834343,-238.023727,-981.956837,3297.038769,-2161.726613,581.659446,7090.286266,-6723.292973,5525.664154,453.807468,14584.513257,872.410938,5874.440774,-3619.932070,4048.638528,-15.128000,-986.736023,-169.335999,5180.000000,1960.000000,-4480.000000
-1499.332666,11614.324047,-198.707008,-941.388421,3344.692689,-2119.325354,625.535920,7133.983926,-6695.576810,5568.735965,500.321448,14628.657952,913.605203,5914.405693,-3578.626046,4091.620933,-17.568001,-986.736023,-168.848007,5320.000000,1820.000000,-4480.000000
-1481.004236,11639.358001,-175.930581,-917.583813,3370.374843,-2096.794796,649.564046,7156.268615,-6677.628360,5591.266524,519.923928,14654.295403,934.101753,5941.026621,-3555.290825,4113.123311,-17.568001,-985.760010,-166.895996,5180.000000,1960.000000,-4620.000000
-1529.462818,11580.751727,-227.808979,-978.447614,3303.431368,-2152.093011,591.583620,7098.198783,-6714.307572,5532.928471,459.663625,14591.442298,880.345807,5887.963580,-3611.192538,4058.450944,-15.128000,-987.223999,-165.919998,4900.000000,1820.000000,-4760.000000
-1582.324693,11514.188232,-287.488137,-1042.865341,3233.716277,-2213.180329,530.563358,7034.988050,-6759.905131,5469.136592,397.078740,14520.877841,821.113684,5825.289288,-3667.049547,4001.588106,-14.640000,-985.760010,-166.895996,5040.000000,1820.000000,-4900.000000
-1592.360627,11498.832583,-301.189757,-1056.432850,3220.416989,-2226.837245,516.079428,7020.481768,-6774.120840,5456.418449,386.394606,14507.377387,808.753170,5806.469119,-3681.734643,3987.640618,-13.176001,-986.736023,-166.408005,5180.000000,1960.000000,-5040.000000
-1558.788307,11539.155130,-265.449317,-1015.909137,3265.992196,-2189.778053,554.904408,7058.502085,-6747.142285,5494.416415,427.566520,14550.829178,844.515961,5842.164855,-3643.535512,4023.291650,-12.688000,-983.320007,-168.848007,5180.000000,1820.000000,-5040.000000
-1537.151818,11566.223093,-241.488247,-988.818823,3296.234107,-2164.297064,581.838260,7084.743033,-6725.796369,5519.137444,451.616997,14579.215894,867.672368,5869.813963,-3617.316916,4048.459714,-14.152000,-984.783997,-164.456009,4900.000000,1680.000000,-5180.000000
-1529.753391,11575.566122,-233.709840,-978.246448,3307.342924,-2156.585712,593.014132,7094.533097,-6715.983953,5525.842968,456.690843,14588.134240,874.154374,5880.386338,-3606.811596,4058.473296,-9.760000,-984.783997,-166.408005,4620.000000,1400.000000,-5320.000000
-1508.608640,11598.856640,-209.189976,-954.240674,3332.823912,-2130.836502,617.891624,7121.690467,-6699.041331,5551.860398,484.541116,14613.615228,898.741293,5903.498042,-3583.476375,4081.696758,-10.248000,-986.247986,-163.479996,3920.000000,1540.000000,-5600.000000
-1471.840021,11645.683544,-167.056938,-909.537185,3377.974436,-2091.028046,657.208342,7162.013014,-6661.803324,5595.446300,526.517692,14660.643299,937.253348,5944.893473,-3543.109124,4116.699590,-7.808000,-988.687988,-167.872009,3640.000000,1260.000000,-5740.000000
-1504.071236,11612.357093,-196.963572,-944.115334,3339.283566,-2126.008526,621.490255,7125.557318,-6680.288217,5558.834143,487.044512,14624.277010,903.703380,5917.423179,-3575.072119,4082.948456,-5.368000,-987.712036,-168.848007,3780.000000,1400.000000,-5880.000000
-1559.749432,11541.770284,-260.666044,-1013.830425,3261.208923,-2197.556460,549.763507,7051.349527,-6723.672953,5489.655493,416.614165,14549.622184,837.296347,5849.339765,-3643.267291,4016.295554,-6.344000,-986.736023,-171.287994,3640.000000,980.000000,-6020.000000
-1581.072996,11509.762586,-289.924477,-1043.871170,3228.709487,-2227.664259,519.968631,7021.867576,-6746.114105,5463.191028,391.222583,14518.039169,810.831882,5816.907384,-3672.816297,3989.652275,-4.392000,-987.223999,-171.776001,3640.000000,840.000000,-5880.000000
-1562.163420,11529.387418,-269.763204,-1021.094742,3256.827981,-2201.356256,541.850989,7046.767419,-6736.726372,5486.816822,417.485883,14543.922489,834.457676,5837.672155,-3652.923245,4011.065246,-5.368000,-987.223999,-171.287994,3780.000000,1120.000000,-5880.000000
-1536.414210,11564.144381,-242.583483,-987.991808,3293.328380,-2171.628436,573.679873,7080.049167,-6711.178328,5516.835215,449.068898,14579.037080,861.726804,5867.444678,-3622.591927,4040.927177,-3.904000,-988.200012,-176.167999,3780.000000,840.000000,-6020.000000
-1536.257748,11563.429125,-239.901273,-989.645838,3293.954229,-2166.554590,577.926705,7084.810088,-6710.127796,5521.171453,452.041680,14579.685280,865.772470,5872.473821,-3620.535567,4044.659918,-4.392000,-990.152039,-173.240005,3920.000000,980.000000,-5740.000000
-1528.836969,11570.916959,-229.261843,-979.252276,3307.365275,-2153.054136,591.293048,7095.538926,-6709.256078,5533.084933,464.893933,14589.788269,878.445909,5883.515583,-3609.873785,4054.897017,0.976000,-986.736023,-175.680008,3920.000000,700.000000,-5740.000000
-1487.687407,11623.443559,-183.708988,-923.864654,3366.239770,-2103.187395,645.719546,7149.987775,-6676.667235,5582.035253,515.297117,14643.097179,924.602261,5930.811874,-3557.928331,4104.719055,-1.464000,-991.127991,-171.776001,3500.000000,700.000000,-5600.000000
-1497.075140,11617.676809,-188.559316,-933.207683,3356.293244,-2110.183491,631.637947,7137.850778,-6680.399976,5572.736928,503.763617,14636.682229,918.343773,5928.979031,-3569.864162,4091.062139,0.976000,-992.104004,-173.240005,3920.000000,980.000000,-5600.000000
-1556.597836,11543.647831,-255.301625,-1008.309544,3270.753118,-2181.060872,563.733347,7069.297978,-6726.466921,5502.172470,431.858055,14556.148893,850.707394,5860.023899,-3636.651175,4030.511264,1.952000,-989.664001,-175.192001,3920.000000,1120.000000,-5460.000000
-1598.060322,11489.087223,-302.061475,-1058.735080,3217.086579,-2228.088943,516.258242,7020.951154,-6764.576645,5453.691537,385.165260,14500.984788,806.249774,5811.811186,-3682.494603,3988.825260,1.464000,-988.200012,-172.751999,4200.000000,1400.000000,-5320.000000
-1582.682321,11503.191173,-293.254887,-1042.641824,3234.543292,-2221.025791,527.590576,7029.578928,-6753.557235,5467.996653,398.777473,14516.809823,814.698734,5817.667343,-3668.122431,3997.855365,0.976000,-992.592041,-169.824005,4060.000000,1540.000000,-5180.000000
-1545.868998,11546.642965,-255.882771,-1000.732303,3281.303141,-2180.658541,568.583675,7072.114297,-6721.974221,5509.906174,441.178732,14563.144989,851.914388,5857.028765,-3629.990355,4036.143903,0.488000,-988.200012,-170.311996,3780.000000,1960.000000,-4900.000000
-1542.180960,11553.683764,-246.070355,-993.043303,3292.479014,-2168.298026,576.138565,7083.200763,-6719.426122,5518.444540,449.359471,14572.577426,862.509115,5869.925722,-3624.715343,4044.503456,1.952000,-987.712036,-166.895996,3780.000000,2240.000000,-5040.000000
-1537.822370,11560.165770,-239.253073,-988.036512,3298.603391,-2162.799497,576.675007,7086.374710,-6717.861500,5525.127712,455.528552,14579.595873,869.952246,5876.273617,-3623.754218,4046.291595,2.440000,-991.616028,-167.384003,3360.000000,2800.000000,-4760.000000
-1500.718474,11602.924657,-202.484453,-943.511837,3345.765572,-2121.202901,622.339621,7129.513577,-6685.831450,5565.673776,497.147500,14624.053493,908.754874,5915.456225,-3580.905924,4087.821136,1.952000,-990.152039,-170.800003,2800.000000,2800.000000,-4620.000000
-1482.010064,11627.332762,-184.491299,-919.617822,3367.267950,-2100.862813,650.502819,7154.882807,-6664.217313,5585.991512,515.744152,14645.980554,925.965718,5936.355106,-3554.687328,4113.592698,3.904000,-991.616028,-168.360001,2800.000000,2940.000000,-4620.000000
-1529.954556,11575.141439,-231.206445,-969.126936,3310.136892,-2155.445773,595.629286,7096.209478,-6699.622476,5528.346363,456.333215,14590.794097,874.020263,5888.589428,-3604.799939,4059.099145,4.392000,-993.080017,-169.824005,2660.000000,2940.000000,-4340.000000
-1582.324693,11502.274752,-291.600858,-1044.251149,3230.117646,-2223.283317,523.500207,7025.175634,-6745.018869,5466.409679,394.776511,14518.083873,814.408161,5819.522538,-3672.302207,3990.859269,3.904000,-991.127991,-171.287994,2800.000000,2800.000000,-4200.000000
-1592.807662,11484.371005,-305.481291,-1059.338577,3218.226518,-2233.051030,515.073599,7020.057085,-6760.933311,5454.920883,386.774586,14503.175259,804.439283,5804.323352,-3683.366321,3987.372397,2.928000,-992.104004,-164.944000,2660.000000,3080.000000,-4060.000000
-1561.604626,11525.766435,-267.930361,-1012.802245,3271.177801,-2189.040445,562.302835,7069.499143,-6739.408581,5494.349360,429.019383,14548.661059,844.292443,5846.299928,-3639.311032,4033.327583,1.464000,-993.080017,-165.919998,2800.000000,3640.000000,-4060.000000
-1542.337423,11552.968508,-247.120887,-987.030683,3296.234107,-2168.856820,586.018036,7091.046225,-6718.733218,5516.432883,449.672395,14574.767897,864.699586,5871.535047,-3615.931108,4054.360575,0.488000,-992.104004,-168.360001,2660.000000,3500.000000,-3920.000000
-1529.708687,11567.318328,-237.017898,-974.558410,3305.867708,-2160.787840,594.623458,7096.701216,-6703.444624,5526.893500,457.674319,14587.955426,871.896848,5882.263885,-3606.588078,4061.289616,2.440000,-991.616028,-166.895996,2800.000000,4200.000000,-3920.000000
-1501.187861,11598.230791,-208.608831,-943.936520,3338.098924,-2132.736401,623.233691,7122.249260,-6677.494249,5556.844837,488.117395,14621.192470,898.718941,5909.823586,-3578.648398,4086.636494,-1.464000,-990.640015,-168.360001,2380.000000,4620.000000,-3920.000000
-1470.320102,11635.669963,-171.974322,-904.664505,3379.024968,-2090.916287,662.036319,7163.912912,-6650.761563,5594.261658,527.992908,14660.710354,937.722735,5949.050897,-3541.477447,4122.376933,-0.976000,-991.127991,-167.872009,2240.000000,5040.000000,-3640.000000
-1504.428864,11596.643817,-203.736151,-946.641081,3332.600395,-2132.669345,613.018943,7116.258993,-6676.153144,5558.834143,491.336047,14620.410159,903.971601,5911.343504,-3586.203287,4075.147697,-2.440000,-990.152039,-168.360001,2100.000000,5320.000000,-3780.000000
-1571.528801,11515.529336,-271.394881,-1022.882882,3255.173952,-2205.916012,540.532236,7040.777152,-6736.167578,5483.642874,416.301240,14538.714533,835.016469,5843.148332,-3655.694861,4007.399560,0.000000,-991.616028,-167.872009,2380.000000,5180.000000,-3640.000000
-1600.094330,11476.123211,-305.347181,-1060.322053,3213.622059,-2236.828475,506.378771,7008.680047,-6767.281207,5451.836342,389.389740,14498.414337,805.981553,5803.898669,-3687.970780,3976.911780,-3.904000,-989.664001,-168.360001,2520.000000,5180.000000,-3360.000000
-1581.922362,11497.044444,-287.711655,-1040.496056,3237.560777,-2212.062742,530.898634,7035.926823,-6753.043145,5473.092851,414.893081,14520.341399,827.819208,5821.422436,-3668.077727,4001.029313,-3.904000,-989.176025,-172.264008,2800.000000,5040.000000,-3220.000000
-1558.341272,11530.169729,-256.955654,-1005.828500,3278.442118,-2173.863610,572.741100,7079.713891,-6731.585471,5501.859546,443.033927,14557.020611,858.664615,5859.308643,-3630.906776,4039.697831,-5.856000,-989.664001,-166.408005,3080.000000,5460.000000,-2940.000000
-1548.685318,11540.719752,-246.964424,-993.244468,3289.640342,-2166.174610,586.241554,7091.046225,-6722.264793,5511.806072,449.113601,14568.688222,864.364310,5869.836315,-3617.115750,4051.790124,-4.392000,-992.592041,-169.824005,3220.000000,5320.000000,-2800.000000
-1529.306356,11566.692479,-232.055811,-966.511782,3312.953211,-2152.160067,607.833339,7110.402836,-6702.639962,5528.324011,463.753994,14590.771746,876.680121,5884.409652,-3593.601715,4071.213790,-3.904000,-986.736023,-163.968002,3220.000000,5320.000000,-2660.000000
-1484.692274,11617.989733,-185.564182,-916.510930,3367.200895,-2104.059113,654.973168,7158.436734,-6664.932569,5579.733024,516.951146,14645.377057,923.484674,5930.007211,-3548.272377,4114.151491,-5.368000,-989.664001,-163.479996,2940.000000,5600.000000,-2520.000000
-1488.223849,11611.954762,-185.340665,-928.536168,3358.036680,-2108.931793,640.355127,7146.657365,-6665.312548,5578.391919,511.765541,14641.934889,921.875348,5928.174368,-3562.108107,4099.801671,-4.880000,-989.176025,-164.456009,3080.000000,5740.000000,-2520.000000
-1549.110001,11540.451531,-247.411459,-995.569050,3285.147641,-2175.629398,573.590466,7075.556466,-6714.911069,5505.815805,436.618976,14567.883559,858.172877,5865.880056,-3622.591927,4036.143903,-4.880000,-990.152039,-165.432007,3080.000000,5320.000000,-2100.000000
-1593.277048,11486.494420,-298.775768,-1045.212274,3226.764885,-2226.501969,528.305832,7027.299050,-6752.618462,5453.289205,386.372255,14509.321989,809.379018,5811.610021,-3665.373166,3993.675589,-2.928000,-987.223999,-166.895996,3220.000000,5320.000000,-2100.000000
-1594.819319,11479.364214,-302.575565,-1050.196713,3224.999097,-2226.233748,529.222253,7031.791750,-6759.882779,5453.468019,389.546202,14506.349207,810.049571,5806.513823,-3668.278893,3995.463728,-3.904000,-988.687988,-168.848007,3360.000000,5320.000000,-1820.000000
-1558.430679,11519.373836,-265.628131,-1012.958707,3268.339129,-2187.364064,564.403899,7069.476792,-6727.875081,5495.422244,431.723944,14551.142103,847.198170,5843.885940,-3636.271195,4028.320793,-1.952000,-986.736023,-167.872009,3780.000000,5180.000000,-1680.000000
-1541.756277,11538.551633,-249.132544,-995.703160,3285.013531,-2174.645922,577.122042,7079.669187,-6709.680761,5514.197709,447.325462,14570.722231,860.072775,5861.744983,-3624.022439,4039.541368,-1.952000,-987.223999,-166.895996,3640.000000,5040.000000,-1540.000000
-1533.262614,11549.638098,-237.911968,-983.119128,3296.189403,-2165.593465,584.587524,7086.307655,-6703.288162,5525.239471,456.176753,14580.825219,869.728729,5873.278484,-3615.864052,4045.732802,-0.976000,-985.272034,-171.287994,3920.000000,4900.000000,-1540.000000
-1497.991562,11591.480564,-199.712837,-940.404944,3344.223302,-2122.566357,628.978089,7129.602984,-6675.504944,5566.456087,498.198032,14623.986438,910.185386,5914.338638,-3574.133345,4086.927067,-3.416000,-983.807983,-166.408005,3500.000000,4900.000000,-1400.000000
-1485.474585,11608.400835,-180.959723,-923.998764,3364.473982,-2098.627639,652.358014,7156.983871,-6664.194961,5583.443413,516.034724,14642.359572,929.430238,5936.802141,-3556.631929,4110.865785,-4.880000,-988.687988,-166.408005,3500.000000,5040.000000,-1400.000000
-1534.134332,11551.448590,-230.334727,-982.739148,3299.117482,-2154.439945,593.058836,7099.450481,-6704.226935,5527.385238,458.367224,14582.099269,877.618894,5884.566114,-3613.248898,4056.126363,-1.952000,-984.296021,-168.848007,3220.000000,5040.000000,-1400.000000
-1589.812528,11483.879266,-292.517280,-1046.821600,3225.468484,-2221.741047,525.355402,7028.103713,-6755.077154,5458.832438,390.909659,14509.970189,814.899899,5817.130901,-3673.263332,3991.239249,-3.416000,-986.247986,-162.992004,2940.000000,4480.000000,-1260.000000
-1606.151653,11467.786010,-308.766998,-1057.438678,3215.544309,-2235.532073,512.883128,7017.218413,-6772.176239,5438.805275,373.587057,14494.636893,799.946582,5800.814128,-3686.048530,3981.270371,-2.928000,-988.200012,-162.992004,2800.000000,4480.000000,-1260.000000
-1571.014711,11510.723711,-274.948809,-1017.160835,3259.711356,-2198.562288,552.669233,7058.144457,-6737.285165,5477.697310,413.037886,14538.714533,834.636490,5835.615794,-3647.782343,4019.938889,-5.368000,-986.736023,-162.016006,2520.000000,5040.000000,-1260.000000
-1551.635748,11527.845148,-257.357986,-1005.403817,3273.792955,-2178.110442,571.377644,7080.987940,-6720.677819,5503.513575,437.490694,14558.540530,854.037804,5851.932568,-3631.622032,4039.295499,-8.784000,-990.152039,-163.479996,2240.000000,5320.000000,-1120.000000
-1549.579388,11533.902470,-248.752564,-997.603059,3282.152508,-2171.337863,575.602123,7083.133707,-6718.576755,5509.570898,444.419735,14565.849550,861.659749,5861.767335,-3625.385895,4040.435438,-6.344000,-987.712036,-165.432007,2380.000000,5740.000000,-1260.000000
-1527.965251,11559.830494,-222.645727,-969.082233,3312.439121,-2143.934625,602.334810,7107.608868,-6702.215278,5536.616509,473.208782,14594.303321,888.414787,5889.036463,-3599.167299,4063.904770,-5.368000,-985.272034,-165.919998,2240.000000,5880.000000,-1260.000000
-1480.043111,11613.251163,-177.383444,-917.784979,3365.859791,-2099.074674,647.597092,7151.284176,-6658.383508,5588.181983,524.014297,14648.148674,932.805351,5934.254042,-3555.424935,4104.584945,-6.832000,-987.712036,-173.240005,2100.000000,6440.000000,-1120.000000
-1501.478434,11585.646759,-204.160834,-949.077421,3329.426447,-2130.836502,613.913013,7117.868318,-6666.497191,5558.454163,489.816128,14616.945638,903.435159,5906.761397,-3588.639628,4073.583075,-7.320000,-987.712036,-165.432007,1540.000000,7140.000000,-980.000000
-1567.505487,11508.600296,-276.625189,-1024.805132,3246.590882,-2204.306686,542.052155,7043.280547,-6717.839148,5478.211400,410.288621,14534.288887,831.395487,5834.855835,-3659.360547,4007.600726,-10.248000,-985.272034,-165.919998,1820.000000,7140.000000,-980.000000
-1600.764883,11466.444906,-311.203338,-1065.082975,3208.905841,-2237.879007,507.026971,7009.819986,-6750.271529,5440.101676,373.743519,14492.781698,798.761940,5798.623657,-3697.134995,3974.698958,-9.272000,-987.223999,-163.968002,2240.000000,7140.000000,-840.000000
-1572.780499,11499.346673,-284.895335,-1031.488303,3245.585054,-2211.995687,541.649823,7043.459361,-6728.925613,5470.969435,404.968906,14526.666942,823.415914,5822.897652,-3664.881428,4005.499662,-7.320000,-983.807983,-165.919998,2380.000000,6720.000000,-700.000000
-1541.041021,11538.551633,-250.898332,-992.104529,3286.064063,-2176.434061,581.190059,7082.999597,-6703.042293,5508.006276,442.519837,14567.369469,856.585903,5859.018071,-3625.497654,4042.916482,-7.320000,-985.272034,-163.479996,2240.000000,6860.000000,-420.000000
-1533.262614,11547.402924,-239.744811,-981.062768,3297.038769,-2165.638169,590.175461,7088.833402,-6696.292066,5517.103436,452.265197,14577.159533,866.934760,5871.847972,-3614.455892,4049.040860,-5.856000,-984.296021,-168.848007,2100.000000,6860.000000,-560.000000
-1511.581422,11573.912093,-219.091799,-954.844171,3321.871557,-2149.656671,609.599127,7103.429091,-6671.973368,5537.935261,469.543096,14602.081728,883.407996,5893.730330,-3594.764006,4064.977654,-8.296000,-980.392029,-166.895996,2240.000000,7280.000000,-420.000000
-1458.563084,11633.501844,-167.168697,-895.880270,3384.098814,-2097.688865,667.668959,7158.056755,-6623.648897,5596.832108,525.489512,14663.526674,933.542959,5946.100467,-3537.320022,4119.717076,-5.368000,-984.296021,-164.944000,2380.000000,7420.000000,-280.000000
-1463.122840,11626.349285,-172.711929,-907.681991,3371.604189,-2102.360380,662.125726,7153.407592,-6623.872414,5592.786442,519.119265,14654.630679,927.016250,5941.160731,-3541.656261,4114.531471,-5.368000,-981.367981,-164.944000,2380.000000,7280.000000,-140.000000
-1522.354963,11555.650718,-234.805076,-977.240619,3296.390569,-2171.226105,591.673027,7078.193972,-6673.850915,5522.311392,447.794848,14581.071088,862.509115,5877.033577,-3607.593907,4046.671575,-0.976000,-983.320007,-169.335999,2100.000000,7280.000000,140.000000
-1562.342234,11505.806328,-278.078053,-1024.067524,3246.903807,-2220.623460,543.102687,7022.560480,-6711.781825,5473.897514,399.649191,14530.243222,817.716219,5829.402009,-3655.381936,3998.458862,-6.344000,-980.392029,-167.384003,2380.000000,7140.000000,140.000000
-1544.751411,11524.313572,-265.136393,-1003.816843,3267.847391,-2212.465073,557.966597,7030.987088,-6697.163784,5490.214287,416.748275,14549.711591,829.003850,5839.683812,-3639.355736,4009.590031,-1.952000,-981.856018,-168.360001,2100.000000,7140.000000,420.000000
-1498.997390,11580.684671,-222.332802,-945.881122,3326.453665,-2165.839334,613.644792,7082.843135,-6654.136676,5538.851683,463.329311,14604.808641,871.159240,5887.874173,-3583.677540,4060.842581,-4.392000,-985.272034,-169.335999,2380.000000,7140.000000,420.000000
-1486.256896,11593.291055,-214.509692,-937.342755,3328.487674,-2156.965692,621.154978,7091.202687,-6639.093952,5553.179151,475.511012,14612.631752,880.614028,5894.892620,-3570.378252,4066.005834,-3.416000,-984.296021,-168.360001,2380.000000,7420.000000,420.000000
-1477.986750,11600.018930,-205.948973,-931.531302,3333.986203,-2150.260168,623.144284,7096.053016,-6631.404952,5561.873980,483.803509,14621.013656,888.906525,5901.419330,-3564.298578,4068.084546,-4.392000,-984.783997,-166.408005,2940.000000,7420.000000,420.000000
-1441.195779,11643.068390,-165.872296,-886.581944,3384.545849,-2107.970668,675.693235,7147.707897,-6600.112510,5603.805852,526.383582,14667.237063,927.664450,5942.367726,-3519.080999,4118.085398,0.000000,-983.320007,-166.408005,3080.000000,7280.000000,560.000000
-1431.428067,11659.988661,-146.113354,-870.779260,3406.674076,-2082.444976,694.781625,7173.859438,-6591.395329,5621.597841,544.332033,14687.577151,948.675090,5967.222865,-3504.664124,4137.777285,-2.440000,-986.247986,-165.432007,3080.000000,6860.000000,560.000000
-1486.860393,11594.766270,-199.869299,-937.320404,3336.713116,-2139.285462,627.368763,7111.609830,-6640.099781,5559.370584,481.814203,14620.812490,896.014380,5913.511624,-3570.042976,4075.035939,0.000000,-982.343994,-167.384003,3080.000000,6440.000000,700.000000
-1552.641577,11510.790767,-269.025596,-1019.708934,3252.357632,-2209.045256,550.031728,7040.531282,-6702.818776,5484.536944,411.652078,14537.529890,831.239025,5841.427248,-3647.782343,4005.745531,0.488000,-980.880005,-167.384003,2940.000000,6440.000000,560.000000
-1568.779536,11489.891886,-287.555192,-1039.199655,3234.699754,-2225.205568,534.989004,7028.573099,-6720.409598,5464.688595,395.759987,14516.519250,814.117588,5821.377733,-3664.590855,3996.223688,-2.440000,-985.272034,-165.919998,2520.000000,6160.000000,700.000000
-1539.565806,11523.665371,-258.654387,-1006.879032,3270.686063,-2192.594372,564.895638,7062.078364,-6697.834336,5499.981999,432.305090,14551.723248,845.298272,5849.429172,-3635.511236,4026.756171,2.440000,-983.320007,-169.335999,2520.000000,6020.000000,700.000000
-1529.485170,11540.183311,-240.638881,-989.489375,3292.143737,-2170.644959,582.844088,7082.932542,-6693.587505,5517.930450,450.812334,14572.398612,865.928932,5870.037481,-3618.658020,4042.961185,1.952000,-984.296021,-163.968002,2380.000000,6160.000000,560.000000
-1535.095457,11541.949098,-238.627224,-980.481622,3303.364313,-2166.264017,592.701208,7090.934466,-6700.807119,5514.912965,450.320596,14575.863132,868.566438,5875.871286,-3611.885442,4050.337261,-0.488000,-982.343994,-163.479996,2380.000000,6300.000000,560.000000
-1522.913757,11549.459284,-226.780799,-976.368901,3312.036790,-2148.717898,604.659391,7110.335780,-6694.280409,5533.174340,472.381767,14586.524914,886.380778,5886.778937,-3604.866994,4063.614197,-4.392000,-982.832031,-168.848007,2380.000000,6300.000000,840.000000
-1484.245239,11596.330893,-184.670113,-931.330136,3360.785945,-2104.282630,649.407583,7155.262787,-6660.797496,5579.151878,518.560471,14634.536461,929.162017,5930.722467,-3563.024528,4104.964924,-5.856000,-988.200012,-166.408005,2380.000000,6020.000000,1540.000000
-1512.296678,11567.340680,-210.598136,-961.817916,3325.358430,-2132.378773,618.293955,7123.590365,-6679.751775,5546.786552,484.094081,14601.746452,900.484729,5907.186080,-3593.020569,4074.186572,1.464000,-989.176025,-163.479996,2380.000000,5180.000000,1680.000000
-1576.893220,11492.819964,-277.832184,-1036.249225,3242.947548,-2205.960716,539.548759,7042.989974,-6732.479540,5468.778964,404.879499,14524.275306,831.395487,5838.409762,-3665.261408,4000.381112,0.976000,-985.760010,-164.944000,2800.000000,5320.000000,1260.000000
-1606.285764,11453.726763,-309.728123,-1071.386167,3207.989419,-2240.717678,504.009486,7008.031846,-6764.420183,5434.893720,372.022435,14487.260817,801.779425,5804.457462,-3699.258411,3968.440469,0.488000,-980.880005,-167.384003,3360.000000,5880.000000,1540.000000
-1586.571525,11478.157220,-294.372474,-1046.531027,3233.805684,-2221.651640,529.088143,7032.998745,-6747.634023,5457.245464,396.162319,14509.478451,818.207958,5821.333029,-3675.654969,3993.653237,-1.952000,-983.807983,-167.872009,3220.000000,5740.000000,1820.000000
-1555.793173,11520.357313,-261.202486,-1007.504881,3274.999949,-2184.815965,565.901466,7070.840248,-6716.341581,5493.343531,430.740467,14549.868053,850.349766,5858.012242,-3640.920358,4027.873758,-2.440000,-986.736023,-164.456009,3640.000000,5180.000000,2100.000000
-1556.329615,11516.177537,-257.715614,-1009.270669,3274.329397,-2177.417538,569.544800,7078.641007,-6720.409598,5496.852755,437.066011,14549.152797,854.931874,5861.588521,-3637.992279,4033.081714,-3.416000,-986.247986,-163.479996,3360.000000,5180.000000,2100.000000
-1547.344213,11525.095883,-246.115058,-999.704123,3285.795842,-2165.906389,580.944190,7090.330969,-6716.252174,5510.263802,452.198142,14559.233434,867.985292,5871.557399,-3624.335363,4044.414049,-1.464000,-984.296021,-166.408005,3360.000000,5320.000000,2240.000000
-1498.595059,11582.785735,-194.728398,-942.684822,3348.783058,-2117.134883,633.806066,7139.862435,-6671.526333,5564.265616,505.596460,14620.052531,916.712095,5923.234632,-3570.780584,4092.023264,-3.416000,-984.783997,-164.944000,3500.000000,5460.000000,2240.000000
-1493.945896,11588.954817,-192.090892,-940.539055,3348.224264,-2117.805435,634.878950,7139.862435,-6658.852894,5567.797192,504.769445,14624.746397,916.376819,5927.772037,-3568.232485,4090.592753,-4.392000,-987.223999,-167.384003,3500.000000,5740.000000,2380.000000
-1556.910760,11514.635267,-257.492096,-1016.065599,3265.120478,-2188.280486,559.240646,7065.185257,-6710.664238,5496.875107,431.701592,14546.314126,849.746269,5859.889789,-3639.981585,4019.670668,-5.856000,-989.664001,-161.040009,3780.000000,5880.000000,2800.000000
-1604.408217,11454.084391,-309.616364,-1072.906086,3205.217803,-2238.504855,506.289364,7015.162053,-6757.401735,5441.442781,378.951475,14484.891532,800.214803,5806.893803,-3693.424606,3973.491964,-2.928000,-989.176025,-162.503998,4060.000000,6300.000000,2800.000000
-1601.211918,11452.810341,-311.136283,-1070.559152,3208.212937,-2235.330908,507.898689,7016.994896,-6761.737974,5444.057935,384.092377,14485.673843,801.779425,5806.491471,-3692.597591,3975.525972,-8.296000,-986.736023,-164.944000,4620.000000,6300.000000,3080.000000
-1561.649330,11501.403034,-268.243285,-1019.574823,3263.980539,-2191.007398,554.569132,7061.810143,-6727.740971,5489.163755,428.304127,14537.105207,842.459600,5850.971443,-3647.625881,4019.044819,-4.392000,-986.247986,-163.479996,4900.000000,6160.000000,3220.000000
-1548.618263,11515.283467,-252.664119,-1009.561242,3277.793917,-2176.746986,563.956864,7074.751803,-6714.888718,5505.167604,441.737526,14553.153760,856.898827,5864.695414,-3639.199273,4028.656069,-7.808000,-986.736023,-163.479996,4480.000000,6160.000000,3500.000000
-1539.074068,11526.302877,-244.036346,-996.485471,3288.478051,-2167.292198,575.244495,7084.452460,-6705.366874,5513.147177,448.599511,14562.966175,865.034862,5872.965559,-3625.944689,4038.937871,-7.320000,-984.296021,-166.408005,4480.000000,6020.000000,3640.000000
-1497.522175,11573.509762,-206.396008,-948.585683,3335.148494,-2128.467218,626.966432,7131.748752,-6668.106516,5556.487209,492.475986,14607.401443,901.647020,5910.985876,-3576.681444,4086.480032,-7.808000,-984.783997,-164.944000,4340.000000,5880.000000,3920.000000
-1473.158774,11605.025721,-176.891706,-920.467188,3368.609055,-2100.616944,655.755479,7158.950825,-6645.575958,5585.991512,518.627527,14640.593784,927.351526,5942.859464,-3554.061479,4112.676276,-7.808000,-987.223999,-167.872009,4200.000000,5600.000000,3920.000000
-1515.358867,11555.941290,-220.142331,-972.546753,3312.170900,-2152.830619,598.713827,7099.875164,-6678.790650,5536.258881,465.542134,14589.855324,881.798671,5897.328961,-3609.471453,4057.758040,-8.784000,-986.736023,-164.456009,3920.000000,5460.000000,4060.000000
-1574.702749,11483.454583,-284.738873,-1041.032498,3236.152617,-2218.455341,535.078411,7032.775227,-6732.390133,5467.147287,397.369313,14514.082910,819.973745,5831.771294,-3670.245847,3998.660028,-10.736000,-989.176025,-164.944000,3920.000000,5740.000000,4200.000000
-1594.819319,11457.146580,-306.241251,-1064.077147,3213.197376,-2236.604957,512.592556,7013.329209,-6755.680651,5445.957833,380.270228,14488.914846,802.807606,5806.871451,-3687.948428,3978.789327,-9.272000,-989.664001,-158.600006,4060.000000,5600.000000,4060.000000
-1565.583237,11493.646979,-275.082919,-1026.548568,3255.241007,-2201.825643,548.869437,7051.975376,-6732.837168,5480.290113,416.949441,14527.851585,834.077696,5837.068658,-3651.760954,4015.021505,-9.760000,-987.223999,-167.384003,4620.000000,5460.000000,4340.000000
-1541.845684,11527.554575,-250.093669,-990.204631,3290.154432,-2176.948151,583.626399,7080.786774,-6708.294953,5505.525232,439.859979,14560.731001,855.602426,5867.355271,-3618.970945,4045.688098,-9.272000,-989.664001,-167.384003,4480.000000,5600.000000,4060.000000
-1533.307318,11537.232880,-242.717593,-981.599209,3297.396397,-2173.528334,587.560306,7082.664321,-6698.773110,5514.711799,446.721965,14569.694051,861.950321,5874.619588,-3615.171148,4046.537464,-9.272000,-988.687988,-162.503998,4620.000000,5180.000000,3920.000000
-1516.029419,11552.297956,-224.523273,-968.210515,3315.344848,-2152.741212,606.402827,7105.865432,-6684.982083,5536.013011,469.520744,14587.933074,882.066891,5892.210411,-3599.368465,4065.312930,-11.712000,-987.712036,-166.895996,4760.000000,5180.000000,3500.000000
-1479.953704,11594.475698,-184.088967,-928.782037,3362.350567,-2107.523633,649.139362,7151.708859,-6654.427249,5581.185887,515.788855,14634.983496,923.529377,5936.086885,-3562.108107,4107.401265,-12.200000,-984.783997,-169.335999,4760.000000,4900.000000,3080.000000
-1508.452178,11564.479657,-210.776950,-958.085174,3326.028982,-2134.390430,619.836225,7120.125844,-6676.510772,5549.848741,483.334122,14601.142955,896.103787,5911.030580,-3586.672674,4078.634569,-9.272000,-981.367981,-166.895996,4620.000000,4200.000000,2800.000000
-1571.685263,11486.360310,-279.441509,-1035.757486,3240.980594,-2208.955849,541.091030,7039.346640,-6732.636003,5473.562237,407.807578,14519.201460,825.852254,5837.336878,-3660.165210,4003.286839,-8.784000,-982.832031,-171.287994,4620.000000,3500.000000,2660.000000
-1593.992304,11455.760772,-309.728123,-1064.993568,3210.045780,-2241.298824,510.200919,7006.936611,-6753.043145,5442.381554,377.252743,14486.746727,795.342123,5804.479814,-3689.736568,3974.117812,-10.736000,-979.416016,-171.287994,4060.000000,2380.000000,2100.000000
-1577.295551,11474.469182,-292.718445,-1045.368736,3235.839693,-2219.282355,531.345669,7031.054143,-6743.051916,5461.224075,398.621011,14508.673788,815.592803,5822.517672,-3671.989283,3995.687246,-8.296000,-980.880005,-171.287994,3780.000000,1680.000000,1680.000000
-1551.702804,11507.862688,-259.146125,-1013.741018,3275.111708,-2182.178459,563.755699,7068.180390,-6721.862462,5495.623409,431.142799,14545.800036,848.651033,5859.129829,-3644.943672,4028.410200,-4.880000,-982.832031,-172.264008,3360.000000,420.000000,980.000000
-1544.997280,11516.691627,-251.501829,-1006.521405,3280.587885,-2176.635227,570.796498,7074.818858,-6712.161805,5505.435825,438.652985,14553.421981,854.842467,5864.829524,-3640.249805,4032.835845,-3.416000,-982.343994,-170.800003,3500.000000,-700.000000,700.000000
-1528.211120,11538.752799,-233.620433,-980.369864,3305.174804,-2160.989006,593.349408,7090.778004,-6693.811022,5522.423151,454.992110,14574.209103,869.393452,5882.777975,-3616.109921,4051.499552,-0.488000,-982.343994,-171.776001,3920.000000,-1260.000000,140.000000
-1486.078082,11584.305654,-190.526270,-934.414677,3353.342814,-2113.133921,643.350261,7143.394010,-6660.149295,5573.385128,508.010448,14623.025313,915.549805,5926.028600,-3565.282055,4100.002837,1.952000,-983.807983,-164.944000,3780.000000,-1960.000000,-140.000000
-1486.145137,11584.439765,-189.967476,-936.024003,3351.331157,-2114.117398,642.076211,7141.471760,-6660.305758,5573.183962,504.635335,14623.248830,915.639212,5929.157845,-3566.377290,4096.314799,3.904000,-985.760010,-165.432007,3920.000000,-2380.000000,-280.000000
-1541.845684,11516.378703,-251.166552,-1006.476701,3274.150583,-2179.004512,571.958789,7070.594379,-6703.981066,5505.100549,433.132104,14551.186806,853.300196,5867.869361,-3631.130294,4029.438380,1.952000,-984.783997,-161.528000,4200.000000,-2520.000000,-560.000000
-1585.766862,11460.454638,-302.597916,-1062.110193,3214.069094,-2233.721582,517.644050,7017.732503,-6742.895453,5450.919920,380.784319,14492.893457,802.494681,5811.788835,-3683.634541,3982.946751,7.320000,-984.783997,-160.063995,4340.000000,-2240.000000,-560.000000
-1578.189621,11466.623720,-298.641658,-1052.945978,3224.663821,-2230.815855,523.477855,7021.398189,-6739.877968,5456.463153,388.518022,14500.493050,806.205071,5813.308753,-3678.963027,3988.221763,5.368000,-986.247986,-156.160004,4480.000000,-1680.000000,-700.000000
-1541.018670,11512.891831,-259.883733,-1005.157948,3276.273999,-2188.369893,567.980178,7064.358242,-6709.054912,5498.640895,432.595662,14548.929280,844.046574,5855.061812,-3636.450009,4028.968993,4.880000,-987.712036,-163.479996,4200.000000,-980.000000,-560.000000
-1534.424905,11525.364104,-249.289006,-994.496166,3286.578153,-2175.472936,578.306684,7074.640045,-6702.863479,5509.123863,445.537322,14559.568710,854.931874,5867.131754,-3626.615241,4037.574415,1.952000,-989.176025,-157.624008,4200.000000,-280.000000,-560.000000
-1529.105190,11531.466130,-242.382317,-988.438843,3290.400301,-2170.153221,581.257115,7078.775117,-6701.768244,5516.701104,453.427488,14565.357812,862.017377,5871.892675,-3623.240128,4038.915520,4.392000,-988.687988,-163.968002,4200.000000,0.000000,-560.000000
-1494.303524,11568.100639,-208.631183,-950.172657,3330.812255,-2135.642127,620.015039,7118.293001,-6673.023900,5556.129581,493.325352,14605.076862,897.109615,5904.973257,-3585.532735,4075.371215,1.952000,-989.664001,-161.528000,4480.000000,280.000000,-420.000000
-1475.863335,11593.983959,-182.390235,-922.948232,3361.165924,-2105.690790,651.285130,7150.993604,-6656.304795,5581.342349,516.459407,14633.217708,923.864654,5937.249176,-3555.424935,4104.920221,1.464000,-990.152039,-159.576004,4760.000000,1120.000000,-140.000000
-1527.004126,11536.919956,-230.155913,-978.425262,3300.436235,-2156.004567,593.684684,7094.555449,-6697.968447,5524.703029,457.562561,14574.454972,874.154374,5890.109347,-3608.890308,4049.867874,1.464000,-990.152039,-160.552002,5040.000000,1400.000000,0.000000
-1582.257638,11468.836542,-290.997361,-1047.782725,3226.161388,-2221.428123,524.684849,7025.466207,-6744.191854,5456.619615,389.948534,14503.287018,812.910594,5824.462274,-3674.447974,3986.321865,-0.488000,-991.127991,-159.576004,5460.000000,1400.000000,420.000000
-1594.059359,11455.269033,-307.560004,-1060.590274,3212.929155,-2238.326041,516.302945,7014.133872,-6753.400773,5438.939385,373.229429,14487.685500,795.878565,5806.826747,-3685.489736,3978.208182,-3.416000,-989.176025,-154.695999,5740.000000,1680.000000,840.000000
-1558.967121,11499.659598,-274.121794,-1015.417399,3260.448964,-2203.032637,558.100707,7052.489466,-6724.164691,5477.384386,412.546147,14531.606678,828.422705,5840.622585,-3646.329480,4015.490891,-2.440000,-991.127991,-156.647995,5600.000000,1680.000000,1120.000000
-1536.324803,11528.448645,-250.071317,-986.494242,3291.026150,-2176.635227,587.806176,7079.445670,-6705.903316,5505.033494,440.463476,14561.155684,852.227313,5869.523390,-3617.048695,4041.664784,-4.880000,-990.640015,-158.600006,5460.000000,1680.000000,1540.000000
-1536.034231,11530.393246,-245.399802,-983.968494,3296.144700,-2171.270808,590.063702,7082.463155,-6707.467938,5508.945049,445.425564,14563.592024,857.815249,5874.910161,-3614.724113,4043.788200,-4.392000,-985.272034,-155.184006,5460.000000,1820.000000,1820.000000
-1510.262669,11556.075401,-222.153988,-960.499163,3320.664563,-2152.629453,608.772112,7100.456309,-6684.445642,5537.152950,471.778270,14590.794097,879.518793,5889.595257,-3594.473433,4056.819267,0.000000,-985.272034,-162.016006,5040.000000,2100.000000,2100.000000
-1468.330797,11602.589381,-177.651665,-916.153302,3368.050262,-2106.853081,654.950816,7150.054830,-6647.252339,5586.125623,521.086218,14640.236156,924.758723,5935.796313,-3548.697060,4101.276887,-0.488000,-983.807983,-162.016006,4340.000000,2240.000000,2100.000000
-1497.924506,11568.994709,-201.880956,-950.865561,3332.533340,-2130.724744,624.328926,7123.925641,-6670.721670,5554.944939,489.234983,14606.663836,900.864709,5917.400827,-3583.141098,4077.114651,-0.976000,-982.832031,-161.040009,3780.000000,2660.000000,1960.000000
-1560.531743,11488.573133,-268.332692,-1031.622414,3249.653071,-2202.809120,548.109478,7047.549730,-6726.958660,5483.799336,418.983450,14526.488128,834.278862,5847.663384,-3659.695823,4006.281973,-3.416000,-982.832031,-166.408005,2940.000000,3080.000000,1680.000000
-1585.208069,11457.571263,-298.216975,-1061.752565,3217.846539,-2234.347431,515.028896,7012.904526,-6750.092715,5452.126915,388.763891,14494.055747,804.752207,5815.231003,-3690.742396,3975.347158,-4.880000,-985.272034,-168.360001,2380.000000,3080.000000,1260.000000
-1567.572542,11480.504153,-283.844803,-1034.975175,3243.327527,-2215.102579,541.605120,7036.217396,-6734.714715,5469.851848,407.405246,14516.251030,820.867815,5829.647878,-3663.696785,3999.285877,-4.880000,-986.736023,-170.311996,2100.000000,2660.000000,840.000000
-1539.319937,11516.021075,-252.418250,-1000.732303,3281.839583,-2180.882058,574.238667,7070.884951,-6712.675895,5505.368770,443.548017,14555.478341,853.479010,5862.549646,-3633.477227,4030.466560,-4.392000,-985.760010,-173.240005,1680.000000,1960.000000,420.000000
-1534.156684,11523.866537,-244.930416,-993.579745,3288.567458,-2172.835430,582.329998,7078.037510,-6708.071435,5512.811901,450.342947,14561.826236,860.162182,5873.323187,-3626.369372,4038.379078,-3.416000,-984.296021,-174.703995,1680.000000,1400.000000,140.000000
-1523.293736,11534.818892,-236.190884,-980.146346,3299.966848,-2162.553628,600.032580,7092.186164,-6697.722578,5524.211290,462.815221,14573.069164,868.633493,5882.152126,-3608.711494,4053.399450,-1.952000,-987.712036,-176.167999,1820.000000,-280.000000,-140.000000
-1481.160698,11583.925674,-193.052017,-930.100790,3354.370994,-2115.816130,649.631101,7139.281289,-6661.848028,5572.155782,512.480797,14625.036970,913.471092,5925.961545,-3559.090621,4097.030055,-4.392000,-985.760010,-175.192001,2380.000000,-1680.000000,-420.000000
-1480.512497,11591.435861,-189.408683,-922.121218,3361.098869,-2112.329258,653.430897,7140.175359,-6656.573016,5572.938093,510.513843,14630.736665,917.025020,5934.365801,-3553.569740,4099.712265,-3.904000,-987.712036,-172.751999,2380.000000,-2800.000000,-560.000000
-1543.499713,11515.238764,-252.597064,-999.145329,3279.693816,-2177.931628,577.323208,7068.292149,-6710.530127,5502.418340,440.016441,14553.421981,853.926045,5869.433983,-3630.057410,4030.511264,-0.976000,-987.712036,-172.264008,2940.000000,-3780.000000,-280.000000
-1594.506394,11447.647088,-307.358838,-1064.077147,3211.565699,-2231.732277,518.672230,7011.384608,-6757.424087,5443.856769,383.891211,14486.277340,800.661838,5811.520614,-3687.546097,3976.129469,-2.928000,-986.247986,-174.216003,3220.000000,-3920.000000,-280.000000
-1596.272182,11446.618908,-309.750475,-1061.417289,3216.661896,-2232.134608,527.679983,7019.207718,-6760.732145,5441.286318,381.968961,14486.344395,797.845518,5809.866585,-3680.728815,3985.740720,-6.832000,-986.247986,-167.872009,3360.000000,-4060.000000,-280.000000
-1556.664891,11497.357368,-268.913838,-1011.997582,3270.194324,-2189.040445,574.998626,7068.314501,-6726.243404,5486.705063,423.923185,14538.647477,837.005775,5852.424306,-3633.611337,4031.092409,-7.320000,-984.783997,-165.919998,3640.000000,-3360.000000,140.000000
-1538.492923,11521.117273,-249.713689,-989.779948,3290.489708,-2170.734366,590.466033,7083.021949,-6706.663276,5507.045151,442.028098,14562.161513,854.954225,5872.138545,-3616.087570,4044.726973,-8.296000,-988.200012,-166.895996,3780.000000,-2660.000000,280.000000
-1527.317050,11529.432121,-240.571826,-981.845079,3298.402226,-2163.112421,598.311496,7088.833402,-6695.666217,5519.137444,452.265197,14570.275196,864.185496,5880.542800,-3607.616259,4050.627834,-10.248000,-988.687988,-168.360001,3500.000000,-1820.000000,560.000000
-1490.168451,11569.486448,-204.317296,-939.779096,3340.199988,-2126.589671,638.321118,7127.859548,-6664.373775,5560.957558,494.554698,14610.754205,900.730598,5914.293935,-3566.913732,4086.815308,-14.152000,-986.247986,-169.335999,3220.000000,-840.000000,840.000000
-1465.961512,11602.097643,-175.192973,-908.419598,3375.247523,-2096.951258,668.563028,7158.727307,-6641.731458,5590.439509,523.254338,14643.946546,928.312651,5947.329813,-3537.208264,4115.246727,-18.544001,-989.176025,-167.872009,3080.000000,140.000000,980.000000
-1514.353039,11541.792636,-223.830369,-971.228000,3309.801615,-2150.483686,602.647734,7097.908211,-6683.708034,5535.051886,466.391500,14584.021519,879.250572,5897.843051,-3600.776625,4053.913540,-16.104000,-987.712036,-172.751999,2660.000000,840.000000,1120.000000
-1572.154650,11467.249568,-289.544498,-1042.686527,3230.765847,-2220.355239,528.976384,7024.125102,-6735.117046,5466.387327,396.721112,14508.383215,813.737609,5827.770332,-3669.128259,3985.628961,-20.007999,-989.176025,-170.800003,2520.000000,1540.000000,1120.000000
-1587.443243,11448.071772,-307.537652,-1058.846838,3213.197376,-2239.756553,510.089160,7005.774320,-6751.478523,5446.851903,380.113766,14490.099489,796.035027,5805.776215,-3682.204030,3968.418118,-20.984001,-989.176025,-171.776001,2100.000000,1680.000000,840.000000
-1556.955464,11486.472069,-277.742777,-1018.725457,3257.811458,-2205.290163,552.088088,7047.236806,-6726.668087,5481.474755,417.105903,14530.042056,827.305118,5838.298003,-3646.061259,4009.254755,-22.448000,-991.616028,-170.311996,1820.000000,1540.000000,700.000000
-1532.994393,11515.462281,-252.105326,-991.590439,3288.902734,-2178.758643,583.894620,7075.735280,-6705.076302,5510.107340,443.927997,14560.127504,852.115554,5868.092879,-3619.462683,4037.708525,-22.936001,-992.592041,-173.727997,1820.000000,1680.000000,700.000000
-1527.227643,11521.854880,-243.879884,-985.130785,3296.278810,-2171.002587,591.941248,7083.111356,-6701.321209,5516.142311,447.504276,14566.721269,857.927007,5878.575847,-3612.578346,4043.654089,-19.520000,-992.104004,-175.680008,2100.000000,1120.000000,280.000000
-1509.681524,11540.719752,-226.423171,-965.930637,3317.848243,-2148.002642,615.365877,7108.391179,-6688.536011,5536.571805,468.805488,14586.547266,878.065929,5897.977161,-3590.785395,4066.765793,-20.496000,-992.104004,-170.311996,2380.000000,420.000000,0.000000
-1475.036320,11583.478640,-185.988866,-926.233938,3364.094003,-2104.975534,653.207380,7151.731211,-6661.199827,5580.627093,515.833559,14633.754150,921.204796,5938.590281,-3554.173238,4102.997971,-16.592001,-989.664001,-168.848007,2520.000000,-140.000000,-280.000000
-1501.903117,11557.483561,-207.871223,-953.950102,3334.835569,-2128.266052,627.681688,7128.552452,-6680.131755,5552.642709,484.272895,14605.255676,897.824871,5919.010153,-3579.363654,4078.612218,-13.176001,-988.687988,-172.751999,2520.000000,-700.000000,-560.000000
-1557.447202,11490.987121,-267.662140,-1021.005335,3258.951397,-2196.751797,558.100707,7056.088097,-6721.862462,5484.760461,413.060238,14533.685390,834.010641,5855.575902,-3642.350869,4011.646391,-10.736000,-991.616028,-172.751999,2940.000000,-1680.000000,-1120.000000
-1581.631789,11457.571263,-299.021637,-1051.984853,3222.026315,-2230.234710,525.042477,7022.113445,-6743.700116,5451.188141,381.074891,14498.771965,802.852309,5819.679000,-3673.308036,3980.845687,-9.272000,-990.640015,-173.240005,3080.000000,-2520.000000,-1260.000000
-1560.397632,11480.325339,-280.447338,-1023.978117,3251.485914,-2208.955849,554.055042,7047.527379,-6729.886738,5471.617636,405.661810,14522.889498,821.605423,5837.672155,-3645.860093,4008.025409,-4.880000,-989.176025,-170.311996,3220.000000,-3080.000000,-1680.000000
-1526.199463,11522.905412,-244.058698,-984.281419,3295.652961,-2171.963712,592.142414,7084.340702,-6699.130738,5514.600040,447.548979,14567.168303,858.619912,5874.060795,-3606.319857,4042.424743,-2.928000,-990.152039,-171.776001,3640.000000,-4340.000000,-1960.000000
-1519.024553,11532.762531,-232.905177,-976.793584,3304.548956,-2163.335939,598.155033,7089.593362,-6693.006360,5526.111189,456.489677,14577.763030,869.326397,5885.124908,-3600.039017,4046.626871,-0.488000,-991.616028,-175.192001,3920.000000,-5180.000000,-2100.000000
-1517.482283,11531.354371,-228.233663,-975.564238,3309.242822,-2153.501171,605.799330,7100.545716,-6693.699264,5531.989697,464.446898,14579.104135,877.887115,5892.880963,-3597.446215,4055.478162,4.392000,-989.176025,-173.727997,4340.000000,-6300.000000,-2240.000000
-1472.957608,11585.289131,-180.624447,-921.182444,3369.324311,-2102.628601,660.181124,7153.720516,-6651.253301,5582.281122,513.508977,14635.452883,925.049296,5941.697173,-3545.634871,4106.462491,4.880000,-989.176025,-173.727997,4760.000000,-7280.000000,-2380.000000
-1468.330797,11596.420300,-175.260028,-913.068761,3372.565314,-2098.515880,663.600941,7158.637900,-6641.709106,5585.835050,514.000715,14643.521862,927.463284,5949.207359,-3538.303499,4109.614087,6.344000,-989.664001,-173.240005,4900.000000,-7980.000000,-2240.000000
-1522.131446,11535.936479,-232.949881,-975.452480,3300.547993,-2163.291235,598.467958,7090.912114,-6681.562267,5520.053866,445.984357,14576.623091,866.733595,5888.969408,-3598.452043,4048.571473,4.880000,-988.687988,-174.216003,5600.000000,-8400.000000,-2380.000000
-1566.007920,11475.206789,-282.011960,-1038.283233,3236.845522,-2218.880024,538.297062,7032.238785,-6720.633116,5466.655548,394.150662,14515.915753,816.688039,5832.643012,-3657.214780,3995.061397,6.832000,-985.760010,-170.800003,5740.000000,-8540.000000,-2240.000000
-1563.705690,11476.682005,-284.582410,-1035.735135,3240.533559,-2222.076323,539.437001,7031.434122,-6720.588412,5466.588493,395.983505,14517.145099,814.743437,5829.983155,-3656.767745,3995.642542,9.760000,-987.712036,-171.776001,6300.000000,-8820.000000,-2100.000000
-1530.692164,11518.256249,-248.596102,-995.099663,3286.444042,-2182.111404,582.240591,7072.963664,-6694.280409,5506.821633,438.161247,14560.596891,852.227313,5868.428155,-3617.003991,4034.221653,5.856000,-989.176025,-167.872009,6440.000000,-8680.000000,-2100.000000
