Time	EMG_Ch1	EMG_Ch2	EMG_Ch3	EMG_Ch4	EMG_Ch5	EMG_Ch6	EMG_Ch7	EMG_Ch8
0.0	0.35289532248869576	0.3578656767145359	0.3421507320888575	0.33979431455880543	0.3764245194960673	0.2812643712169527	0.3294946678876662	0.33637507322352356
0.001	0.32205892403783276	0.32209783213343646	0.3121542358284672	0.3025079967126573	0.34499685445097283	0.24293591508712237	0.29405221669042286	0.2979295880186927
0.002	0.293824334254886	0.28591406658617147	0.28523836226455235	0.272063999857341	0.3133026262073216	0.226604814827428	0.2677474328774461	0.2679759307155509
0.003	0.3067554646690189	0.297126689728721	0.2971038033306021	0.28388065775224364	0.32261623598174977	0.24494132891425568	0.2799910113472025	0.28342792338987116
0.004	0.37826863867070476	0.37316794978573503	0.36121178113855623	0.3553260045601532	0.39370939151818946	0.30503748218729015	0.3451089395642777	0.35460414372847693
0.005	0.4674328965744047	0.4772896475865816	0.45606466448432365	0.45842512183069195	0.5018059136600964	0.3861740296232609	0.4426528061915099	0.45042466308507373
0.006	0.5607392790597788	0.5771191526528607	0.5530229500420751	0.5588715935790526	0.6139861310865592	0.4641503581205604	0.5379465667463426	0.5377344900175755
0.007	0.6677675680417955	0.6779525684492845	0.6538890282518357	0.6536354093883772	0.7279382079235739	0.5392829458697377	0.6332314826865736	0.6283093550960432
0.008	0.7386238521426172	0.7447111385806993	0.7236361857234606	0.7121227883924646	0.8071462064336329	0.5818668924498587	0.6991609478974184	0.6914593826685005
0.009	0.7443296454321684	0.7497042598406721	0.7344260554186426	0.7110300827401893	0.8255789501746866	0.5755042467313826	0.7058145219810412	0.6929616109744853
0.01	0.6915196037089797	0.6986219386848204	0.6814762344724297	0.6523975930723318	0.7725036031601945	0.5236835686948127	0.648923243304325	0.6357703778143377
0.011	0.5859963856286062	0.5965614480507793	0.5693942291097341	0.5488250170321265	0.6473481729188105	0.43507775436482443	0.5363110696484997	0.5323965003350474
0.012	0.4138268881573193	0.4202878852237037	0.39821749885429425	0.3837005805270855	0.45210522820308746	0.2900156198362168	0.36821578467009086	0.36514593896002967
0.013	0.1892844205788492	0.17916062830893562	0.18165165774490089	0.15661060287889317	0.2060771682915476	0.10234786404475509	0.15319247250800086	0.1436391843331402
0.014	-0.025889240740578856	-0.0472913112205536	-0.02139533498828922	-0.05947289834105952	-0.022597009145404686	-0.06336011968271817	-0.04784487746030561	-0.05906291269765341
0.015	-0.21893630315514284	-0.24548603629782212	-0.20873374044902185	-0.24407902980858945	-0.23213106444106926	-0.21096187062596183	-0.22381135683486506	-0.23238147158222228
0.016	-0.3812567494250193	-0.40738136088441307	-0.3683937658609856	-0.39331597084552755	-0.40960392606909	-0.33129934414403917	-0.37040406993584546	-0.37512441106926936
0.017	-0.4833041783772313	-0.49759189395248166	-0.4682809708254395	-0.47384040664425653	-0.5181953175336513	-0.3850632502880632	-0.45483818515519614	-0.46130879102990974
0.018	-0.5247725563196639	-0.5256472814924384	-0.5072489154508999	-0.49391915957860805	-0.5630112269625103	-0.389242208244209	-0.4781279768214891	-0.4877942464391109
0.019	-0.5132224263720377	-0.5051927986630245	-0.49623319723039244	-0.4688132077291904	-0.5550332593447506	-0.36861550448603536	-0.457777598941853	-0.46362303047640463
0.02	-0.4440507751723709	-0.432439484727092	-0.43092938073012194	-0.3925323839240824	-0.48427574484419456	-0.3066914059366251	-0.3904391929272308	-0.39056175872906207
0.021	-0.30882112917044413	-0.2950777520327597	-0.2947892401148713	-0.2591750573392081	-0.3370589017349046	-0.19561322473843112	-0.26185940010115955	-0.2589997514199826
0.022	-0.15006103681157762	-0.13715103207435028	-0.14149807099236061	-0.11307903159595936	-0.16799894040214314	-0.07805163162882225	-0.12100096840535368	-0.11269836910493791
0.023	0.009534415790602224	0.022023869952685925	0.010396329292445168	0.03303465504676607	0.0009737271927443185	0.03857455661504852	0.020241836345986548	0.03131506921270572
0.024	0.16831504454567017	0.18270542074085613	0.15886227132816508	0.17671090394585331	0.1711972529621361	0.1514259417508417	0.1643568245540195	0.17616284477676367
0.025	0.28343971311202737	0.2920128915871113	0.2619072899182271	0.2746468279310661	0.29361524847565373	0.2284532990603489	0.2639805964526212	0.27676761807624234
0.026	0.32031318229444405	0.3233209212254604	0.2990102901569024	0.3045628798491794	0.3342769756772404	0.24610716974349772	0.2901379555780608	0.3026037128205533
0.027	0.2951786783609548	0.2928057980509507	0.27864678662541115	0.27345899307680904	0.309087121273129	0.211692854303937	0.2580046720540342	0.27046862085169004
0.028	0.2339463319961467	0.22140939331591414	0.2201562695257732	0.19687649273376664	0.24434307513057063	0.14394617366346868	0.1888693123398818	0.1995244216959894
0.029	0.11384585343086824	0.09929580968136559	0.10402086143488859	0.07446729674148521	0.11753358358533789	0.041668586351286854	0.06765955247750713	0.07905693664081956
0.03	-0.04455998486904048	-0.052691063346123834	-0.047589472153824544	-0.06413193661612751	-0.048215932721409185	-0.0717874958790211	-0.07201858932922671	-0.06348733112579022
0.031	-0.17891739335415643	-0.18952105237487765	-0.18000242556253468	-0.19102259336515193	-0.19399568155199448	-0.17070489025598545	-0.19194667517173855	-0.18646753507616662
0.032	-0.30021565551031854	-0.31411168596921285	-0.2998620872397952	-0.310877455203351	-0.3298476984026632	-0.2612757656272592	-0.30431934832114077	-0.2998465910781877
0.033	-0.4089853110480814	-0.4166336909960371	-0.4049883140080832	-0.4033372193717205	-0.4493143038595006	-0.33432229269575986	-0.39447605266831887	-0.3882524784075675
0.034	-0.46725966025038507	-0.4718558479850283	-0.4607471195060441	-0.44780535342014516	-0.5142382067037842	-0.36522658440952255	-0.4362744088784028	-0.42408902393336767
0.035	-0.46286209160861225	-0.46207095339256943	-0.4492749092577018	-0.4310188463523959	-0.5027334674712765	-0.34444922416424584	-0.41815573279328905	-0.41348723836418644
0.036	-0.4045635215544201	-0.39696220457695186	-0.3840359964153677	-0.3625842169361175	-0.42898529816129033	-0.2837982787960945	-0.3493211952098044	-0.35966122880799556
0.037	-0.29278306845234947	-0.28258697302711494	-0.2737419681986227	-0.25091040898083794	-0.3078622894967366	-0.1884141212483832	-0.24093653096810388	-0.2504712956567325
0.038	-0.1314114902515165	-0.11952680619788067	-0.11994628676985368	-0.10048627576297137	-0.13645574309818118	-0.06165186905091766	-0.0965145537250469	-0.09817635705617367
0.039	0.03423265595112514	0.04894715873732094	0.04133839756109389	0.05226536481007205	0.04276679925052303	0.06543356934263034	0.05676164261472311	0.0559985945689645
0.04	0.18215010859447028	0.19384171827851412	0.18410924834837816	0.18703012156994242	0.2007283672354954	0.16853492328893582	0.18845341887526246	0.19017521734010534
0.041	0.30584293857813	0.3093086279646576	0.30240010368205156	0.297668630823276	0.3299592118743394	0.24822863320213143	0.29354076818897273	0.2946610360953767
0.042	0.3855582958601751	0.3890849324112797	0.37848841795597893	0.37204012902608435	0.4149567679472664	0.3010464686304892	0.3648611601703747	0.3628970068682545
0.043	0.4099769599741823	0.41275511291851746	0.399803842830257	0.39043276767653495	0.44478588819241516	0.3109421890414547	0.3842153094715123	0.379329798411983
0.044	0.377581855455564	0.380301025389723	0.3681868861632762	0.3592848229042739	0.4158942926899699	0.2832466928355835	0.3553764067790454	0.3411611070497006
0.045	0.3034853487065186	0.3059985993890056	0.2956283981351767	0.2874128162979702	0.3405724872519943	0.22672753779288185	0.28614167360759024	0.2638252292586834
0.046	0.19163193215582464	0.18428523856769896	0.18415326563746495	0.1652778006085433	0.2186343712514427	0.1285938363628962	0.17073631162266656	0.15198009771185395
0.047	0.05700711982393684	0.038098777014594055	0.05210067929411104	0.024575561654470723	0.06638948198630415	0.010685490554736372	0.033354272557510174	0.022242806874594956
0.048	-0.08641787592735978	-0.09991159742191484	-0.08231240803815491	-0.10120736345991557	-0.08840081880027209	-0.09061865882304002	-0.09288229372216439	-0.10360657235478968
0.049	-0.2237170521796469	-0.22297249422857784	-0.21581732759017375	-0.2111528466741865	-0.22916850737061287	-0.17820116612279724	-0.2044376415158713	-0.21659447785276015
0.05	-0.3151046605044161	-0.3180673607213921	-0.30489625606394993	-0.2947864629911878	-0.3314548308741804	-0.24527280751196223	-0.2870957124567801	-0.29989958159414903
0.051	-0.34315844330752476	-0.3517330750381582	-0.3282129525409273	-0.32677402898491004	-0.3696896133095075	-0.2670757284052397	-0.3164708778272659	-0.3230743070935157
0.052	-0.31205270369127847	-0.31722981557513213	-0.30473822218879576	-0.29682033545713266	-0.34282103681877996	-0.23417731252116916	-0.2900227500544085	-0.2854193950568816
0.053	-0.2418883444437077	-0.23637919282100495	-0.23883726521810628	-0.21887535384779527	-0.26995467172381254	-0.16515266194158415	-0.22089488899193904	-0.21162138963937097
0.054	-0.1437234784730248	-0.13316859615298804	-0.13800455639205395	-0.11931548584800193	-0.16135223966001203	-0.08440103425023063	-0.12155238485771215	-0.11644198320498549
0.055	-0.021375543366036226	-0.023520318733023897	-0.017137457643206296	-0.011082517189720174	-0.02906283291053651	0.002020903312528482	-0.011301861068287051	-0.008411860175805468
0.056	0.10942831514489877	0.10402815454361317	0.10825381090027648	0.10829859658238836	0.11196954160675926	0.09727820532617568	0.1042036530729857	0.11215149373748781
0.057	0.2289234677113948	0.23184309978212406	0.22013758983349538	0.22091843492017538	0.24174939972455814	0.18940699899592167	0.21723936899670024	0.22675575747194665
0.058	0.31965338464047066	0.32677983979228115	0.3052061713226248	0.30854375300056053	0.3370198441363002	0.2526747438488295	0.2980365071848294	0.31136301483510403
0.059	0.372244112717301	0.3835342224737618	0.35270377986182905	0.35894840510800097	0.391481926680737	0.28470809385979	0.33952472330830125	0.35309596163945844
0.06	0.37831826562017445	0.38403543430456244	0.3616618584029102	0.35508317784805665	0.40677331306236925	0.2804050773328179	0.3389269188457788	0.3460727138386632
0.061	0.33535828214887703	0.3260443994590961	0.3234380284498129	0.2963493764010294	0.3602897784412443	0.22791621985651023	0.2880726173723756	0.2962549656145193
0.062	0.2369988617389485	0.22301261775017972	0.22564595735062665	0.19788586253313037	0.24653636163064382	0.13933427801888015	0.19055273514551377	0.19909776731428522
0.063	0.09836579635599976	0.08940901318073155	0.0933358578406909	0.07629271686031314	0.10501420634300078	0.03987185934911583	0.06746308821918179	0.06889829971056037
0.064	-0.04293851362581126	-0.04371922727412954	-0.04084525539094546	-0.04997958835063267	-0.0403860952570255	-0.05879381381900231	-0.054525069984199634	-0.058917862910460576
0.065	-0.16868142002860945	-0.16748594244396883	-0.1611228358258588	-0.16449299959204666	-0.1771330670415942	-0.1512367406474645	-0.1649067289609385	-0.17080817042620874
0.066	-0.2656480282810487	-0.2632481198645888	-0.25370518237971273	-0.25033845289764733	-0.27941695583542114	-0.2085121314231755	-0.2446439595535131	-0.25309410284275663
0.067	-0.3186424132193536	-0.30988135378914805	-0.30740506200702733	-0.29502442207463153	-0.3332176239202868	-0.2299709455658957	-0.28588652361136013	-0.2942984662163216
0.068	-0.33254381994114535	-0.3219996565134791	-0.32440368164648997	-0.30667126593079924	-0.3540118861657301	-0.23758241852838324	-0.2979849481454327	-0.2998902988354839
0.069	-0.31611521861334435	-0.30496891814126253	-0.3063593181513603	-0.28746891472780917	-0.34000942363124503	-0.22265136287118822	-0.2771504466544653	-0.2732238788943878
0.07	-0.2515456811692214	-0.24845470019191523	-0.23707130179491698	-0.22689799086819548	-0.26724255752718057	-0.16982087179337094	-0.2152218572244203	-0.21385616281311767
0.071	-0.14358500532447344	-0.1477082663944797	-0.129814234901554	-0.12676046424371865	-0.1514641925736737	-0.08318725945650858	-0.11529519248707629	-0.11964972189645906
0.072	-0.025149622332369854	-0.026165800245119004	-0.016597938195772724	-0.01125843606209551	-0.0255159126390472	0.00913878531184676	-0.0032629227414771207	-0.007428028393070085
0.073	0.09874555963133184	0.09961985007390654	0.09962811150772519	0.10518985763437244	0.10274529089091665	0.09789650961154338	0.10391635982717685	0.10606899445270822
0.074	0.21704077916380185	0.2237318212780445	0.20793533980054577	0.21442039348714906	0.228090684224458	0.18612606794424202	0.20493273994272573	0.21345529349986295
0.075	0.29491744551646726	0.30390424942401933	0.2814402919954656	0.28344181774852933	0.3153705974737259	0.2391304695452438	0.27530295125908294	0.2829948292263607
0.076	0.3187429986855718	0.32450320328870147	0.3007205999652151	0.30080070091632855	0.33811650313588926	0.24225267187286084	0.29210928604704617	0.3012279522051759
0.077	0.2992350303604956	0.303684029067325	0.27727231675194813	0.2771493784061953	0.3134183560976817	0.21559741339445043	0.2677308129562085	0.2808427377224146
0.078	0.2411131680939849	0.23749170571918732	0.22890665824251294	0.21298303485836614	0.2579511628433266	0.16356626778784572	0.21068753279966493	0.2189280411909907
0.079	0.1442529225877435	0.13349352532961054	0.14333651736935446	0.1181392862653967	0.16236299327176082	0.08418101557303517	0.11978008286435599	0.11723327868820156
0.08	0.026166855585234714	0.017053920076420984	0.033304398151886315	0.01023917687078108	0.036426527541819	-0.006723044072184506	0.012927981101276194	0.0008771692530207226
0.081	-0.08150017088962094	-0.09347919036050202	-0.07177539793119482	-0.09336386145566795	-0.08274138128205533	-0.0853247846670597	-0.08709242379013708	-0.10112324778968522
0.082	-0.1710766001031508	-0.19043936941243708	-0.16480909864689258	-0.18435695979143804	-0.1868455677738265	-0.1554624993296065	-0.17526784138556636	-0.18393562498224345
0.083	-0.2528617870734282	-0.27328367669571	-0.24379716232512846	-0.25822624688991713	-0.2769708852310061	-0.2152300962042545	-0.24767480319375962	-0.2535148909985368
0.084	-0.31009872272771843	-0.3225285138266003	-0.29813035027493373	-0.29226803973989385	-0.3310885406302488	-0.23631153734416127	-0.2818092662292111	-0.295348392400505
0.085	-0.31551370820058766	-0.3155346230977556	-0.3048630028822438	-0.2782490511176843	-0.33383572302076214	-0.21834273266053994	-0.2745450263515027	-0.2907469507397249
0.086	-0.2733701102682002	-0.26901078590228594	-0.26370435539708653	-0.23779219021086767	-0.2960486358316099	-0.18757277301345432	-0.23707730609445063	-0.2443330205023328
0.087	-0.19642531207064123	-0.19122771070785613	-0.1932994608954182	-0.17000444184381341	-0.22042220265685897	-0.1332971114723391	-0.17014233380834984	-0.1654605457117231
0.088	-0.08476616928339134	-0.07470826130522512	-0.09311731322130719	-0.06490133070608467	-0.10247036306217963	-0.04540776971426968	-0.07280960235892804	-0.05865854797447848
0.089	0.03474954180168473	0.047557629643122705	0.022946034140520797	0.04676990302469346	0.03018981149066797	0.04685092424789564	0.038790589159672345	0.05054112431247132
0.09	0.13170495174113023	0.14262074017998486	0.12496231233217972	0.1377671237432472	0.14441573069574049	0.12181958953979129	0.1335676393113325	0.1374180639083017
0.091	0.21109519316868616	0.21563540750712734	0.20692727489439747	0.20949179334955745	0.2323139947532713	0.17273698172425764	0.20343329207029728	0.20443494647492955
0.092	0.270541819248394	0.268277931488365	0.2649537936979885	0.25407299688767204	0.29318427515732604	0.2030033155425147	0.2464064643333483	0.25236297168522015
0.093	0.2888951585634022	0.2816531996824865	0.2789862784218316	0.26050573909888597	0.30539946306709376	0.20515197405436855	0.25631539106534645	0.26557031185752217
0.094	0.26141800157461464	0.2602591278408928	0.24946510684171583	0.23754329709386288	0.2730779997756673	0.18097711822767396	0.2323702559842952	0.237431395185258
0.095	0.20020249154065012	0.21114761420273218	0.1960464154246777	0.18849854214222925	0.21761819982013844	0.14256122330429274	0.17702197243563095	0.17697837492614119
0.096	0.11742559745456835	0.1312851198217277	0.11599060735940733	0.10989654514766586	0.13388176902499224	0.08080698138328496	0.10138782193987404	0.09768009243064908
0.097	0.017021944930815082	0.028377529553670407	0.014634741221390211	0.015676500030114445	0.026227525189308463	0.00012580061360634685	0.012226742424321693	0.006867016522937291
0.098	-0.09753154999193095	-0.08779462608224252	-0.09412923860819432	-0.0868540850349261	-0.09354957622515761	-0.08193599140240891	-0.08778459154559907	-0.09757600434177603
0.099	-0.19437175708310836	-0.19283127571421377	-0.1852837721589334	-0.18478513327516446	-0.19861712334931417	-0.1545909232703621	-0.17608119959625385	-0.19100815293312087
0.1	-0.24899848669249663	-0.2614453964976601	-0.23849329688105544	-0.24930660378172842	-0.2659672812298311	-0.20137055982211285	-0.23305378242093913	-0.24266405506445954
0.101	-0.27045952510913507	-0.28659318864298866	-0.2625423372467327	-0.2722705943647079	-0.2930340748349787	-0.21838012674248575	-0.2561221292387902	-0.25678347759915515
0.102	-0.25104322604437834	-0.268122794636178	-0.24222851913103313	-0.2549030407238183	-0.27536975487603066	-0.20055716397518664	-0.23514532648970587	-0.23432970287972135
0.103	-0.19045829672050815	-0.2048972123103114	-0.18466207621647301	-0.1947921624252063	-0.21738085755191067	-0.1437108672830387	-0.17921453535520182	-0.1752987591916299
0.104	-0.11746864715689374	-0.12389984325252594	-0.1130757650434951	-0.11367520968482003	-0.13708354385555765	-0.08056486436202034	-0.10815142248701667	-0.09994275546834469
0.105	-0.03907562492386122	-0.03366157628865163	-0.03421481120622568	-0.025656548086191056	-0.049368070070452894	-0.015358575298607496	-0.0277901385227167	-0.017609740794686624
0.106	0.05000430899207615	0.0703131632260367	0.04983554771573668	0.07354169617241721	0.04899430937051284	0.06323539616585419	0.05722292651423686	0.06912277893485248
0.107	0.1347587365722511	0.15929025313716974	0.13597257030155835	0.16199264863362509	0.146335813945228	0.13287478552186888	0.1382417302906546	0.1460589449565978
0.108	0.2045186648223567	0.22399727558379984	0.20177864612470472	0.21912890819827494	0.22174249509279162	0.17782684662046086	0.19875529667278602	0.205476825093676
0.109	0.25233474720448024	0.2606932161327119	0.24282962871597755	0.24897885767420427	0.2733420005760493	0.203726680464069	0.236064769305363	0.24222927830307278
0.11	0.26442050080462587	0.26579176596583787	0.25779274330695945	0.2525068054300098	0.2934607164699635	0.20853567992345562	0.2457012407145071	0.243072204463073
0.111	0.23613722882320407	0.22725816025803688	0.23135717489271393	0.21053679072118353	0.2612564462850601	0.17011061292799062	0.20887103847611518	0.20361358540456226
0.112	0.16659933140315153	0.14605691709534369	0.16272207939948652	0.13195931224924906	0.17801408600621027	0.09875430067293497	0.13559091818508084	0.133732853381779
0.113	0.06972665960876914	0.053214714922136794	0.06995376637945486	0.0445903788454378	0.0759021079212149	0.02803810236787736	0.047169888062512565	0.046188591116631914
0.114	-0.029800956319293526	-0.04168452178771496	-0.02901661464162231	-0.0447387527995681	-0.0259192995261243	-0.04207103379782309	-0.04098495658564979	-0.04266496949003068
0.115	-0.114380301028338	-0.13065398497677294	-0.11242316693177111	-0.12685009118653084	-0.1200305791822883	-0.1113413915721536	-0.11916284312418439	-0.12136901295286352
0.116	-0.17974455921859897	-0.1939588510221899	-0.17578874140741552	-0.1861870476140352	-0.19371398504758988	-0.15733582299631343	-0.17894156786364504	-0.17812701077752371
0.117	-0.2206243976743014	-0.219492299357481	-0.21928072630982506	-0.21181720586466718	-0.2387890624077873	-0.1720380061905525	-0.2054162415911188	-0.20329092323233744
0.118	-0.23245838720616688	-0.22419083757979993	-0.22788285126105828	-0.2138232359791537	-0.24985386390676256	-0.1646120889464209	-0.20754272894040746	-0.20734949753126916
0.119	-0.22487077612908934	-0.21783284507131245	-0.2122755974365395	-0.19744046716161806	-0.23016709253679773	-0.15026882799076874	-0.19027981089413998	-0.1957998211445428
0.12	-0.18368061386819007	-0.1746379056625377	-0.17143971127826882	-0.15582786828512837	-0.18197846978802365	-0.11750733286644661	-0.14430126193697362	-0.15707279465159893
0.121	-0.10935676201057348	-0.09518246240947273	-0.10638014832094578	-0.08573807649370012	-0.10980933489242914	-0.05678198437913224	-0.07705337896766228	-0.08630920014449515
0.122	-0.02241096966362637	-0.009794039996337841	-0.026877799614929292	-0.0024815893632345555	-0.02432072267303401	0.007169249748008501	-0.0023479854368338594	-0.0048585916604654885
0.123	0.08121266999889257	0.07469694808305637	0.07158866445127207	0.07607729452590563	0.07763707697977536	0.067256020348955	0.07862111047198907	0.0812711158222049
0.124	0.18235723449148813	0.16132270043033578	0.16884316510907132	0.14805166431745903	0.18025673664550573	0.12526128471640297	0.1567627724405226	0.16536735944137557
0.125	0.23581507896247927	0.22324035190063135	0.2230003437176755	0.20176970671492594	0.24406452807009513	0.1695915901363905	0.20821317649219537	0.21186902966777765
0.126	0.23845178254184413	0.23723050768347456	0.22816871449224144	0.2196633742852353	0.2562854672782193	0.17945835677490446	0.219642485792459	0.2165938228651897
0.127	0.22064585736733386	0.21435375839149465	0.21192569666387137	0.19809897997824386	0.2335138890171177	0.15553098114444774	0.19612730239463966	0.1959072334822157
0.128	0.17477513727166036	0.17515746196521026	0.1667697846052848	0.16205424993259085	0.18449774762692256	0.12358989375854926	0.15618205454742348	0.15586763065342646
0.129	0.09546598522614552	0.11354930297195276	0.09287340906127103	0.10640366474633728	0.109211324458855	0.07783149053789432	0.0966760878543381	0.0920327419980007
0.13	0.014959198664516282	0.028467753075457528	0.016132752989791523	0.024193902088391787	0.022080780462035213	0.00823315669726237	0.017700725652191517	0.013872448686127125
0.131	-0.05196556730821577	-0.047890369744056506	-0.05310683765662837	-0.052760585535480256	-0.059669373988672225	-0.05374801552802392	-0.059665735097392494	-0.05559585565575988
0.132	-0.12030345816469908	-0.11066846705600694	-0.12249924068158158	-0.11476578205282123	-0.13602465861987126	-0.09850982132503519	-0.12400301152778617	-0.11650738142048253
0.133	-0.18858971508514727	-0.1735361124340736	-0.186300650925692	-0.16615030640090048	-0.2049901511078547	-0.1419858405935896	-0.1757107956084687	-0.17623669401540798
0.134	-0.22774207204767505	-0.21947809864908382	-0.21782312383544722	-0.20080141196081194	-0.24266711772363292	-0.16993782606823823	-0.20714101454630002	-0.2118352205891209
0.135	-0.2288254908646772	-0.22309680509916505	-0.21597364395559004	-0.1996299602604008	-0.24235497383401125	-0.1646999010465724	-0.2029001297679824	-0.2089367958277072
0.136	-0.20213325701462187	-0.19737543120259876	-0.1865144341625451	-0.1703078910923761	-0.21361280325356813	-0.13403487204489353	-0.17178286368751539	-0.18182889912978464
0.137	-0.1444181375615401	-0.14656748082879476	-0.12976899214137255	-0.1228716082203243	-0.15239645430898524	-0.09053877333513013	-0.11809552609268702	-0.12783536660186207
0.138	-0.05007907026492262	-0.05949110241772032	-0.04768570459101333	-0.04938196091332111	-0.06198067904793785	-0.030115947464141035	-0.04301014973647596	-0.0445539171966927
0.139	0.048336954122990196	0.034491277538405175	0.04213786601122159	0.030812101775250154	0.03322238783485455	0.034205455544193006	0.03562797115335261	0.04848117715760888
0.14	0.11817626354476539	0.10905570983206848	0.10842278978999166	0.09834092629127607	0.110680350554893	0.08539213225868791	0.10272731366009556	0.11574593919172126
0.141	0.1643719962487005	0.1625441105213384	0.15381472928732454	0.1567582563173047	0.17021831961309483	0.12926485195197118	0.1536527337558379	0.15981912283914965
0.142	0.19733843564519896	0.19905838747181548	0.1928789558591952	0.1939933755359267	0.21231252613642537	0.15375812266378167	0.1853031204934025	0.19173667936509242
0.143	0.20701347852868537	0.20575134289361685	0.20750696961301454	0.1940611101025115	0.22487120187318232	0.15172174369522778	0.19026987416835223	0.1911771048549056
0.144	0.1792286133551542	0.18623779236705582	0.1840742356109156	0.17679369770473866	0.2061924323523974	0.1364637471177493	0.1723348179099668	0.16408995842571478
0.145	0.14557565461276642	0.15283034069157556	0.1456559638340398	0.1393983679321718	0.16698723227549525	0.10235096887442537	0.13370492574833406	0.12822811526212652
0.146	0.10861994809183928	0.0908353020000749	0.10226516685408746	0.07157440238637193	0.10783818676546285	0.047686746958205045	0.07387716140419971	0.0796622745190783
0.147	0.025899575622146186	0.0036182445922727973	0.027637297174554917	-0.006825093589811818	0.024791421910968243	-0.011764789324975319	0.0016139496556403258	-0.0033567397771102985
0.148	-0.08258784294345421	-0.08747752799497503	-0.0700911224216998	-0.08301957725826019	-0.0699704249084875	-0.06993939462618504	-0.07164398685191718	-0.09528774513496892
0.149	-0.16155883346840225	-0.15764660043255635	-0.14390153305760445	-0.14589860258767173	-0.1470204808955372	-0.11629764356932705	-0.13440532223031537	-0.15683414758083092
0.15	-0.2010301600295414	-0.1989547730635048	-0.18663102078433	-0.18885772005674484	-0.1996555450083386	-0.1477066930398537	-0.17598471052739367	-0.19031553695269193
0.151	-0.21320044075826425	-0.21466009923032625	-0.20515619102105848	-0.2070971356484979	-0.231075569996336	-0.16546032849012715	-0.19495711347945865	-0.19613125941438309
0.152	-0.18949987926138256	-0.19367977193867927	-0.19255978303363872	-0.18865069760758046	-0.21707886144116548	-0.14946332428605089	-0.1840555292338971	-0.16807592166185065
0.153	-0.13731764388391493	-0.13872905609487837	-0.1511615546984958	-0.13885929327023072	-0.16276019251890445	-0.10274201399191792	-0.13957597806343733	-0.11561128797935843
0.154	-0.0828405740669943	-0.08245591220614276	-0.09258301492418194	-0.08087713495029078	-0.10227754708762321	-0.05379006971665887	-0.08488038381050232	-0.06622581951164949
0.155	-0.026358076119095977	-0.03084877602320409	-0.027801107104914572	-0.02233175434530416	-0.03537951653782305	-0.0080711768459407	-0.02724440408232999	-0.016688165934997827
0.156	0.045827951124140835	0.0369272530163912	0.041962009338071274	0.04074141161428694	0.04326154959587441	0.0403919021936471	0.03674135692456909	0.04855567509867116
0.157	0.11008823070845869	0.10581223640819984	0.10548591269604056	0.10073673229886276	0.11284434744818465	0.08383900131832803	0.09611590359230107	0.11198007597828875
0.158	0.1492260773569725	0.15319605566291847	0.1478802371557858	0.1448497379064807	0.16317935649810433	0.11653902506267928	0.13873796037538927	0.1513798377096611
0.159	0.17812674518199723	0.1873898731019884	0.17270000855395048	0.17679207510962475	0.19677356623037162	0.14179150480736086	0.16122956496016994	0.17383477769510125
0.16	0.19069308771980517	0.2042230865896722	0.18131601171498188	0.18720319351867865	0.20837808879289643	0.14781197161440746	0.16573932516598963	0.18130342803536345
0.161	0.16929612373542757	0.17564216978635297	0.15737275071371498	0.1571666373827934	0.18274317422380343	0.1231333254980642	0.14496994475067665	0.15513976720796638
0.162	0.10668097580346078	0.11517820671575521	0.10098712164424214	0.10561748094392474	0.12334673511033165	0.08329029088682464	0.09797455898301652	0.09532548103107594
0.163	0.031533082091252905	0.04899530502514715	0.03406675272462348	0.04881092111802096	0.05275983153743076	0.035685553243156164	0.03717128110204728	0.02642381208216225
0.164	-0.035653353131281804	-0.02516230440826296	-0.028834865309217278	-0.019452824727630713	-0.01870393369825802	-0.022484882607905352	-0.026557621744137547	-0.03709299500183168
0.165	-0.09987088820205184	-0.09765223115583903	-0.08900997307184473	-0.08845752639810493	-0.08927561466932184	-0.0798683194055096	-0.08614737896903513	-0.10072923300730471
0.166	-0.14369990426193605	-0.14426604789023217	-0.13928532845546324	-0.13140986278126882	-0.1475454960676426	-0.11356814501526886	-0.12911635961872736	-0.14005254317438057
0.167	-0.16501715252706317	-0.15845924419072394	-0.16393238164378982	-0.1420904527274649	-0.1762225906020469	-0.1138810144313928	-0.14529215343258545	-0.1518289578504391
0.168	-0.17062153705198937	-0.16096804013967575	-0.16486470837664785	-0.14432383181445177	-0.18197780065522362	-0.1118501928552283	-0.1452105034596672	-0.15446974441907885
0.169	-0.14949438713163465	-0.16100705715230626	-0.1440515488989426	-0.14919078002208835	-0.17136001531861858	-0.11876608470104247	-0.13807434985341227	-0.14029574367633155
0.17	-0.10723681722350353	-0.1349597235310034	-0.10685114277585818	-0.12369045929498305	-0.13708893582884477	-0.09896587699106701	-0.10902707313128683	-0.10347199661185408
0.171	-0.056842787136385645	-0.0705167859057954	-0.06111007674724557	-0.0607017901978762	-0.08159238447266978	-0.045542912043209906	-0.05586084146515796	-0.045558150932253044
0.172	-0.0020064560456214213	0.001982659473985518	-0.006208689724987429	0.008086288485892115	-0.017484158392331608	0.009446231784805942	0.006539236600977566	0.010833460920985595
0.173	0.06012708438695063	0.06419560642655374	0.057558599788657766	0.06751595050003947	0.05376486465077171	0.05441335908764603	0.07103955612757598	0.06420871789621119
0.174	0.12817780068357432	0.12405135913669338	0.12417548256519703	0.1170602132407733	0.13190358148757075	0.09918158404872036	0.13077165398198348	0.11994593136039615
0.175	0.17394232641576735	0.16543236828421418	0.1698321398819156	0.15009555860356102	0.18315621249966502	0.12947918426611113	0.16741950993716043	0.15374384948342662
0.176	0.18214962706330085	0.17167236970660402	0.17753426492780172	0.1544086302961557	0.19067859781604685	0.13000253566830572	0.16943154746706238	0.1613760092045416
0.177	0.16355921164162898	0.1583434510483859	0.15920231568854037	0.1446205049146232	0.17431136865443306	0.11514878353616818	0.1558219637595435	0.15072331872253608
0.178	0.1291549448533047	0.13339159971476555	0.12594953174017084	0.11984765764688948	0.14018901997549332	0.09125277833778517	0.12831789619220355	0.11895493209564953
0.179	0.08033793551660637	0.08609998622618674	0.07809086884618763	0.07507905071356713	0.08890105390953341	0.05317271742481776	0.0837318540662685	0.07133878163698022
0.18	0.017411357197459957	0.028313102941669787	0.018577693404583193	0.02602239014403254	0.02735861574420925	0.009541612757327409	0.03318166073703377	0.013458421477496582
0.181	-0.03552802275166243	-0.026598433907563012	-0.03503743003101924	-0.025674514581225067	-0.034427416603980375	-0.027958475579452035	-0.020686168509540134	-0.039815648323723196
0.182	-0.07744916407418022	-0.08697011883602652	-0.07483160310695709	-0.08138416633275414	-0.08754232960952278	-0.06698681265465029	-0.07125262763997155	-0.08385476895685101
0.183	-0.12729647686735684	-0.1416764419090938	-0.11965634850011958	-0.13191477613340358	-0.13760628947968687	-0.11068308742875475	-0.1235103191116666	-0.12972229604486318
0.184	-0.16726008267152406	-0.16914958521131496	-0.1590251779819866	-0.15671883974235684	-0.17365298237041799	-0.13207519953336674	-0.15988478628514147	-0.156224983264433
0.185	-0.17737039952434397	-0.16897061658690804	-0.16681523321717398	-0.15532070272773474	-0.18079000673750587	-0.1243847122454775	-0.16138842012514756	-0.1567547478591229
0.186	-0.1615399895683517	-0.14934388848245286	-0.14979921410431704	-0.13787884535522005	-0.16324217668456048	-0.10672202388853515	-0.14641400411782846	-0.13934285215486938
0.187	-0.12009548065915128	-0.11220809786372264	-0.11215844240461992	-0.09984964037098598	-0.12133602214672551	-0.07854898763796188	-0.11289411646183466	-0.10141698687998672
0.188	-0.051851989770408176	-0.0521955807426958	-0.04685681907642686	-0.04412029981932475	-0.05330077135234151	-0.030587037856720536	-0.055293217206680526	-0.043849433268411224
0.189	0.021594836569200977	0.017944775695088996	0.02151037298444829	0.013791173208510052	0.02181008984904561	0.024331054946686647	0.005975830263637403	0.02265103537273567
0.19	0.0745871054088295	0.07503077437572697	0.06789209658380277	0.06887528063138844	0.07479644708738652	0.06650729171563852	0.05566748182231334	0.07430741738263053
0.191	0.11371844499769126	0.11429081192973876	0.10433719654593647	0.10654221178184337	0.11220410987487366	0.09230205915064997	0.09172514401970311	0.10986782546743933
0.192	0.14431846481861715	0.14036970670932533	0.13462089663861168	0.12445094382316656	0.14441383979915662	0.10333327058346772	0.11757987969800218	0.13273386332945394
0.193	0.1483338553345767	0.14942349617481443	0.14237275274224231	0.13152486767804902	0.15692524146679296	0.10320721362028203	0.12748884632513588	0.13394380979091822
0.194	0.13045032762840741	0.13828121672051633	0.12554209747862674	0.1221833013280836	0.14375037382782335	0.09482123640080273	0.1146438687306689	0.1194668185182106
0.195	0.10710120369251815	0.11964857154320649	0.10002406145611273	0.10631534960494443	0.12069802174364767	0.08003853550963559	0.09276237061903245	0.09952182145126406
0.196	0.07275630141391959	0.08360312067092417	0.06511050222393026	0.06604659077950985	0.08258998545771755	0.048245870593292633	0.05469073026539818	0.06392253211830132
0.197	0.022270232659439167	0.013315095411650858	0.015742719268989326	-0.004971143806011569	0.016127278725967312	-0.010560564245836256	-0.008292576453744864	0.009966160582420235
0.198	-0.03692948365831972	-0.0575782969001092	-0.040356987600277734	-0.06625101603659914	-0.051122621777996466	-0.0623218094746341	-0.0642686890126688	-0.04832450537778507
0.199	-0.09843457178521559	-0.10450570208595888	-0.09392686397722814	-0.10031091481545552	-0.10242476216103308	-0.08272974779453454	-0.09953909816315722	-0.0999608073786945
0.2	-0.1461845684908311	-0.14063289723336853	-0.13112663618110434	-0.12351770704821963	-0.13998179522724272	-0.09822598873745796	-0.1204176518787702	-0.13543717773798172
0.201	-0.1624529959971193	-0.1592655141934083	-0.1466932261316244	-0.1371580818797626	-0.15636889871635393	-0.10990424769537187	-0.12764293336123583	-0.15013501785240663
0.202	-0.14659831861554212	-0.1425900926732292	-0.1363079451874699	-0.12188005667697968	-0.1452566013233772	-0.09379967596954374	-0.11413599116047429	-0.13456008317994164
0.203	-0.10819873950197606	-0.09992432007771491	-0.10359785867404174	-0.08601281759256633	-0.1124371932147262	-0.05935374245775719	-0.07871495644437171	-0.09406496931852508
0.204	-0.0649601078032146	-0.0661132686000187	-0.061074037166016004	-0.055260966848027566	-0.06930304714871295	-0.033693090422912186	-0.04185827699199461	-0.05654153318456999
0.205	-0.018382323178874643	-0.034899397950784374	-0.014913438562660197	-0.024143857903959204	-0.02159797323280228	-0.013030557039741727	-0.005944920201908279	-0.019977810717309277
0.206	0.03239393856155534	0.022174072004322695	0.03203696825422536	0.02782857169508093	0.030888566325321345	0.027620407072592345	0.03809687775942228	0.029176876349722325
0.207	0.07511136367625525	0.07789527147172366	0.07421508312083444	0.07915602478548889	0.07813666012800956	0.06604903195967224	0.07741227449979135	0.07344527083472534
0.208	0.10721097234150449	0.11299734070545057	0.10191134874517555	0.1131076098270934	0.1096530439308691	0.08648917607554926	0.10350282771676414	0.106314461810249
0.209	0.1319107750245759	0.14003630821564783	0.1217268921522865	0.1394950715364001	0.13926164487711945	0.10849412608138684	0.12847338022304736	0.13157553932898408
0.21	0.14707064588675925	0.15261386320453177	0.1355594173500844	0.14592104575121184	0.15721764649318143	0.11818460482236934	0.14005253509285245	0.14043070204699304
0.211	0.13292564687853342	0.1295137022185665	0.12650329807999688	0.11766230348060265	0.1418512511898196	0.09728092284642934	0.1191461473949364	0.12093730730102573
0.212	0.08846574651007617	0.07524789926020903	0.08857669265890986	0.0683603439735592	0.09757576057231016	0.05248029935245668	0.07474024577427191	0.07456284943598228
0.213	0.03875781815320513	0.022586864660579672	0.03615396100874869	0.020305768132315875	0.04022013431951296	0.01117208862421719	0.023963588451800483	0.026924716053246218
0.214	-0.013208307806353044	-0.017104162853580584	-0.018883284723189057	-0.023275955803363477	-0.017504963231712595	-0.022194170835576673	-0.024732678836152502	-0.014690223838652105
0.215	-0.06848116411941277	-0.05730624997443633	-0.07035911485865796	-0.06209571794375053	-0.07387002511109929	-0.061746571067823476	-0.07092993425409296	-0.05644530870817882
0.216	-0.10693665182291857	-0.09307456134805715	-0.1025979347393116	-0.09161225300038678	-0.11263078627263609	-0.0856860395430578	-0.0991844932354265	-0.09024366310922805
0.217	-0.11967970012456457	-0.1127163516767908	-0.11127152536225701	-0.1087919314106168	-0.12586621962280176	-0.0893593444607323	-0.1075462298633927	-0.10899711884755932
0.218	-0.12204801786583235	-0.12422754368228656	-0.11379208990872178	-0.11654432001949218	-0.12892321204244928	-0.09019996267132337	-0.10803164355189929	-0.11515506140427449
0.219	-0.11610279457534418	-0.12364038078290401	-0.11069264938965707	-0.1122441251575234	-0.12497092287601966	-0.08758665838241564	-0.10378316206865819	-0.1101190455733686
0.22	-0.08821186457034756	-0.09613156983307079	-0.08601285249524789	-0.08520054744584638	-0.1032591283624696	-0.07040891322128395	-0.08473938581843131	-0.08058862804629878
0.221	-0.04834653127780812	-0.04575982497483938	-0.0530898822277583	-0.03988058776591702	-0.06537593473151775	-0.033015896864679824	-0.04605417967743977	-0.033636484737427884
0.222	-0.011581453666445375	-0.00300054639372503	-0.01495516160973107	0.0028726398488250187	-0.020589759161183885	0.003341575715238535	-0.0038612504264189645	0.002978284754124827
0.223	0.03891161214178607	0.034931720785528794	0.03555576156016784	0.03896004231159676	0.034037901181029354	0.03371835667137822	0.03919670344667338	0.042974390403960734
0.224	0.09813707026678252	0.09128619163101356	0.08500010323144118	0.08286871312378104	0.09021798030437427	0.07273312088587996	0.08263003304241846	0.09423284771034116
0.225	0.13113524925318526	0.13103476714548862	0.11979539049741622	0.11315317381265848	0.12856546264244567	0.09795171180060815	0.11239603105793501	0.1236781871941037
0.226	0.13314468114657207	0.13315861764445633	0.12703464938032588	0.11386775680792481	0.13571614524259162	0.09195088768383124	0.11415933397260306	0.12321610024849504
0.227	0.11619333610705335	0.1174765605835319	0.11123492848437114	0.10332015404916503	0.11948929584577404	0.07679252068760638	0.09953195171438427	0.10454570426038912
0.228	0.09089655131266838	0.09194874374081542	0.08319972870506846	0.08366372925557689	0.09502210793585983	0.05914330416336168	0.07699039266946832	0.07767489624665189
0.229	0.05572311351131777	0.053903745195741204	0.04859979692039291	0.04922642501097396	0.05631250396490843	0.02843377210605992	0.04134406804946034	0.042167798503717054
0.23	0.008038043123519323	0.011920161314045295	0.008810529575196999	0.011224285262418917	0.013200298291064175	0.00038144246914852034	0.0075832383811790735	0.0009915493882091744
0.231	-0.03090750997206067	-0.024666415562515795	-0.026122309286004255	-0.02250872533058745	-0.020092545131276212	-0.01805251838387002	-0.021835784113536805	-0.03446156819412002
0.232	-0.059604711481583084	-0.05967767988594478	-0.05462918713332833	-0.05791500914738813	-0.05380100649432027	-0.041283488647885946	-0.05376493613346203	-0.06621740103783064
0.233	-0.09385916857592196	-0.09570898821113959	-0.08801407428909502	-0.08817245185470568	-0.09173526230431538	-0.06738991432080146	-0.0847485233855753	-0.09466510995755618
0.234	-0.12079198132794446	-0.12598274835451267	-0.1085970202944904	-0.11104886703272192	-0.12041997899647243	-0.08814882338315541	-0.10534908761387847	-0.11646092138007147
0.235	-0.12396962260732287	-0.1318274518664949	-0.10709049649730486	-0.11752731651127157	-0.12647502765508506	-0.09386834306606787	-0.11051825761058004	-0.12010313790629289
0.236	-0.11470804635416212	-0.11493582274143573	-0.10008195829043345	-0.09991434547613189	-0.11553407506547969	-0.07910119217711886	-0.10005633397784931	-0.10575279594263316
0.237	-0.09236158054581971	-0.08093605665729314	-0.0790650521169704	-0.06902043382268214	-0.0877549850418372	-0.04981153405241452	-0.07074062659906212	-0.07843520618342167
0.238	-0.03874405603722598	-0.02763437160073547	-0.03013307974908314	-0.02466201520173082	-0.03465168959619384	-0.011795536573408729	-0.02563850449685784	-0.028886368549342206
0.239	0.019078610353570804	0.025491872705081044	0.021417432390192705	0.02001315847826476	0.023626145832999813	0.0242377832276798	0.022745213023230786	0.022903969645640544
0.24	0.0513084488802524	0.05717082955540882	0.05893151237392132	0.050540224818248526	0.06575958772071262	0.04966855157524035	0.0595183951541164	0.051754225564170996
0.241	0.07629866688675785	0.07453558559526435	0.08412042125798462	0.07246405560278456	0.09601234500509669	0.06590245627278557	0.08345461373590361	0.07173739747089276
0.242	0.10060519151489276	0.09170939865102982	0.10194393428981594	0.08837984270934016	0.1143553300252502	0.07258634980838936	0.09621207307060466	0.09221547640402436
0.243	0.11138827856210301	0.10050341866627518	0.10972130233167199	0.09423075348349563	0.11665574055508272	0.07285337744724185	0.09674667976636347	0.10216562937808321
0.244	0.10625472254821552	0.10076829428037087	0.09953679639188692	0.09213688432781339	0.10739981732368771	0.06976456311832731	0.08720929940096982	0.0975643817765957
0.245	0.08298957157063042	0.08877042760667969	0.07657983925030573	0.07693922935824013	0.08511310616312075	0.05677597447113037	0.06866289507503354	0.07690041387700206
0.246	0.048991031092245715	0.05556967720245427	0.0426367705153782	0.043447466351815525	0.05116741793313657	0.03315102510543493	0.039386008603104206	0.04292956796193201
0.247	0.00895041977411382	0.007559889121583537	0.00349649407599457	-0.0006404299511775987	0.005874653631091659	0.0013575683483385364	0.0018400713513475695	-0.0007042157330657473
0.248	-0.037471059215857055	-0.040843036615404574	-0.04237021928643375	-0.043888351160629197	-0.04735945889733016	-0.034625787654982754	-0.036284236261082015	-0.04358360043891238
0.249	-0.07716169898622754	-0.07471635380705262	-0.08214302859508636	-0.07597199612315714	-0.09082575128859065	-0.06485713442800271	-0.0737791755101998	-0.0729835488621411
0.25	-0.10364577355526315	-0.09852386710318517	-0.10345323443990981	-0.09846312535605914	-0.11658935339422691	-0.08321744266584707	-0.09859408332329887	-0.0944914269676917
0.251	-0.11124992443310165	-0.11183149559029677	-0.1120762893614267	-0.10548228083782261	-0.12254997774403997	-0.08730839963362115	-0.10547607711738075	-0.1022163427890511
0.252	-0.0984303063608572	-0.09527180738117551	-0.10199972300900989	-0.08676372644203184	-0.10865500669177793	-0.06956760450092421	-0.091497734585613	-0.08621866153039538
0.253	-0.06683331408855321	-0.05774391733868726	-0.07280180556759261	-0.05240241810338551	-0.07554457757160675	-0.036984498570050206	-0.05823342488722585	-0.055674947615970374
0.254	-0.03443721785263203	-0.03566304289894242	-0.036257648048826516	-0.030146936704051677	-0.03456083604235922	-0.018157805671459207	-0.0297733116872099	-0.02821403771260242
0.255	-0.01010179825786665	-0.017283620855430802	-0.005616658566660202	-0.010850051140433902	-0.0013164856512048752	-0.004265190908118316	-0.0032883025458419176	-0.005960628665033156
0.256	0.024712704691420794	0.02106062538293808	0.0237877389229967	0.029121880598961866	0.031684188457701504	0.025216954324235635	0.027825688254055115	0.027847242289557348
0.257	0.05444621934039779	0.05817608411192414	0.054267530224064685	0.06334485288245392	0.06265388019874275	0.05025558361774312	0.056913850241677756	0.06066232333966138
0.258	0.07638792433406698	0.0781668712018638	0.07763755403104591	0.07922422868466575	0.08384324851837485	0.060581967982073465	0.07912774306979964	0.07744003693309898
0.259	0.10002211692968045	0.09339065670227516	0.09443383090118285	0.09132217558668515	0.10545630620617952	0.07239643309359785	0.09475873724965024	0.08931907400903497
0.26	0.10913743878955448	0.10746149375828148	0.10091778598304157	0.09953943376542453	0.11716225303054997	0.08360862936195432	0.09982549010416503	0.09590080160570383
0.261	0.09481420911967538	0.09452507111048358	0.08797055873221947	0.0878535983836837	0.09938553281277315	0.06932637568660129	0.08153570021196352	0.08138756560439098
0.262	0.06276867999896768	0.05699806631173341	0.05414202503346949	0.05194978610001655	0.060090267847760115	0.0356130073867309	0.047277031348430025	0.051474974196700024
0.263	0.026291424490525146	0.019626392743879794	0.015016351910110848	0.01654274631555156	0.013770814340838313	0.006475369946562818	0.010515716787490947	0.022141817461915465
0.264	-0.014353056143153313	-0.014780891840231089	-0.02043055343635232	-0.012390394721198716	-0.027322002654092147	-0.018081989796518556	-0.023221523748079783	-0.013340554626395272
0.265	-0.055643955328197936	-0.052434362761864445	-0.056766872536321615	-0.045663050947642066	-0.062253188391901845	-0.04634238185003226	-0.0544608322306076	-0.05082667641773603
0.266	-0.07381342366666782	-0.08298918690039153	-0.07456111307031292	-0.07801218724174774	-0.08629008754335415	-0.07101494080445844	-0.07557686914193758	-0.0740581248580236
0.267	-0.06830876510736902	-0.08767367346797447	-0.07346457320608579	-0.0921243298202629	-0.09180085804770062	-0.07513552945614702	-0.08406504440686248	-0.07400400789469687
0.268	-0.07192417231272917	-0.08143984191926544	-0.07895466732348218	-0.08457552032292245	-0.09271111096139859	-0.06719011478478752	-0.08375378190942433	-0.06946398498616944
0.269	-0.0837722800653232	-0.08266523536522555	-0.08249501891541516	-0.07643188214732494	-0.08980417952655392	-0.06052169773542947	-0.07468212065152663	-0.07361040613955888
0.27	-0.07740548195165872	-0.07307639211294228	-0.07059041699034595	-0.06267152288311395	-0.07396407284093007	-0.04647389222637604	-0.05817126381679035	-0.06508628615866724
0.271	-0.048905518813414	-0.04071994514872847	-0.045806721722985416	-0.03307211710319405	-0.04487389402195987	-0.022529895656634304	-0.034224666843978506	-0.03849810194611991
0.272	-0.015113980797693206	-0.006135489474467533	-0.012754240280672714	-0.0026754719649736635	-0.01229402869246239	-2.4775597269038256e-05	-0.006964097454266132	-0.004775270179070281
0.273	0.017820486411630254	0.028687513859317608	0.025842009863949366	0.02793298750221053	0.024508671881568952	0.024211872870198374	0.026046059299593142	0.027721642291915403
0.274	0.05845944665495126	0.06896694164116453	0.06447198841745833	0.0630141550773638	0.07087977660162685	0.05587898374575709	0.06049046547784218	0.059672925926294834
0.275	0.08661380514961721	0.0969254762435668	0.09023030899673659	0.08839200032820066	0.10085704975441473	0.07680846688948792	0.0857735729114652	0.08390421469761777
0.276	0.08790102605779883	0.09785211609186953	0.09338665224785822	0.08869156601847185	0.10125428472650914	0.07282350190224976	0.08679093850585268	0.08337285109931311
0.277	0.0761836821959311	0.0815969592790075	0.08274829476548627	0.0731315968758599	0.08877386152294074	0.05717973929242973	0.0714077742124276	0.06762659139051765
0.278	0.06199442654670204	0.06395531679475305	0.0676756221522037	0.05521802941805408	0.06979402828637334	0.043791927350993236	0.05604002996943093	0.05661207856336281
0.279	0.03922350198994452	0.03453562178661074	0.045200616585778924	0.028517847435840862	0.04083048759173716	0.02088782163807432	0.03220341293274019	0.03281435293416606
0.28	0.004865422911522522	0.00246609646406421	0.014494817050780298	0.0002413940303466857	0.01010662522988597	-0.005222685135837507	0.007438607080678454	-2.7015764293948467e-05
0.281	-0.02205780139589176	-0.017582484614489025	-0.012302855437163942	-0.01684219745495793	-0.012355609394243293	-0.01705165791151958	-0.013334372868656732	-0.018745828868510093
0.282	-0.0383954477618125	-0.0386613960383143	-0.030856701000950837	-0.03844736028355379	-0.03368963204686959	-0.02765310770404111	-0.03284864935064623	-0.04037680527744722
0.283	-0.06264329450135533	-0.0701238632288299	-0.05629584472929066	-0.06525719408459052	-0.06254378688737501	-0.04879373657142469	-0.05661669309390532	-0.06749653983130316
0.284	-0.08507857860681411	-0.08997661388358644	-0.07952796771126001	-0.07972117731087815	-0.08845576218736002	-0.06606336821517732	-0.07854356469218324	-0.08305357156069189
0.285	-0.08417419019489329	-0.08249811208337349	-0.08734259782731725	-0.0783870605469287	-0.09658953358537031	-0.06375780640537143	-0.08029537337206404	-0.07721344146023837
0.286	-0.07382797416915461	-0.0772452239802988	-0.07690828497678377	-0.07297525562475146	-0.08571507592269054	-0.05880503283268182	-0.07286361358370044	-0.06578725712615455
0.287	-0.053781727790918055	-0.06640546234499792	-0.05018930705240737	-0.05940345844126846	-0.06338288457417643	-0.04795038598129997	-0.05579954176633384	-0.05030069784316123
0.288	-0.015257669155600406	-0.02850621339854775	-0.016285866879216845	-0.021378592833699497	-0.024606229252289367	-0.011949066304369212	-0.01791298467709777	-0.015651277583512813
0.289	0.01947447598711368	0.01796842948416295	0.016144959229677562	0.018478565961789227	0.02182670866857856	0.025313622483829776	0.02007693241306483	0.01914197401998213
0.29	0.04240965433417976	0.04840514992916915	0.03725196453563867	0.044145191349173864	0.04778790946382476	0.04280941939071532	0.04340215148581438	0.04112549064772924
0.291	0.057439615565212106	0.05740483083902461	0.05631660235100013	0.06001529101197667	0.06306971670670085	0.04752363977671633	0.058913755822815786	0.05184729823887079
0.292	0.0691528624649472	0.0665949569031138	0.07420622791370984	0.07069951291548777	0.07951398878635535	0.05542969813449916	0.07099850101522416	0.06249357388504205
0.293	0.07801690520401297	0.07662884504091365	0.07764677410019877	0.07936570367209532	0.0863025309100937	0.06315748926341515	0.07894016252971106	0.07417671746980116
0.294	0.07112523011304409	0.06824808970177243	0.06883820798419962	0.07057663870119162	0.07924964774511907	0.05262629647277863	0.07133781322509704	0.06634997400952894
0.295	0.05602897992871667	0.05048790960341414	0.05731854134856392	0.04901949747088677	0.06636553134424344	0.03869330495664827	0.05347098389459946	0.044282535493169746
0.296	0.03824930302697184	0.039677583750005144	0.037971194193942084	0.03160283011727075	0.04760418968772034	0.030955484338625463	0.034969547890732325	0.025307878676864067
0.297	0.010052781234582893	0.015832498741214625	0.0052954003418658685	0.006994436886750624	0.007353123997689592	0.006281886206620242	0.0036275011372699194	0.0015627241011999075
0.298	-0.022913854583289563	-0.023872806409329053	-0.028487681536124153	-0.02785075167196289	-0.03933185698161737	-0.02771070599748625	-0.03215749010453427	-0.028485694413039823
0.299	-0.05260650846423203	-0.05241354655083209	-0.059536666675987074	-0.05594560458408487	-0.07008694916154323	-0.050235667732957984	-0.05939096495052258	-0.04990831649375329
0.3	-0.07349807913318579	-0.061653174333769906	-0.08709130307563338	-0.06696240251483143	-0.08823821128732992	-0.059247638850485757	-0.07368001500273572	-0.058766317939387906
0.301	-0.08501305124399061	-0.06737772249857334	-0.09625575745224178	-0.06921932230179059	-0.09411541709071054	-0.05899741354199576	-0.07748189974654236	-0.06521776151667494
0.302	-0.07291318702562727	-0.06961019134480112	-0.07835471801150999	-0.07019720538608071	-0.08038153780514774	-0.052677201273756705	-0.07036929461502463	-0.06367417750954636
0.303	-0.04651554561277703	-0.05000663917029854	-0.053004466760902966	-0.050851544324292404	-0.0538654934460531	-0.03380056476537112	-0.04588558870227057	-0.044961403800958304
0.304	-0.03334939922783669	-0.029548006118126326	-0.03715777359590393	-0.025284384202227606	-0.03310086884027287	-0.018110420792466463	-0.026045072912954676	-0.027618084351414423
0.305	-0.02014650309021422	-0.015501332112126438	-0.018387288420746217	-0.010310144950672333	-0.017010204190840716	-0.009674157976838087	-0.013276739335173116	-0.012738116459829123
0.306	0.006072185940501647	0.004424831540698292	0.009207752940505503	0.011865172360447719	0.010278455834095784	0.008994365942788138	0.007656238894674039	0.009164067864990492
0.307	0.03319522067745085	0.025291376446862926	0.03538540866243494	0.033953588738924734	0.04137773053116744	0.027530048329637926	0.030468062716137504	0.03265488600976453
0.308	0.05082229920692807	0.0456426178690461	0.053025323368588964	0.04930052300330767	0.06051523183979251	0.039317911949366235	0.04813786288076219	0.049851611987385296
0.309	0.06759787089007496	0.06528230221933731	0.06713366373947639	0.0656814138239111	0.07423150739132771	0.05255572518354696	0.061161465005420294	0.06139659435832824
0.31	0.08277594307128523	0.07752403883651698	0.08134330475043564	0.07526185289355256	0.08559572410726507	0.061928187505262015	0.07142445406954033	0.07192393698029702
0.311	0.0838113670055032	0.06726270579233161	0.08240529862630364	0.06021344990318938	0.08300348057759563	0.04947966323714393	0.06615416148330493	0.06749234632444423
0.312	0.05624843717972519	0.040505569661449733	0.05836538512515382	0.03597105019105654	0.05696335128793377	0.02529006487433157	0.044269586789028516	0.042421035187712626
0.313	0.013020680216710887	0.01665382757110575	0.018768624946042478	0.01857959521088365	0.021161013260914813	0.010263471259807524	0.01865307514299922	0.013332138860010907
0.314	-0.019971516316302725	-0.0028809706865581867	-0.014986312105210972	-0.004231782805604189	-0.008700808186799946	-0.0066653026907442315	-0.00890982090480556	-0.008975996292475702
0.315	-0.045085947644171925	-0.027538644432199107	-0.03868606126993969	-0.029230899302176018	-0.03604248112070009	-0.029101419534465683	-0.03270556774849655	-0.029895263979063582
0.316	-0.05510499017041193	-0.048647943822781314	-0.053857000689226074	-0.049783554823228195	-0.05551711017429213	-0.04374783542339654	-0.048635359789016536	-0.04652961899130686
0.317	-0.048860180773783485	-0.054919394657903575	-0.05551959208969442	-0.06233173516025108	-0.062890181961612	-0.04830024543292315	-0.05749559564421187	-0.05023756004595203
0.318	-0.043857427205539506	-0.055939107312037904	-0.05312039650274997	-0.06507955708699105	-0.06913259873770847	-0.05223813444295153	-0.06020962154209949	-0.049497205092385886
0.319	-0.052460740018407906	-0.05779307088518436	-0.057756445487432174	-0.05918454555559151	-0.07567024907780222	-0.05168981413420368	-0.06038333821830713	-0.05175225973707907
0.32	-0.04968299146897042	-0.0482574389501467	-0.05056877429506625	-0.0447782806454121	-0.06485481886151749	-0.0382463884576913	-0.04943942420359115	-0.043532303216035635
0.321	-0.030626026950264562	-0.027733136073418315	-0.02914568148504175	-0.025155173727113497	-0.04071790883924195	-0.018875812346257712	-0.026356594126891803	-0.026520575943582755
0.322	-0.01695420690466005	-0.012101079801457682	-0.01282534791603796	-0.00517145542554398	-0.013794008277992492	0.0010884666708804959	-0.0013601156205305818	-0.01374787320204317
0.323	0.009715270937868633	0.012295023756053165	0.012728288079711618	0.01901500692377015	0.021168677905668964	0.0207630588957736	0.02752083288224635	0.009871724118845591
0.324	0.049646756741248674	0.05730746413875031	0.04303179428350626	0.05272018226189125	0.056505663431382185	0.04486754979642446	0.05350675512320455	0.05039493678534805
0.325	0.07217788640982055	0.08591035880161699	0.05929049447564633	0.07438376154240313	0.07473583597713032	0.0612052929616328	0.06681595276503845	0.0764385774726768
0.326	0.06664827700318568	0.07131528326364932	0.0667361984575681	0.06784802347249706	0.07297241144898745	0.053622912330401964	0.06387507153824909	0.06391841827536476
0.327	0.056515569433428565	0.048437903979886426	0.0649019190382266	0.05327658664664501	0.06704545606928534	0.039661445286798935	0.05322075496243043	0.043758445341497844
0.328	0.04605165338803169	0.03765837452652824	0.05096603055797169	0.04241518898847928	0.05162956152198433	0.030229621559109982	0.041856695386179976	0.03479053253192217
0.329	0.02812853152803906	0.021611374921479493	0.03259340470772916	0.02131915634818879	0.028263854678018955	0.011011697350385551	0.019650956881358667	0.023691204831287428
0.33	0.012007970334497816	0.001782027249643756	0.016199016226096128	-0.0020543931014602845	0.011080495094569372	-0.006182789711425658	0.0020411650801385535	0.009531942813132908
0.331	-0.004727502713694466	-0.009637994210467031	-0.0031132523042477086	-0.01442400770543745	-0.0038574508886073237	-0.007048811421010781	-0.006199803207886166	-0.007041729689001361
0.332	-0.028841530575243343	-0.018656331655572428	-0.025627349909230268	-0.02364269668327366	-0.026021080597219515	-0.012513185081614583	-0.024704381252919832	-0.022620037700018258
0.333	-0.0533668389704075	-0.04132812219444291	-0.04622796637158373	-0.04148582833853498	-0.05433844335212652	-0.03256972166615574	-0.04657765680120559	-0.04317433649886373
0.334	-0.0667346277287926	-0.07077530786466998	-0.058713390524905894	-0.0668654134417831	-0.07016544659286089	-0.0527399199103287	-0.05883055897929051	-0.06291140189070818
0.335	-0.07186130938109288	-0.08362097806701708	-0.06154291842470361	-0.07096061061170215	-0.07128668781728391	-0.05041658790074482	-0.05586025158457448	-0.06900527026759949
0.336	-0.07214614303296794	-0.07617578250954324	-0.05965056400565303	-0.056573981786333036	-0.0626733224857228	-0.037079196707067136	-0.046631478557394655	-0.06666080517772555
0.337	-0.06129891304433123	-0.05512616057281243	-0.04728356400280822	-0.040667964148076996	-0.04494758616055172	-0.02526176902822021	-0.03396109451527035	-0.0519350917523114
0.338	-0.028969783405864553	-0.016973609799298624	-0.01725824801545287	-0.0102928629560124	-0.011439801728035536	-0.002347610556636902	-0.00600632417561678	-0.01784128193442687
0.339	0.009515848166756892	0.020603898712868312	0.01581106504587326	0.021247056392629245	0.0261538650449805	0.018948974771986975	0.018219887413917266	0.016060104125130273
0.34	0.031112093477961945	0.03560637750255695	0.03311630864915971	0.03272858397585783	0.040535454170997465	0.027144129720811812	0.025599390619044007	0.03125212158730821
0.341	0.04224549982714107	0.04156393731227466	0.04167885590479807	0.03979594481792216	0.044144956682968764	0.029172563448674537	0.031127386824493373	0.038578019664404294
0.342	0.05878038421923576	0.05567042352231493	0.05171808135658026	0.055568652294143955	0.055275735679513056	0.03904566808436738	0.04362757856780594	0.05359240208808173
0.343	0.06649475533660434	0.06051606265889972	0.05350422782144375	0.056460159547131065	0.05973265614190781	0.041716344451068574	0.04974327331251894	0.0614753758299735
0.344	0.05504874868895897	0.04366253913084629	0.04622050549813349	0.036062030333180166	0.049631370144741976	0.026836387239132384	0.03678793793123509	0.04686042051435383
0.345	0.05011607198082368	0.031889297617379186	0.04261289665974591	0.023501559590836375	0.045867369584035644	0.019346303130205047	0.02856513583748793	0.03425049976728863
0.346	0.043818800722902077	0.030203921156166644	0.03485031520652109	0.021577047880578407	0.0368787134699474	0.018876981807669852	0.02348544524574788	0.026000479970696277
0.347	0.015531901187198195	0.013323274382175997	0.007644703569015941	0.006956893187273503	0.0034023077154254665	0.003857046022614343	-0.0002607291890068922	0.005150498955453548
0.348	-0.020046844642821034	-0.017337662589023573	-0.0267233326733645	-0.01804731247865437	-0.031933232614376916	-0.02058035768293454	-0.025763298457073387	-0.021001387169489995
0.349	-0.04211248997463855	-0.03962286661903597	-0.04671446677702446	-0.03721005910994912	-0.05156009850219331	-0.033270747891577176	-0.04079093213524409	-0.04141591600439528
0.35	-0.05753880258402328	-0.0538135119000122	-0.0561132617211635	-0.05107226990928569	-0.06339780039764756	-0.04122430708087165	-0.049802313339503336	-0.05673873364574313
0.351	-0.06895874059117534	-0.06256571576831746	-0.06299815585414555	-0.05710668014798793	-0.07007965802920517	-0.04486258959551016	-0.055331492410496	-0.06433686843449321
0.352	-0.054600701697259287	-0.05136897344075448	-0.05513619772989491	-0.05069065029090223	-0.061058125795151665	-0.03993345320197028	-0.05009509350183532	-0.049338176931900776
0.353	-0.024818588375671854	-0.02321175598148712	-0.036625943766525934	-0.03340975045038139	-0.04269803560403133	-0.02525714940078732	-0.03181744364415978	-0.02263392385908707
0.354	-0.01056078119238865	-0.0041586202132533525	-0.026770046748225747	-0.013038359989847419	-0.027078841885863493	-0.0062235316162410894	-0.015325729915599905	-0.007479444216729285
0.355	-0.0030431211299607884	0.002368842397491302	-0.012859264302935935	-0.001949342381092217	-0.01625481865274826	-0.002699997757496737	-0.00600448007585529	0.0025533869785962517
0.356	0.016560073077419656	0.014641993683658957	0.011666394188653511	0.009133780344926644	0.002099490533688933	0.0006560599648207093	0.007149460333788605	0.01820195015575457
0.357	0.032172283101563545	0.028328174376586315	0.028438434400629677	0.02870535878834445	0.026048375411892397	0.017156442363317384	0.026739606868316633	0.030790749566437188
0.358	0.039051579849118494	0.03955193781020439	0.03686752115121713	0.04520326603452811	0.04165134516606337	0.03325710593044448	0.039748387082559254	0.038618339289354285
0.359	0.049132501602386115	0.05468087330748722	0.047596032688800596	0.05489217013986359	0.058216361237110964	0.04209609024428185	0.05040040128150583	0.05050229053380949
0.36	0.06085614445147073	0.0671420094846729	0.056892835105809475	0.06023047309407388	0.07093476604231952	0.04772353089429622	0.061654652433109344	0.060267618801580776
0.361	0.05413417661163709	0.061313010342561224	0.04924768271370842	0.05581266818686919	0.0650121654117693	0.044801584580736	0.055702128602249046	0.0524635698006873
0.362	0.028309361155319474	0.03497103644378433	0.028324384583230906	0.034972633444271636	0.042852954876813704	0.027852764539899887	0.03375142521674608	0.03265740577403539
0.363	0.005079397265056438	0.0013090684242179794	0.009046501562696497	0.005018094530990012	0.02312421343303395	0.005094532529739429	0.0138976031441289	0.006201620649497238
0.364	-0.016285705378953384	-0.028116223295836778	-0.006997820391873584	-0.02159314649066807	0.004847604426692737	-0.015124256718644577	-0.005902165743201995	-0.0248768270966163
0.365	-0.03590134891093784	-0.04789215714929384	-0.026498003721544552	-0.040281671583706255	-0.026119991482473452	-0.03127748630151168	-0.02873352339182268	-0.04314050873475596
0.366	-0.04556505617446822	-0.05503617895335829	-0.04057330999315239	-0.046796296590093024	-0.0457159459296125	-0.03851023066334145	-0.04079638155653861	-0.04652506733980259
0.367	-0.04364872616873478	-0.04660834431653444	-0.039158022036865706	-0.040586902622676474	-0.044053339712264196	-0.02980831252422083	-0.039806442440656085	-0.04173672698171395
0.368	-0.0444999642742848	-0.040009053072213814	-0.03646449879798881	-0.03751492170363898	-0.0412587052738527	-0.027604311259548625	-0.037754202580909085	-0.03957538147638712
0.369	-0.05015947629505031	-0.04331035068297594	-0.03966255354468594	-0.03905443336524459	-0.0461917528777298	-0.03489421272669497	-0.04166068981284896	-0.04069250965835877
0.37	-0.043619105193438076	-0.03830703580392318	-0.034579427565900336	-0.034202403936871295	-0.04596274484556418	-0.032715978568369074	-0.03746093098564313	-0.033418115308830085
0.371	-0.022585503987289975	-0.024793194765832607	-0.016539851200938288	-0.02616612010402538	-0.028067482021661788	-0.02235716644971372	-0.02244713705120842	-0.019452236523502045
0.372	-0.0027191629854464816	-0.011115139998080937	-0.0006756494991631218	-0.00956390894035047	-0.00795005632978835	-0.006694320452760751	-0.006694666186798406	-0.0038944422910370587
0.373	0.010575314300668177	0.01302064720429746	0.014392109046453284	0.01713416185421707	0.01011453932237743	0.014602919896461324	0.012372544255944026	0.012448007081542431
0.374	0.0324870052117085	0.04446924727965185	0.0351483666210263	0.04281160309816693	0.03760066452762622	0.04104196047439487	0.036000532077288365	0.03471812072802829
0.375	0.051546555519987575	0.060360414467035085	0.04863260300250246	0.054406634283883475	0.05685479700396196	0.05128045665351785	0.05030219967417477	0.05420831211357619
0.376	0.04959943163603831	0.05644775509294023	0.04629369482538862	0.05100338382276241	0.05360858719267115	0.04180348333163558	0.04419204500951203	0.05359325171697976
0.377	0.03836270221691171	0.04270065797134164	0.04000611269408845	0.04328669898770857	0.04412803315972742	0.032406962739105774	0.03680138822820583	0.04254162798169985
0.378	0.029699371294570648	0.03258383759125637	0.031048396912279577	0.03587476580349108	0.03394039248547568	0.025494693163200046	0.02992740540024108	0.03264788955926355
0.379	0.01683261507201657	0.018355545450962567	0.015264705861413277	0.020384932864439136	0.018793669178625575	0.01237473027856362	0.013991895742966935	0.014619616329066963
0.38	0.00174760477720753	-0.0012068856284144786	0.003054059724747832	-0.00030419126912007636	0.0006373727268473338	-0.004159727427147057	-0.00206234639888619	-0.0018057593136141994
0.381	-0.00536143247360745	-0.006012907917105028	-0.006634984812228645	-0.008504595916534022	-0.008830432171593286	-0.006279987751982036	-0.009689136946007234	-0.00722168955443814
0.382	-0.014354182234682317	-0.013037113931952886	-0.016157713643057535	-0.01898635548357097	-0.01429533901020235	-0.009183828960220497	-0.014267821424670517	-0.015828841134010625
0.383	-0.030955447138355952	-0.035635065688225796	-0.03011986429568648	-0.03702619993943836	-0.03289572453377337	-0.026434738532941267	-0.03013448976428539	-0.03373576283182779
0.384	-0.04596545451697966	-0.051372286991515775	-0.04554104730644342	-0.04542842574579342	-0.05107818482357542	-0.03642964651752834	-0.04478092997086489	-0.04928091125101955
0.385	-0.05168224208145544	-0.048401559367130254	-0.05038736087962266	-0.044453797706049084	-0.05471369520963465	-0.03165114286332797	-0.044785838164277475	-0.04914797399578442
0.386	-0.04941866308612469	-0.04560501713743053	-0.04408082533602799	-0.04425088886370748	-0.049096272377469774	-0.029625834378889073	-0.038414294057397415	-0.04465805130075981
0.387	-0.036640829695614045	-0.04012794103383858	-0.03125649731317058	-0.038070739349572696	-0.03974743724470835	-0.02949137697509342	-0.02998535967312811	-0.033812438473651986
0.388	-0.004131439103116968	-0.0107806452646088	-0.008682071239051846	-0.013114992919527207	-0.01725138517448083	-0.010136708612295544	-0.013268708616512602	-0.006448110987931199
0.389	0.027488005446313395	0.016261716147105826	0.01581441649743346	0.012029194876776094	0.010148778582497178	0.015570953772273043	0.010858577773589395	0.01813248484321728
0.39	0.03829491399961448	0.024432263419006475	0.026581492010129822	0.023421334679189252	0.02208871764930106	0.023368340440586256	0.02537355524984755	0.029844635974130646
0.391	0.04311342233844908	0.033544995202592	0.03717333199169188	0.030391938037706408	0.031963994001570815	0.02249594934557481	0.031657150199160086	0.03696352661761843
0.392	0.046470269097109065	0.03905456823261011	0.043808946645898184	0.034892877403382164	0.04154104934502044	0.024958075169167145	0.036486965338246996	0.04104795777630636
0.393	0.042025561115643054	0.03401675361590209	0.03726674729239316	0.0285226958792048	0.036787671482327595	0.018719708457907703	0.028934292008901075	0.03522443442133276
0.394	0.0327600691047994	0.03077695033926828	0.03120187440976277	0.023541842193473505	0.03055818636607991	0.013533187288620603	0.022438588689816304	0.028760448918638094
0.395	0.02629301591761655	0.03530077642686976	0.025992928492049316	0.028619706814774635	0.03216824915331766	0.020015254937330296	0.027053409856387402	0.026036672637944885
0.396	0.020007552067761704	0.03506447749754733	0.016805813272601416	0.02813080796449178	0.031722694518332144	0.024270920169939515	0.026917338782253622	0.01774279457959039
0.397	0.005449604132683398	0.010481964259234176	0.004452793544372103	0.007169211521309827	0.0172432714892798	0.009428411830478385	0.013495967895881684	0.0016815795892192683
0.398	-0.013779494163310814	-0.024451212778287656	-0.008503147937402164	-0.024869461919810893	-0.008070660675063502	-0.021742082108429567	-0.008918864863149925	-0.02207442352338045
0.399	-0.03525763952940814	-0.041677135594084265	-0.023177990999002425	-0.03620913030452109	-0.026454518100114486	-0.03209904334857013	-0.02548987393200962	-0.04012480975914548
0.4	-0.053693765179884896	-0.04528102971704054	-0.0398527162437849	-0.03526234345352365	-0.040323685771459866	-0.02928569858864656	-0.03244073990575747	-0.04798699213818964
0.401	-0.05568729346006725	-0.04885506654695007	-0.04849238948132887	-0.04002365813417608	-0.05080482430133375	-0.03398290608108649	-0.03776068263015881	-0.04815527075823289
0.402	-0.039250746321561135	-0.04095303833986964	-0.037114554094682485	-0.0367208600481228	-0.04311810423374639	-0.03157160308827738	-0.03598532899824231	-0.034778756721661405
0.403	-0.0169812767124887	-0.01821293719599024	-0.018180563194982145	-0.020559997328550256	-0.023680700655328967	-0.015567834633196055	-0.021398065085626857	-0.014242766694375006
0.404	-0.008059882172411444	-0.002871334747420308	-0.011715406823229777	-0.004148218622492626	-0.013288498086052529	-0.0011348463736043474	-0.011448190048171443	-0.001511704200988077
0.405	-0.009878477701649128	0.004376020621292781	-0.013132423301913576	0.006238745148483306	-0.010118577491024253	0.0025411659977560177	-0.007192814762493094	0.0014272385775195883
0.406	0.0042939662695996045	0.014179545748164123	-0.004590683472046916	0.01627106248052866	0.0030733259291569207	0.009565072487983503	0.0026609698296974986	0.012371532381576856
0.407	0.024773125482719004	0.021769589766731014	0.012302206241168038	0.02481191708709832	0.02102610232088859	0.017148473570770248	0.01381699771137252	0.02770487129752263
0.408	0.033321692668519816	0.025470975127472862	0.02493317409754391	0.028415876452601355	0.029264753584616315	0.01809206561729149	0.022082677318165562	0.031537882825448824
0.409	0.0399242048375836	0.03629121384885158	0.037084909028976855	0.03465194775643199	0.03724369086857046	0.023400232499545277	0.03012025713603165	0.037432490289447076
0.41	0.0476112994986583	0.05418243642785669	0.04075302872280786	0.046811895339098596	0.048499328472695946	0.03820240158998864	0.04101841438378911	0.048633104540752696
0.411	0.04512030553044909	0.05272907383094584	0.034817755738246164	0.0456242056938155	0.04741234734844055	0.03879586671915485	0.038954964720710444	0.04329419943286981
0.412	0.025916831317383468	0.02436509919247434	0.02471897771410972	0.024110755432066894	0.030081731878192543	0.020843253528373133	0.021239713213828778	0.02135299411656086
0.413	0.003563539778356506	-0.0002932046888232283	0.007072377438440064	0.001963850112962179	0.008982143659266872	0.0026874630087786507	0.0026998003744728646	0.00029377026548189965
0.414	-0.013863063899124726	-0.01659486246227529	-0.008799553446433737	-0.015216027395655385	-0.007751483904810808	-0.014736036482849518	-0.012350517067045716	-0.013714510657227095
0.415	-0.02615974255919079	-0.03339022143212163	-0.024431301939556716	-0.032330269694068596	-0.027548410852113285	-0.02975525176483843	-0.027029185123945334	-0.02585049111879471
0.416	-0.034009226550206946	-0.03702572366527649	-0.03450426422147238	-0.03870422896946745	-0.03929186989210744	-0.03207735960818018	-0.03312848820152446	-0.03476855792276342
0.417	-0.032947632875309094	-0.025122051527781346	-0.03175334752081846	-0.03079253690943146	-0.03724549714564585	-0.021715964140924256	-0.026853116687317623	-0.027890662966870827
0.418	-0.031113643717576793	-0.01742377765580848	-0.02993233917653193	-0.02336530546116734	-0.03614514813185803	-0.016963792934399258	-0.023594290539155422	-0.02237531183894582
0.419	-0.041069418030672246	-0.025145551634409218	-0.036534939968445784	-0.02210264604611237	-0.03918548001565411	-0.01486375891038158	-0.02499001214297816	-0.032283707534391214
0.42	-0.041068577702430685	-0.02900854833968081	-0.03519656381391049	-0.019586550881857522	-0.034672079917479434	-0.011630479359487198	-0.023002983374501393	-0.03284805491023356
0.421	-0.024529954448445412	-0.027622203302396734	-0.017711746564675123	-0.014922107269351944	-0.019534922521601095	-0.01268744734864145	-0.013942379013001712	-0.020268507340574712
0.422	-0.006550605976372462	-0.019140892110344775	-0.002573249201255577	-0.010378693283421003	-0.011556154467285867	-0.012045088135501588	-0.00737113969748966	-0.005874095282314303
0.423	0.010140625046440876	0.003877434660666572	0.012362430281991653	0.003694272075121952	0.00343627926087719	-0.001911793771078228	0.004726376366123009	0.011730083633715064
0.424	0.030273580169868086	0.025656620818134517	0.03289076425987114	0.02540799033572752	0.0328121704315847	0.019351956966216843	0.0269880401114462	0.027520323897417973
0.425	0.03864596656560161	0.03745581088886821	0.04287437573018934	0.037247096258160674	0.05125840169105347	0.036541737681277595	0.0405075359769961	0.03148728543590437
0.426	0.029705627425447127	0.031945621899151455	0.038383029172276255	0.03382127064407968	0.04935345443943762	0.034946018006937474	0.04101123935715433	0.025923105925554756
0.427	0.02654677840959959	0.02232261162230161	0.03209280542515186	0.024283095803380304	0.03852902876706031	0.021907917572579053	0.03139555326911613	0.022688644004400293
0.428	0.02396480892710505	0.019009250400735058	0.028775678485566877	0.014333727299216613	0.031071356104367443	0.01234163845344317	0.02326259395215255	0.020606095645450746
0.429	0.013281090043923468	0.010156424409211221	0.019946176271824545	0.006841432700273524	0.017888556878664717	0.0027621162409311776	0.012591626942330623	0.010398079869229016
0.43	0.004835360591096759	0.0012417967773561444	0.0049422921186396815	0.0026236028163474884	0.0022874837287396	-0.0021411617353122624	0.0023168444661626807	-0.0003857235791065026
0.431	0.0018358269131543584	0.002132276589651997	-0.0007187525441686173	0.0003286101347503099	6.563809494132014e-05	0.003236836448037444	-0.0008689815577548581	-0.003507189983275462
0.432	-0.0027056664006302788	-0.0007653061106340997	-0.003988512614024883	-0.004187891524853733	-0.004256069602723873	0.003099828066970909	-0.0074078827874576045	-0.008438956130639188
0.433	-0.015615849483458863	-0.019941687572249532	-0.0204353094684754	-0.02131226249202956	-0.026000065037982734	-0.012340787390445225	-0.02135700935078523	-0.019095209605587228
0.434	-0.0299450381827369	-0.03969850448285692	-0.03119725897909908	-0.03780054748750134	-0.04092027938749798	-0.02662096943513775	-0.03616182623582654	-0.031070571497468114
0.435	-0.03253583701103205	-0.042868259205502204	-0.029049525606196797	-0.04073062215986703	-0.03774920219740247	-0.028687910249109178	-0.03589157587278314	-0.035063378600746944
0.436	-0.028470569615928913	-0.038498172849746784	-0.027331267763633676	-0.037459632045896765	-0.034984544311669544	-0.030686666919487498	-0.03325118772170376	-0.029664381255919102
0.437	-0.023161817729104285	-0.03198084623138842	-0.024628713079353694	-0.028489392151306102	-0.030376798095407647	-0.026561583265290588	-0.028603513887249927	-0.025237569956064465
0.438	-0.00667424010334016	-0.007767853557970213	-0.010034485793784045	-0.007685637067726247	-0.011257088348960694	-0.005754069178437564	-0.009306234017312967	-0.00934667445855894
0.439	0.01175505426113914	0.02074931102951308	0.008036565775696659	0.017389802076162458	0.012434216082270112	0.01910186735217337	0.011875641437836046	0.013364429817215449
0.44	0.020426580620459225	0.032905481100190315	0.016705386002344325	0.02903597538874456	0.02264303314429449	0.027058407255835124	0.022328800937939135	0.02380548894165609
0.441	0.024260212253240737	0.029962319201934557	0.019624203180040888	0.026324843335319818	0.022142637185687156	0.018345969690877737	0.021123863580306386	0.03080553844718314
0.442	0.029870972655480138	0.025553736309582825	0.0207489653642019	0.021280791345815852	0.02226650841705148	0.013006153214925232	0.01998537663450716	0.032580859230868287
0.443	0.028888997795533042	0.026964273592394304	0.021566736309102445	0.023469668931439754	0.023966137074510334	0.014753286369424022	0.02172023116390653	0.027769078575946234
0.444	0.01905997983106212	0.023316010380034394	0.019345706666290978	0.025826581782051748	0.024880361924403762	0.015136564603093063	0.021904336445669872	0.020763462024756214
0.445	0.020520097596216466	0.026143161198044974	0.018014000337840484	0.026143033671292244	0.02647333229728208	0.02089366221760211	0.025040692641205908	0.017844427384522327
0.446	0.024601701666968952	0.030406155852213824	0.018694114298965694	0.022728534539622206	0.028012710662399992	0.02385472844234654	0.028280692658289343	0.02157685222228627
0.447	0.01157680517712018	0.013796408228640368	0.0099720799899587	0.00939151784273137	0.011237940700107052	0.007951177812025492	0.012388731782067104	0.009754178348670334
0.448	-0.010607015171474608	-0.010547481451414382	-0.011819334816323683	-0.006694857840512139	-0.016833670591680134	-0.010056946372516078	-0.011281175828065279	-0.011511054852315293
0.449	-0.026100608976967286	-0.026451579354084372	-0.026556534999666318	-0.021627685823862812	-0.028936726668697253	-0.021229212461961713	-0.02362255914106396	-0.02321648892415831
0.45	-0.033815936583389564	-0.03752134725662455	-0.02758709716190185	-0.03254022816309411	-0.03276461936475349	-0.029377904306849695	-0.02845838033046911	-0.03170338106782915
0.451	-0.03657070124045295	-0.04373566521619318	-0.03140198771363031	-0.03735816120646765	-0.036170539897140634	-0.033889524683766506	-0.03131420309508635	-0.03634481651675586
0.452	-0.0257412092347527	-0.03426399377835548	-0.029178132243139802	-0.03007966279003982	-0.03339271503018293	-0.028577341858282528	-0.030027227876027515	-0.028352492283286866
0.453	-0.006732015017389002	-0.01436620164859435	-0.012109444777610924	-0.016627128813534627	-0.01686050425940006	-0.01128901326897759	-0.015583814066804813	-0.010342801558518803
0.454	-0.0034711055306323843	-0.0032449732325426773	-0.001992377388965422	-0.008402568544114829	-0.0033959454771003163	0.001225433540814363	-0.007151333998865951	-0.0025949708582477075
0.455	-0.014671023055956595	-0.0036095400381045183	-0.006541158288282495	-0.002036586182130228	-0.005253249428812781	0.002922845858556194	-0.003989920511748905	-0.007951550981906048
0.456	-0.012960167780554924	0.001028942169158501	-0.004975369538794083	0.003714035124418938	-4.252942224027207e-05	0.004109935222948183	0.005874442682445006	-0.0049487262672992735
0.457	-0.000550633104602038	0.009054032936501678	0.004435790037762438	0.008546720049680165	0.009905074919244791	0.007656813693021514	0.011212553889957129	0.00492469559181226
0.458	0.009842149613034156	0.013798524453773948	0.015097414333416445	0.012232707244888537	0.015661974275374795	0.007476633293668666	0.01436739593499873	0.00997659493843715
0.459	0.02329603579021646	0.02800872419067063	0.024636494991865737	0.024091158478231553	0.024644328093326045	0.013171050496457884	0.019325524518157586	0.022894948459351257
0.46	0.033462551841368336	0.0467945779194447	0.029678260989675256	0.03910047613833298	0.036567152700902515	0.029666974245669102	0.02877899714231413	0.03607440475502806
0.461	0.026821180501109616	0.04671831039235867	0.024926314812527682	0.037356470438850375	0.03564905698876971	0.0323556058748112	0.028251631716720727	0.029466417351747258
0.462	0.010260314284033187	0.0234340452855383	0.009709591011325257	0.022164369498775535	0.018005287391981286	0.012489859981469762	0.012750273146479103	0.01662465997863536
0.463	0.0032724637685439427	0.0034878396845371804	0.0008786265762573846	0.005560869223006662	0.0003384490361371045	-0.006049285776915763	-0.003370973705192854	0.008408742599313764
0.464	0.00043838039781379345	-0.005755539382843605	-0.005949989101038461	-0.0065875091883314954	-0.012085851356560779	-0.014847743926664584	-0.017349246575234713	-0.0002885806597945746
0.465	-0.01033032565564938	-0.01904446803159078	-0.017302137650721087	-0.01758125137810299	-0.026710390780375085	-0.023140919650551185	-0.023246979019858352	-0.014836393034455159
0.466	-0.01419014460619619	-0.025805357619416016	-0.021575485305895425	-0.0256271139716305	-0.032644379140146465	-0.02392129432974061	-0.023824435300231605	-0.02099253071661755
0.467	-0.00522288393249068	-0.018068081526580657	-0.015961363071717964	-0.02347732114254702	-0.023103003068755623	-0.018527617332870578	-0.021073038361854347	-0.011810784742798302
0.468	-0.005262934677794656	-0.01487901055285315	-0.012475419158455419	-0.022007402805387946	-0.02136762275775972	-0.015418081313297815	-0.018730387344384074	-0.009372704263141414
0.469	-0.017747905579656123	-0.023889689713741915	-0.01817567034039197	-0.02560011366918409	-0.027477272679247287	-0.018005708342602365	-0.022995435631168633	-0.01759283278723066
0.47	-0.018227920038462922	-0.02509861865377337	-0.01977741514793639	-0.021498095291828813	-0.027945337921014377	-0.020001159463420102	-0.02300097245405893	-0.018382873928820643
0.471	-0.006167601608068068	-0.017565451287058224	-0.00972137497697263	-0.01331369269808255	-0.01778298099681125	-0.011078019516462803	-0.015445584593563853	-0.008848674930595123
0.472	-0.002794396004502255	-0.015111433867968602	-0.002505245765997742	-0.00816007943199706	-0.003985851785170843	-0.0045605506134272	-0.00408096707598726	-0.0027824209716707975
0.473	0.002335511231367455	-0.004828373356800861	0.006342253974211711	0.0039054232462896105	0.008082401917112956	0.006685304448243432	0.010093103675852748	0.007010595317942209
0.474	0.021188772349265732	0.02314059184341442	0.028242118433266735	0.025489555134956043	0.031070185311673146	0.028723966898000164	0.026437593809907876	0.02618443797032009
0.475	0.02964821816418844	0.038636628657714514	0.037428924116314585	0.039398153666103525	0.049761061900397176	0.03896824057874735	0.037749804825659455	0.032846280625572905
0.476	0.02111679077004558	0.024804667788363526	0.033312059420623215	0.02992113833902923	0.04883721088083844	0.032462671469643864	0.034973599691163995	0.02054515609139991
0.477	0.013346536819924915	0.014097888177578868	0.025636889077715105	0.016768100423896298	0.036959291757263965	0.021319926715364448	0.026089713707434875	0.012402872875685087
0.478	0.009990032837931317	0.014196427682416557	0.012527208687542018	0.013710717823021558	0.021489435963969534	0.015386264953415803	0.019118870205467087	0.011422974408351133
0.479	0.0029555404227385464	0.0032978834782875963	0.0024542423598027767	0.0038733122027093097	0.006553465538275301	0.007096251122423995	0.008168948873401072	0.0020368067216808027
0.48	-0.005543183422583685	-0.0096843862176859	-0.004459631778038893	-0.007059840815716164	-0.0038483716814000203	-0.0018706236498232836	0.0004168549400921476	-0.008333752179116218
0.481	-0.0026536054083733506	-0.00940015907975694	-0.0009338969055596733	-0.010497623568286598	-0.002429147216681419	-0.002295743892826865	0.0005437424199098745	-0.008739920540767552
0.482	-9.653886180556462e-05	-0.006598728829613037	0.0017432487690639323	-0.013557180309765866	-0.0007458740311450538	-0.004638203169206633	-0.004337831056270761	-0.007686702622205245
0.483	-0.019157428330796776	-0.016838435806253306	-0.012216650096987908	-0.02051812727602424	-0.0131771500409847	-0.014509803186381396	-0.01377141510115526	-0.02106222889391333
0.484	-0.040923482221979696	-0.031756470327158795	-0.03011834291023837	-0.025945134046774742	-0.026342952611654907	-0.021091715822771313	-0.02073128600527918	-0.0362655969261439
0.485	-0.04321090366746088	-0.034262665382338776	-0.03651287345428608	-0.024255348190646484	-0.030802257937223434	-0.019638808848739576	-0.019212932550716724	-0.03821744329609435
0.486	-0.04129830580378341	-0.035555786173968415	-0.03270048507999292	-0.022192743834640535	-0.02976118915941592	-0.015521394714971985	-0.01704604207190638	-0.036986132098604386
0.487	-0.03458553454902136	-0.03128675561253105	-0.027060015366581733	-0.018647162177427012	-0.02265073804656117	-0.012902804525697094	-0.012550832565882887	-0.03181297338522829
0.488	-0.007676290881236685	-0.004849175950404124	-0.01033376466778652	-0.0037086165688784865	-0.005935077555819186	-0.0009543335217212234	0.0033931421391374355	-0.011790235348745615
0.489	0.02306039982038919	0.023623140180796063	0.017207195756130396	0.018294959857975125	0.016714147305616472	0.020369299964193528	0.015700889650625223	0.016238521274657924
0.49	0.028747375199314418	0.029656643232909192	0.022933376829976954	0.023402313994945564	0.021630360812634662	0.021635461561184597	0.01897631491681154	0.024467454009207343
0.491	0.0133767992460047	0.019073505453812218	0.010517655924457395	0.017385835256919807	0.011580313796573387	0.014156613318345715	0.015078565824993354	0.01577831528177197
0.492	0.011809533192994472	0.02078219050101287	0.011591852481336994	0.020757299224173305	0.014065695475897401	0.01576800042213979	0.01566045702036614	0.0164184069282383
0.493	0.020480804466307175	0.022923391065891984	0.01762799666107156	0.022246485213488428	0.018020996669003	0.011581671791214651	0.01871035272814055	0.02017352458968056
0.494	0.024026528400829205	0.016455283256693234	0.019122119903245815	0.019526054325871577	0.012801228776187997	0.00587167058457473	0.011497139364514717	0.022749182085325337
0.495	0.03227677173152635	0.02495727268027887	0.020718340812114516	0.02009404773006489	0.0122433241700575	0.006004126875850282	0.008662745299337608	0.02847875482972806
0.496	0.034911773607274925	0.034195228986036864	0.02302415197162888	0.01933328437546852	0.014765206823030237	0.00830367722571076	0.009271249334258358	0.028029461920910135
0.497	0.019902236023990837	0.021870128933696217	0.010884298277410252	0.008557186573434017	0.004228520785282595	0.0016428416867996366	-0.0010118580873858516	0.01463488443446737
0.498	-0.0024747881482075585	-0.0022856483082302325	-0.009196240211162346	-0.00643057639789175	-0.015362778076686729	-0.01335794446409966	-0.015926722251910858	-0.005267027742701397
0.499	-0.01352706423121073	-0.017926173780027452	-0.016850615919016713	-0.01725797591111766	-0.02486903632354616	-0.022405930539558087	-0.02432034148753378	-0.012787752592125372
0.5	-0.016846141617816928	-0.026467938828753323	-0.023226820767685126	-0.02393481415875657	-0.030148251996683244	-0.027182898320882932	-0.02984732030220512	-0.016601806130034993
0.501	-0.02487055570371003	-0.033184952683358124	-0.025340805555813577	-0.028283484391039	-0.03432719140877325	-0.0312460311793704	-0.03404536212299249	-0.026367562240667674
0.502	-0.021119613075686626	-0.025754179537054406	-0.018860915338649635	-0.025527236974092798	-0.025155714590951145	-0.02396719382358931	-0.02669053966342815	-0.02050089799592051
0.503	-0.005216394859820238	-0.003186210851976539	-0.005984132740751791	-0.009724455170918257	-0.007147433399434482	-0.007355384909855944	-0.011385702540465429	-0.00397424542602247
0.504	-0.0024770256649909723	0.003695979563684533	0.0010866946468862143	-0.0030610074576099956	0.003051003890598912	-0.0017461711830520608	-0.004992779964796531	0.0018982403809827207
0.505	-0.0077491971775681965	-0.004999168559546541	-0.0023253199970671417	-0.007764838051826411	0.0030959202462047886	-0.005135411585420031	-0.004518384256745565	-0.0012387860021257004
0.506	-0.006846649459849561	-0.002468724732871419	-0.0015677740051061645	-0.0011125219365590152	0.005569798664171734	-0.001113368358978676	0.0013746784659532034	-0.0012310553219204348
0.507	-0.0019033228738232779	0.006678616319983343	0.0011330077054349159	0.01057231204366745	0.00991177188410087	0.006788365092526938	0.009069527683010158	0.004312374634884452
0.508	0.008184312202096523	0.010846894318949475	0.0045527895336967454	0.011940223577130376	0.01077607923323042	0.011195355929266172	0.01184137054990581	0.009582142005458979
0.509	0.019469817527583973	0.014759060378383787	0.01164867021576928	0.015201420393277484	0.015449490690171827	0.015212864152637246	0.01488069932599431	0.01803220357100553
0.51	0.030596251982959066	0.028830182628101275	0.023106246388692322	0.025603520901169324	0.027028973635018928	0.023675315022078116	0.023964312815702698	0.02846732683235817
0.511	0.031460976364748795	0.029782667426626188	0.026378956562504375	0.024605886690064166	0.029459299025431384	0.025205044660182255	0.024769899887574946	0.0268145966642343
0.512	0.01163453416485278	0.014832314624302944	0.01547980961984497	0.01276854915372705	0.017210174466658273	0.01381925391527205	0.013815433619810979	0.0150107552661062
0.513	-0.0020528324094079803	0.0012168837980082278	0.003140214919411437	-0.000392530393427331	0.004034319415907186	0.0013055935942758374	0.0006132431705963751	0.0024484155321879077
0.514	-0.006803680520311565	-0.014114091148121831	-0.0032486334036061944	-0.013521453270398085	-0.00446582362701515	-0.010938522709468	-0.009280582391139977	-0.007385108083267466
0.515	-0.02006500529031882	-0.022630236684265673	-0.011812764117971183	-0.019544785224127396	-0.012026112652606296	-0.016627315766245952	-0.014061103322091545	-0.014240255502511736
0.516	-0.026759902598666403	-0.018830621763117276	-0.020792459733434538	-0.013343425783958902	-0.017549443974828417	-0.011125827808632985	-0.013848395965021071	-0.018151693594085156
0.517	-0.018483726130275248	-0.006704516799346265	-0.016114732326010232	-0.0064655966427854495	-0.01385294580174737	0.001000180739657245	-0.007643279101869953	-0.013165750129843763
0.518	-0.010501694175065277	-0.008146521556487735	-0.010644963665127847	-0.0076203681467640165	-0.01257483034723386	0.0038398504335601822	-0.007324446386098611	-0.007292860047843353
0.519	-0.015791161970846894	-0.02131562276093897	-0.01748537762188887	-0.017206913003971383	-0.02297259643681732	-0.009388551843823851	-0.01356816128388102	-0.012251036178784647
0.52	-0.018251499581081358	-0.0235253564251138	-0.021983869261411274	-0.019338386334205544	-0.025229148044720245	-0.012497867992891255	-0.01325386730708743	-0.017703381183009747
0.521	-0.011655187531209657	-0.01643307507773197	-0.013059212043222903	-0.010128113020267905	-0.01578180971449967	-0.004237176522331235	-0.006572243007120184	-0.012162719881003096
0.522	-0.009197967644333614	-0.010785824075699738	-0.005054556165037052	-0.0060454858369111365	-0.011083869846399391	-0.0024736211312112698	-0.003879062367602134	-0.00724264748373584
0.523	-0.0012303441981266407	-0.003668759132289902	0.004374951681031013	0.002017775281448886	-0.00020041650571590592	0.002441107580979438	0.00233514080794947	-0.0033814895486051566
0.524	0.01923111246518765	0.016193477941455224	0.02230052691986199	0.01654687444587933	0.021700903555829227	0.017657195979808554	0.01998453083235615	0.010815795825277152
0.525	0.03275054921276293	0.0288558808234438	0.03294050547587357	0.02415727064656926	0.031197115187912558	0.024599563514785056	0.029028081443252154	0.02168355374040944
0.526	0.02559051308295664	0.023153715147913107	0.025737032165758074	0.020025659398711836	0.023012715867463278	0.017998864737408547	0.022262243581145723	0.016699293030985128
0.527	0.0118987065543043	0.016089048469225556	0.009824803503390699	0.01386614736872364	0.010840682570414399	0.010699992056915521	0.015930195005200626	0.007347719377642307
0.528	0.005557232791596977	0.009796660024315965	0.004585400110200165	0.00784459158554185	0.007166903375158103	0.0051016923340612905	0.012971051571536149	0.0024684466389969396
0.529	0.004787489519176779	-0.002978053075366265	0.003317392339044047	-0.0016142200760903699	0.003236854958893028	-0.004401053354700337	0.0024210966139295775	-0.00380083071277073
0.53	0.0014885925739234083	-0.007266959664492546	-0.0013815471123506816	-0.003834273587819321	-0.0029230236616014605	-0.00924419227943647	-0.0031056530533717206	-0.005416893673382351
0.531	0.0030279611662378165	0.005861318444267399	-0.002128975012254764	0.002818834712642956	0.0029633011114306176	0.000561431981135731	0.0023421360516219245	1.2002944573339668e-05
0.532	0.003477258827205263	0.009270687823117	-0.0035857843790016186	0.005638101085409316	0.005305422140976091	0.004999919185390521	0.0007887945768640331	-0.00039458705559928446
0.533	-0.011389827667953972	-0.007141594317300175	-0.011066807830864559	-0.005476844456209236	-0.006102453910795956	-0.007215166399635726	-0.010858180721056711	-0.009197546072766863
0.534	-0.023262756936066553	-0.02335247971003363	-0.019365521189893348	-0.018782733288859443	-0.018574672666296047	-0.0179841487480621	-0.02013993715683238	-0.017411684903927326
0.535	-0.024282505425974977	-0.0247251545291539	-0.019461326021358857	-0.020272720395586686	-0.020354150787514683	-0.01874444441753069	-0.02021382334975517	-0.02081898276874861
0.536	-0.025183734065282626	-0.022428778871262503	-0.01602299531437299	-0.018913732985279104	-0.01724735468762706	-0.019352363035769402	-0.02130840207949861	-0.019886948301970176
0.537	-0.023718346783692085	-0.016961389465773337	-0.015973077489079297	-0.01710781888442336	-0.016362781525427427	-0.015754891289368297	-0.01901123043120137	-0.01114271633823936
0.538	-0.004888165801089345	0.004775015617023875	-0.003202499378989531	8.513122220854964e-05	0.002246794669900345	0.001381389829482308	-0.0017273823921030765	0.003465037500686591
0.539	0.014358603575042522	0.021433674328976825	0.016266397801849602	0.01485238908968694	0.023757513427253747	0.01382595621148343	0.014693431068836669	0.013473231249092365
0.54	0.011745852536851394	0.014666971517208461	0.014872975071873214	0.0067764053822515664	0.01921315185569992	0.005697272643607461	0.011580894706680639	0.007960365833546394
0.541	0.004729519632841466	0.003034837436896118	0.007652880621928307	0.0016864703749565764	0.010334416502472578	-0.0018751849491920427	0.008336194943962106	0.0014613724303314574
0.542	0.008503911880161552	0.004439129889971945	0.01181844720697378	0.008442096975731422	0.012197352706733538	0.0051593491149431745	0.013973470561840343	0.0054674647023439
0.543	0.017022782106426583	0.006951999579710209	0.014299920383086836	0.008634224755836254	0.009975607268534616	0.004196553027983998	0.007937789718290894	0.0097764081594131
0.544	0.02063501499039618	0.0041904671483058474	0.013954559492585271	0.0037131031235839622	0.005519133138881738	-0.005090593856816161	0.00040283140061679715	0.012907245197038671
0.545	0.02404656899256918	0.010971646957408328	0.01537773616645399	0.009939328567708232	0.010062364269068487	0.0013366232054758949	0.0023599162508474492	0.017247077094494273
0.546	0.02420980928833285	0.02352471959553672	0.014221218563900049	0.02202142978064358	0.015709208012893563	0.014345524161628247	0.007564386480253365	0.02209702610028522
0.547	0.009908970631100793	0.017406437297651893	0.006043784204622658	0.016543371042815554	0.008173599137482968	0.011731612561709947	0.0057800243893349175	0.014532336400892598
0.548	-0.010026446882193321	-0.00579688738621105	-0.008376112905287954	-0.0006672086593132833	-0.007865395192579446	-0.002070173781462845	-0.004632044888456547	-0.0008082713284361504
0.549	-0.018876777645475358	-0.019291423384637504	-0.014223765996443581	-0.01149863688875924	-0.016574693126139583	-0.010043493723013287	-0.012269976190638068	-0.011894567765233231
0.55	-0.02072163817209232	-0.02217908634021893	-0.018897102975029036	-0.017079432329767056	-0.02315903047751291	-0.01271297707770721	-0.01573103532817187	-0.019042008625067455
0.551	-0.02701098263150386	-0.023468651097669227	-0.027888255206254733	-0.019755575493549553	-0.026296941470773504	-0.01699279073513496	-0.015311769625954002	-0.01941937513704708
0.552	-0.017809939206272298	-0.010833841050504583	-0.019509330445872844	-0.01256532160667337	-0.014242907079264708	-0.007206472119207313	-0.007228291482977424	-0.011498056717086072
0.553	0.0063988028242132735	0.010065880349101358	-0.0006045400704602047	0.0005767544350743045	0.0011455906227240838	0.008643003108265131	0.005184459638492892	0.004280495713885635
0.554	0.009644267602767424	0.010136283051568511	0.007804522331747359	0.0031375917885843136	0.002747982625530536	0.010136912997609581	0.007911800317400547	0.006745608410397943
0.555	-0.0031741389598463694	-0.0005763854411868687	0.00013883678485225094	0.0010742778875585182	-0.004453115842787512	0.007699982488265172	0.004345721577254543	-0.0011448970377827875
0.556	-0.004195516479403877	0.0005213265914315653	-0.0012541327099846616	0.004525197509667258	-0.0034221815222856763	0.007642216724618836	0.00683744690374392	0.000881629280962594
0.557	0.0047786927867907135	0.0025985468907512997	0.008711603052691185	0.004760008833668601	0.0016784241790800097	0.006994396317869858	0.008167478886868636	0.005641738685020323
0.558	0.006206901726255099	0.004303371028826774	0.005685172024253335	0.0023412871742943915	0.0025799085533039687	0.002532028517557436	0.0032314207357334954	0.008776581509038723
0.559	0.009781989644591751	0.018089606431315523	0.00542846006561544	0.012858731105330347	0.0091219874587096	0.00835435490322193	0.00713180217044769	0.015151407394288642
0.56	0.022775746096134666	0.03231953426763422	0.01779380534223743	0.022315776192140386	0.022357188614822426	0.02098516533231096	0.018467243855579206	0.021936501260124603
0.561	0.021255192310672	0.024310375200060456	0.017916048520990324	0.015264636768993482	0.020479657010011303	0.0186370761719564	0.014478917705771723	0.017734228794160305
0.562	0.004947829895878622	0.0036174871213297713	0.006011222513299221	0.00361500885176011	0.002502024653194191	0.006420133074848394	0.002783697540556498	0.0031340820046639067
0.563	-0.007054773738825251	-0.008929593258161377	-0.003263544474760666	-0.005950149718617937	-0.006420005646451371	-0.005090358583031691	-0.005398130722410363	-0.01089874426161188
0.564	-0.011365011352461764	-0.013861289559954837	-0.008987949176512517	-0.008575202503672396	-0.0073895126120758535	-0.01023224331679318	-0.01199919896819417	-0.01619920290025583
0.565	-0.017215112624528774	-0.020374535018650768	-0.01444080425244952	-0.016998767714767746	-0.014727962147705633	-0.014484626165500024	-0.016754653796474422	-0.02187295003477527
0.566	-0.018666236882073594	-0.023960884937540484	-0.016274913764453437	-0.020912595717785264	-0.01612314805023493	-0.013841403292955773	-0.01587710745024757	-0.02273918064759016
0.567	-0.006358179792019495	-0.012544477254999756	-0.007844195750511143	-0.010504449916606142	-0.004530947427667855	-0.004023781919309383	-0.0069841251780608645	-0.00991081785783839
0.568	0.0003532946644620561	-0.0022228913144510076	-0.0031366388133034907	-0.005393594246912853	-0.0017912373526133662	-0.0011154255956926165	-0.00466133047584172	-0.0031704843625089065
0.569	-0.00806924471508475	-0.012269478889295339	-0.010483613585128063	-0.009101120941639538	-0.009812622752448045	-0.012553901738283905	-0.009185380454892684	-0.008189431056240912
0.57	-0.011585339419656253	-0.023413375258589445	-0.012000610596272882	-0.01541664673050436	-0.013252494882662278	-0.019414480850125655	-0.012050471285310503	-0.013361910121755576
0.571	-0.005024558165902631	-0.017579160720662776	-0.004850867527716076	-0.010205374158310243	-0.010204952534456382	-0.014997399158828946	-0.011396886266806754	-0.008353542370051448
0.572	-0.00029643635722640353	-0.01022696110839062	0.0004917654241109034	-0.002912632741315965	-0.007840392734357646	-0.014010940562352348	-0.00813545214973921	-0.0008908174199281715
0.573	0.004982851885084002	-0.0007420705462764282	0.0035426454153159757	0.004092775814314286	-0.0016468935510409821	-0.003388833689454893	-0.0015751720856052342	0.007878393854295252
0.574	0.016543153126779266	0.020169689593628994	0.013645877299137629	0.019023058223426162	0.016982453147945376	0.015607773979808554	0.012491952433229482	0.020546342941650107
0.575	0.025173637063932	0.03029912160117968	0.024227416079785975	0.022753461484441507	0.027672605694020396	0.019198154034141796	0.020871661310463155	0.023501559851123125
0.576	0.017167113551325924	0.018583926082864386	0.019000102258737418	0.011892929127431404	0.022024913193177127	0.010223930335118965	0.015579348731445009	0.013542794445585326
0.577	0.007023308849793309	0.006542766158982911	0.010390483527472918	0.006673928965189381	0.014778650987406279	0.0063479445011607166	0.00799865822650405	0.004845977300904033
0.578	0.004373313996029341	0.006134156644336824	0.007218853866198189	0.005251709545247783	0.007765029456483276	0.003857716472768439	0.003026387351792563	0.004394420508488604
0.579	-0.0031997476540175348	0.002024011918257068	-0.0014180241955318263	-0.001638196791441788	-0.0016816368532308354	-0.003350720342073816	-0.00284955626072902	-0.0010128971530128463
0.58	-0.010113214646684757	-0.001858933942567219	-0.00881959828113998	-0.004692679448533019	-0.007395612297448086	-0.003319124429908883	-0.003916278994124562	-0.004027301119817122
0.581	-0.006794673431039831	0.006729421240101051	-0.005714808402642417	0.0001228230595660412	-0.0021939754059573254	0.003054733013227072	0.0016111580332660346	5.491141561391323e-05
0.582	-0.0011322454265443383	0.010585657674925544	-0.0036537568941121296	0.0033773190130908814	0.0026924478228698605	0.006715903877076762	0.005294023782174217	0.0007988086403131358
0.583	-0.008919030672411406	-0.002329412107458563	-0.007018226074869628	-0.0076613564184308276	-0.004814941094909574	-0.0018259590818563826	-0.0008047838545985816	-0.005747909818368509
0.584	-0.017747543453984282	-0.014194470694782755	-0.01097437600613367	-0.014615626562287442	-0.012411511121849628	-0.010084625485941225	-0.008664474355897095	-0.014920986435720736
0.585	-0.015091898335370392	-0.01233358898751375	-0.011909032336758303	-0.013041945189136143	-0.01309640776796397	-0.009488009506486305	-0.00813826039727267	-0.01412558160516683
0.586	-0.013915674815959627	-0.013076270068461775	-0.008595021713994221	-0.014498183244386042	-0.013475321151524743	-0.00933563260618077	-0.008865909905967997	-0.012970595973759255
0.587	-0.010483163893410155	-0.01030716896366187	-0.007998859510774855	-0.004882176535535016	-0.006636661973881763	-0.0052604948339288115	-0.0020510060972152083	-0.009641901500200747
0.588	0.0020905849920129903	0.006435002004681917	-0.0006124350586179778	0.009222235660556865	0.008268646559673014	0.0050140537288038325	0.011799768374178413	0.004396041255358528
0.589	0.012528163069608795	0.017023931039027534	0.010475947594680252	0.013660417486015328	0.016069574212935468	0.014288735419734282	0.013994908628094343	0.014189093643368901
0.59	0.014826147912879452	0.014187139968404412	0.009048551004806563	0.011594129211222397	0.012018977418689557	0.010115750307772124	0.0089351870416722	0.013969031847863559
0.591	0.013175994872843285	0.007941823587215159	0.008264486370762283	0.010827380980246612	0.007952480271822816	0.0045251564729636064	0.006177997809876837	0.009744711010335921
0.592	0.011965265566388944	0.0067237817318685335	0.009736053419792745	0.012069415728125416	0.008450224521926208	0.007132306866933223	0.007036274745900027	0.010440039494843867
0.593	0.010319138240765875	0.0034232803505589078	0.0070623501468591275	0.010688932176227881	0.00567636454233298	0.006761193546178748	0.00424553855104378	0.009852038902283478
0.594	0.004407906827766369	-0.003385727631281963	0.004846504345601808	0.0050000081080616345	0.0036360359597629862	0.0021485294428539034	0.0013326975748647364	0.0009165480306372672
0.595	0.004088958049486425	-0.00012520801886345938	0.00808856230859661	0.0036512979510092357	0.008181181204512465	0.0039058410313716273	0.004362942045628094	-0.0004037689845341379
0.596	0.007834280004116437	0.0069211545296675725	0.013616196858153918	0.00436226035421104	0.01146758300984745	0.009645068602687237	0.006357098259746565	0.004350226444839105
0.597	0.00048281514392725764	-0.0006727826808720915	0.005216776947367881	-0.003932094755734677	0.0021396151093890604	0.0019013107134448586	0.000533139325805877	-0.003303239898904218
0.598	-0.011499734212512092	-0.015428320533411744	-0.007938696041243516	-0.012974761101325685	-0.01333450089435012	-0.011205011615294063	-0.011460100828986974	-0.013863798690587615
0.599	-0.015397457056535122	-0.01799524676143013	-0.012066354198636242	-0.015567765384243776	-0.01822714191284983	-0.017127459331870525	-0.016956438702417795	-0.013489983947257487
0.6	-0.01649722128899595	-0.014956313392288773	-0.014765391320093938	-0.01182305360708112	-0.019199100276278514	-0.014760763997829126	-0.01608790159498378	-0.012010808962599347
0.601	-0.020392940549065628	-0.015238020110203145	-0.017741038258218125	-0.010580811569948721	-0.021969595723408463	-0.010948004513227735	-0.017144908014601553	-0.012452278071978334
0.602	-0.011395530105171225	-0.008476259716450104	-0.013706060205670962	-0.006077906138556604	-0.014172012618550224	-0.005229581998274788	-0.012641312370710422	-0.005414635257494152
0.603	0.004570571021655103	0.008348761571736103	-0.0023842308748821214	0.0060861674732118985	-0.0006299249454242507	0.006189772928952185	-0.00015185977651278762	0.008147739199813632
0.604	0.006882538239134707	0.011676459682047046	0.0033008580662984926	0.007604727496888905	0.0026961566138052322	0.007823390955713855	0.003807299441000316	0.01026799711964872
0.605	0.0036093350335544214	0.0005715111722796717	5.481008357886011e-05	0.00044161200165624586	-0.00217457242819406	0.0002823773719674545	-0.0014283888728819606	0.0021036101371838486
0.606	0.003060115656108375	-0.0020592422540258865	-0.0006734231231071247	-0.0034144373744784025	-0.0009726880126403838	-0.0016684483145845924	-0.0012024069958160128	-0.000917877582534559
0.607	0.004359964680293106	-0.003691093792758956	0.0018797425842332668	-0.0021133187881503365	0.00044751825070847757	0.0005147475339693766	-0.0007136897295503252	-0.0012558798124847515
0.608	0.007784191470923006	-0.003014846478206935	0.0023194077217970977	-0.001514220563070678	-0.0014004160618056763	0.00012830133349353462	-0.001156728773044211	0.00016641538102781103
0.609	0.015713176489620458	0.008529319982002953	0.008907591890254318	0.003988791207461045	0.009527494192262996	0.006609228695284993	0.008597815268239894	0.006065986461681872
0.61	0.023166438815967853	0.024531357813326576	0.01884920518918467	0.0159577804764661	0.023710667517485757	0.019217596205157443	0.02166168061804796	0.018066757800194656
0.611	0.021906232835986025	0.027182569496843514	0.01764383011821885	0.01814011727872202	0.024863771102956362	0.019791180243273195	0.022654135310168595	0.018435235813667322
0.612	0.01077552393997696	0.00796700576624938	0.005883799755441296	0.007190599991169267	0.012968228463523024	0.007980974809761612	0.011630360298498697	0.003940576139934574
0.613	-0.0002574634040878411	-0.004369071435939933	-0.0033190097219051675	-0.003891148329490758	0.0022217385174382277	-0.0023477446553861695	-0.0009972350040272772	-0.0038480757211999885
0.614	-0.0027587724246005575	-0.006786262387853692	-0.0041232799621570065	-0.008688803121751703	-0.0024145803444470134	-0.01030198196040153	-0.007456696448726942	-0.006362059855569384
0.615	-0.010769756040465	-0.013112200765552903	-0.005265834176296704	-0.011661911811547968	-0.010256990233754096	-0.016086528733854473	-0.009217323227977033	-0.009162538402937043
0.616	-0.016016213292146978	-0.01289006659365067	-0.0061375673886642735	-0.00856069769561834	-0.011405989575254724	-0.011726248834375067	-0.009255697996988818	-0.009824845686792897
0.617	-0.0055380797574195555	-0.0004168259377800346	-0.0036865151575632194	-0.0018324074550672771	-0.0038144741353957814	-0.00226673234914995	-0.0035246542601282673	-0.001809451953004694
0.618	-0.0020943554955028614	0.005582708080938687	-0.0033029178185003828	0.000886951228493786	-0.00021811266047889666	0.0011189602529848273	0.0005164977328099439	0.0022395105102726927
0.619	-0.012715624504212417	-0.005102136893147809	-0.010185403100866533	-0.0031203558747188173	-0.007007769001758829	-0.0048454899956092085	-0.005154463502842258	-0.007171648439730882
0.62	-0.016831976142415085	-0.011093378257750489	-0.014990884770018842	-0.007255176955177397	-0.014532919714179686	-0.009844089267850369	-0.011417301236034036	-0.012871260752628145
0.621	-0.013630790118619129	-0.008287401721838582	-0.009472858402295774	-0.007795777676428988	-0.012801542489202743	-0.009320685507603574	-0.011057412376669917	-0.008601667333041027
0.622	-0.011869301877920364	-0.007733323777060231	-0.008105542389512282	-0.008578191429830342	-0.011086438086274932	-0.009839764914676575	-0.010073295547035404	-0.002133610517062821
0.623	-0.0023095296053368803	-0.0014350406466834482	-0.00445250008425459	-0.0019499327381672215	-0.007137579059929667	-0.007014453254805987	-0.006644983007034623	0.0035506320502534795
0.624	0.010978064753935484	0.017391965053389268	0.009522022216822693	0.01341676102543411	0.010342617567724212	0.00774873355423798	0.007845643406858435	0.014713774527213194
0.625	0.015515163180882962	0.022184875723560225	0.016415497811007006	0.020038386232495094	0.020787398521840403	0.01886732446361495	0.018070067923966468	0.018359336767347002
0.626	0.007524683046972716	0.006610707990504466	0.011513454557623154	0.00841623589390721	0.010481806224713053	0.010662542758852634	0.012787151077838147	0.00784348854583108
0.627	-0.000789242086603389	-0.0032202172495737805	0.0027492604455433304	0.0010626226805139627	0.0005785194414034171	0.0037524094086129577	0.004937638363367666	-4.770752043698068e-05
0.628	-0.001994006642057821	-0.0045736285285656415	-0.0010424419910659228	0.0005288305877061968	6.900624787330684e-05	0.003636337407184361	0.0017642071337894251	-0.0024308565299988724
0.629	-0.0032070152084419184	-0.005775076118821163	-0.003578170197727576	-0.0033999228204453346	-0.0001662157961256951	-0.0034606582532970454	0.0011620774017721608	-0.004065056165804062
0.63	-0.00394897283727004	-0.008457189016536323	-0.0037106302457247677	-0.004681703967521645	-0.0037024380069703147	-0.0055337494874275	0.0035004494192257037	-0.0053284787766700575
0.631	-0.0008403455665365608	-0.0012711472812120062	0.0038113331363409412	-0.0016429639024377325	0.0018265228129258554	0.004690644886441713	0.007608130298116385	-0.0012227381684710979
0.632	0.007254194504607152	0.008938379144538851	0.0037962934533236205	0.0032267511364423235	0.007622682060260816	0.009151092702160961	0.007497593956382132	0.006136793726723676
0.633	0.00010147628531606285	0.003415604425819792	-0.005752850958367629	-1.313417422527509e-05	-0.0012427510222924236	0.0023580272884447433	-0.0004053996333186268	0.0033150232763429818
0.634	-0.015186312470586681	-0.010422892636272274	-0.012339304482292394	-0.007942437071306107	-0.011196955688889692	-0.007251052922201117	-0.008264257115426228	-0.011006494130324958
0.635	-0.014974794138894377	-0.015884627235511227	-0.011153618058054208	-0.011537922161022795	-0.013160968116298286	-0.012774946484497268	-0.010059828526410275	-0.017368904502010257
0.636	-0.010144164818489997	-0.013215209043831328	-0.005808559269018052	-0.00925589417680864	-0.007423893577942312	-0.009870854424723999	-0.00955554960940192	-0.013998919651424958
0.637	-0.006544032648229386	-0.009903187848217896	-0.002411646467704688	-0.00479658068556943	-0.0034502187238028576	-0.0036280133649808552	-0.0060308821440194366	-0.011708686544620166
0.638	0.0014908918705961397	0.0004537773366424917	0.0014884903266733102	0.00015574828776810547	0.0034756163892705745	0.0038554754500648805	-0.0010398437250816529	-0.004461377728668346
0.639	0.016025244375772966	0.013478831497204182	0.011877009955288184	0.007712724196797014	0.015998784493377827	0.011725186809709352	0.006013676187927352	0.006701107603671504
0.64	0.019150968630518905	0.013988799474814087	0.013784529262329889	0.008490745755045548	0.015984520634763646	0.009550276585070051	0.008598713751428361	0.010630691049453907
0.641	0.010984180630698885	0.00390583486393245	0.005920681125064302	0.0029444759418738847	0.0086000667037119	-0.00047118152240943205	0.002864379356060085	0.004649386016131892
0.642	0.010647885240335513	0.0009840022518731065	0.00725340091372056	0.003224953003587292	0.005270478617858611	-0.002807896574932766	0.002904798686701851	0.0039119908265724
0.643	0.008378432056972454	0.0005364136907959375	0.005801627629915559	0.004024011884029962	0.004480638355800729	-0.0030594606331455065	0.002862888206630814	0.00493353009942385
0.644	0.0023613777424644662	-0.0030928252797197396	0.0013291747566393437	0.0033578334572922364	0.0030478442704574044	-0.003328921132740723	0.0002540382820099401	0.003381375974561875
0.645	0.008554724360584952	0.009669619021713354	0.007103723750979111	0.010047731850711417	0.007032878385167523	0.0031570551640525473	0.003551752306934555	0.013931842592516168
0.646	0.021502671766830017	0.023490022470479238	0.017311372086146047	0.016407188769070262	0.016239960871159274	0.010006457682374278	0.007800231158208613	0.022434326310938925
0.647	0.016037320554882765	0.014925225260524326	0.012766516032406892	0.013386085598015691	0.009562345798693818	0.009337523844769753	0.005406309862398405	0.015567379375870171
0.648	-0.004879825020150676	-0.0026787288583856738	-0.003893193437244836	0.001802627080046196	-0.0070636519265881	0.0004920861207016213	-0.005117220758953464	0.0014263846437755142
0.649	-0.015068191727983338	-0.011473846304423618	-0.010359225722871635	-0.009620882639318772	-0.014152788965450034	-0.0053764914406003	-0.011747276861470719	-0.01132076082217369
0.65	-0.015612641721381668	-0.014098739523124256	-0.011066771568296779	-0.014784474755538065	-0.016861333984357886	-0.010569618855420997	-0.012761976554515607	-0.018141625081822658
0.651	-0.018347566928855932	-0.018099075361462855	-0.01008822169132951	-0.01827428336998512	-0.01887486156586577	-0.014974778701429435	-0.014348347256635505	-0.018367910332864595
0.652	-0.015423741511948957	-0.011184512109175418	-0.005499283617253329	-0.015234477883386877	-0.013111258311249617	-0.005178646442137274	-0.0098508100902071	-0.011048369644835916
0.653	-0.0037081469973561858	0.004514427075896658	0.0020400607820003176	-0.003679057703924617	0.0005557492615306737	0.008316216366631905	0.0030829025108238964	0.0022233085627972665
0.654	0.00126765199672368	0.006750288095882021	0.004085173028817399	-5.622142931703352e-05	0.004239219466708026	0.009342703800352813	0.009110184501018432	0.004674544004217318
0.655	-0.002916713368502221	-0.00112261230286907	-0.0015589312009178884	-0.003945965265452353	-0.006004696905212552	0.003924002813155907	0.005448880842200825	-0.003911856463906663
0.656	-0.005619448226599894	-0.0013687981313613986	-0.004139549876004018	-0.003352624054576016	-0.008193438368445364	0.00027694072885331797	0.003026382910578913	-0.004100121042267746
0.657	-0.003934553491955567	-0.0006207966021784057	-0.0025254405273399806	-0.0030615164043332928	-0.004954595778169953	0.0013718187101473215	0.000753768610182235	0.00011641921375400641
0.658	-0.0021151492084776086	-0.0038669163458462	-0.002214372966560772	-0.0016707967461673753	-0.006553532997497109	0.00011534465793434635	0.0001050912936506351	0.0014545870253835714
0.659	0.0030407451842241018	0.0036254681806374626	0.0016987189292474796	0.006506079535237666	0.003150394142791982	0.001181226122058908	0.001022704590661961	0.005049758450639385
0.66	0.015555073265084571	0.019149075227001457	0.013931568497114848	0.01685402881766597	0.01653170503700723	0.0116168987412105	0.006387727126147001	0.014339216564634537
0.661	0.018890838564774345	0.02324985509674513	0.016161613946136764	0.021321375122477233	0.017475081252346984	0.011441455727948571	0.009203931029408108	0.017892951229465968
0.662	0.006904000727934157	0.00982700506417196	0.005065469917569076	0.014624795608876947	0.008690709878554395	0.006064048714208802	0.004341755559833797	0.009900478848143303
0.663	-0.005505898677170176	-0.0034098643551246123	-0.0037948523155633047	0.005034865204860067	0.0006838690242721016	0.00048695539371810626	-0.0001518432987672336	-0.0003173984034158844
0.664	-0.0068142910317536415	-0.008165498796602402	-0.0051707832588126015	-0.0004699285245246114	-0.0006247733080425186	-0.007180530643107163	-0.0063468742823279715	-0.00503780147329808
0.665	-0.006435557656623523	-0.012777122735779758	-0.008737635094597301	-0.0070778679041728215	-0.008627525579329649	-0.01286575780968813	-0.00984836682088723	-0.008037123048759722
0.666	-0.007548257867431444	-0.011308003467145545	-0.011049604135262436	-0.008831030654748565	-0.013573615598093945	-0.014794814026366595	-0.011391687204516743	-0.009031748234698257
0.667	0.001999159302624927	0.0011317799813590494	-0.005296885817393537	-0.0031423699328576487	-0.006750979369790173	-0.0052953777160972895	-0.006606578826932041	7.338877269279188e-05
0.668	0.005384574664974168	0.005851139902349628	-0.0033972183268753745	-0.000545174627044208	-0.0008514464588887572	0.00024396770048106545	0.00010771810478184745	0.005247678017054759
0.669	-0.00592797433173406	-0.005454957608117103	-0.010446512271779	-0.005754103122571472	-0.004641890364598977	-0.004095522809016571	-0.0028729593810662576	-0.004294288827455943
0.67	-0.014912696122512779	-0.013074729233927739	-0.015638099142682375	-0.012255904113700778	-0.009786554997779992	-0.009212196414203275	-0.0072578133028706575	-0.011687798452853329
0.671	-0.011408694914649872	-0.012019716776153797	-0.011245500026895762	-0.01044767023527724	-0.005871556423770857	-0.008951409117640965	-0.007793377986057289	-0.007937882706170194
0.672	-0.005863959081349006	-0.01234974228443739	-0.010564975510445496	-0.007958016626816975	-0.0034140998174179045	-0.007431148829813846	-0.004290889027910113	-0.008865171661880401
0.673	-0.0014383063318136856	-0.009812007422792778	-0.005476736312217048	-0.004716259838268745	0.0031165734652646203	-0.0036660764494521373	0.004144811583609754	-0.006305815604547271
0.674	0.014034901063240304	0.006049319893736432	0.01024371430574194	0.00576288048609592	0.01756193666334899	0.010880066851784892	0.015992855099463858	0.006373309184004839
0.675	0.021755450175701473	0.01941542355825319	0.013699503598069838	0.013351981866265801	0.02356880861547001	0.020773195610114484	0.019474607271645263	0.013617462953650366
0.676	0.013750944951424428	0.014289185046583584	0.0038768625955260174	0.010840436554553011	0.015085969227290696	0.01356096447797574	0.01500128214441713	0.010344544119563707
0.677	0.007624610377619195	0.004079787913867752	0.0012872866380067337	0.0021092494164108603	0.008155516316761069	0.0012867018476410102	0.00841114479701913	0.0011502693202065717
0.678	0.007178040202103343	-0.0025684349364131598	0.005086646754834142	-0.005480021417316854	0.006232727859977024	-0.0032524554193505764	0.004172881196370379	-0.002776421411749141
0.679	0.0026060360717266254	-0.007347967202793783	0.0006740823415968333	-0.006499393003836214	-0.0005148554437890736	-0.005262422784503492	0.00031332830497563056	-0.005752988379324076
0.68	-0.0024423163415347275	-0.0042060222564346125	-0.004579554523448509	-0.0015293054449883648	-0.004753773746549402	-0.0044550299240094975	-0.003641996644846667	-0.004363343337609898
0.681	0.0038912805839340053	0.008930830826512184	-2.8854391997557222e-05	0.0037910788748163537	-5.3442860693802695e-05	0.004145463414798171	0.0006564136543236717	0.004263905383819504
0.682	0.009519123500975439	0.015254979664330332	0.007665370826423168	0.0082093454203545	0.0050413176631875405	0.010441635997117896	0.00242400566991772	0.008538338025655979
0.683	0.0008110738990205076	0.003281631801534075	0.0033362304010232857	0.00042037608788572385	-0.0016726416186897079	0.002062458922916226	-0.002369879339748552	0.0013583945502664832
0.684	-0.010804008636712124	-0.012857245615633683	-0.004616074335445724	-0.011767276873782368	-0.009140349840781492	-0.008916015520426167	-0.010783335380556213	-0.008861598952961182
0.685	-0.009270046373112122	-0.00982311211035562	-0.0023057901204752013	-0.007363714180720452	-0.009611778246430521	-0.0073277613063959255	-0.008729013203429765	-0.008193243606390852
0.686	-0.013924882694168507	-0.00560861846561356	-0.0012955129517924447	-0.004639522469280521	-0.013929833798162896	-0.007905289564399133	-0.003145304414168995	-0.007838168390818568
0.687	-0.021225441235147774	-0.011721305507403964	-0.006139255434037916	-0.008178278930296112	-0.01877216350700923	-0.011077639300343159	-0.0070667488704059265	-0.010877488380746238
0.688	-0.009777626889973237	-0.00042480865593262727	-0.0012710308718759584	2.1015191648110943e-05	-0.006889431716251088	0.00032952052079453426	0.0003791311013376542	-0.001938280940501717
0.689	0.004436910216675891	0.016650333102593295	0.013612865016563133	0.011778701904249457	0.01084231424446651	0.014526082259333849	0.008173126547389165	0.011658409520961328
0.69	0.0068259975752138335	0.015618396588530417	0.014288643133158911	0.01255397139959251	0.008675337058185875	0.011907120286506633	0.002454650124078685	0.009083980096926396
0.691	-0.002269214125197411	0.005484106703190955	0.004501959983013185	0.0061286057591732	0.0008803160232224995	0.0010018882662175136	-0.004438009171193712	0.0014771197917554167
