Time	EMG_Ch1	EMG_Ch2	EMG_Ch3	EMG_Ch4	EMG_Ch5	EMG_Ch6	EMG_Ch7	EMG_Ch8
0.0	0.4667695103538837	0.46870579334527973	0.44202726334175924	0.44383555456722285	0.5033816759194739	0.3726829488484145	0.43546810763316113	0.4407078693796402
0.001	0.41039540991042656	0.41056688228784727	0.3869467182753415	0.38490082955965466	0.4446842067473652	0.3146461213873011	0.37853218342149764	0.3798895396909363
0.002	0.37026190373563606	0.3744130604878111	0.34899620783292756	0.35380212603873606	0.4005226731013195	0.2933573566285695	0.34888928014774473	0.3528053781034474
0.003	0.3905162435232699	0.3978139122579833	0.36326966450427334	0.37718138597038386	0.4202482965444117	0.3202563659345053	0.3730875859726761	0.38052015585151483
0.004	0.49649514782049314	0.5055709163986719	0.4647360410328061	0.47948021993952633	0.5365758629917166	0.41215143700016116	0.47358568982193	0.48087686218327746
0.005	0.6316311220488819	0.6399101934315777	0.5952793380667305	0.6088556645287249	0.6825380984369118	0.5213961365923336	0.5989376024032932	0.6049786320995089
0.006	0.7543801465784621	0.7611161422616	0.7154702863565864	0.7239902483501734	0.8144043476990015	0.6130207536844302	0.710120980072704	0.7177308514811633
0.007	0.8743345987111742	0.8803314158279097	0.8308677220937504	0.8339442352902929	0.9497084269558205	0.7000256449160595	0.8217954133598059	0.8241190781753358
0.008	0.9427157037913473	0.9442547131501043	0.895068278456292	0.8908560414104104	1.026576548233022	0.7422841150286142	0.8827459963435224	0.8760332236859795
0.009	0.9286749342217837	0.925958981304142	0.8843021003791812	0.8722577752518913	1.0150674438484977	0.7185720573646581	0.8664760298481323	0.8552132365542883
0.01	0.8323667783444827	0.827968324277444	0.7966107158909513	0.7762687114967036	0.9182598940600045	0.6331887788467367	0.7728596154249335	0.7589656961960045
0.011	0.6787596601186174	0.6738981206841437	0.6500773983096051	0.6264121984717614	0.7530455838380351	0.5027619621992783	0.621588447670246	0.6060331764407063
0.012	0.45038950247838955	0.44486029390285003	0.4316636677708284	0.40801392073607473	0.5043609675666958	0.31324138110014976	0.4037458359080635	0.38785135298528733
0.013	0.16368682111568986	0.1591681644250022	0.1603701665864524	0.13726662197613007	0.19168706730321458	0.08832045045766834	0.13844630819656872	0.12399860569196354
0.014	-0.09568849784310546	-0.09592999152023086	-0.08675809769283367	-0.10210367928805698	-0.08678878040460526	-0.10859242085177921	-0.10021862961790515	-0.10964556832189698
0.015	-0.3285950969651878	-0.33011349210092883	-0.3087993658807486	-0.3194837354513812	-0.341949310243382	-0.2870502675474217	-0.31463561098576026	-0.3221141337354874
0.016	-0.5193556319398609	-0.5219443058546218	-0.4915926079481043	-0.49756050869189244	-0.5593188901677726	-0.42651230042247606	-0.48807702023095084	-0.49389487385901737
0.017	-0.6281971853143963	-0.6266226332882372	-0.5936963480573325	-0.5929223369690196	-0.683629785499495	-0.49014689812336454	-0.5827721167889724	-0.5842780820566298
0.018	-0.6534673917166623	-0.6502114487989108	-0.6181181642874323	-0.6074986612769677	-0.7140445633472803	-0.4919990511427072	-0.5976138774755086	-0.5976470867240196
0.019	-0.6046097453651513	-0.5978595142001762	-0.5727745325963954	-0.5556395594508824	-0.6594451344600544	-0.445450168353251	-0.5453948100571494	-0.5407169592766546
0.02	-0.48847796306574187	-0.479245584943263	-0.4635255286335218	-0.4445693402598801	-0.5357435609698384	-0.3489948816876166	-0.43402009457754315	-0.42580442306325705
0.021	-0.3073486950874089	-0.2979953423299617	-0.2907192515838878	-0.27273235563062126	-0.34305503860368514	-0.2045853961668761	-0.26653249882649327	-0.2545266731900761
0.022	-0.11449927028368916	-0.10835127360041658	-0.10752177017328107	-0.09445409626324254	-0.13457304386270186	-0.05898948797713139	-0.09121735220268412	-0.07858522171631634
0.023	0.07699957193354093	0.07687622685968859	0.06984512667392498	0.07920837858840202	0.07085844609391365	0.08290527261595126	0.07892642386880162	0.09125017380906279
0.024	0.24496230763246207	0.24434937824703004	0.22979254339046823	0.23437133177975744	0.25609227606808616	0.20782232938861223	0.23261410411537745	0.24203714978518998
0.025	0.35375418989962365	0.3502876285659745	0.33205401818440367	0.33373362733721634	0.3776043930689896	0.2822120175759366	0.33275363055863255	0.3322095671957969
0.026	0.386676288691603	0.3791088163226575	0.3635581937766506	0.357603682448511	0.4150811020893161	0.2935475371162943	0.35607637136772297	0.3523943871358608
0.027	0.34316212123700696	0.33528412770142757	0.3249927012430609	0.3141006343429516	0.3758244961523406	0.2511367364406357	0.30980791719777373	0.30698510325522743
0.028	0.2434666423759563	0.23266532711973933	0.23120178940051037	0.21620298918297157	0.2730617591344856	0.1646033368731744	0.21225929413766947	0.20659580128693064
0.029	0.07826951274419651	0.06682485655868367	0.07412480118804139	0.05675895034395853	0.09210824051359073	0.02768610979492005	0.055515534393621564	0.04684528647388798
0.03	-0.11248690002505997	-0.12116802732162119	-0.10544170259433203	-0.12244189812082398	-0.11286828019052426	-0.1210503891811971	-0.12345827525995452	-0.13073397425986444
0.031	-0.2829280772881338	-0.29086917202165	-0.26759084712399567	-0.2832194275615409	-0.3000815694070825	-0.2524249057841644	-0.2749107391676708	-0.2865350151095347
0.032	-0.4357527485920659	-0.4415856171917904	-0.414990663077029	-0.4203954216956543	-0.4679633433122184	-0.3624527710152756	-0.41061293302847907	-0.4214295639848028
0.033	-0.5417780774767098	-0.5425160940921923	-0.5144354932902799	-0.5121544648474579	-0.5811240748614043	-0.4287972780652185	-0.5052690873751848	-0.5096678855448773
0.034	-0.5763613408760134	-0.5736766227229483	-0.5461107535344567	-0.5366577478745808	-0.6211181797520808	-0.4397484739131718	-0.5305073851225056	-0.533061489777096
0.035	-0.5356829681484189	-0.5317928130121969	-0.5102895989048084	-0.4933927071703662	-0.5855793315518912	-0.39912891913522913	-0.4930977106542201	-0.4909507435919763
0.036	-0.43596776588152575	-0.4297631651435741	-0.41869891395444747	-0.39678356131467096	-0.4858566158742591	-0.31547939182127804	-0.3995595621778704	-0.39299695265202167
0.037	-0.2875493040736038	-0.279041172649623	-0.27328935531864795	-0.2532550048810398	-0.32255104422596803	-0.19361314649051842	-0.2580027875903317	-0.24546500799739443
0.038	-0.09774341958892224	-0.09364688232172434	-0.09609548371462376	-0.07653170116116872	-0.11875867364685333	-0.04747508704506208	-0.0825597839631024	-0.0700707422803105
0.039	0.09059637824895923	0.09417614077991152	0.08285922551337999	0.09978023795784995	0.08580945113870161	0.09711839148169715	0.09052222171372022	0.10252522828928706
0.04	0.2654950356312422	0.2712907579623472	0.25242567885097444	0.26214160075488846	0.2814532663698919	0.2288339047086396	0.24944298279537874	0.2613405767843622
0.041	0.40856575706867126	0.41199712256097276	0.3860815693704965	0.3916607388253068	0.4392237169396105	0.330433940535114	0.3763653539621884	0.38625832015234135
0.042	0.48846254359836083	0.49358739831330234	0.46591090069119223	0.46258248909494865	0.5287208739229339	0.38364698558617244	0.4496594612061717	0.45867541868995454
0.043	0.4998020467017006	0.5026274250356875	0.4750525016770054	0.46868169731394294	0.5410943018945401	0.3823914170651654	0.4571442478384609	0.45968317350644927
0.044	0.4458394850378369	0.44767149268372197	0.4226521905789239	0.41314466863993304	0.48594752265483326	0.33071390361560377	0.4030784739669851	0.4008816884737277
0.045	0.33161271355589633	0.3341509698672664	0.3163754496695265	0.3023120442884062	0.3671360870062713	0.23521508874871602	0.2966391831546259	0.28935020728807037
0.046	0.16867960322128606	0.1668667499758703	0.16202953445115828	0.1465728429163339	0.192879695284938	0.10292575288007079	0.1465496583030559	0.1361976889959905
0.047	-0.004185596156610069	-0.008307005488072654	-0.004508345858162518	-0.018437324797713747	0.003896856944534807	-0.033556836842053746	-0.011503495535203188	-0.02059225041006106
0.048	-0.16270492160644648	-0.1658364705548433	-0.15488942773626374	-0.16603184700151147	-0.16949175516711773	-0.15183893450250888	-0.16083260626570245	-0.16515003508054593
0.049	-0.29597567215233705	-0.3013422743035851	-0.2813805612426246	-0.29096807327995744	-0.31703227318382143	-0.25053067205874135	-0.2836053715108407	-0.28579204427538774
0.05	-0.38098780649051467	-0.3881041681264553	-0.36204490047145854	-0.36777980477232153	-0.4140644377140143	-0.3045559882965453	-0.358043216663483	-0.35777390660450653
0.051	-0.40395185055432703	-0.40521151009921275	-0.38162680431215223	-0.38280724382230913	-0.44264631845629804	-0.30813737943817077	-0.37271840681732743	-0.3667854453405653
0.052	-0.36466639308436366	-0.36499074139988047	-0.34668000618335837	-0.34161377989435043	-0.4063909162405278	-0.27070575154613524	-0.33199115911280247	-0.3257524775222646
0.053	-0.2735133197253463	-0.27240960763330363	-0.25850383034877766	-0.25057478517359366	-0.30769371111685495	-0.1928469018787564	-0.24462209864569323	-0.23744102065801076
0.054	-0.1331117908222425	-0.13159722870236523	-0.13035694791617197	-0.1169099943960824	-0.15582171694721916	-0.0803109608378333	-0.11315163138053239	-0.1063070246057143
0.055	0.026993776069286716	0.026015883930375402	0.019817945927490012	0.03335521414044583	0.01657294033856254	0.0470596610652487	0.03175072759983222	0.040890681272364754
0.056	0.18256561433519536	0.18230875729170712	0.16962720630779038	0.17900430312205678	0.18731715460689918	0.16565049535852722	0.17714947152894858	0.1820710733017682
0.057	0.3221366352174787	0.32179880706126573	0.3010824239058247	0.30917353698031624	0.34236743558844246	0.2678526295760682	0.30769271157829814	0.3068030111364079
0.058	0.41918347329239114	0.4204751137281863	0.3979352342998738	0.4002818002818299	0.45440933786857624	0.33674934825969083	0.39674436039324895	0.3958885693889579
0.059	0.4588085179282966	0.46068474305135315	0.43794972752658734	0.43509242336441295	0.5024627057074393	0.3590316825581517	0.43179944986727575	0.42776877019938553
0.06	0.43656591440686715	0.4403888235478198	0.41873125628765173	0.40897364056776225	0.4819854025690718	0.333504279488814	0.40884300163294496	0.40511786329663924
0.061	0.3613011143049811	0.36468989451574346	0.3462405715010167	0.3350385322530162	0.4027510128453906	0.2661664326758773	0.3349692195122161	0.32708143101591264
0.062	0.23398974127313624	0.23608206595456155	0.22695273164633092	0.21224648631091922	0.27068239732836646	0.16479572107471796	0.2141446078431159	0.2018987638591005
0.063	0.07522586283546052	0.07450742502931688	0.0780254534925634	0.05950746138887955	0.09932250332302368	0.03713841928027421	0.06418115654238227	0.0529032638433953
0.064	-0.08337709839391198	-0.08899848728437583	-0.07610463313790017	-0.08981243636553402	-0.07753231641575513	-0.08848840154289941	-0.08711989751403207	-0.09523313039805407
0.065	-0.2301277713242684	-0.2356219640963622	-0.21644536099993716	-0.22861363065061327	-0.23916802799562725	-0.20085122308306327	-0.2198797876203429	-0.22905827091056163
0.066	-0.34444085172522887	-0.3472118882279919	-0.3231988551524455	-0.3293010137668977	-0.3673308239222714	-0.28319971923311776	-0.3202829668806535	-0.33072736389416285
0.067	-0.4073809800915234	-0.40718585036782906	-0.3834934611929063	-0.3813401360069666	-0.43640545287547194	-0.3197901187690697	-0.3727945913453865	-0.3802528181061143
0.068	-0.4134037759099985	-0.4116024715460272	-0.3899540744618017	-0.38171078541191406	-0.4440206824070559	-0.31356496055930433	-0.37519814756715925	-0.37699233094466805
0.069	-0.363117511549097	-0.3596624765441791	-0.34624516802737476	-0.32950480846487573	-0.39611929846220767	-0.26499399367532517	-0.3296623167468065	-0.3228815618420906
0.07	-0.2632379725653542	-0.2597666022730726	-0.25676835613912885	-0.23418042680516657	-0.2927764725963247	-0.18468192298134198	-0.23575377506710177	-0.22899811458089783
0.071	-0.13067300778612706	-0.1252593025655624	-0.12582309725878002	-0.10558697752675947	-0.14742236714128928	-0.0777967307504377	-0.11158822574646748	-0.10294739076157612
0.072	0.016686552364861752	0.020341966332632484	0.014751048313349086	0.03137295530094952	0.012428707167712525	0.035730910554098175	0.02288879768774054	0.030853012033889963
0.073	0.159019823168148	0.159228102347193	0.1499276552071912	0.16200442755793662	0.16448371675048407	0.14322239198181688	0.15297463774479608	0.15714602807084993
0.074	0.280522199543523	0.2811110894344013	0.26682148233480896	0.2686538099571188	0.2952627960737381	0.2302335133912189	0.26321372291075307	0.26779532500110154
0.075	0.36222043017897826	0.3603825129917279	0.3419172983248201	0.33846918560540357	0.38490550721352973	0.28065925038304473	0.3336255969776282	0.33681910570451207
0.076	0.3838291766072225	0.3822223771484718	0.3657751923131791	0.3600168292720755	0.4158847078519682	0.2924069692888591	0.35355853099863305	0.3548095185690136
0.077	0.35279268708157735	0.3486078923259056	0.3350654701260004	0.32708582690289567	0.38609630982107057	0.2612180103536641	0.32350972273514633	0.3185104380938838
0.078	0.27234007208402533	0.2649791159421835	0.2573077048308473	0.24567566270200908	0.29969965792766	0.19163828479036385	0.24460916757512335	0.23716683493220653
0.079	0.1449053207096635	0.1407236117768543	0.14018096739051342	0.1267441762961401	0.16752442773597762	0.08740664367940115	0.12480678216273551	0.11840561573655672
0.08	-0.0018923626496895939	-0.0034752879781083353	0.002693113870086899	-0.00874702150852778	0.010119303426350312	-0.026954493973199004	-0.011759341904532738	-0.019411994282121273
0.081	-0.14137701657471832	-0.14421945082963872	-0.12979342170818087	-0.13989607133223209	-0.1472125520471826	-0.13259465027848527	-0.13967764372943267	-0.1469231216966775
0.082	-0.26148318912825835	-0.26392269398899326	-0.24757197419266364	-0.25388234976856383	-0.281769222247072	-0.22123995031819438	-0.25171831295804026	-0.25600925879371694
0.083	-0.3460811012007514	-0.34594924116256737	-0.3319943901093503	-0.3319275300394536	-0.37743451874479084	-0.2776400895873052	-0.32800181244197907	-0.32862534420065437
0.084	-0.38064003991966966	-0.3809260211640492	-0.3664272269466923	-0.36013396333569225	-0.42134465083725897	-0.2932322636894293	-0.3569656133232413	-0.35243704862457514
0.085	-0.3672444593299035	-0.36227656850686474	-0.351302818175322	-0.3440053737928115	-0.4072473175809776	-0.2703589106589618	-0.3393554847155549	-0.3316132064517036
0.086	-0.30504907152810784	-0.2961872440777683	-0.29058075286295726	-0.2794711916482612	-0.3402557076912455	-0.21628784607701404	-0.2751908061125621	-0.26691018483166207
0.087	-0.2007456621545767	-0.19356305475610724	-0.19279501100318888	-0.17835325797678542	-0.22740240820700178	-0.12896869324045168	-0.17728855677886035	-0.16725401635811876
0.088	-0.07133940159529505	-0.06406632661908317	-0.06996707382154865	-0.05693520530932858	-0.08654446730071928	-0.026993627407171303	-0.057823403277074234	-0.04706184224502746
0.089	0.06893021086655754	0.07408723192241609	0.06112545026253963	0.0733460215186365	0.06382484268084399	0.07791911735725898	0.06912611796593138	0.08146480024620238
0.09	0.19737626043104115	0.20137274291652932	0.1831435495189459	0.1927669197010301	0.20741900684911366	0.17413325289236078	0.186856471024539	0.19692975843175461
0.091	0.29511969803967114	0.29797657225836155	0.27957694945364375	0.284677027817651	0.31899129476777943	0.2411622302574965	0.2788616797004579	0.2828009940014538
0.092	0.3517092900140649	0.3498111750921979	0.33491031012961886	0.32962222336540314	0.38481299284179776	0.27603712537492353	0.33074562531890034	0.32832574490470184
0.093	0.3587162330959846	0.35328523033497183	0.3424000217077821	0.32997326081825684	0.3954114978516885	0.2734232737999006	0.33270288729167263	0.32411524364122707
0.094	0.31324037662364	0.31011311983514067	0.3018472444102799	0.28681105127006656	0.3496981705472476	0.23373739411671807	0.28731914155834903	0.2793278463410246
0.095	0.22781062374617894	0.2226865456586964	0.21868506442654717	0.20066536568288504	0.25639681191607444	0.1573994217815154	0.20238873024445916	0.19523927004537653
0.096	0.11343307800675925	0.10425086379028228	0.10435180225539539	0.08884044138042477	0.12478968075667814	0.058125835109038564	0.0905103705015157	0.08301067595326363
0.097	-0.0206156397155888	-0.02840045847298559	-0.022480940345335158	-0.0349212203055	-0.018933842802104653	-0.04423644576667913	-0.030846323655527596	-0.038758294050700234
0.098	-0.1490546026937358	-0.15560880850428427	-0.1413772079658753	-0.15071158344344174	-0.15294874098280417	-0.13630585748996688	-0.14549876989127303	-0.15706863279193564
0.099	-0.25302448640340114	-0.2551385261414939	-0.23980282890088503	-0.24352834439107524	-0.2684562723197889	-0.20674477214437312	-0.2383655985004361	-0.2480720355537128
0.1	-0.3182248764886632	-0.3187408175306557	-0.30236341939067124	-0.30203986425344664	-0.3429471481749851	-0.2514105108759208	-0.29775142293597295	-0.30156703568819326
0.101	-0.3352710868005942	-0.33629104299652957	-0.3194127677261363	-0.3143259696125788	-0.36743996278637703	-0.2615258441808629	-0.31391889800419653	-0.30931901723872157
0.102	-0.3060652581891608	-0.3061836738369271	-0.29342206566407214	-0.2852856235962131	-0.3432441751378681	-0.23470590832653662	-0.2861476402602773	-0.2745433541428215
0.103	-0.2390354616201205	-0.23883958560923566	-0.22765303542056228	-0.22003904279949776	-0.26869334282154433	-0.17468623255993515	-0.21916849393434104	-0.20523216716284748
0.104	-0.13675756143687265	-0.1340903536024376	-0.1301309689532933	-0.1209475834725267	-0.15707438204293692	-0.08899208652390925	-0.12069486610140912	-0.10769129178297297
0.105	-0.015101454546991046	-0.010581393129543848	-0.015298037132272558	-0.0057015412480402785	-0.023436157932659712	0.008470881659059707	-0.006034058636692423	0.0026640052995357574
0.106	0.10261146588629325	0.109499845797037	0.10010086262556986	0.10939172861666584	0.1113991461921923	0.10065653049522441	0.10690394248771429	0.1142629107267397
0.107	0.21068827785647865	0.2171045347118586	0.2040774991695001	0.2096221108238807	0.23141383854828584	0.18109231439345322	0.2056778479681927	0.21235718835029774
0.108	0.29014541733629884	0.2931101343006217	0.278885974785718	0.2791638265093183	0.3191150568061453	0.23792843081491927	0.27657195639010784	0.2793689129272572
0.109	0.3262870997727196	0.32860913447332024	0.3115840866865404	0.3118999910142037	0.35909475273570135	0.25546379903254113	0.3079698837992429	0.3050474845558455
0.11	0.31717775121603276	0.3175783480551686	0.30333699070957015	0.3002127494370395	0.35231754237468293	0.2397278820222793	0.29581299790949184	0.29041236507189144
0.111	0.26402262926481823	0.26244689868646515	0.2531287621933571	0.24637986123037503	0.2961054287712856	0.19174512493947876	0.24235231263886936	0.23390709157515321
0.112	0.172945418480618	0.17048367160505348	0.16624234199885984	0.158084909818404	0.19507404145752397	0.11619653661445697	0.15320542881197008	0.14590003160375375
0.113	0.05692842834265069	0.05189538902920802	0.057313311605214905	0.04813578047928909	0.06768944769000818	0.023232540380536737	0.04387165909381898	0.038262349063362115
0.114	-0.06432204259569502	-0.0646859547142393	-0.05731919871982147	-0.06377587804469435	-0.06593814672911971	-0.07140119944030159	-0.06585668652004481	-0.07368610016501385
0.115	-0.17288719810869224	-0.17031019549619997	-0.1620108805004686	-0.16518141444710763	-0.1867123605940444	-0.15294323781504462	-0.1658242321125563	-0.16943214401430118
0.116	-0.25513968278937277	-0.2564232362771813	-0.24059001303768376	-0.24090624733066243	-0.27774951397223596	-0.21380277419738342	-0.24140125131654216	-0.24418451775937777
0.117	-0.3029127494846165	-0.3019453948366884	-0.28448800438212074	-0.28352764482261195	-0.33277283828520493	-0.2396525809518112	-0.28330074248199705	-0.2842557625139879
0.118	-0.30567716229093966	-0.3039645460624339	-0.28982619964322015	-0.28712961288181343	-0.3402073100518247	-0.23460685319589064	-0.283699007231021	-0.2812107082580124
0.119	-0.26770971492904594	-0.2666244523383177	-0.25714514846424197	-0.2501393658175344	-0.2984391949524874	-0.198942902797853	-0.24437722696897485	-0.24261976974932903
0.12	-0.19352853584493165	-0.19192963331852037	-0.18860273387812507	-0.17871006418216778	-0.220151899930451	-0.13298777227871322	-0.17412367568145276	-0.17217733134045585
0.121	-0.09258418794979316	-0.09328487621470541	-0.09184699413734808	-0.08183676113001562	-0.10962316234742858	-0.05246973638085661	-0.07871638943619225	-0.07689907942652445
0.122	0.017847168774319105	0.018477207653301464	0.01390071473130745	0.02354193043382089	0.015020080698192412	0.036819477885511064	0.02649972798715491	0.02768746747896822
0.123	0.1300505032519463	0.12913738998422358	0.11924149649785419	0.12521870729190449	0.13351746748500143	0.1218129322348807	0.12775429583891912	0.12807390487237102
0.124	0.22203699419302575	0.21775657122771108	0.20736239691121933	0.2098135282969664	0.23585143650042245	0.18738925265221248	0.2105039091069383	0.20837776494786794
0.125	0.2810281193177837	0.27828945463853855	0.26466924743611425	0.2647591781232781	0.30737627110824	0.2271677613069396	0.2637092378153796	0.2618797138846646
0.126	0.30212804648636993	0.29881778832259626	0.28467754570416953	0.2814601779817653	0.3323763284291847	0.23407091197221863	0.27937404497839957	0.2783675132701585
0.127	0.278125060581246	0.27519710220611615	0.2617350262148861	0.25862838296606017	0.3078376729752586	0.21008730192016686	0.2559620305523157	0.25171144661974515
0.128	0.2158686578051069	0.21403374778503062	0.20609649095137916	0.20079291222894097	0.24132788400401614	0.15754120495301044	0.19698215030840396	0.19289294442630292
0.129	0.12257894378354903	0.124940012839029	0.11859203157460652	0.11162919386474772	0.14252809242835635	0.08091922137853738	0.10914818864713108	0.10403171897477372
0.13	0.01377694425675633	0.017755368591616486	0.014028947374302516	0.006689077155395582	0.024503996314335297	-0.0056109339822498034	0.007669857652962643	0.0020471516221895946
0.131	-0.09475243383111823	-0.09544972045421876	-0.08894006949334994	-0.09866297631326178	-0.09754220251442029	-0.09155530566022925	-0.09310649796515212	-0.09781440314707478
0.132	-0.1919444929192186	-0.19338136785371976	-0.18160735951684995	-0.18864042770101982	-0.20335349000389288	-0.16044626852923355	-0.18080564215257655	-0.1840868087388582
0.133	-0.25923689734810496	-0.2607746819019957	-0.24386654308630984	-0.24685372042662726	-0.27843352781529995	-0.20461559006371385	-0.24314157914697526	-0.23997258570535124
0.134	-0.2883161215980204	-0.288541068675575	-0.2725927659475149	-0.27333063222481524	-0.3144375176372823	-0.22412609531042976	-0.2696219877478585	-0.2630830046201523
0.135	-0.27890085183836677	-0.2803678840142096	-0.26465454671440675	-0.2613547770495189	-0.3047013732778537	-0.2105260145560296	-0.25903205133554674	-0.2515563677587836
0.136	-0.23124905165738113	-0.23154923025742613	-0.2199730466823438	-0.2134148179833592	-0.25458176166038304	-0.16865204377211737	-0.21343307806533324	-0.20437145578048715
0.137	-0.15095108158067164	-0.14858229689024652	-0.14791896091360995	-0.1397268651921414	-0.16962161756658006	-0.1044645772216096	-0.1383656727567229	-0.1277077708827374
0.138	-0.052447890047034755	-0.05087454228705949	-0.05296886937203718	-0.044064304326986485	-0.06366482721152046	-0.02654445778047956	-0.04656461961480061	-0.03589425707443756
0.139	0.05081253946983952	0.053809987749310006	0.0472074708516582	0.05363670318940113	0.048678209108655154	0.052319268253319305	0.051816828340326415	0.058650898515846935
0.14	0.14588077049598866	0.15110548493277365	0.13902491655803623	0.14300324591151822	0.15602955439885197	0.1251713301173833	0.1413258491674665	0.14737674933939657
0.141	0.2214311206334548	0.2277188691790052	0.21124508954641674	0.2143878374658583	0.23892774123625993	0.18024665129213976	0.20863090154190114	0.2147372931307939
0.142	0.26779730001584146	0.2704192223136504	0.25268754844917346	0.2526288507692128	0.2878174201258145	0.20936256584218663	0.24786661271632782	0.24935863854069518
0.143	0.27395580987840124	0.2732570108441573	0.2606711553995916	0.25584029587557494	0.2949962578874972	0.20717530370194315	0.2504757435196638	0.2512188913472218
0.144	0.24220562289450395	0.23903325711222226	0.23228617763892817	0.22186432352080224	0.2627726908226657	0.17359745665956203	0.21915659906276486	0.21669911981873682
0.145	0.17453284486897896	0.17201738956354934	0.17046544455503176	0.15676914639818634	0.19588048833998653	0.11843561391849756	0.15810169371706376	0.15071953778553765
0.146	0.0818127928880179	0.07816173360761233	0.08348354856753391	0.07148094174046883	0.09911526190766083	0.04868121627018679	0.07460761957134403	0.06323247049243666
0.147	-0.01827940683629687	-0.022118418819329952	-0.014271554952940595	-0.02256625416783622	-0.008788885854006261	-0.029436181318598854	-0.016222679021175836	-0.03358325207159641
0.148	-0.11205839561781691	-0.11302619178077701	-0.10572569495053061	-0.10683316296710695	-0.1132288549837213	-0.10254430150529179	-0.10679878136266156	-0.11986338842629823
0.149	-0.1899304114939132	-0.19110009817362614	-0.18088500947473962	-0.17995746320986158	-0.2043256003427214	-0.16047086248277986	-0.1806171858313315	-0.1887218029774157
0.15	-0.24274798072559853	-0.24063584160526635	-0.2307672573212311	-0.22950716742034247	-0.26522727963052467	-0.19386802139060483	-0.22375107600452285	-0.23150804857003146
0.151	-0.260004024600221	-0.25645410325838924	-0.24561829043205666	-0.2383914830161268	-0.28253562903160667	-0.19708884229169402	-0.23542756463972786	-0.2421297915494028
0.152	-0.23989646843563808	-0.2366668573631643	-0.22710811269740055	-0.21733552293416386	-0.2602874358781979	-0.1743887977927833	-0.2158105313566395	-0.21879590413368127
0.153	-0.18675029596850065	-0.18453600097478962	-0.17825837137065165	-0.16645138627966247	-0.20456783317772684	-0.12980265678657404	-0.16816425406839502	-0.16545154291360453
0.154	-0.11057221561877671	-0.10749958677536461	-0.10644773848268589	-0.09349717931679032	-0.12189430174275384	-0.06667765535899767	-0.09509183954830416	-0.0922840260361025
0.155	-0.016128355432345986	-0.013122378342205882	-0.019777436037463975	-0.009567776568967661	-0.021261471482977887	0.006931722713500117	-0.008746863904848391	-0.00517146564268478
0.156	0.07824923446918813	0.07955275003950613	0.07204449184811837	0.07737725004530531	0.08001030494425262	0.07720485410718061	0.07507232309076951	0.08153328801423258
0.157	0.16016678600699533	0.16013299841150153	0.14922121137704913	0.15127783658989033	0.16795696801972154	0.1361295158418801	0.14930465843862603	0.15770896155647868
0.158	0.2202451559538013	0.21966388030672204	0.2058267951157577	0.20631727122136764	0.2311775880788238	0.17598459163554417	0.20030772621773998	0.21026111794438576
0.159	0.2468074045613418	0.24676287334554212	0.23410177595129017	0.23051914515210728	0.2591264893545322	0.1909316125825898	0.22140582380055657	0.2300723078528775
0.16	0.24140689543479027	0.23730986896617032	0.22852315773257875	0.21939672336770258	0.25450662836569055	0.17855450133282913	0.21426805851175643	0.2201195656754283
0.161	0.19930486228249986	0.1944587225338999	0.18998994599338767	0.17906071960903497	0.212972859447172	0.14082095072603273	0.17503413216182545	0.17945835872973478
0.162	0.12892116515420277	0.12327531600116305	0.12453435444656027	0.11373967086554908	0.14127760715033588	0.08364662080731106	0.11140016980285398	0.11207377605254831
0.163	0.04280934622492722	0.03830963718505374	0.04419516255802619	0.034875346645082995	0.051615972494143944	0.014769282185183516	0.03287569348432376	0.032211439784043235
0.164	-0.04616260162608255	-0.04875799478825973	-0.04299109233623044	-0.04772323727949172	-0.04499465307381148	-0.052732421374585337	-0.052307295215320085	-0.04967443954000671
0.165	-0.12802864313845172	-0.13022310242111163	-0.12153863299916087	-0.12321468145862066	-0.13352326041347146	-0.11274033191538936	-0.12511852931394501	-0.12533984505941553
0.166	-0.19038051037087647	-0.19073055924135296	-0.18048401958038585	-0.17914071763811798	-0.20002982999253163	-0.15525846221235612	-0.17651901492279098	-0.1797929523260186
0.167	-0.22528282946858377	-0.22494279178659368	-0.21167563773726056	-0.21027496825033765	-0.2371900372197612	-0.1747611482342172	-0.20524057051928987	-0.20919603254309727
0.168	-0.22899764960603458	-0.22810405318296284	-0.215092453378645	-0.21267323256362508	-0.24726930344786363	-0.17243101573404349	-0.20635847350158457	-0.20821477191099017
0.169	-0.19683966771575792	-0.20037500480908355	-0.1906094806628156	-0.18465268917053898	-0.21955291170681404	-0.1474004139227155	-0.17842729354517403	-0.17679505493800188
0.17	-0.14216609361637006	-0.14356551309168847	-0.13734206377097083	-0.13132691055968693	-0.16010959690307705	-0.10065889438533356	-0.12710418184852257	-0.12456449874345626
0.171	-0.06964882959460153	-0.0677053814252134	-0.06650247829381352	-0.06191825912355428	-0.08126586154116178	-0.040621569363560324	-0.058036721615318726	-0.053816413314030566
0.172	0.013190905377057869	0.01400514976101212	0.011549955426989606	0.015347173118622099	0.011594013281917472	0.02407239951344337	0.02002349486631877	0.025043359417679305
0.173	0.09379832913300255	0.09698303806024186	0.08732123005442319	0.09028841384596781	0.10057901712087512	0.08595014334373102	0.09450712866443367	0.09665704674101623
0.174	0.16090069932019851	0.1654724788676763	0.15180575679683658	0.15351180251619237	0.17475240531128447	0.13287368966013904	0.1579329992109903	0.15464655475315792
0.175	0.20449954430755019	0.20677963301052762	0.19399390414485174	0.19337877500063477	0.22376542987983186	0.16227316322374194	0.19567077941414315	0.19424921094366907
0.176	0.22023474796160325	0.21978376121327756	0.21109731119914474	0.20352801298297862	0.24042151173514528	0.16969492442438172	0.20589434573831397	0.20379816062146278
0.177	0.20556151211000234	0.2051279754121136	0.1986143740340668	0.18774339794250333	0.22410337469861305	0.15385977888893185	0.18857374112494346	0.18405587596276143
0.178	0.16290034587377922	0.16158617212213638	0.15342856543108238	0.14566078173018623	0.17697433966930903	0.11424877592410768	0.14407702170241957	0.1400496032387958
0.179	0.09525457521308855	0.09757118979728133	0.08879245310902734	0.0834790845729034	0.10593148144188688	0.059639750391467065	0.08211317442517319	0.07574096878623957
0.18	0.013216493813535277	0.01741116215243973	0.013476112664102306	0.008522310114801528	0.019825553918829408	-0.000327263031963596	0.005730707214094652	0.0019245488239134296
0.181	-0.06822380971497474	-0.06845556494281987	-0.06389501793290255	-0.06854376553842297	-0.06878398823234977	-0.062444030011645675	-0.06791240921338747	-0.07078819407687363
0.182	-0.13671978933461257	-0.13856084045889622	-0.1296695059464963	-0.1320934735286387	-0.14358743781314212	-0.11273013912984854	-0.13085152226990418	-0.1351464519536095
0.183	-0.18854686471113127	-0.18739324974794752	-0.17744609688182794	-0.17523109841890344	-0.19942571476439536	-0.14569287196777794	-0.17530395477247618	-0.18097911208781967
0.184	-0.21246027021984076	-0.2121554121491994	-0.20263749914460322	-0.1946457675565528	-0.22932351691281408	-0.15795337953879454	-0.19507917316158227	-0.19815578000462977
0.185	-0.20736752504434605	-0.20558720397393493	-0.19742251696805513	-0.18712579973692878	-0.22255784962202546	-0.14988122328002	-0.19050642032229206	-0.19156298294747479
0.186	-0.17715408801305166	-0.16991791879164503	-0.1649869388026536	-0.15364154741356903	-0.18874158596508026	-0.12165741718062104	-0.1568874053058499	-0.15713136566316083
0.187	-0.11692840821073451	-0.11393857005182999	-0.11281558130593841	-0.09805098229548281	-0.1294678126311282	-0.07518372342606752	-0.10317224590501864	-0.09843332613156552
0.188	-0.042418386307347504	-0.04049090065855861	-0.04195569686195127	-0.028898429088689358	-0.05189497656868649	-0.01806712089840478	-0.03582631537018187	-0.031083476587683123
0.189	0.03676039986832841	0.037653350701065555	0.03561902093758622	0.04339224835643616	0.03275746898326541	0.04043434910002205	0.03702565585874115	0.04120231713970769
0.19	0.11041864976383914	0.10667619306802006	0.10398374409993855	0.10954069615367613	0.1137851619704259	0.09225060234227889	0.10379086957511842	0.1076456454129278
0.191	0.1663253400421037	0.16036281370872194	0.15783932681754081	0.15722947109601712	0.17490768391628414	0.1326126842664105	0.15443623642560386	0.15696751705375844
0.192	0.19791761885039502	0.1950214793801589	0.19001580588584122	0.1849010440096705	0.2144656008347643	0.15421289791084344	0.18413210760771215	0.1855470838716479
0.193	0.20296514702307197	0.20239092109257467	0.19455330634532947	0.18795226029205594	0.22195177274995959	0.15351001118193744	0.18829050868486547	0.18959566711157883
0.194	0.1824575832579813	0.18027822811070443	0.17359124164138795	0.16322453073257673	0.19626641775653253	0.1311642946823225	0.16483729143537484	0.16504867465067796
0.195	0.13299517223188906	0.13353784140830588	0.12798840637562325	0.11722979143784121	0.14689142375154443	0.09057222768537414	0.11846754458053703	0.11641590389282142
0.196	0.06631921234355118	0.06364599348324256	0.06438042776947014	0.055462986861306955	0.07628612946694152	0.03366116081070575	0.05731014302242584	0.053870868591081505
0.197	-0.00841785996317208	-0.01039086709595845	-0.00806189275902617	-0.015435029724057758	-0.0060084810858590425	-0.02550272720535039	-0.01156726143134731	-0.016264684241047683
0.198	-0.08420454360310166	-0.08207472892024556	-0.07770842500128616	-0.08704870865025688	-0.08586838132882535	-0.08095052736874807	-0.08041039905008067	-0.084969408001771
0.199	-0.14685884310254513	-0.14581644411996078	-0.13499652593067754	-0.14349233237411171	-0.15375714631554624	-0.12840066469079991	-0.13636569328616205	-0.13770515901840263
0.2	-0.18415354717462754	-0.18756682963261498	-0.1765861298182005	-0.1782806394744893	-0.1983486991201018	-0.1537579548496701	-0.17595427353561807	-0.1706639155090617
0.201	-0.19629077605408968	-0.20334601827453094	-0.19127259541138247	-0.1892498747101582	-0.21447507979487807	-0.15684647709797975	-0.18540588794620586	-0.18341648403375424
0.202	-0.18367787276100273	-0.18600025839881532	-0.17657761523895701	-0.1738507958230443	-0.20237574740249017	-0.1378482464383213	-0.1679374051179396	-0.16783866067626943
0.203	-0.1436879900837272	-0.14484614158643588	-0.13743814655279898	-0.1350276280388603	-0.16150707096837427	-0.10267262484769336	-0.13336904109725412	-0.12897002392841683
0.204	-0.08425538660602899	-0.08682871668288969	-0.08408803425269716	-0.07788749174506557	-0.09940038992448105	-0.05244283885260849	-0.0754167651071945	-0.07386743510398557
0.205	-0.013713189745457929	-0.012397040445940505	-0.02049326218912425	-0.00925054220499826	-0.02212344774520986	0.005936764392917793	-0.008499465312310302	-0.007788289415266365
0.206	0.05637461047992043	0.05941814445129176	0.050651179823634415	0.06049703389465573	0.056819649859466366	0.057574771654958744	0.05608369358226869	0.05696360028439085
0.207	0.11863049075128773	0.12096292788999047	0.11121213711252582	0.11859719989357596	0.1264881005972982	0.10442647638849414	0.11362740273224378	0.11230225203982272
0.208	0.164095560065088	0.16753607622044964	0.15726369161085274	0.1620950192396842	0.1769554899131203	0.13890536338450002	0.1563996600760448	0.1550975766015763
0.209	0.18730767655694963	0.18906881364385533	0.1813584657597384	0.18311861186409326	0.20369525860622784	0.14922808090165746	0.17648859868011416	0.17733193013371085
0.21	0.18491725674675819	0.18658820253424796	0.17683284875816085	0.17587751189858375	0.20447675046399258	0.1401630915954682	0.17221849262924263	0.17004984327697562
0.211	0.15483151378495488	0.15641970734898422	0.15086538495531285	0.1463170964371931	0.17213644550243018	0.11358619278778904	0.14346754001304815	0.14195858892067445
0.212	0.10525756298630605	0.10562383457784912	0.10281320540370133	0.09436884883389869	0.11578603416820137	0.07103605675729667	0.09288000608885585	0.09626233789591562
0.213	0.03974731941133064	0.04077588016086198	0.038541360510194536	0.029399415954650784	0.04620886371983454	0.01957885746983384	0.0318526006707077	0.03503165888059329
0.214	-0.030713495183321334	-0.031680313100225635	-0.028520078349320372	-0.033228816001119515	-0.028476703635683324	-0.034997076987621015	-0.03121825355442095	-0.0289604049766398
0.215	-0.09591801316390189	-0.09499183732222749	-0.08964459320397014	-0.09246422869738272	-0.10134445600723267	-0.08121461070549503	-0.09058573233874073	-0.09013551562313503
0.216	-0.14843062387976008	-0.14650269311854627	-0.13816603596469731	-0.14091837557902603	-0.15870141871087093	-0.11748465047030877	-0.1388160321286099	-0.13774135883999775
0.217	-0.17558465414984245	-0.17551485497820274	-0.16630372063996285	-0.16698591627552148	-0.18931025515224364	-0.1383853029795683	-0.16320698918363805	-0.16262850819579283
0.218	-0.177765587602524	-0.1756632192022377	-0.17032788529492107	-0.17051620748737437	-0.1946700869131966	-0.13612735981538915	-0.16749005480300758	-0.16317860123311057
0.219	-0.15647505548598073	-0.1561376306557084	-0.15234622421683786	-0.14893523787083995	-0.17410009567080584	-0.1163941802753209	-0.14715413770365376	-0.14291516789400804
0.22	-0.11299341303904445	-0.11428913792106782	-0.11327446066713989	-0.10741539479172274	-0.12638797754132874	-0.08036142125736266	-0.10290243041291011	-0.10459208787905148
0.221	-0.057348681652542116	-0.05546109002303713	-0.055411156806077395	-0.052114713387634175	-0.0631079724125187	-0.036252757096359244	-0.051442092594274236	-0.05062589011998959
0.222	0.006974210517213105	0.009401153871694604	0.008231261030446038	0.0123826596106354	0.006438177392901213	0.014662252378914447	0.009253373370426032	0.01099672321818461
0.223	0.07130266716369724	0.07392524706536484	0.06611389575380267	0.07146776422215052	0.07463949356045614	0.06619291921588114	0.06715367522119324	0.07153316619538161
0.224	0.12397908875080131	0.12673546511756578	0.11583600098224422	0.1195457770825697	0.1317950495214203	0.10359066138237465	0.11435580132613934	0.11965895377452072
0.225	0.1606533563223136	0.16210374380737094	0.1510459799834252	0.14956948210969162	0.17356738093099913	0.12673192498711267	0.147198218144929	0.14785521028366427
0.226	0.17113961569203545	0.17271486079894888	0.16401563199774413	0.16089375587765997	0.18674258350222378	0.13234605382822476	0.1568895767844505	0.15462801212065364
0.227	0.15703663523251563	0.15766074294246696	0.15119826182095575	0.14922622507899103	0.17514870022717152	0.12002896643562215	0.14497327096824464	0.14334060952592437
0.228	0.12522602778254976	0.12161374711536083	0.11886228414302771	0.1137180055140326	0.14042487355244912	0.09021519156306047	0.11504138519917939	0.11108995428952644
0.229	0.07269877449648923	0.07041080154622484	0.0725049655824868	0.066453597416622	0.08310751015392343	0.0474715369142159	0.06748805009039029	0.05934536081303829
0.23	0.011597082512406702	0.010451161587306086	0.01438144187266638	0.00673476041420523	0.016999727190090658	-0.0008374953343312801	0.007412768493899416	0.0013590634155884159
0.231	-0.04899730253400551	-0.054869000484933844	-0.04543510347769458	-0.04995126777342535	-0.051273313677839404	-0.04885862529642501	-0.04738278889298402	-0.05575530055378646
0.232	-0.10346074310634926	-0.10860715494574213	-0.10007854219888725	-0.0968933279147417	-0.10855526565439026	-0.08541937517397612	-0.09455435469898499	-0.10389583203814529
0.233	-0.14021925322970297	-0.14500246557546434	-0.1364044559005616	-0.13163103650012797	-0.15055337536668967	-0.11072117074718087	-0.12930177835915505	-0.1372201588131974
0.234	-0.1613907501763323	-0.16409584357658605	-0.14904901982190913	-0.14570527254350568	-0.17258974271774238	-0.12463114397386679	-0.14320264843156513	-0.15128289509325943
0.235	-0.157154981124274	-0.1598789165167907	-0.1452654218356527	-0.1410742329047843	-0.1686368966689804	-0.11720746629872357	-0.13714195442243254	-0.14331056274389894
0.236	-0.12688533898279075	-0.13188426306286002	-0.12355627204780047	-0.11496792780520596	-0.14525785815996373	-0.0933559480174026	-0.11502617189452194	-0.11619404507210976
0.237	-0.08306808064127376	-0.08508768633684914	-0.08254556516854297	-0.07407625587598912	-0.10066727473846625	-0.05925112113062324	-0.07807663472787477	-0.07229980625175522
0.238	-0.028879567005356346	-0.029861028902001978	-0.030193583355156338	-0.02522808573339765	-0.04125874417758137	-0.015609714213163178	-0.02684347753708047	-0.020584163981503787
0.239	0.0277959602672314	0.02877445227782313	0.023176692343310795	0.02797857925005353	0.019518135862761677	0.029186073561719768	0.027793995277456674	0.030380069645511237
0.24	0.08116096813665757	0.0814814155614373	0.076347777732945	0.077560428019612	0.08327886463709055	0.07104244786984754	0.07798728072916397	0.0812446726998752
0.241	0.1232347916495037	0.12144992726319596	0.1186284821629524	0.11404640081766493	0.13429977088628256	0.09947630999379845	0.11242229255975378	0.12139206381210862
0.242	0.14781618113682715	0.1462949969561146	0.1397294938436771	0.13570079121807038	0.1604420381452395	0.11273022400306425	0.13424124099979204	0.13820842952399576
0.243	0.15111932541260695	0.15008630250874164	0.1427990797272445	0.1368766404281726	0.16540040320572078	0.11302578496317303	0.13857003617419558	0.13939120078471448
0.244	0.130681068463493	0.13201099892184445	0.1278999911818479	0.11888373718790898	0.14562724365638408	0.09534015093704423	0.11792023333201761	0.12123880861955508
0.245	0.09239831250427874	0.09686501304320608	0.09311683839320677	0.08706976668884644	0.10788969968511591	0.06515120995571505	0.08496197924649745	0.08645987251982129
0.246	0.04472842922190247	0.0483689643221295	0.04642187157081287	0.038850784445681366	0.05642109183879346	0.026736692133775698	0.04197069761224032	0.04262640653902692
0.247	-0.01013194203529674	-0.007098353981008076	-0.004426155264644807	-0.012180501669362203	-0.002119836284642714	-0.015181513526375959	-0.0054561819841607295	-0.011275939305966024
0.248	-0.06358040342785759	-0.05935375309240791	-0.05664351050828883	-0.061281508448804124	-0.0595579262166009	-0.05585470305065585	-0.05360939779768285	-0.058549462747399056
0.249	-0.10640528304538875	-0.10295861083961581	-0.09834748312917481	-0.10292813444706135	-0.11009908993405708	-0.08708109242811461	-0.09568778341654398	-0.09572738796850848
0.25	-0.13644973723875806	-0.1290948909872429	-0.12728181646651168	-0.12797621043751078	-0.1435560289455554	-0.10464612217256375	-0.1256830333850899	-0.1219635395081699
0.251	-0.14471792257800206	-0.13680250322153253	-0.14059837909717243	-0.13526668468526837	-0.1580782599018104	-0.11075381341448426	-0.1373771134357219	-0.13041228371174807
0.252	-0.13587589988346127	-0.1292980079341387	-0.13163395351231735	-0.12395923588438972	-0.15011491452369186	-0.10107766790676144	-0.12702873776562795	-0.12123523784584679
0.253	-0.11143946952361006	-0.10285646385954003	-0.10348845930997318	-0.09843655174047278	-0.11823436262863689	-0.07608514737275981	-0.1009503962808359	-0.09583143397743801
0.254	-0.06587156035159958	-0.06040307549833211	-0.06385516702527674	-0.055899541623604755	-0.0722595075208986	-0.04293517242587938	-0.05918908589886384	-0.05610393903123814
0.255	-0.013103922073443778	-0.011107942318142248	-0.015633978682991063	-0.005079766523875134	-0.01598849257823867	-0.0016275166555645886	-0.009923191648751096	-0.00884464995374531
0.256	0.03982093259150822	0.0400519586060325	0.03762514023992132	0.04251971800601404	0.04297003570037403	0.039375212124933535	0.03857187953895211	0.03923696474551297
0.257	0.08948132548850717	0.08928918293269869	0.0822272526708426	0.08620697883232116	0.09012909721775919	0.07146447638402392	0.0826361672540269	0.08413813554590358
0.258	0.12404646846105664	0.12205657475519094	0.11513014810936405	0.11598033774967803	0.12662606363992934	0.09769468734145532	0.11484988709420448	0.11386076735932073
0.259	0.14083302736773295	0.13540696915089084	0.13148591623523895	0.12740169986479477	0.1470968802725423	0.10737462807657405	0.1240091009256603	0.1251260073795998
0.26	0.1395320236559084	0.13415566053013017	0.12846471200338325	0.12472763726713326	0.14508829536706522	0.09974344772663744	0.11874523020737077	0.11900197799569523
0.261	0.11798700702319266	0.11204027475942291	0.11024807386838668	0.10655137765777804	0.1237306261490233	0.08131900056239776	0.10273173524297707	0.09879074459959997
0.262	0.079679860645684	0.07113246732717499	0.07484413726982164	0.07074394095381714	0.08299306787972537	0.05321092024394559	0.06765929249361223	0.06469429206950872
0.263	0.033441644579441626	0.023933097366559405	0.026678191096839204	0.024841502871122804	0.03248677485922656	0.016900080708440145	0.026281997520623886	0.01910976515759237
0.264	-0.018564068974083702	-0.02497002588329492	-0.023212295848359887	-0.022701317950627596	-0.020934030977864466	-0.022402769382378913	-0.02077076306929805	-0.027415629399028897
0.265	-0.06826335874749767	-0.07215660410433873	-0.06572101284783735	-0.06467421380100014	-0.07320321092317142	-0.05623224802269619	-0.06472725771339258	-0.06945832610333874
0.266	-0.10344972339813586	-0.10800081304431858	-0.09768216293761221	-0.09769812947519269	-0.11380565019122679	-0.08320027123199074	-0.09659991629460371	-0.10196888059436579
0.267	-0.12517380587017468	-0.12943647911719477	-0.1185113572221642	-0.11944021025298335	-0.1378674201582845	-0.0967474636440634	-0.11658379052364978	-0.11996996598342641
0.268	-0.12990557886201992	-0.1311762313271022	-0.12251333699558997	-0.12194645900097996	-0.14257197254211934	-0.09781984703127686	-0.11917509492710004	-0.11992572377505606
0.269	-0.11646009246725034	-0.11539234456264796	-0.1086661613957829	-0.10834305617825894	-0.12596450920681626	-0.0853268144395015	-0.10453128384083944	-0.10383793384211466
0.27	-0.0856522909132822	-0.08700864518428694	-0.0810546249718464	-0.07753969283367193	-0.09329857831434041	-0.058356807499850054	-0.07232220254158557	-0.07460141509076941
0.271	-0.04303564887600059	-0.04440372307654127	-0.03971909367914818	-0.0367821518302557	-0.04595550358435063	-0.024628823595859984	-0.03422866942681182	-0.035909465389478604
0.272	0.004263867123003442	0.005386015651811057	0.004019258167981222	0.005678601150647842	0.007853311132780191	0.01088022410123418	0.00715636249109642	0.010355805202736651
0.273	0.05439320785224337	0.05534587164786888	0.04844213510098583	0.050285916310985904	0.05478630351275291	0.044163891710052396	0.04968623513584708	0.054604478943679084
0.274	0.09341755928447709	0.09488518099778602	0.08839577968401767	0.08650984593484906	0.09661981656999294	0.07219543382435743	0.08257181849117158	0.08947385496674085
0.275	0.11565317429587291	0.11912924797682335	0.11063780372781987	0.10902078280923033	0.12653326367534207	0.08918294114112316	0.10265403673995281	0.11460823437095978
0.276	0.1247615598008088	0.1266017474213918	0.12047123416081118	0.11516298938142579	0.13803709868460967	0.0962677733546325	0.11127582059082684	0.12167987985648888
0.277	0.11468594552014773	0.11473213742540306	0.11092693734624484	0.10669617160674473	0.1301622096757441	0.0873391987203607	0.10438518061515893	0.10868624586932284
0.278	0.08734043530769758	0.09034546570304768	0.08370207746335417	0.08214151184929001	0.1033730542779845	0.06547828613930926	0.0817823165649687	0.08144143176610047
0.279	0.04950859009506888	0.05178000249449911	0.04932996035208605	0.04806841603568411	0.06543996426970727	0.037653870668141735	0.0491336106674317	0.04577592207180335
0.28	0.0036087374383355856	0.00496920203085419	0.009609381277695044	0.007275271107176056	0.013982720699641508	0.0009050863235871296	0.006604746349547648	0.0026127943985612043
0.281	-0.04056817196864668	-0.03691601047393144	-0.032785284504743765	-0.03900791155261981	-0.03913271430866041	-0.03554525235575287	-0.03412286008151051	-0.03945922197913445
0.282	-0.08111199732938615	-0.07740587433647607	-0.07451955788567027	-0.07651213685584242	-0.08186761298945974	-0.06628249493252115	-0.06965677631273337	-0.0765844308742402
0.283	-0.11062282011769956	-0.1078063669894981	-0.10112287913903129	-0.10111713628486724	-0.11624388903954601	-0.08520204131195677	-0.09393870678288081	-0.10299699183313388
0.284	-0.12071476868083966	-0.1187191860775064	-0.11176927244729347	-0.11147015617554858	-0.13160435059638698	-0.08984475732261508	-0.10314839275595233	-0.10965290192632826
0.285	-0.11657225311004256	-0.11465562591912377	-0.11143812135313994	-0.10804688318371486	-0.12542597561756164	-0.0837745324236868	-0.10082450248364512	-0.10456950887854315
0.286	-0.09620237500608288	-0.09272338446443551	-0.09499454694188428	-0.08765083344468491	-0.10391937459798989	-0.06755160667166567	-0.0830108598945056	-0.08646091742178229
0.287	-0.06469054381446636	-0.059709445395828134	-0.06346289353722856	-0.05606989591026226	-0.07058592694149077	-0.042196501712957704	-0.05456469924881482	-0.05428009815848284
0.288	-0.023525613740964405	-0.02009629455056859	-0.02306961432618546	-0.019890226939618366	-0.03027581151189296	-0.012353577238538742	-0.02007791757190756	-0.013562999576219426
0.289	0.02383550711258016	0.02375510981185334	0.017348131571656523	0.020527410168047364	0.01742181524568502	0.019790682403641666	0.016293151925238447	0.030045400638920305
0.29	0.06281791435242948	0.061318838642545836	0.05487675671195244	0.05826086537779278	0.06438343690904327	0.05041779923857565	0.052746193332726066	0.0649543458211457
0.291	0.09320418059381357	0.09292934976448348	0.0870698270137994	0.0869351380230404	0.0972184137399565	0.07317966494075084	0.08190602973997177	0.08739422443483777
0.292	0.11157756912717796	0.11247023762093172	0.1057828907100086	0.10366769966803394	0.1163366828003874	0.08703801385900417	0.09890553566505053	0.1026615950121124
0.293	0.11309998581981096	0.11404155052469037	0.10751924572563226	0.10627553609233961	0.11963855166941705	0.08566741751202339	0.10131992755970415	0.10575593716701386
0.294	0.10136938938366881	0.10130824965134044	0.09656672722666487	0.0930332030875214	0.10773034235436699	0.07401700965724149	0.08862314238076684	0.09141083428487552
0.295	0.07675613183818703	0.07322923317855069	0.07356616322106369	0.06877685378309205	0.08169454507790096	0.05204132110994899	0.0644859822416472	0.06376307220881397
0.296	0.04083019560033369	0.03456212343465675	0.0371965133382095	0.03510184412689367	0.040080969832348184	0.019292785676228427	0.03171605609587272	0.027320600399187715
0.297	-0.0026714777731327664	-0.008155735813777312	-0.0032984863811233995	-0.00465946859845888	-0.002712401737022756	-0.010664550102802447	-0.005802984087042147	-0.012537689214958599
0.298	-0.04404192867098191	-0.05091146013156779	-0.03827941795721094	-0.04356997020953549	-0.043784282745223106	-0.040857112484897394	-0.04630228937601773	-0.052799769298315785
0.299	-0.07737453664359908	-0.08230209952913234	-0.06943716048241412	-0.07475810979301255	-0.08191739197272649	-0.06811990611247067	-0.07548145668077758	-0.08164611833008065
0.3	-0.09978547624963154	-0.1003061044595423	-0.09425900868850205	-0.09511404806830898	-0.10677099881885818	-0.08145402801747717	-0.09387402788036038	-0.09720172286217728
0.301	-0.10814520464221199	-0.10913399506725784	-0.10195728071947695	-0.1017654243506637	-0.11790058876267225	-0.08320867630331091	-0.1017690811904812	-0.1028560093974452
0.302	-0.10173846590931997	-0.10292222493085419	-0.09499147995625665	-0.09287890635187093	-0.11195238190418724	-0.07612815181557925	-0.09141182447020074	-0.09239740886921337
0.303	-0.08087762496278836	-0.08109653973060924	-0.07377875955464944	-0.07437785170030928	-0.09022035345524874	-0.05947256429653836	-0.07197902270595967	-0.0701184538300489
0.304	-0.05038401245814943	-0.047539613868476875	-0.043387775022194486	-0.044010534229532015	-0.05477115349889827	-0.03152200871503837	-0.04248453866345601	-0.03938979259230645
0.305	-0.010794335041907747	-0.007559753139160807	-0.010843019044827325	-0.005715199657613549	-0.011213975393400152	0.00015058558741383812	-0.004906864579648506	-0.00342351265524328
0.306	0.028926927552121024	0.03196703631987367	0.027060460400960634	0.030604446375712933	0.031277706314271105	0.029566673486429447	0.032424494990919844	0.03208714395304285
0.307	0.06345211768381398	0.06696419633502262	0.060750205663407594	0.06407657804583332	0.07259155072108212	0.05839478815271203	0.06666469596239868	0.06265038746396454
0.308	0.09072947881417566	0.0913648113843525	0.08577703100890004	0.0885955891058469	0.10071724030622331	0.07671185650999399	0.09073887985876111	0.08479787969883326
0.309	0.10408735567810184	0.10332220372447187	0.09686371258832006	0.09932822442272686	0.11227660576995435	0.0824556434282553	0.09847771997199269	0.09546564391764771
0.31	0.10332236795708778	0.10287149603237512	0.0939547290463447	0.0968324096199001	0.11086567554902414	0.07947100639461174	0.09472817057051319	0.09315134565540235
0.311	0.0874783936037727	0.08630293556580095	0.07973076902417141	0.08071855640661665	0.09383277293178521	0.06471158617175926	0.08250835415700311	0.07791935478125525
0.312	0.05939157426573895	0.056930811685315615	0.052584342415696386	0.05261921183251368	0.06598047312119767	0.04042060620402624	0.05551105900636073	0.04900502057894662
0.313	0.022166598007424657	0.02090872447436508	0.0200911157057381	0.016862096253614397	0.02680449936433172	0.009974784607059715	0.018435131193871173	0.013615950368122765
0.314	-0.01692629432340542	-0.018346063947089798	-0.018131836814126615	-0.02002184673159852	-0.01569151681192202	-0.02153086770292285	-0.01746815504948724	-0.022969978320274677
0.315	-0.05044044103177753	-0.05277368962291203	-0.052401146185400226	-0.05203130671442034	-0.05489253868354856	-0.04754335732029916	-0.048882686375833435	-0.05552739552140935
0.316	-0.07700219158639186	-0.08055334794388329	-0.07584611384181757	-0.07785205678412756	-0.08774068024181393	-0.06839248902125705	-0.07641480680002781	-0.0781405546746402
0.317	-0.09646491139942721	-0.09931581758440274	-0.09197922625876737	-0.09450732784362163	-0.1043864809803509	-0.0812054355349184	-0.09242616212743365	-0.09168386269627178
0.318	-0.10233269651482066	-0.10326144536313817	-0.0956960275807646	-0.09728265692337273	-0.10969427486680601	-0.08036318800470026	-0.0970189203276612	-0.09401699177706938
0.319	-0.09016467410972984	-0.09054994409054601	-0.08608104961821707	-0.0873324593419791	-0.10146763007223955	-0.0678394101639875	-0.09015435387012928	-0.08281624512333051
0.32	-0.0647095254847988	-0.062309037165962956	-0.06569740727509288	-0.06287295020215593	-0.07486771793052723	-0.04682600513130938	-0.06373436585427543	-0.05719411986984514
0.321	-0.031477612961025685	-0.029254901049273217	-0.0331986447253049	-0.030629206450943174	-0.040152777925155224	-0.021332671929785225	-0.030904396381175335	-0.024498692288062153
0.322	0.004070320723038576	0.007037879423289106	0.00527344184798775	0.003700732675064785	0.0008288658439520185	0.008886475978223108	0.0029481908985427175	0.010483920248649343
0.323	0.037886346534962506	0.04298524523410407	0.038501681892576446	0.039143815355810754	0.03992595459352039	0.036930921144378764	0.03648979288265087	0.045832429357824035
0.324	0.06525437904599327	0.07120598844436982	0.06382779750297424	0.06721343822061894	0.07041092434656245	0.057771776832148375	0.06170957858839676	0.07172413159795792
0.325	0.08623837442374904	0.09149117780499724	0.08163384606519566	0.08605407412860092	0.09415208444608723	0.07373191319721024	0.08169731639924782	0.08850852311354981
0.326	0.09391299982363814	0.09765471808188504	0.09227315908368186	0.09367924564681478	0.10365524417035557	0.07851444789052098	0.0908967770797972	0.09211624240671198
0.327	0.08641319986451887	0.09020563080579715	0.08595274803560723	0.086808179844492	0.09911555352373293	0.07118043527107668	0.08333772987933138	0.08181122439322305
0.328	0.06749629839875038	0.07052103193997053	0.06472530362055867	0.06512415173668247	0.07844953684392801	0.05312307587626454	0.06507945898361764	0.061645303241181136
0.329	0.03799239778070756	0.041351627373348736	0.0397597542080033	0.03835036846064317	0.04886815467110477	0.0296141703382248	0.03784146068201851	0.032550970945474836
0.33	0.006810154366612714	0.007107589484532203	0.009933866497883104	0.008079788289387406	0.014829461787492865	0.0030559282594481846	0.0047077975541518075	0.0038849420224249687
0.331	-0.026686697676304324	-0.02845534466873685	-0.020740140966100766	-0.026909576511889848	-0.027340287220630786	-0.02546450212234603	-0.02619767253338725	-0.024854488179888962
0.332	-0.05543106998474307	-0.056540860045525734	-0.051072856967944814	-0.05503283025363987	-0.06055423432789477	-0.04742082027777612	-0.054648914312901316	-0.05214095792076752
0.333	-0.07484048512670362	-0.0777657622924316	-0.07498651729407567	-0.07395352819344056	-0.08530955417146263	-0.0643233879423249	-0.0759109164271742	-0.07213951200264176
0.334	-0.08678413030934715	-0.08946360485033175	-0.08551697901545958	-0.08432405346852821	-0.09965953353278169	-0.07349325706793115	-0.08573505367989435	-0.08224171912151929
0.335	-0.08334125934833357	-0.08795890336308242	-0.0831745766154271	-0.08227098237980951	-0.09466746778773502	-0.0691196756753787	-0.08045154918420268	-0.07762405963205146
0.336	-0.07029128929009035	-0.07489164338722978	-0.06828102365542493	-0.06601872862852755	-0.08050435689156697	-0.057171634455484205	-0.06406701097114606	-0.06167252485266946
0.337	-0.04780547560224797	-0.04955561806180328	-0.04644169227408733	-0.04312667830247799	-0.055583765077364906	-0.037061955284776155	-0.043749069455081384	-0.03837488460639075
0.338	-0.016446872137985968	-0.018638858341424543	-0.01802132820059914	-0.016007946552009916	-0.021563629703812728	-0.011344712459781348	-0.014850138362890565	-0.007352477534220225
0.339	0.015342934803707135	0.012686953803720197	0.01502023261943003	0.014812738928189077	0.015280316282918763	0.013438390189727503	0.015244735312664758	0.021521705561480368
0.34	0.046017565786112005	0.0415682887167647	0.04383743030484863	0.04164598648921505	0.048830283913596687	0.03696587400430611	0.04143834380171853	0.0454158831130767
0.341	0.06872031559089138	0.06556228456873292	0.06621450798418352	0.06370923599821202	0.0731030965456079	0.054655175921783844	0.06385117203504169	0.06418507621994055
0.342	0.08213393584156728	0.0808947135695757	0.07943442694694038	0.0780537010015926	0.09318831675118887	0.06588577460328326	0.07907528207465093	0.07255420433258818
0.343	0.08360958561795571	0.0840017759150239	0.08021795910798789	0.07781062057688683	0.09786369659259453	0.0671011063275332	0.08413967411492819	0.07274412216553443
0.344	0.07134079424581376	0.07201044726100798	0.07056679300162445	0.0665913767671886	0.08553129374566726	0.05839058802451778	0.07439093336822064	0.060163097077182225
0.345	0.05243590131301208	0.04916825147802632	0.05048837994812709	0.048510726263989924	0.06472985878923257	0.0451995444904756	0.05298959006370307	0.0399344980688339
0.346	0.024150763250715652	0.02463096313713564	0.02396171115141348	0.022657396235992614	0.032701356330063255	0.02278965716461208	0.027718318657071583	0.013402046658979325
0.347	-0.008454111546010694	-0.004394502376394041	-0.003652242741084331	-0.004669995563906784	-0.0018766894209362543	-0.0034057221868343864	-0.0007369097625503065	-0.015301061275347238
0.348	-0.03554901226039241	-0.032444255529236535	-0.03151550404093465	-0.030610813934362945	-0.03520604826118907	-0.026683566255258934	-0.029681117293400963	-0.036336587137188785
0.349	-0.06032508957298256	-0.05738190180972894	-0.054568988460032324	-0.056460215395503666	-0.06376426499747873	-0.04850855017123624	-0.05271602592385313	-0.05673402972975141
0.35	-0.07471315232138286	-0.07609579083277997	-0.06828902489864037	-0.07292080644770679	-0.08201188228868478	-0.06091122040646719	-0.06924180191489403	-0.07112094879555404
0.351	-0.07648433331381972	-0.08032322466316948	-0.07297558419238932	-0.07472755491129156	-0.09112312707639221	-0.06390220821733217	-0.07602431024534374	-0.0732080177266867
0.352	-0.07243286739673165	-0.07315380345153331	-0.06828207974751134	-0.06764473677966958	-0.08599402535933887	-0.058645124986943686	-0.07024691536854766	-0.06530722063662296
0.353	-0.057996287969040314	-0.05828682553874006	-0.054702550602823	-0.05357248828364633	-0.06593113851909406	-0.04203934049551143	-0.05537450303069192	-0.04982882550283191
0.354	-0.034705359424376414	-0.034990320587387276	-0.03349837261598125	-0.03139269093447938	-0.040950607638360295	-0.022330572723105267	-0.033770334011173325	-0.028371993160371197
0.355	-0.006543471719265255	-0.004323095077468992	-0.00882882740351	-0.002828130292889734	-0.013079755244392607	0.0003792572422692822	-0.00504486339008865	-0.0033288089331059765
0.356	0.02171130171184505	0.024260691385579583	0.01716173127760664	0.022964790876902168	0.017329915964828517	0.022970738822924653	0.021278992478073504	0.022884525114787165
0.357	0.048920371492191084	0.05047434941803637	0.04446285360272331	0.04591231069918428	0.04682210480300212	0.04029550857203936	0.04270443784898006	0.04706451028131954
0.358	0.06905650904361174	0.06899755367931176	0.06363408119323452	0.06514185917488435	0.07160675133861968	0.054925271467413966	0.06096659138951781	0.0639962008955435
0.359	0.07688918336988239	0.07749501751615648	0.07269154858859671	0.0717431697107354	0.08325248197035547	0.05983150389592348	0.06916655199363268	0.07024884959818169
0.36	0.07584365197652679	0.0765271243843878	0.07257374067794177	0.07109374863411928	0.08528441235076757	0.05690699948378676	0.06898497824478052	0.0657349357101184
0.361	0.06352941629649408	0.06455577654263442	0.061999872618962754	0.06002912364503328	0.07508113691575397	0.046112319018966424	0.05719500299393847	0.05392665499107895
0.362	0.0440697267412895	0.04477695572070396	0.04296475294627937	0.03838114641922563	0.0502676100821255	0.023935409656127737	0.03625842825759616	0.035518617568313066
0.363	0.017735543709500673	0.018058982634101717	0.015456826872755503	0.0134693722593539	0.02017982840936893	0.0035803529459739513	0.012332753356082244	0.013398363734690952
0.364	-0.013084992865001787	-0.0078159728947673	-0.012062091107658662	-0.01317876351660195	-0.01140110266716375	-0.015347315385504094	-0.01511013385185846	-0.013035062881545455
0.365	-0.03993522767984982	-0.03518391670310908	-0.03599883939571698	-0.03605056082119324	-0.040875691556478785	-0.03439001103888885	-0.04008328684450346	-0.037377419919800876
0.366	-0.05984912268777401	-0.05747019085658195	-0.05656271159893303	-0.05466242642569114	-0.06572675783003003	-0.04786130540928254	-0.05905496823616968	-0.05222275655523665
0.367	-0.07279484658340878	-0.06947498430915094	-0.06921107037572151	-0.06649303145193056	-0.0793682592828628	-0.05729749953698882	-0.06858595265507227	-0.06281931474942964
0.368	-0.07786875047483396	-0.07340204906621708	-0.07143904526587094	-0.06806440231393851	-0.08161716747882858	-0.05918504285473658	-0.06925489736253881	-0.06615634758880193
0.369	-0.06809803581504623	-0.06777078822719323	-0.06452262869162542	-0.06153348203311095	-0.0738300855153494	-0.05222743092541726	-0.061487582351832125	-0.058262327792961664
0.37	-0.04692308629237789	-0.052615289911772306	-0.048186506785517155	-0.04723883370342486	-0.05309973931493852	-0.03830862684901704	-0.04205529097398744	-0.0422980395128427
0.371	-0.02346192090604898	-0.027500183289026127	-0.02507939988531412	-0.02442138914830395	-0.023771214053619316	-0.021052184453291222	-0.018293078040951927	-0.019207714651725258
0.372	0.004296832519373002	-0.0018639786913566547	-0.00019229205965544307	0.0015176623831771533	0.004417756597519484	0.0002399796359427983	0.004544603269651297	0.0065033793690718366
0.373	0.03148480451658796	0.026680100076265575	0.02589673659561599	0.02763105562667023	0.03157201352105156	0.02621265275612828	0.028014307634146637	0.029368536192298064
0.374	0.051691400214730905	0.05083621390207495	0.04574870145077953	0.04932913415198131	0.058878684027156715	0.04535026048748132	0.05061881383157365	0.05013690752657943
0.375	0.06779643012506241	0.06391522235316721	0.05890219674117666	0.06089021170450385	0.07315763143987451	0.0526839008398861	0.06629483352882888	0.0622114288840606
0.376	0.07442937150621133	0.07037614508166676	0.06512780149324593	0.06594023198997609	0.0791270736395899	0.05610450887604207	0.07046934457112122	0.06363397513218262
0.377	0.07042020503988583	0.06532228920033516	0.06302252667856265	0.061225070044040916	0.07679421263865113	0.052560611766563944	0.06378876256124247	0.0595703005698881
0.378	0.055129449607735984	0.05441072504477621	0.050899087063249866	0.048311980736585616	0.058442282469334104	0.0385096687057155	0.04886870974774972	0.04853327505751579
0.379	0.03088731051837617	0.03356402218468373	0.02832277996798957	0.027387849863149304	0.03259905128881421	0.022353079280364726	0.026702008401544266	0.030187524420082826
0.38	0.006067964327790242	0.003563566352559524	0.004936752234284615	0.0014644147487503224	0.005587446208839937	0.00493684472584582	-0.0003926436913320003	0.005672947355913064
0.381	-0.020721573379075868	-0.02257156346090549	-0.018767191353278413	-0.01959613461718019	-0.02232829479517073	-0.01612187824907422	-0.024633306554317676	-0.020121492074978174
0.382	-0.043709746240171585	-0.04505618722782388	-0.04049200194996524	-0.040243295174314936	-0.049521808790279	-0.03606389680634686	-0.044432623853571836	-0.04264610349212084
0.383	-0.06122303223541732	-0.061502889794450004	-0.056389332311344145	-0.05623268613485425	-0.06875801679861535	-0.04767910964025738	-0.0590414705927978	-0.05735121378694602
0.384	-0.07159870541814273	-0.06846721632859011	-0.0642976454175356	-0.06455162306912295	-0.07768644288001085	-0.051425414037361804	-0.0633193768240384	-0.06297994322445379
0.385	-0.06844103055047215	-0.06658818496650264	-0.06204703515510529	-0.06310043055649353	-0.07506583430721701	-0.04822346996345813	-0.05938290018329429	-0.06111493916954326
0.386	-0.05818967095710567	-0.05446662617685914	-0.05000194280922657	-0.049525552999078466	-0.06512327925665033	-0.03892498990241821	-0.0514543089135777	-0.04894051567165903
0.387	-0.039662416199880174	-0.034443988217760235	-0.03280898725120905	-0.030350359967496524	-0.04631828942398552	-0.022703229244216118	-0.03604701809039111	-0.02947499446875877
0.388	-0.014603251923293356	-0.011067061979820747	-0.012963652389124147	-0.009197378824949917	-0.0211171169123023	-0.0027093742781177264	-0.015028823971889285	-0.00785036538642247
0.389	0.007154938473859632	0.01498677218698673	0.00940655584754404	0.011712342260913751	0.007116528803381985	0.013391026410593117	0.007754695369400938	0.012164127688052775
0.39	0.02872626761531807	0.03652151064180328	0.030273315403653838	0.03279396288306011	0.03560813195891541	0.03177592914296372	0.031473119075471505	0.0300573634097147
0.391	0.04855840484413363	0.05296087583518847	0.050373195350940855	0.050692950057067476	0.05498260942114529	0.04831768591669494	0.048917731643518717	0.044472702313540245
0.392	0.05919962105331317	0.06397592496191293	0.06084027190722102	0.06163055041870837	0.07011897151129386	0.05431464620083709	0.058234565383939396	0.05257187487489038
0.393	0.060357415250433435	0.0642086450438698	0.06106984989509552	0.06040345074252447	0.07183851650922438	0.053687966496172065	0.05896594574392011	0.05635144014340222
0.394	0.05541021832183117	0.05698363622500853	0.05628762553245163	0.051489111604237366	0.06327111521468165	0.046356788016483005	0.05471764178979581	0.050777762133022576
0.395	0.04433021649905101	0.040572229807366994	0.04246482672454602	0.038934952179382525	0.04997078722900038	0.03174998769617007	0.04267055786238644	0.03502560720900179
0.396	0.02426792837764714	0.02142907615917423	0.02395415949155871	0.019563967827661632	0.029273697912891604	0.012786149488968928	0.022850155552088417	0.01578606165682091
0.397	0.0008048412716971411	-0.0008045615613785558	0.0031043330737432263	-0.003000320346221835	0.0025127587936519275	-0.009137807604226536	0.0033824862377562423	-0.004102572736231821
0.398	-0.02086437821733903	-0.026847114910166274	-0.01938220728029834	-0.027066180888889044	-0.026102721529327147	-0.028971085519654476	-0.020221504410088968	-0.02341917668573499
0.399	-0.0397713763056578	-0.046434039856611	-0.037797071944142384	-0.04417201025995555	-0.0422364728757846	-0.04134629874349516	-0.03854523509837689	-0.040668526623219806
0.4	-0.050976486258770055	-0.059331686086039725	-0.048456899685958406	-0.0524340847969965	-0.05402979831537255	-0.048452268434821415	-0.04649743797542627	-0.05071642153556294
0.401	-0.05478743196931658	-0.06422406495058257	-0.054197875224108925	-0.05568639576311787	-0.0605721812240074	-0.051403330247101676	-0.050810533641997446	-0.05416113258206579
0.402	-0.05240385362093638	-0.0591833395525371	-0.054250081417726505	-0.04980196694616685	-0.05741607745633035	-0.048023162283236644	-0.04723475984650101	-0.05279068590226399
0.403	-0.04337275834070454	-0.04628869235152174	-0.043141958704247856	-0.03829023581657373	-0.04643455673587696	-0.03815026582914413	-0.03676293439249148	-0.04221115018094192
0.404	-0.027710961220983047	-0.026483300835751723	-0.02578514823940843	-0.02349472783783066	-0.028997495028075262	-0.021562622980307235	-0.02351322117637316	-0.023933245312610263
0.405	-0.004717427880027128	-0.003796283708324733	-0.006412895042362158	-0.0032110909978403396	-0.007922820705076073	-0.002500456403750148	-0.004427241601886479	-0.0045204113058180916
0.406	0.017435428015085356	0.014781754508058664	0.013965912157003465	0.01617047720673469	0.01610077675070789	0.013323087765447014	0.01748478776215034	0.016167513980734016
0.407	0.03657690140412403	0.0341432017476058	0.03096724930601696	0.031720570155609376	0.03709479697621877	0.025139375328928456	0.0356861246732504	0.03573268900236414
0.408	0.05190411876880005	0.05067700114733644	0.042805816839878254	0.0444460447182037	0.05323325741663632	0.03458819503157447	0.046663826433691026	0.04874012038589269
0.409	0.05861107939008601	0.05849639444708345	0.04944988278095094	0.051702230802562796	0.059261579569172246	0.0422534694978832	0.05078467283394526	0.05584718497764082
0.41	0.056750051491797855	0.057150826047631165	0.050342752516468504	0.05100906192485129	0.058004018621595016	0.04079129798063893	0.04984857640507248	0.05438802487228601
0.411	0.046478425880209624	0.04808188942119816	0.041698312931114735	0.04247730457619376	0.05040232363771878	0.03398222794813773	0.0385304452014608	0.044413152044667316
0.412	0.03079365062500518	0.03395016292275995	0.029157581760045653	0.02679036000926234	0.034377422301776615	0.024132711883698824	0.022420200609620564	0.02903279917951664
0.413	0.01246649991321404	0.013553213882881799	0.01255599610367386	0.007810567843933731	0.01416919394990882	0.007069541000016653	0.005146640651655113	0.011202585808021182
0.414	-0.007107838459362753	-0.004292080019923227	-0.007794222849746438	-0.008614823365564942	-0.004497601914476797	-0.006525304511227885	-0.014730635359110792	-0.007465765965683797
0.415	-0.028960260712493274	-0.022258070725525252	-0.024384949080370574	-0.025593959936060295	-0.027105894782840236	-0.018265642733026017	-0.03061074721886588	-0.02510990592219747
0.416	-0.047547460018814415	-0.03902930452359892	-0.0409423955293911	-0.04127494683356809	-0.04984389026531406	-0.030530232396819183	-0.04387041218053487	-0.03990639840297415
0.417	-0.05835647210887814	-0.05062943965302982	-0.05060244083240433	-0.04830601995019901	-0.058393706653045704	-0.03643346859705779	-0.053169237024041534	-0.051160273739390666
0.418	-0.06026351913571066	-0.05483868185600393	-0.051629515632398953	-0.04902519627629539	-0.061455852612813354	-0.03718590007917277	-0.053542199665184614	-0.052794095631757514
0.419	-0.05158301642249753	-0.04690735398402115	-0.04640621574478171	-0.047121056498313184	-0.05701517830678531	-0.03329899126107056	-0.046521681042169666	-0.04590378145630882
0.42	-0.03651799370115367	-0.03518538704400862	-0.03529824913406837	-0.03509133643576348	-0.04409922537220537	-0.023730450343122603	-0.032915086028216224	-0.033858675428846643
0.421	-0.020129757889022756	-0.02161928656865353	-0.019076627783746976	-0.016345080493985087	-0.022406935425302546	-0.009895014627247982	-0.014745129797782327	-0.016909972946021395
0.422	-0.0009055420800343993	-0.0027396216820192434	0.00018428791267436728	0.0023778976929145763	0.0030080696877766745	0.0063787604233832475	0.003123129468915734	0.0035950250039001987
0.423	0.0211157718957252	0.01846618716153403	0.015857575516578563	0.02219926690048285	0.021600389688735715	0.019386799220102995	0.018478749135110873	0.020805728355228998
0.424	0.03643880513131211	0.034659748658752265	0.029379269144439554	0.03551148726929516	0.03879787332746507	0.029347804803966895	0.031174795560310633	0.032235861406770094
0.425	0.04672260080971463	0.044716874073498725	0.04281317506625455	0.043648958379628074	0.05172960520973467	0.03816575153603238	0.04209522226047406	0.04326574793792218
0.426	0.05160923505737704	0.04984941721631199	0.05134816097266116	0.04770317820114369	0.05743196528070322	0.03981345377571367	0.04769240540280868	0.04692233855456329
0.427	0.05094630489388395	0.0491929514587701	0.04717355859817451	0.046553246731276594	0.05187016026328621	0.036248701822848	0.0435344178135533	0.04301682371504929
0.428	0.041508498125806176	0.039444531357330045	0.03793468710433465	0.03660726844737657	0.04057346880936374	0.025596266575041708	0.03382976775134208	0.034077908675610245
0.429	0.023644023918669304	0.02292803457299058	0.022898059607671002	0.0188555387752389	0.025030864152543054	0.013271781236445037	0.02174680420093742	0.018096868816840896
0.43	0.006105796319299536	0.002559743350748669	0.006214175796477069	0.003780934206804019	0.003917858903712642	0.003224000450953994	0.006649474995969745	0.0013867091706549369
0.431	-0.013413917164818514	-0.017164605865170154	-0.01033940124447751	-0.012558816473297133	-0.015590069189371242	-0.01304393631930243	-0.009783876178914089	-0.014181061467410452
0.432	-0.029034166506545337	-0.030806918817832096	-0.030819703714287678	-0.029089491650493845	-0.034004391780960444	-0.028535668513151816	-0.0261456298891599	-0.02743270821924204
0.433	-0.04290522865627642	-0.04389739043194355	-0.04196432167506506	-0.03960738247923107	-0.04806295604175019	-0.038667391544051855	-0.03819117823154466	-0.03850258405595355
0.434	-0.049318385722277334	-0.04986775316522486	-0.04911480417413318	-0.04611402879078776	-0.05570839826240839	-0.04152833204017451	-0.04325978647747439	-0.043085439061567074
0.435	-0.04648492072437691	-0.0482347508411202	-0.04861041731942651	-0.04488110323519333	-0.05487474584563615	-0.03760901969788128	-0.0429088375421383	-0.039323071101534435
0.436	-0.040792774742597654	-0.04141471574657393	-0.04069408642903891	-0.03513569668950493	-0.04526093380091164	-0.03027459986487642	-0.03596267046643167	-0.03243293656133846
0.437	-0.028787362480903925	-0.026860324349890247	-0.028671419456728346	-0.02219035938670164	-0.0299354209145396	-0.01777923106657752	-0.022970735967307806	-0.022282189757867638
0.438	-0.013611197635492837	-0.012856603356911408	-0.00954329957587111	-0.006547757070549616	-0.013139217733551162	-0.0028209806199414257	-0.007217721832343983	-0.010030694794659067
0.439	0.003618147551313273	0.0038651036004107744	0.008795680198524454	0.009237667570551973	0.007233717954609463	0.012245350762210627	0.010196510360806793	0.005075456948556465
0.44	0.0202969555290583	0.022601600073339726	0.02614449573568229	0.02403321275238598	0.027957451078307282	0.026403304448739884	0.027735450748864573	0.019066650617356483
0.441	0.03748608151505381	0.0382753765641432	0.04048284104658958	0.036073548722709015	0.04132583180786106	0.03445396061880402	0.03905246735320633	0.031407624929375516
0.442	0.04589400876529981	0.04796244700620658	0.04869752672709147	0.04260391734146132	0.049373761770998066	0.03614508145458386	0.04376427699181799	0.039594426401343245
0.443	0.04633895108841632	0.047071813040967615	0.04819598411418698	0.04330649065889403	0.052507425196129554	0.03555135606078357	0.04314495144377632	0.04043367915803745
0.444	0.04153732566014531	0.04144134409902659	0.04228002311327925	0.036500940399425204	0.049823356699499506	0.03137793656223477	0.03835106197453651	0.0357943032034983
0.445	0.03089747156528502	0.02982993719593149	0.032209270922013936	0.02646993003117623	0.03791098502010492	0.02401541125829079	0.029882394564369315	0.025542094962576242
0.446	0.018549179155553073	0.014387729808436937	0.01650192785401641	0.01301946008508253	0.019947320225351485	0.008896009967082879	0.013805674478611724	0.01240311096321131
0.447	0.0007867921289743912	-0.0012370317032460122	-0.00338076896441493	-0.0049803140028226445	0.0001711368409865094	-0.00813519935581495	-0.005047225814910703	-0.0029575533767386814
0.448	-0.015528852244410744	-0.018589652875019097	-0.017522045167777417	-0.02105835106916764	-0.016534826049110378	-0.019113629932538116	-0.022223654305776965	-0.015490975468428788
0.449	-0.029519863749135216	-0.029441978932769935	-0.028979269684577404	-0.03293211612375062	-0.02957732520440729	-0.028763216305807433	-0.03204461284455788	-0.02710513773536217
0.45	-0.03568245666420769	-0.03269401672454798	-0.042038530740699784	-0.037945225010404426	-0.041240774731203036	-0.0328974499606392	-0.03694243725668272	-0.033003337343637654
0.451	-0.03867790540867068	-0.033960978304070986	-0.043876028019756486	-0.03737012698754707	-0.04584919573795713	-0.034056805406323755	-0.040760223061577915	-0.03361783104319321
0.452	-0.03911238809952241	-0.03225665399530545	-0.04131312472572573	-0.03449104171174512	-0.043293386521444516	-0.03183527320879269	-0.03734813317957359	-0.0314986984807364
0.453	-0.031851413504743804	-0.02757919167335051	-0.0314603416471841	-0.027664964708723178	-0.034472842081095426	-0.02312270017074386	-0.02917388903894084	-0.023682875058297224
0.454	-0.02100968780120984	-0.018907741565652936	-0.0191277555261661	-0.017798582635872823	-0.020667781804708053	-0.013614322752014896	-0.017152217407308684	-0.01534277332244974
0.455	-0.005099647260861546	-0.0032638528608266828	-0.007155701815232846	-0.0035370143933927366	-0.004497644020478175	-0.0031779206330559513	-0.0021857571775831435	-0.0026153990221296623
0.456	0.011586729125299962	0.011355325130204562	0.013492331382251718	0.012080918459656781	0.013231053521285011	0.008854367037019452	0.012816960829864313	0.011943393635193745
0.457	0.02907079086505629	0.02509944395500057	0.03083349562959015	0.025459209937526688	0.03090585002819518	0.020240629822716023	0.024036854811130312	0.025381988309175898
0.458	0.038166586312499085	0.036026565983214964	0.04057851237847382	0.03658592528297623	0.04092111744036905	0.027747942643070643	0.03353369614234171	0.03315727442890147
0.459	0.04181663549914028	0.039093041311448626	0.04309775582438874	0.03944421878888314	0.04230077975021409	0.03162747715997506	0.03818359859656374	0.036511927592016026
0.46	0.040798329048625764	0.038243229488736076	0.04350723917429152	0.03497933483151803	0.04069948474857346	0.030854821009111657	0.034863781018585185	0.035043653782598654
0.461	0.032217644025908224	0.030159595847864526	0.0367167223684926	0.028922690855953875	0.03541666876016057	0.025794748062548375	0.030569103368541833	0.028288156399114812
0.462	0.02222742193726196	0.019031676545743895	0.024172397235162166	0.018293951917243416	0.023734176241419828	0.016462676122232966	0.018706957489188082	0.020215902821881564
0.463	0.006741981469260457	0.00700715340754755	0.01112380254944452	0.004616072047749467	0.006830427036673942	0.002623277493314404	0.00462476210273971	0.0071760951043972595
0.464	-0.008544740198511942	-0.009108330036806089	-0.009515230807223714	-0.009511593286775385	-0.009712109097171915	-0.00751243685717024	-0.005774922035644098	-0.008598083112973911
0.465	-0.02084199937141612	-0.02458557450163021	-0.025002238494527915	-0.021008627818874102	-0.024126507973390377	-0.01454723989278483	-0.01707976768302675	-0.021890011769331256
0.466	-0.03236737402414862	-0.03469215509825789	-0.03239991055406861	-0.028205593240969745	-0.03465181432490686	-0.022088800779176954	-0.028589380496720163	-0.031733273691991595
0.467	-0.04173419472941006	-0.0421910653185959	-0.04079021910486583	-0.03583239077008569	-0.042803403458182655	-0.028403952897547217	-0.03626028919332209	-0.03958460917895485
0.468	-0.04253488693742105	-0.041957284037731864	-0.04295778013594448	-0.036336231471030045	-0.045108920481425806	-0.02916184129187415	-0.03723068004298146	-0.03826759208057689
0.469	-0.037008939402808604	-0.034676021639623446	-0.03777552132809899	-0.031335422365239944	-0.03859426368426504	-0.02350291001921291	-0.03471385656319905	-0.03418787366085347
0.47	-0.02610616744525779	-0.026166814300929524	-0.031531398018437455	-0.023786301720572802	-0.029956435034854244	-0.018702790244369768	-0.026450547660954934	-0.02375498875713261
0.471	-0.011858970233825938	-0.011196561297357263	-0.016651876285545524	-0.013125134420635847	-0.016156522494403084	-0.011359810355085266	-0.013699213810586055	-0.007352305692718205
0.472	0.0019203762916970885	0.004518269233163886	-0.0016498935845377814	-0.0007325243394935468	0.0016040440291612743	0.0010858653878447902	0.0007565708242632164	0.004053351948479063
0.473	0.017677176098302758	0.01935427775448416	0.009660254305397329	0.016436324752202552	0.014782125532410593	0.012583922205125813	0.01564369511107378	0.015627851775308163
0.474	0.024495012209309136	0.027570011981747734	0.02241246252133875	0.0280955125307336	0.025908918482756647	0.020649281042085334	0.026678724913194053	0.024474193486557126
0.475	0.030595636747606347	0.03205539179909728	0.02942602373053771	0.031633944523678084	0.036674401783774895	0.02486604098781866	0.030811744225900686	0.031288458887662594
0.476	0.03715094328437439	0.03649888207706813	0.032475505510764544	0.03470914262996734	0.041338636905596325	0.02522363011997083	0.033248910537777766	0.03124002344345744
0.477	0.034225758954271775	0.032556383812539495	0.030199311829518898	0.0337658532429908	0.03657640175131371	0.02350910714690458	0.030409344809340287	0.027701200910678007
0.478	0.026987527441754137	0.028265173812666574	0.027044100113479106	0.026734103361287734	0.027229148056835573	0.01991993920112718	0.02391227376025654	0.024299507573685153
0.479	0.01698009239280733	0.01918330458354703	0.018148169095120906	0.019173262276605152	0.0196568935666181	0.01200672073327912	0.016700108764747087	0.016233241335197775
0.48	0.007156532592967462	0.006035706085964287	0.006287603361997064	0.0037015383695171477	0.00466971345168167	0.0004072287858677042	-0.00012328550659098666	0.006066530800569615
0.481	-0.007366792599453963	-0.005074692733815115	-0.005732997047037898	-0.011466017003853156	-0.013105249735686194	-0.012535126240801175	-0.01350799263263408	-0.006713874736374724
0.482	-0.022239749224240993	-0.018783445368076877	-0.021687770992350607	-0.021220852847634426	-0.025089832640620667	-0.02154785881476899	-0.024153736327867856	-0.02092760798417806
0.483	-0.03163240274301621	-0.03052820646388525	-0.02756355580463653	-0.03207906952969089	-0.035421724180161866	-0.026074575095053672	-0.03192703226888609	-0.030690288958258177
0.484	-0.039887612979307825	-0.036004188007983724	-0.03008656523445188	-0.03431566681642898	-0.03843937350596819	-0.027403093141605633	-0.031776915856067935	-0.03442671831062623
0.485	-0.039805376286837564	-0.037718163495426345	-0.02913245159167995	-0.03266153787386816	-0.03651642947106172	-0.02357827989377197	-0.02926064478245545	-0.0334903016329497
0.486	-0.030686658273374315	-0.031097816062387023	-0.02234746810402275	-0.026894879643915317	-0.02850474900051063	-0.014940956944238337	-0.02304831125776285	-0.024738738310733945
0.487	-0.019511006108054278	-0.017466280507550426	-0.014087774857165634	-0.014941850366901351	-0.01972926636782861	-0.005278711043669018	-0.014784968586469742	-0.01542547738958622
0.488	-0.0063668226447180605	-0.008827338490779643	-0.0012310549095277978	-0.000659717289151204	-0.008581870444079941	0.004299656542038746	-0.0006224611893755894	-0.004460769940279439
0.489	0.005239175285793522	0.004508516652927581	0.011583394131614742	0.012012711236208196	0.009037743487370055	0.01438794415688558	0.013608913698643003	0.007665337362961578
0.49	0.016895399208212068	0.018241429801520426	0.019804212846621764	0.019141121892480264	0.021734349027775525	0.01960590715903442	0.022400011911210847	0.016647927109008726
0.491	0.02913057289788053	0.025711420646015334	0.0259424257280129	0.02566715105815614	0.03279063478523614	0.024599212265645203	0.02812898620927188	0.02532220554878334
0.492	0.0329152168631002	0.02996264670348462	0.03266471366433338	0.03164395180193347	0.038882961764238784	0.029618328135042206	0.031235470530774585	0.027548362590827737
0.493	0.03221003349236634	0.028880903897024173	0.03214588723197481	0.03073290705799544	0.03835437937710503	0.027897548199858683	0.030331271082129095	0.0290160106969119
0.494	0.028856786098645285	0.02631251292688675	0.02618335569262159	0.02536304872373693	0.0328527524509431	0.019526114931776445	0.025056140333885292	0.02594448562356364
0.495	0.02181676749454236	0.016734876476491287	0.017114326685107435	0.016768216046914114	0.023290131180510563	0.008809309365638542	0.016205383427152116	0.015828824681472134
0.496	0.01210086007135128	0.008167696220174037	0.005746864081816744	0.003944430511166008	0.01199501148932384	0.002069326705584787	0.006302041769327848	0.007709056799135991
0.497	-0.00024474247827553907	-0.0035779903530159048	-0.004483076736734872	-0.0045362013880693676	-0.00014266713165410406	-0.003968547468919035	-0.0020391923570008746	-0.002876870671981745
0.498	-0.011541658754895934	-0.0172081532394833	-0.014084793464213341	-0.01473487075542443	-0.012491586555957945	-0.010418509659856766	-0.01158012937383513	-0.013389918747312922
0.499	-0.019225349062991694	-0.02175868613998688	-0.02266681688090902	-0.025495211227301598	-0.02271308634970383	-0.018516113341381455	-0.01969691130368396	-0.020232026771239753
0.5	-0.02149707811056609	-0.023915155610289403	-0.02921548080026637	-0.029237821386055202	-0.0272180582302095	-0.025181732051539688	-0.026097484720138037	-0.02319260339991644
0.501	-0.0237744601343345	-0.025555400242838623	-0.02919079022317959	-0.03056784885477531	-0.02920602653068781	-0.023781629473237576	-0.028943991297570595	-0.02564115271861806
0.502	-0.024362954413709646	-0.02667016268120955	-0.027781472825894882	-0.028351155942280666	-0.02828455311169612	-0.020394427115145983	-0.025951740130375413	-0.025250242169169934
0.503	-0.020018934362296598	-0.022674051926706136	-0.021000003359758056	-0.021562728063216664	-0.02518160118904815	-0.01684577515003433	-0.018170564791144105	-0.018008671773491428
0.504	-0.011005217307341579	-0.014157345984424866	-0.010802502059394542	-0.013097602363996144	-0.013855516648887109	-0.009519266851050187	-0.010211602969938328	-0.011348092689951478
0.505	-0.00030738127178628165	-0.0014069257799550604	-0.0037546412229976503	-0.003525825960248713	-0.002183948027089675	-0.0021232296052289636	-0.0025938721611077128	-0.0034363673464936203
0.506	0.006774780864827764	0.008237243791667861	0.00763964440537114	0.006313675835698866	0.006532948549418747	0.003946170978659498	0.007007769105028177	0.007953623442422146
0.507	0.01371216964424058	0.018123016994597743	0.016925768994556133	0.01610013324512222	0.015542499459539554	0.01251680722143586	0.014268377741158108	0.019453627108490284
0.508	0.020145149223768255	0.02676840326771046	0.021562370923893764	0.02512267545291633	0.02047071448816164	0.017708288337018464	0.021498154801871106	0.025124852944665658
0.509	0.02262656111806926	0.0298053681025022	0.02328534461832158	0.027859212148685208	0.026599393319754878	0.01813065043195497	0.0235809651680122	0.027667534593380567
0.51	0.021541700257036386	0.031449172722835185	0.02331536397172287	0.02871938421585492	0.025067202046059667	0.017345603178551203	0.02261554561070937	0.028038690807688737
0.511	0.019513502725031405	0.024833319086087217	0.020330508272065836	0.0245838333543276	0.01987394173451343	0.013801978630008482	0.020407243289007504	0.021723289413117484
0.512	0.013888721341511385	0.01736472837334377	0.015104919741483865	0.015071737145401786	0.013312734584351501	0.00874361985120192	0.011058547376895617	0.014340642403386405
0.513	0.0038148770495064857	0.007988164691833822	0.006971270632990144	0.008376706124865088	0.003633234382760387	0.001214715358105397	0.0035188045155627803	0.005469273566539293
0.514	-0.003513600309970296	0.0008968703353974828	-0.004854269934827756	0.0005009907593834045	-0.004015900972621212	-0.006269960383702716	-0.0028570886424193827	-0.0018002972929586551
0.515	-0.008040836707925665	-0.007489476261651101	-0.009687772483984853	-0.006164087789506916	-0.01406194110769001	-0.01191473766513224	-0.009683256306607085	-0.008012193659428603
0.516	-0.017272319317860607	-0.0172565761667682	-0.014410397521132082	-0.012404345896082627	-0.02341357604054226	-0.016077208464321795	-0.015967263040666403	-0.016529874862631168
0.517	-0.023394235851928943	-0.021262289049813185	-0.019554873898964476	-0.01913675763349456	-0.02694820641330558	-0.017568292215987165	-0.02139553881243781	-0.022062597676681256
0.518	-0.02171509123728596	-0.024086267495609368	-0.020809914191431644	-0.021950733000352832	-0.025780881717824614	-0.017838225505654132	-0.021347457896486333	-0.022786901047701966
0.519	-0.021975006925819825	-0.02007168664562532	-0.019315901662405422	-0.021091780938458503	-0.022479009423269043	-0.016356297862756	-0.01849052427901249	-0.021247916808592816
0.52	-0.01912366686804984	-0.01786681443014222	-0.013470404544583212	-0.01749082444236651	-0.014725146533802145	-0.011317527709562764	-0.014123060747444642	-0.01739015381267135
0.521	-0.012014766110555828	-0.010123850120104024	-0.006771436478609403	-0.010741473643501975	-0.006385908451314993	-0.006405241455807984	-0.00736099312077111	-0.009362169415495175
0.522	-0.0017456092501405176	0.0029035127923925617	0.00028423688123512436	-0.0008480363311723662	0.0006614181307268232	-0.0004962825609223531	-0.0009874309195670753	-0.0003834420760393361
0.523	0.009933279297889296	0.01155618690624611	0.006293197548625089	0.0092309440959005	0.00822092979265875	0.008197781378993373	0.004368341856331403	0.009358412526377325
0.524	0.015283188984604405	0.018823795138567682	0.015071187800789983	0.015872362849241317	0.017268701910199375	0.013135235487434036	0.012585796837169648	0.015882791327437425
0.525	0.019360609137435498	0.02126194327542993	0.020604301603292647	0.018390618280938763	0.023139602172127485	0.018009957878056326	0.017766774619774	0.018503885084680545
0.526	0.024990074997050787	0.023070212198821632	0.020515609120893476	0.020219033221075676	0.023729449183293515	0.018665231165961697	0.01854723223353006	0.01935791009249871
0.527	0.025226809884919474	0.02168681123887074	0.020580728776842076	0.018712966698221215	0.02450210537609591	0.015856401305926228	0.01744707977442118	0.01623841723421174
0.528	0.017277810310175536	0.015268621638716916	0.01521410049824688	0.01327961223481674	0.01887012624341697	0.013589540591877539	0.01136557098971285	0.011892764908910688
0.529	0.008501162295830342	0.005868940420818151	0.006384915148573935	0.008266465649959708	0.009488509178858183	0.007864383609669574	0.00734368701787999	0.004773047302733139
0.53	0.0030816795328103704	-0.003833239134539425	-0.00041207792174985435	0.0010215759468783013	0.0013981068001639564	0.0034761637521299213	0.002076211953341141	-0.004515615713231055
0.531	-0.0038858096015186986	-0.011729117320690577	-0.008057064387042415	-0.00989539863126537	-0.007998228492757466	-0.005054677200789942	-0.0054338055878389	-0.013396029495934806
0.532	-0.014662328757293116	-0.020758533602390754	-0.016367215505360612	-0.01750229354287415	-0.012913001793575843	-0.009501793817411681	-0.011131301976475915	-0.019839888297611966
0.533	-0.022284734271826895	-0.030560074588236164	-0.020313953566401755	-0.019745291155574773	-0.015243655446803332	-0.009344387162365719	-0.015835841208859516	-0.023713462021419367
0.534	-0.025209302457760627	-0.03207795938869218	-0.022969569734330852	-0.02301585023762888	-0.02101628543504221	-0.011567300817646283	-0.01590558238490654	-0.02604306197705812
0.535	-0.025053988198122552	-0.028462089788922625	-0.021318062872773727	-0.022392415163249815	-0.021931150337146935	-0.009904024411010645	-0.015154125916984947	-0.02333586820872089
0.536	-0.018956074326948087	-0.024123076137341277	-0.018411822478491064	-0.017064426270619115	-0.018336865572079464	-0.0071908762832336	-0.013685963045877455	-0.017872227627105223
0.537	-0.012112077089497488	-0.01418579521885857	-0.01357519306559788	-0.012760614167442424	-0.013016439090333445	-0.0036259114988555423	-0.008790292652579072	-0.008818630572144895
0.538	-0.005962028334421887	-0.006815762184943681	-0.0016606189951269285	-0.0065680720117876215	-0.004183254396954711	-0.0013000430478690768	-0.002152671069752549	0.0006008389474219678
0.539	0.0021252382175017087	0.0012110872142179754	0.006141154298595142	0.001113093632358266	0.004027524624364027	0.002875054792536109	0.005095228334740768	0.007411835712102306
0.54	0.010767300546052301	0.008547045399884016	0.01401277335107874	0.007232328235830286	0.013290307307687385	0.007785766022045205	0.011943063188075972	0.01526359678702715
0.541	0.01724201729633484	0.014144725869046988	0.018166575255339795	0.012348235827692126	0.020223585507180675	0.010047671729171188	0.016077107428088537	0.019500452817029272
0.542	0.019923844725576914	0.019306703496516038	0.018785530545324447	0.01724497888511882	0.021654635370279153	0.011895769891628336	0.018679396681367137	0.02293296256223473
0.543	0.018005082221808088	0.01917486178153054	0.019450355452107198	0.01819572871186568	0.02027433614438019	0.011066452606939522	0.019218444264990617	0.02413457968608471
0.544	0.015277878304681837	0.018831446085481793	0.01494674128463358	0.016940669650846774	0.017297558000437856	0.007188244327510466	0.014676149977142991	0.021269020347137894
0.545	0.013421880039548263	0.016090187948014846	0.011607396841035126	0.01484264715136719	0.01108270775347697	0.0017044035034375648	0.009469940506978667	0.01711239804567178
0.546	0.005908262010806997	0.010460135818940347	0.00501878513509761	0.00843319708607269	0.004929001668816292	-0.004600491141569149	0.005443362673303421	0.007369759151279863
0.547	-0.0035733149185659696	0.0019205581620013006	-0.001571605995404847	0.0010572928388735106	-0.0012180754225975664	-0.008161148465965256	-0.002187389043684449	-0.0026687025773814367
0.548	-0.00917298501404265	-0.003603423272103866	-0.007117014167206148	-0.004205210356941403	-0.007821167410754396	-0.008886759074959392	-0.010539355510754349	-0.00885836214758267
0.549	-0.010701837179560221	-0.006219334134417972	-0.01449702394453071	-0.00885860328911304	-0.013195542147413893	-0.011904568714081748	-0.01269380198813057	-0.011273456457995918
0.55	-0.011270475396583974	-0.008177489096518425	-0.0171553077322739	-0.010884218941491887	-0.017843522870430124	-0.01092517190946657	-0.015912588513819652	-0.011457763345407313
0.551	-0.011888750552974565	-0.006162407637739657	-0.01694575778426884	-0.009711626889080694	-0.017777533877166775	-0.009458455514952812	-0.018230288725965323	-0.011769363315483101
0.552	-0.011201445405310474	-0.005665613981926205	-0.015204799667582874	-0.00943121560487153	-0.018587851812804302	-0.008950784315720195	-0.016134461855350397	-0.010145671180394854
0.553	-0.007451866699072591	-0.003958556135848742	-0.009215868427213652	-0.008128937696888806	-0.013809862143990752	-0.0067895849471148895	-0.012810667720332661	-0.007165161233953668
0.554	-0.00109800685767432	0.00012125088477643114	-0.0051102189163653045	-0.001393304977258133	-0.00549491700438913	-0.0024876625778379657	-0.0060093113221752195	-0.004775903240881233
0.555	0.004811968543093031	0.004786420728865263	0.0005121584138234189	0.0049604494085389505	-0.0011407673504699792	0.005819194587132973	-0.0025490944635322534	-0.0005907707308729356
0.556	0.01047627563400099	0.007054261703052214	0.010694564810860653	0.006597001684070451	0.006074900807838102	0.008811645412505278	0.002291641162330043	0.005494383475881344
0.557	0.010807816716552239	0.00900163195790294	0.012852351658417633	0.009719147701115627	0.010806714829754692	0.01282135645330895	0.010172111133027057	0.008789831605412253
0.558	0.011611773958871493	0.01338720217400101	0.013213677509980648	0.009891661431557796	0.010817863332933416	0.013763128445818115	0.01328021323688595	0.0115439373983539
0.559	0.013533082740981835	0.01285088940387171	0.013924110897852358	0.009858310475127197	0.010068276688647862	0.01076810156843501	0.013028501974772927	0.010761710062538721
0.56	0.012454159784767637	0.010709607404098482	0.013726076785948853	0.01176495605574738	0.010433863561395673	0.01189070978480574	0.010639887599505463	0.008162281620459505
0.561	0.009855287275170285	0.011121030483889311	0.01084547796548027	0.007780906259411747	0.008838466230416077	0.00976568302026199	0.008659899253682792	0.009122650627631436
0.562	0.004648085965307211	0.008260747009165475	0.005467655181637042	0.0047551200569828506	0.005717870830931332	0.006996541224079317	0.004721327170049656	0.00551026965437953
0.563	0.0015462855086889136	0.0014598721717259066	0.004644573312104093	0.00209917631922913	0.00019531324661384655	0.003479825563798912	0.00039888467374202757	0.002441966016778098
0.564	-0.004518558855683626	-0.006608071891727869	0.00030866575195607115	-0.0042226036954804615	-0.002733832120340606	-0.0033425444618217673	-0.0017504741977934037	-0.001967070621255809
0.565	-0.011078583316603668	-0.012928839251011903	-0.004478402793274431	-0.010498222651465853	-0.002721044543728698	-0.007462043295854804	-0.005686261504587651	-0.011529334698193875
0.566	-0.013499816464108774	-0.01476036918886456	-0.00709048884991793	-0.01216621087333118	-0.007381168157449574	-0.00908541481572642	-0.008007909413858781	-0.014238018262631895
0.567	-0.012395788060002522	-0.014975666562895997	-0.009914523638634662	-0.011080185091981904	-0.010005913093534338	-0.01203986182710617	-0.008349588750348552	-0.013843928648366064
0.568	-0.010627635655970295	-0.01409383512505628	-0.012870300772371552	-0.0100790451675919	-0.011146158814859362	-0.011786779747873365	-0.009410801572919056	-0.011565317814636962
0.569	-0.010397682818451949	-0.011187601454702791	-0.01260099139592402	-0.008430462695147885	-0.011840911167047887	-0.01336506115385398	-0.008836259836516386	-0.008537403734815728
0.57	-0.0071074525232033905	-0.007728899777366711	-0.00904501227223745	-0.005173785585693649	-0.01025551324093582	-0.011549405474998197	-0.00737171617755572	-0.007404439818850255
0.571	-0.002667356514621201	-0.004882848604149465	-0.006454787703236635	-0.001305154522450217	-0.004415115489392269	-0.006581770383771112	-0.004884405899395233	-0.000926393890192825
0.572	0.002152214036117716	-0.001351512907745798	-0.002778017192083508	0.0010852902189943262	0.0019324274735486719	-0.005375148382999682	0.00198582278986604	0.0053662918541220244
0.573	0.004797476805175683	0.005723694841187692	0.0016116673857399567	0.004899231227758478	0.005590335476529741	0.0011974611058232268	0.008345086596010479	0.007331444187767054
0.574	0.008444399405130141	0.01013276794928303	0.00807149331996443	0.006916058393338579	0.011293448216378382	0.005371081516250863	0.01026892561224151	0.01005327802030561
0.575	0.010972106036241746	0.010335521517396914	0.011281899191332954	0.0094871267339443	0.016784229295856424	0.010627207733677303	0.014011773219101731	0.011452543493041957
0.576	0.01027206788309982	0.011339748983187542	0.01141597120326437	0.009808153302240174	0.019527691236242057	0.014160751943603037	0.017492162846586706	0.009037144369027443
0.577	0.009966871837409543	0.007595288217906239	0.010914510374182125	0.0067622721540421555	0.01780431000699339	0.011434567775514375	0.015769388664350695	0.006811120544174935
0.578	0.005239093708913814	0.0035018615572252236	0.009644768544488086	0.006715793515329238	0.015035386021279715	0.009871144351872542	0.014058644945024297	0.002985209062008805
0.579	-0.0004527790422186559	0.001167139907630469	0.005745677822723814	0.0024481711199250186	0.009509241917775836	0.006897364736755892	0.008323352461064911	-0.0028514734060426637
0.58	-0.005083102346266422	-0.004748012062405569	-0.002100124997006538	-0.0042718571254554945	0.0021388972277088603	0.0029887277064506008	-0.0008267541594875036	-0.008047475999088139
0.581	-0.011147122845837854	-0.008134711065700935	-0.007798215493757098	-0.0075152370340386245	-0.0027729988932477657	-0.004160948158084308	-0.002751815248541531	-0.012464033545255436
0.582	-0.01439747423806781	-0.010102260314375725	-0.011404235898225258	-0.008936411263539936	-0.007374445098161912	-0.009114059680707486	-0.006244350096900648	-0.014078250865825
0.583	-0.011819109614598495	-0.012815211591756179	-0.011634260646759285	-0.012040527610806378	-0.012064672649835073	-0.010800101771112087	-0.011644149371059695	-0.013559501870586497
0.584	-0.010492635003693785	-0.012968282423061755	-0.010506109419413164	-0.012408730408388535	-0.01698563106330851	-0.012835219065203362	-0.014072889857756373	-0.011124091629055073
0.585	-0.007319899160003899	-0.008826828008938067	-0.009067442503748347	-0.010649460350849708	-0.01723385416822661	-0.012733300656050502	-0.015347926253066505	-0.008318445862165156
0.586	-0.004529907258633206	-0.00545666225220338	-0.009520037959312461	-0.00962781147798641	-0.014497608941853594	-0.008228493169393619	-0.011128780177825311	-0.0046851426672551
0.587	-0.006456444450501092	-0.003629433445531855	-0.007916564454414386	-0.00802413901880668	-0.010804154866267521	-0.006423057203491455	-0.00882538340386246	-0.002078637875033894
0.588	-0.0013380384397434686	-0.0009947934888476305	-0.003510523022330685	-0.005690518117658181	-0.00818782570136869	-0.005101591516371215	-0.008006365093001108	0.0020535623919042136
0.589	0.002975656432920181	0.0012392282916575807	-0.0028447420740096963	0.0026098628505653665	-0.004840808924250656	0.0016402784731510938	-0.00502096704310072	0.00651528588853021
0.59	0.0052783312282453304	0.004687268095951411	0.0008585769520472938	0.007356591189485558	0.0009830019758840934	0.0048703888291317995	-0.0008026244460680612	0.007185393469894704
0.591	0.009253214550105285	0.007080865037650862	0.005235553441613308	0.009605402875063687	0.004921227343743587	0.008957062407634442	0.006122861197117291	0.009565216071836751
0.592	0.011825841912316061	0.011240816242867812	0.009958540261599085	0.011670827421088825	0.01120255853404348	0.011599451491082118	0.009245692153613878	0.012668476052165633
0.593	0.013134306555312348	0.013761148146805667	0.011424070212819548	0.011146864551239963	0.013105646275813732	0.012736272380016801	0.011982316050918929	0.016919976552438695
0.594	0.010020673910525597	0.011662328988402955	0.009642006348456656	0.01096204219144792	0.009694252938517996	0.013127067915073789	0.011822499607736455	0.014639377503809845
0.595	0.007633431569785589	0.007513898546188759	0.009105414154772052	0.007022422104290445	0.0068214849371960925	0.010131726126817902	0.002595724338864964	0.008497228415704185
0.596	0.0031051387194173845	0.003918217833621569	0.0052086678067703035	0.005200812672852438	0.0029064398087925024	0.007213029316703942	-0.0007238264820165906	0.004519046685992952
0.597	-0.0017841505620605621	0.0038001781833711537	0.0030378589538498446	0.0037432073937146556	-0.002529944244522136	0.003584776181921405	-0.0005932878704366224	-0.0003767152442112062
0.598	-0.001110438471795545	0.0006961627571668011	-0.00022321295048413742	0.0022506857140867013	-0.008879431037473507	0.0033843785980953007	-0.0047823320965654816	-0.0007831785708939397
0.599	-0.0019069879465894305	-0.002493812328424972	-0.003909413118109759	0.00023428767715042288	-0.009923324826509598	-0.0002834903550368829	-0.006021382081616312	-0.0019438467412057595
0.6	-0.00548775191296534	-0.003951419211876193	-0.0055165818901325315	-0.0031429384617932795	-0.008671487992093187	-0.0045441584354648824	-0.009005283276012195	-0.004585992184218986
0.601	-0.005775995886275549	-0.007067401058711594	-0.006053047930371515	-0.006524492095026244	-0.010303415115830284	-0.006634519567569623	-0.01084601959617281	-0.00510651730483192
0.602	-0.005752492419444578	-0.006920182918244993	-0.00418652408514808	-0.008321459734928066	-0.008976383913406261	-0.008639962937821564	-0.007206496143701156	-0.006103462538379024
0.603	-0.004657203728260449	-0.004763036963808052	-0.0019199999117791011	-0.006470984631816273	-0.00467005316393231	-0.008347888875925354	-0.004753296685383676	-0.006787871648185377
0.604	-0.0011806896589391742	-0.0033141628339166318	-0.0004087349088124886	-0.004146918406945279	-0.003778605884140617	-0.005453388997898921	-0.0028850819452046553	-0.007109558431568813
0.605	-0.0024839560027306506	0.0010610476078759068	6.221085018431474e-05	-7.776533972406142e-05	-0.0008760189135473648	0.00030495143041674026	-0.0002310698776012653	-0.006873145236897545
0.606	0.00033511191695609485	0.0032953452144478344	0.004217206274538294	-6.637396004696656e-06	0.005551709294525943	0.0007795119356696138	0.00500988487221297	-0.0008456440623886943
0.607	0.006472119855549793	0.0024327446550191974	0.005690445396809991	0.0036136543508051952	0.010939824566290944	0.0014459574969482253	0.009975522024921905	0.005482702981750811
0.608	0.0092008285776535	0.00550744400372224	0.005408578948034037	0.008190276975633699	0.01349413805610134	0.0015358219977060356	0.008968228880903302	0.007655912400601662
0.609	0.008206365205229273	0.00814616102868749	0.007942074118297997	0.008019110709343531	0.011678552179817883	0.0017403221488791695	0.008878019127831404	0.00789339213420821
0.61	0.006618518443822721	0.008254329376645919	0.007959956448577495	0.005876449134842034	0.011661999224811566	0.0019109583912439658	0.008604911524036002	0.005492105171791669
0.611	0.007389962710311887	0.005847993995856879	0.004930026445831491	0.0011868937203386072	0.009341334838546555	-8.157790013654593e-05	0.008049378468137594	0.0027216022772966267
0.612	0.0041042429122277214	0.001852864470130946	0.0009900639560222124	0.0006954861218848513	0.0061530605722097875	-0.0007764856380162978	0.008583933555770518	-0.0010361940898181276
0.613	0.001962220415860582	-0.0008320342324055436	-0.002064094052756995	-0.002024487007741555	0.006442693128855245	-0.004042880286901274	0.0019919161391130018	-0.002467409195584498
0.614	-0.0007857355686673991	-0.004238549267821197	-0.00397709759858708	-0.002094093006964101	0.0035911756866957643	-0.004574141002181533	-0.003199400320804634	-0.002243537918473291
0.615	-0.004295011302986752	-0.004989010871726391	-0.001709328370459484	-0.0026250114707734432	-0.0013873046455449823	-0.005491782056554123	-0.006285979036141608	-0.0006597559805631498
0.616	-0.005561840848018823	-0.005318228361342765	-0.004980737889437385	-0.006471835315824115	-0.006663259240998531	-0.006243286899958048	-0.008576249125554594	-0.0017891235538452155
0.617	-0.0073961712883501545	-0.0075660753535548575	-0.008399186027922667	-0.005904809534018889	-0.008389146116650759	-0.0057984162026049	-0.005487958680496527	-0.005026577725386985
0.618	-0.008720406016454563	-0.006876721935044632	-0.007210803527271693	-0.0069001666742908585	-0.005895600763613327	-0.004034396725329642	-0.0028653955145089543	-0.006839641339821571
0.619	-0.008768601662000407	-0.006945899797882869	-0.007925280415266998	-0.007386282814046708	-0.0032573228012934548	-0.00015061128858072395	-0.000918582858190671	-0.009794049844772246
0.62	-0.008127314916850415	-0.007309631041923928	-0.005903392402606601	-0.0032100604415527196	-0.004180774107351579	0.002306542877511215	0.0004373955761767539	-0.007130874033907673
0.621	-0.0065553472401057925	-0.004063709700891776	-0.004115693121696069	-7.337035120251062e-05	-0.0022826246072348115	0.00383860728829173	0.0033837274570475253	-0.0031032108554769205
0.622	-0.0013275597231826887	-0.0016823687512733346	-0.0002111718915934504	4.827679289915359e-05	0.001899728956454708	0.0038844429288633396	0.005703722873542144	-0.001387078896146172
0.623	0.001336284995634903	-0.0005248637060109133	0.00040272851543346044	0.002864407223329065	-0.00021922001461784215	0.004346090412917267	0.0032573361613458625	-0.002851541215920163
0.624	0.00427693287652142	0.002680237692681219	0.0016204809127486706	0.004681519386749856	-0.0006914665148956459	0.005008091297931812	0.0009820842770101698	-0.001240131897874695
0.625	0.006254750150938104	0.0056646356705782625	0.0052404202568397135	0.006063733089034104	0.0004213809739472557	0.005649636432254099	0.0007681222349031334	0.0061437173058973135
0.626	0.005583247431419357	0.006291848709782942	0.0041093136465584785	0.006291852219957147	0.0003996668053356701	0.0030460240842805253	0.00011926835869446883	0.008390315259919921
0.627	0.00537133343367036	0.005542066802347517	0.004705103594565979	0.006236150344352342	0.0009009056919614482	0.0019420167049024027	-0.0015596211654450196	0.006984540789445834
0.628	0.0036941367723160997	0.0069802853749278805	0.005644519467405205	0.005298716392130903	0.002321096661048107	0.0010162854945803966	-0.0004225623265275597	0.005701045767102755
0.629	0.0035646763637895763	0.005331078369651096	0.005461827180250923	0.0017525709314187405	0.002959114980839642	6.403993753116864e-06	0.0027584166998334313	0.005546431425859995
0.63	0.0002673813468373983	0.0012598558447500963	0.00403213867322891	0.0005598288495434285	-0.00028536259895997585	0.00017396539311299907	0.00026953686022626735	0.003187991870607224
0.631	-0.0031647141341111227	-0.0020418827066134944	-0.00078268317756464	-0.005354497759875897	-0.005392109722436495	-0.00456905737060866	-0.006684935139295187	-0.0014644253973510775
0.632	-0.0062263471962279585	-0.007135014896507137	-0.0051164524675586165	-0.007022899259717932	-0.007200959147385762	-0.005061433655473097	-0.007302445113793754	-0.007468008692970364
0.633	-0.008530781557992449	-0.0065105945643357645	-0.003637094615126348	-0.0057473519664843885	-0.005726349143403244	-0.0031787328727542366	-0.005060880410940363	-0.00904914216947684
0.634	-0.007900655011691193	-0.006950312151114474	-0.005576664573890862	-0.008685566068244967	-0.005168265024294218	-0.004137074864856292	-0.00543239679191377	-0.007441600530894872
0.635	-0.0066333257819509855	-0.007785215533519687	-0.006896515229188852	-0.006026411832752986	-0.0025440398877554756	-0.003797965293019307	-0.004763207930791102	-0.006846559557558351
0.636	-0.004538274087665373	-0.0048750247022477	-0.00365247489141672	-0.002940869080799714	-0.001079905832853502	-0.0026943215542913007	-0.003693481476693569	-0.0005677553859926808
0.637	-0.00160321888516794	-0.0022694133127823196	-0.0005195023232287673	-0.0024348461489520803	0.00015940228443185467	-0.0003341080951018935	-0.00016595999418600243	0.0024262052041144097
0.638	0.0034852300814144704	0.0001572076976205104	0.004459280258085695	-0.000658729125636107	0.0018275239687153817	0.004416031625180782	0.0023599203695409397	0.0032725477919282406
0.639	0.005857010957134127	0.0034043914753034083	0.004377375276198226	0.002662610128377409	0.003578020040101119	0.007618596072320039	0.003592397591465542	0.004781528771372408
0.64	0.006689334172314908	0.006352942993434482	0.0036953336296327113	0.003221066335880059	0.005075067801179875	0.008416345171900534	0.00413647215184415	0.004733392395249043
0.641	0.004783722789772154	0.004943710454498896	0.00278679184851838	0.002378528178130334	0.0018337237016653864	0.004760837260234067	0.00515211582096834	0.0034133510834714826
0.642	0.005803366853035553	0.005826736854606581	0.002234561157475218	0.004520457032443607	0.0018056894607751178	0.001224682841693639	0.006201260356571558	0.0026821809780232476
0.643	0.0075816848269336795	0.005158156470528952	0.002636689660963639	0.007049591714067304	0.0038718396126578634	0.001385899591186492	0.0033651328212115214	0.005782203594656391
0.644	0.004046429407576781	0.005418654453145607	0.001811334390455441	0.007371310408194586	0.003369883837137472	-0.0014916356993471124	0.0025638549671609316	0.004822918790053742
0.645	0.004464063773333279	0.004385560408465188	0.0003415665798520714	0.005745875114957789	0.0006889146229240494	-0.0017906368984097899	-0.0002784043318963985	0.003398369437416209
0.646	-0.0010992917529683384	0.0008377500530235943	-0.003368187501217507	0.0020038754846346484	-0.0026583333114576693	-0.0013357265234177893	-0.000787165993003299	1.592138721520452e-05
0.647	-0.005339962715154201	-0.00031091742109746806	-0.00561271652992889	-0.0008471619713800916	-0.004372424299650655	-0.0016266937197654346	-0.00011130947956348757	-0.0023525120519444875
0.648	-0.002579372376730516	-0.0026049028862880387	-0.004870372090366097	-0.0006660744987705263	-0.003847646743253397	-0.0024534351629858626	-0.0032816265516640367	-0.0019933548252503556
0.649	-0.005035304887344089	-0.002687076986032887	-0.0015063518407695208	-0.003086696010399528	-0.002676713559389669	-0.004351210770095968	-0.004540001694257162	-0.003083739530993422
0.65	-0.005288369085990128	-0.0029134930702986645	-0.0016992427822541852	-0.0044909895804484574	-0.0010911857941506876	-0.0022215941515481537	-0.0022063308813697283	-0.0012282336751719587
0.651	-0.005029759328505692	0.00014573800708577543	-0.0017854351876520572	-0.004017169848683361	0.0015132222677967273	-0.0023205365693706316	0.0006068405367652274	-0.001064360212587737
0.652	-0.0046575371747446595	-0.0008485647139464098	0.00023587791240658594	-0.002014717309930203	7.01937388641454e-05	-0.0017962435472999774	-0.0014691611913422078	-0.0017420221640821018
0.653	-0.0002971229979976442	-0.0024787494518000077	0.0004309695449841145	-5.148986257984149e-05	-0.0004095186019867818	0.0037670313969405686	-0.00031734313686629097	-0.001731375983106163
0.654	0.00044771058955214764	0.0027322660441155087	-0.0007949022501969763	0.0008906909196142324	0.0008464943206370017	0.005593259363521571	0.0008426362749111025	-0.0012493330803254614
0.655	-9.194052571215089e-05	0.004592680860989217	0.00029669874083605263	0.001335332180818418	0.002278188841876795	0.0031935956779971376	0.0012438310954685878	-0.0006109699692932782
0.656	0.0023275133127592888	0.0038093817399581925	0.004122616182932801	-0.0004464980981310332	0.0041869065832305236	0.0022338038914530025	0.003193121458128867	0.0029224608531590746
0.657	0.00521701079768358	0.00546092665996339	0.00743420538741478	0.0020076439867021617	0.005119876341788596	0.0014438877916025784	0.0035067105694060793	0.004911849651836496
0.658	0.007114748991625211	0.0044869980547640916	0.008220344296754691	0.0007109172162528944	0.005924997312588011	-0.00015786000476963565	0.0007296518546420069	0.0043816364089977735
0.659	0.005692200305118265	0.0016775349793620767	0.002924265175638131	3.878593241051333e-05	0.0017141994894812511	-0.002306564170205031	-0.0013167104970017638	0.0042796218213594925
0.66	0.00678646776148356	0.003735370268255361	0.0008478200337505614	0.001458335736252519	0.0006224362669246845	-0.0027814567892528773	0.0006836465724491267	0.002267315677187796
0.661	0.007522535795844871	0.0006237843029927866	-0.0009746204243313306	-0.00043063695653643	0.001685636202559151	-0.0017696776934854493	-0.0019043631720351026	0.0026846822452565094
0.662	0.0030300185706670355	-0.0032121327298762848	-0.0027583346226360017	-0.0013228213712521354	-0.0032025035195062104	-0.0024845919588014943	-0.003153818031121734	0.0015192003837569887
0.663	0.003507059826564694	-0.004764516934885834	-0.0028569116688711964	-0.003714417115641709	-0.004655031908567848	-0.002469067251519343	-0.004242280886380387	7.45550576485364e-05
0.664	4.215106485843859e-05	-0.006849845736324111	-0.0043134431681387435	-0.0048683085698374914	-0.0031806188797111447	-0.00305999718596108	-0.0043040780334439605	-0.0031032152183444192
0.665	-0.0065467014550989275	-0.0067098618343963785	-0.0030619349586544697	-0.0038155828733055777	-0.0036765060218090146	-0.0012964616995777161	-0.0019565591073590835	-0.004297333299198446
0.666	-0.0074908250746546085	-0.00760198265235657	-0.003487612081067709	-0.0015695162046652949	-0.001927597003046119	-9.495713673717801e-05	-0.0013544299851716026	-0.00529415321344725
0.667	-0.008944217146481189	-0.009081094496915285	-0.001870861206209862	-0.00249530139502972	0.00017238919030684722	-0.0027951041365498258	0.0009765591776261883	-0.01042166128414597
0.668	-0.006335904557408265	-0.008807091037546413	-0.0017885888511966282	-0.0006809341154205423	-0.0012636409447842835	-0.0008060658131592223	0.0015097104600571608	-0.007933037969018914
0.669	-0.003088137435457527	-0.0034116507754407	-0.004035795356057472	0.0024962797410507816	-0.000648279269659419	0.0001034665709287197	0.0009415857585814522	-0.004740952743696615
0.67	-0.0013920373743350812	0.0007711001225266694	-0.002132362197066071	0.0042167536894230605	0.0010329761697060013	0.00017936067151904828	0.0001656233139330597	-0.002418760668108077
0.671	-1.955129779925827e-05	0.00028285914277836676	0.001824751582893132	0.004575801601203657	0.0006105406650648449	0.0021221825124973373	0.003199510863569565	0.0005919876934547105
0.672	3.953773421491925e-05	0.0008888673957501472	0.0044800254971244504	0.005071738368207676	0.0013714788887620943	0.0025486608597268877	0.005954857513118959	0.0010750685889533132
0.673	0.001684325342216629	0.004063744835440936	0.004156540476411894	0.007792598327156016	0.002420005707116239	0.0035686171789531093	0.004946866623455589	0.0024206400956041712
0.674	0.0021385891540066483	0.007200131299228678	0.0030634988330282492	0.006195924469246844	0.001635287843852941	0.004692115785022907	0.005770090730607476	0.003921523056811388
0.675	0.0026891020507870196	0.005760758925064774	0.002518603908403708	0.006520600850914894	0.001507465183843351	0.004248646966151712	0.0054215263709056416	0.001150013623416899
0.676	0.002283186791163606	0.0005478894204461622	0.0018734080886658993	0.003775216686025233	0.00019154413548788494	0.0020611410048617424	0.004109662865356332	-0.002719468911422048
0.677	-0.00198422733091144	-0.0022614046635174925	-0.0017150577693095244	-0.0005085165816671848	-0.002994401215219436	0.0006805632652701332	0.0030337612851331183	-0.0015784158155173562
0.678	-0.007059775842672857	-0.0040073578368710824	-0.003263043312723882	-0.0026472688958914903	3.692440286245561e-05	-0.0012210443251905309	0.002299949192870125	-0.0028980467429313094
0.679	-0.008221799671733754	-0.0036088519056748174	-0.001600960333418422	-0.0030628654004112126	-0.0008194401024528955	-0.0018664692126663055	-0.0006731306597814163	-0.0041652442096434305
0.68	-0.005220794793269704	-0.0020275032908012485	0.001148663152016459	-0.002118094998755991	-0.004180109561013877	-0.0017584075641849926	-0.003385995038128273	0.0006772725662185113
0.681	-0.0017811847355488364	-0.0013983624432048704	0.0020811910942598656	-0.004485899655026998	-0.0013467747641870975	-0.0005865523889593349	-0.001511685891077938	0.0025566423247754128
0.682	-0.00022277785774568696	-0.0011232032542670813	-0.004231910689229904	-0.006717233279767597	-0.0031988239119610153	-0.0017154962996100982	-0.002140653440781912	0.0008913953330544913
0.683	0.0005162034959720908	-0.001897903612712629	-0.0047850046984195295	-0.007210739600443454	-0.004497337904599963	-0.0035140170066209724	-0.005530087845353749	0.002329648186963268
0.684	0.0033386238858829904	-0.00018632850277894942	0.00032337422145624903	-0.005364562106000526	-0.0012778379718472886	0.00041839517434906156	-0.005639960654210983	0.002657283121838429
0.685	0.003640158561329236	0.0008524513085684845	0.002314587016818672	-0.0047146001043939425	0.001468340188298569	0.0022781967767605943	-0.00172639804016654	0.0019341092214835204
0.686	0.0011456303859915808	0.0035352892955669425	0.004013849208710708	-0.0025186030045330054	0.002995415985499164	0.0026446462623124787	0.0001840672147629304	0.0025141398854338732
0.687	0.0036659444285989094	0.006223734102144702	0.003984007474883249	-0.0004436975185400113	0.004092639972898851	0.0005386608517576757	0.000259923154561167	0.003716355887265027
0.688	0.007325042724149571	0.007618505451541167	0.004268153873361709	0.00024204867610473017	0.0026782158847825604	0.000428243297290456	-5.676148574372661e-05	0.006689359991921575
0.689	0.005888954109066052	0.008939593526381129	0.0038023067546498427	0.0008168180602363377	0.0011474050969898387	0.0013107902443345004	-0.002996483496890395	0.006533307501974399
0.69	0.004946992722084886	0.007364613082487603	0.0045891348587332	0.0009582559278970589	0.0027470686994518164	-0.001679961908535559	-0.004695928328864295	0.005356460539290137
0.691	0.005418686364289471	0.006834412187623604	0.003079181182119934	0.0024237396516285778	0.0017209121160286266	-0.0012091147976765995	-0.005530791803687254	0.0037526411262090846
0.692	0.0031640547968162457	0.005878903292692939	8.843082688045646e-05	0.00018652899627010676	0.0007578051401325286	-0.0007802120231932063	-0.004768116543256782	0.0022914269240019397
0.693	0.0015178640092415791	0.0036320576793085484	-0.0008792542239656923	-0.00030122326187867715	0.0013092006111584476	-0.002124426133736166	-0.005639404886472052	0.00211638482258893
