6.25035,5.95532,6.48463,11.3784,10.5349,15.3536,8.46968,9.94841,8.43643,2.21477,7.46692,7.93353,6.01253,7.78018,10.6424,10.5052,62.464,-910.12,-399.672,3360,-700,0
3.25326,-4.42502,-1.38151,-2.32741,-3.62452,5.90232,-4.55363,-1.71666,2.59466,-2.21913,1.67095,-3.57536,-2.68648,-4.89003,-3.74805,-2.19386,62.952,-909.144,-399.184,3500,-560,280
-0.351924,-2.7014,-2.52893,-2.29853,-4.06258,5.36986,-6.75457,-5.00649,2.04187,-3.06492,-2.6093,-5.18601,-5.69645,-5.10591,-5.97101,-5.09422,63.44,-909.144,-401.136,3220,-980,420
6.66439,11.6886,6.61193,5.71161,7.61222,10.2899,1.27405,3.60117,13.9421,9.47613,6.94577,10.4765,2.45454,5.05751,3.72445,4.22422,63.44,-910.608,-399.184,3220,-840,140
-10.3382,-13.3123,-9.35053,-15.1911,-16.4618,-4.68184,-13.859,-6.86206,-13.8559,-10.0872,-9.21065,-12.336,-11.038,-9.25659,-13.2101,-10.9758,62.952,-911.584,-398.208,2800,-700,140
2.20351,8.94444,2.79411,2.41498,5.04311,4.93279,1.29713,5.40077,8.66533,6.22889,2.2892,6.76748,0.683621,5.67363,2.53356,5.13357,63.44,-909.632,-398.696,3220,-980,280
-1.9976,3.42151,-1.60604,-0.18845,-0.535011,-1.85542,0.07109,-0.196937,-1.85585,-1.75358,-5.12006,2.2773,-3.21312,1.23879,-0.789837,-2.34633,66.856,-911.096,-400.16,2940,-700,140
-4.26316,-1.75967,-5.35517,-1.67106,-3.48213,-2.66307,-0.729255,-1.25039,-4.19052,-4.71895,-8.07317,-3.40381,-4.06898,-2.22614,-0.994911,-2.36367,62.952,-908.168,-399.672,3080,-560,140
3.84879,8.58365,2.32721,5.64916,6.43768,2.50367,6.76462,4.81108,5.34455,6.0295,1.57679,5.63436,5.39337,4.17049,5.34783,6.54454,65.88,-910.608,-401.624,3220,-700,0
-7.18207,-13.2822,-8.79141,-11.3975,-13.6811,-9.07481,-7.3526,-7.58115,-14.9351,-8.24027,-10.1079,-15.2788,-5.52827,-9.61528,-12.0225,-9.54384,64.416,-911.584,-404.064,3640,-560,-140
9.31699,3.13233,2.6368,-1.22874,0.709025,0.438295,-0.162638,-1.22148,7.37776,10.4418,5.91986,0.217197,5.4585,1.36434,-2.373,0.20793,63.44,-911.096,-403.576,3920,-700,-280
3.24129,-8.14948,-5.48928,-10.2665,-10.3109,-4.932,-7.71164,-8.51251,-6.36284,-0.122824,-1.91725,-12.7195,-2.45672,-8.11331,-9.97241,-8.11519,60.512,-910.12,-399.672,4060,-980,-560
-2.1465,-8.98222,-8.62353,-9.10183,-9.59794,-5.34946,-6.69607,-8.19274,-6.63659,-4.98684,-8.27516,-16.4144,-7.20066,-8.87897,-8.42359,-6.68725,65.392,-909.144,-398.696,4620,-1120,-420
2.61965,8.65805,3.30908,6.9997,8.66576,3.96209,7.42685,4.5906,4.89463,4.75062,2.71302,2.98298,4.29259,4.27433,6.74844,7.20005,65.88,-911.584,-401.136,4480,-1260,-560
-14.6316,-15.264,-9.10822,-10.1784,-12.3967,-7.60418,-8.80354,-9.3931,-22.3988,-14.5122,-11.8686,-14.7962,-7.19743,-10.1809,-9.96694,-11.618,64.904,-915,-402.6,4480,-1260,-700
0.779874,9.84522,7.56607,11.2109,11.6865,4.96811,7.71521,1.90276,4.14202,6.69267,7.77904,10.7625,8.05115,6.43909,10.3609,4.39683,63.928,-912.56,-399.672,4480,-1400,-700
4.98741,6.66024,5.15815,9.52379,6.89998,-0.0661081,6.05277,-2.2119,6.07304,3.97965,4.62864,9.33385,3.89185,0.573305,8.38897,-0.462138,65.392,-915,-397.72,4620,-1400,-700
-3.31679,-6.82602,-2.05565,0.258865,-2.47442,-1.34233,-2.14972,-4.13571,-5.32681,-5.31683,-3.16796,-1.15703,-4.35848,-3.02007,-2.22871,-4.87976,66.368,-914.512,-398.696,4760,-1540,-700
-2.15892,-1.79955,1.07412,2.86441,4.36311,2.67215,2.31367,6.00844,-1.62781,-1.22453,1.11875,3.8405,-1.76106,3.01808,1.46104,3.60417,69.296,-911.584,-399.672,4900,-1400,-700
-12.3805,-20.0887,-13.2051,-13.1396,-15.8242,-12.8633,-12.1939,-9.27294,-18.1574,-17.6826,-14.3836,-15.6758,-15.8104,-14.232,-13.4373,-13.613,66.368,-910.608,-395.28,4760,-1400,-700
6.12534,5.46282,3.09748,4.42612,6.68802,1.18104,2.40341,1.45038,10.3801,5.3298,5.77093,7.39236,1.24247,1.60429,3.58301,3.84988,65.88,-913.536,-399.672,4760,-1400,-560
4.32594,2.42688,2.89969,2.47651,3.95301,-1.37354,3.14023,0.910524,3.88265,2.40021,4.54359,6.67148,1.98204,2.51676,5.23861,2.90262,64.904,-910.12,-398.208,4760,-1400,-560
0.679925,2.12683,1.68209,4.71389,4.41809,-1.68499,5.97125,5.74351,3.44244,1.05735,3.05706,5.82195,1.3541,5.12503,8.87902,6.95619,67.344,-908.656,-400.648,4480,-840,-560
11.6103,18.1266,10.3342,14.2125,14.9777,3.41926,12.8932,14.5171,19.0115,13.9569,13.6875,19.8318,10.0655,13.9819,17.4274,16.7805,63.44,-907.192,-396.256,4620,-840,-420
-7.21294,-10.4396,-5.58395,-8.94088,-12.258,-12.5731,-9.31042,-4.24816,-10.654,-8.34497,-4.76242,-7.3227,-5.30885,-4.93267,-6.14946,-6.83438,64.416,-909.632,-400.648,4480,-700,-280
3.54451,8.76214,5.52512,5.04666,6.16239,-0.583356,2.40224,5.45277,9.78348,5.66658,5.05562,10.275,4.66454,7.76774,6.38851,7.08052,67.832,-907.192,-400.16,4340,-700,-140
-3.51692,-3.82092,-1.90794,-5.30159,-6.46412,-6.74819,-5.75128,-3.10405,-4.78944,-3.75449,-2.84359,-0.949424,-1.4459,-0.494678,-5.02263,-3.47347,65.392,-910.12,-400.16,4060,-560,-140
1.89481,-1.61572,2.55058,-2.16714,-2.47061,0.105541,-2.57418,-0.0592359,1.45075,2.97151,1.74824,0.248287,2.42909,3.21611,-3.73445,-0.614215,66.368,-908.656,-399.672,3920,-280,0
16.4685,20.3006,16.4443,14.0728,15.9418,12.4731,10.8076,11.59,22.1571,20.3702,15.9215,18.4199,13.8551,14.4032,11.5075,13.3155,65.392,-908.168,-400.16,4060,-420,0
-1.36911,-3.22437,-0.552645,-5.73765,-7.18306,0.413808,-5.95042,-3.57318,-3.6188,-2.75294,-3.7389,-6.36845,-1.64091,-6.07637,-9.0072,-6.69907,65.392,-910.608,-401.136,3780,-420,140
5.1869,11.3065,5.98939,3.93054,9.25944,13.6968,4.88927,4.60065,11.5136,5.87542,3.74931,6.70313,6.16216,3.45331,2.66696,8.03465,64.904,-913.048,-396.744,3920,-700,280
-7.23972,-7.03755,-4.22072,-10.0528,-4.22723,5.19175,-3.29921,-4.605,-10.1244,-7.3515,-4.53861,-9.94904,-2.83526,-6.85895,-6.65903,-1.14183,63.928,-913.536,-398.696,4060,-560,140
-7.30193,-8.93573,-5.14112,-8.67719,-4.23036,3.83488,-2.79819,-3.52666,-8.23436,-8.0004,-5.62879,-11.1029,-3.92098,-5.74198,-7.26187,-1.34075,66.856,-912.072,-397.232,3920,-700,420
2.04581,5.37914,1.43006,2.77674,7.2832,7.27968,6.03678,6.4938,5.16232,4.5615,4.06063,1.24517,4.48852,3.38445,1.58929,8.38014,66.368,-915,-400.16,3920,-700,420
-10.9608,-14.5956,-11.3416,-11.5129,-11.2388,-4.64886,-5.51274,-5.6401,-16.8311,-12.7043,-10.1553,-18.3163,-7.15797,-8.84135,-11.7382,-6.81045,68.32,-914.512,-396.744,3780,-420,420
4.188,8.352,2.68343,7.39257,8.11112,5.38951,6.71348,4.02657,8.34712,6.11866,4.00856,2.71631,3.80315,4.62836,5.23077,5.98377,66.856,-912.56,-398.208,3640,-560,560
-0.155251,-2.1672,-2.33026,-0.467072,-3.57885,-2.38618,-2.28012,-4.35248,-4.51287,-0.948099,-2.73289,-5.58462,-2.98226,-3.74223,-2.20492,-5.71415,66.856,-914.024,-396.256,3640,-700,560
-3.72638,-6.09179,-5.82152,-1.24886,-5.23971,-2.29,-3.50188,-6.63807,-5.90771,-5.76743,-7.90013,-6.92224,-7.54562,-4.52433,-3.46186,-8.96283,67.832,-915.976,-396.744,3640,-420,560
3.512,8.43483,1.92768,9.37366,7.23127,4.53399,5.80126,3.36736,7.17284,3.34709,1.24521,7.72182,1.05185,5.40863,6.08569,-0.072733,66.856,-913.048,-394.304,3500,-420,700
-9.93574,-13.0279,-9.25673,-5.61534,-10.8607,-4.37577,-5.87655,-6.82825,-16.2112,-13.3518,-12.1643,-10.5108,-7.44469,-4.89663,-7.05974,-13.9415,65.88,-913.048,-396.744,3500,-560,560
5.63416,7.30963,2.95109,10.4919,8.54166,7.1666,8.70201,5.76762,9.64541,6.26781,3.31639,8.20462,4.77418,7.87399,9.03045,3.82421,65.88,-910.12,-400.648,3360,-140,420
-2.63977,-5.76247,-3.35651,-2.12792,-3.95026,-1.96147,-1.56338,-0.476453,-6.12828,-4.0118,-2.6886,-3.48986,-2.17611,-1.74025,-0.116451,-2.43376,61.488,-913.048,-401.624,3360,-420,560
-1.71195,-3.41792,-1.66869,-1.05933,-3.71797,-2.54091,-3.13344,-1.38861,-2.92646,-3.0572,-2.12761,-2.27878,-3.10545,-1.41726,1.80629,-1.49664,64.904,-912.56,-400.16,3640,-280,700
8.99631,11.6086,7.12895,5.60853,5.09099,1.2117,0.669997,2.65653,12.8015,9.27925,8.76878,11.163,4.98262,4.5344,7.00846,3.83058,65.88,-912.072,-398.696,4200,-280,700
-9.26248,-15.0385,-9.45558,-17.0544,-19.2833,-14.0247,-16.6691,-12.0151,-15.009,-10.6803,-7.68857,-12.247,-9.63738,-12.187,-14.0964,-14.2923,65.392,-912.56,-397.72,4200,-560,560
2.94765,4.71069,2.688,-1.53876,-0.266694,-3.48857,-2.38236,0.965902,8.85377,5.31953,5.26571,7.29415,1.85966,1.36076,1.72388,3.51558,65.88,-912.56,-400.16,4060,-700,420
-0.341229,-0.72657,1.83604,-4.38492,-5.21354,-6.50031,-4.19222,-2.38353,-1.82435,1.10626,2.801,2.08193,0.672159,-2.61767,-0.571539,0.428226,64.416,-913.536,-402.112,4200,-420,280
0.163399,-2.4598,2.12866,-2.9205,-4.12922,-5.21692,-1.92142,-1.2403,-2.09928,1.96188,2.26303,-0.0726295,1.51126,-2.69754,-0.750702,2.044,63.928,-913.536,-398.208,4200,-560,280
10.4989,12.5591,10.8166,7.82103,11.4443,1.80637,7.86736,7.91084,12.4717,14.4776,12.7121,13.796,10.3646,6.33237,8.59461,12.4493,63.44,-913.048,-400.16,4200,-560,420
-8.41038,-9.62146,-5.64057,-7.16998,-7.34718,-11.2732,-6.53349,-6.45061,-14.8025,-8.86935,-7.98242,-8.17358,-6.92002,-8.73704,-6.93493,-6.34574,65.88,-913.536,-397.232,4200,-700,280
6.95354,14.0489,8.44055,15.1034,17.5198,2.24911,10.3261,6.25421,10.8797,8.09432,5.10621,13.6649,5.70829,7.96527,12.8021,10.9145,65.392,-914.512,-400.648,3920,-840,140
0.0490829,0.0113632,2.63196,5.22933,7.42211,-0.962923,3.75906,0.940437,-5.03299,-1.27382,-0.703777,1.48593,1.61926,2.23099,5.12703,2.45864,62.464,-912.56,-403.088,4060,-560,140
2.52705,-2.68949,1.5547,3.14571,5.40624,3.8696,3.51416,2.75862,-0.281107,-0.0382407,1.28415,-0.88155,2.34487,4.06846,3.61852,3.05317,64.416,-911.584,-400.16,4340,-560,0
10.7467,8.32927,7.37436,9.22816,13.2796,9.21221,10.8129,8.28714,12.8654,8.64373,8.88533,8.01701,8.2864,8.91396,8.17211,10.8519,62.952,-911.096,-398.208,4200,-840,-140
-13.8754,-21.6824,-12.5544,-13.2234,-14.6449,-7.16607,-7.29309,-6.87439,-18.8313,-17.4895,-14.2861,-20.9377,-9.35395,-9.55776,-13.7649,-8.13966,65.392,-913.536,-402.112,4620,-980,-280
2.57071,0.592757,-0.390378,1.49202,2.50443,3.49564,3.92632,4.61594,9.12352,2.9773,2.08181,-0.742617,2.34456,2.51496,-1.45759,4.1723,64.416,-912.56,-401.624,4620,-980,0
-5.34576,-9.71709,-7.98267,-9.3818,-10.2647,-6.05206,-4.1914,-2.90578,-6.06092,-5.89692,-5.39926,-9.01034,-5.24021,-7.9342,-9.8325,-8.96748,63.928,-911.096,-400.16,4620,-1120,-420
0.990953,-2.68278,-3.42273,-3.91481,-5.53386,-4.56726,-0.791511,-3.50456,2.98885,0.302616,-2.63014,-2.50121,-3.47059,-4.9415,-3.86063,-7.71004,62.464,-910.608,-399.672,4760,-1120,-280
9.4471,12.1236,6.13617,5.87918,6.6106,0.911831,4.44996,2.91376,14.7079,11.2538,8.1014,9.71354,4.92649,3.05463,2.94483,-1.02882,63.44,-910.608,-401.624,4620,-1400,-280
-4.85696,-6.40771,-5.28969,-6.35639,-9.57147,-4.91208,-4.79524,-3.37276,-8.21753,-5.11643,-4.45593,-7.07718,-4.39316,-5.40168,-8.15825,-11.2752,62.464,-912.072,-399.672,4480,-1120,-280
7.99539,15.4997,8.14524,10.2392,10.7771,11.5892,8.91071,9.01693,13.0501,11.2254,8.60079,13.9866,7.3807,10.4643,7.24912,6.02451,63.928,-912.56,-396.256,4200,-1260,-280
-2.46852,7.03262,3.37225,3.21022,2.7227,9.07332,2.61908,3.06556,-1.30285,0.446134,0.776212,4.55577,3.14246,6.20771,2.55556,-0.830869,64.904,-910.12,-398.208,4340,-1120,-140
-0.71294,7.69654,5.23458,6.84163,5.63343,14.796,4.50008,4.70373,3.17496,1.16252,2.03124,5.23696,4.87268,7.43228,8.12836,2.74247,62.952,-910.608,-398.696,4340,-1400,-140
8.52251,16.44,9.46835,14.1497,14.5173,18.3701,9.26839,8.14281,14.5777,10.9362,9.53244,15.168,7.3004,9.06713,15.3855,12.4875,64.904,-907.68,-397.72,4340,-1260,0
-9.1992,-11.0486,-8.23128,-7.53994,-10.0572,3.78632,-8.76733,-10.1476,-12.346,-11.0476,-9.4422,-10.6009,-9.77114,-9.32645,-5.64264,-7.32974,63.44,-908.168,-399.184,4200,-1260,-140
-1.32804,1.90307,-1.31968,0.489519,1.83561,10.9423,-2.20267,-3.46206,3.2643,-0.551455,-1.15559,2.03055,-2.24562,0.721478,0.283012,2.5486,61.976,-911.584,-397.232,4200,-1260,-140
-11.1012,-14.0817,-10.8692,-15.5179,-15.2637,-2.2501,-14.4496,-12.3239,-15.7079,-12.9326,-9.79836,-12.1397,-10.5505,-10.5704,-14.7915,-10.9118,63.44,-911.584,-397.232,4480,-1400,-140
-5.6891,-11.9731,-9.74139,-14.046,-13.9964,-4.45492,-14.2609,-8.69481,-8.30559,-11.7152,-7.79438,-12.8381,-11.0707,-9.02344,-13.3216,-10.6684,63.44,-913.536,-396.744,4340,-1540,-280
-0.183918,6.82288,0.485062,3.06401,3.29626,-0.760961,-0.561278,3.4788,4.97394,-1.66039,3.18348,0.718109,-0.656219,3.06881,0.961947,5.46951,63.928,-913.536,-394.792,4620,-1960,-420
-21.4206,-11.4556,-9.31277,-3.84123,-9.74164,-12.1298,-8.33566,-7.28194,-22.6708,-18.3824,-10.7195,-15.4549,-8.35175,-5.66123,-6.97244,-5.03112,65.88,-915,-400.648,4760,-1820,-420
2.95229,13.6348,8.02295,17.2289,15.0288,0.111425,10.3681,6.31894,6.12851,7.88504,4.99849,10.5087,6.02933,11.0125,14.3368,12.0013,64.416,-912.56,-401.136,4620,-1820,-280
1.89072,-2.51078,2.52279,-0.725807,1.17966,-8.1878,1.43017,0.597248,-5.79527,3.97204,0.140577,0.565277,2.53403,3.20502,-0.0190201,0.901701,61.976,-914.024,-395.768,4760,-1820,-560
5.48891,-7.46378,0.852703,-10.578,-5.14281,-11.2899,-4.49164,-2.93702,0.948582,5.23439,-0.128917,-3.5789,0.0582725,-0.782655,-7.77759,-2.89435,61.976,-912.56,-397.232,5040,-1960,-560
12.4803,7.07401,7.93436,0.116897,6.74517,-5.54313,5.01029,6.90226,11.2089,12.8902,6.67631,6.1083,6.78942,4.62818,3.41409,8.84581,64.904,-915.976,-401.136,5180,-2100,-700
-3.99993,-14.829,-7.90763,-14.2847,-12.5586,-14.2489,-6.27091,-4.62074,-13.9491,-10.1861,-11.3403,-16.5151,-6.20618,-10.0828,-7.72551,-5.38325,65.88,-912.56,-397.72,5600,-2100,-700
14.9923,10.9663,7.42707,5.98787,10.38,1.35575,8.99381,6.76615,16.7459,11.5048,6.88919,9.52619,9.483,5.9303,8.45867,10.3823,64.416,-914.512,-399.184,5320,-2100,-700
3.60328,-4.92985,-1.80661,-3.02271,-2.10593,-6.59084,-1.72403,-3.07309,-0.446683,0.699407,-1.13969,-1.25215,2.27842,-5.643,-3.80419,-2.50423,64.904,-915.488,-396.256,5040,-1820,-560
3.01232,-4.9798,-3.68006,-1.95805,-2.31747,-3.61368,-1.4612,-2.90056,1.16709,-0.594125,-0.505519,-2.26361,0.180778,-7.11706,-3.20749,-3.04938,63.44,-915.976,-396.744,4900,-1540,-700
9.52104,11.0187,5.42808,9.83627,11.1752,4.14831,7.55809,5.93972,14.4371,11.1125,11.2365,12.6777,7.79245,2.57451,6.97121,8.61025,63.44,-912.072,-400.16,4760,-980,-560
-15.9964,-17.1636,-12.6837,-9.55226,-13.154,-9.59344,-9.49307,-8.20412,-19.2185,-14.8916,-9.2139,-14.36,-9.56734,-14.6498,-9.75447,-9.22557,63.928,-912.072,-398.208,4620,-840,-420
-1.49791,4.88173,2.65759,9.99797,8.22796,5.57878,7.19217,5.81675,0.582493,2.88387,4.82261,8.26285,2.52572,3.10892,10.6833,9.74419,60.024,-913.048,-396.256,4480,-840,-420
-8.95268,-7.2981,-3.0924,0.899901,-4.51854,-0.515692,-0.116584,-0.482809,-13.2208,-7.09341,-3.07989,-1.38536,-3.57086,-2.89929,1.25211,2.40234,62.464,-911.096,-397.72,4340,-980,-280
-5.68695,-4.89423,-2.41485,-0.162203,-5.95186,2.81486,-0.827575,-0.265085,-3.94005,-5.34937,-2.47484,-0.695384,-3.18323,-1.20462,-1.11277,1.46078,64.416,-911.584,-397.72,4200,-980,-420
8.06253,13.2999,10.4203,11.5024,10.6462,14.6342,10.2793,10.7665,14.1792,11.8574,11.8661,16.5207,8.92633,10.7407,11.0867,12.1731,61.488,-910.12,-398.696,4340,-980,-280
-1.34944,-4.47229,1.91669,-4.57952,-6.81534,6.52401,-2.25111,1.24557,-2.04612,0.638114,3.12751,-0.573942,2.77727,0.169344,-4.16522,-3.83715,61,-910.608,-397.72,4060,-700,-280
16.7072,20.1921,16.532,12.4491,13.6428,14.7822,11.214,12.3084,27.5916,19.9547,17.9075,20.3556,14.1887,13.6471,10.8386,8.05221,60.512,-910.12,-397.232,3920,-700,-280
8.15026,7.4147,8.36309,4.65678,3.14605,1.99074,3.21542,4.09369,8.38861,6.64595,6.57993,6.85921,6.14111,4.6895,2.77154,-3.47739,61.976,-911.584,-398.696,3780,-560,-420
6.82399,6.02063,5.60613,4.00553,3.35942,-0.678195,1.7272,-0.367052,6.79824,3.60688,3.33313,1.66074,2.28207,3.61908,3.08056,-6.60688,63.44,-909.632,-397.232,3500,-560,-420
14.0917,19.4482,10.8876,13.4041,15.6554,4.38227,10.9681,6.11748,19.0384,12.227,9.47407,11.2865,6.53448,11.3968,14.1394,1.93241,61.488,-911.096,-396.256,3080,-420,-280
-5.03924,-5.62815,-6.87788,-4.76842,-7.66254,-10.0003,-7.29689,-12.2448,-9.44436,-10.7588,-10.8861,-10.2527,-10.4355,-4.19059,-6.06602,-18.6995,63.44,-915,-399.672,3220,-280,-280
6.64799,10.9067,4.12808,6.17736,8.32052,1.76339,0.662724,-4.23872,10.9917,4.71336,3.09291,8.859,0.446643,7.40192,3.13927,-4.82268,61.488,-913.536,-395.28,3220,-280,-420
-16.1633,-14.1479,-11.1334,-12.8193,-9.39956,-6.93415,-8.79003,-7.86515,-19.8764,-16.346,-13.5253,-13.5659,-10.7394,-4.57762,-10.1924,-9.63217,61.488,-912.072,-399.184,3220,-140,-280
-28.481,-20.6457,-18.1108,-16.4609,-14.2222,-7.78454,-8.74532,-7.77986,-29.0087,-24.9642,-21.2965,-23.1019,-16.3469,-7.66431,-12.4131,-7.75974,65.88,-915.488,-399.184,3500,-420,-420
-10.8179,-3.48452,-5.91728,-3.72226,-0.0458605,-1.47352,0.598932,-0.470077,-11.3342,-7.83562,-8.87173,-7.98329,-5.89229,1.2216,-1.06754,2.82352,62.952,-915.488,-401.136,3780,-560,-280
-17.8216,-23.2682,-17.249,-17.7814,-16.4666,-11.879,-12.6757,-10.5186,-27.4493,-19.2301,-19.6267,-27.3338,-15.4965,-12.0177,-13.614,-11.9371,65.88,-916.952,-401.624,4200,-700,-420
5.97183,3.14634,-0.99995,-1.79714,3.29769,3.30289,-1.80841,1.18476,12.1782,6.25032,0.610775,-2.44079,0.607465,0.610513,-0.773277,1.3196,63.928,-915.976,-398.696,4480,-560,-280
-3.63508,-6.05638,-7.63176,-7.63001,-7.56125,-0.729179,-8.85082,-5.98491,-4.17779,-4.88007,-7.79481,-9.17094,-5.67743,-8.19378,-7.9568,-8.4202,66.368,-917.44,-398.696,4340,-700,-280
-1.23734,-3.72143,-6.88247,-1.75974,-6.38609,3.4412,-6.23147,-4.61307,-0.440174,-3.67467,-5.74839,-5.41915,-4.67765,-8.33016,-4.14581,-6.21161,70.272,-915.488,-402.6,4620,-980,-420
11.7807,12.2955,6.481,10.2907,9.45248,12.7414,5.31312,6.25465,15.6616,11.91,8.58385,13.3814,7.28344,3.03258,7.09341,7.48461,69.296,-913.536,-397.72,4620,-980,-280
-2.93995,-10.542,-4.57983,-6.24084,-10.0023,-0.452199,-6.45972,-4.3086,-9.48862,-4.46155,-3.52801,-4.58681,-2.5708,-7.75784,-7.04173,-4.71886,68.808,-914.024,-396.744,4760,-840,-280
13.1233,12.9121,11.0476,9.50978,10.8468,10.3123,8.94418,11.879,18.1584,16.6674,16.5605,18.6644,12.7043,8.2562,9.11028,17.2014,66.856,-909.632,-397.232,4900,-980,-280
-1.86106,-3.70045,1.0965,-3.66202,-4.16271,-1.06483,0.552775,4.71666,-4.22774,1.49433,5.10667,3.33237,4.26233,-3.45241,-1.45872,9.44419,68.808,-909.144,-395.28,4760,-1120,-280
-3.27604,-1.84075,0.543076,-0.185367,-2.37256,0.465575,1.25984,3.37766,-1.44495,-0.991839,2.47226,2.76859,3.88131,-3.79262,-0.696893,9.11945,65.88,-909.144,-394.304,4760,-980,0
8.15685,15.6922,13.4046,13.7879,16.0357,12.9058,12.575,12.5973,12.162,12.6431,13.2919,19.4879,14.3086,9.1864,11.645,18.9882,70.76,-911.584,-395.28,4480,-980,0
-5.8285,-7.88141,1.99201,-3.35475,-2.21355,1.53277,-2.03429,-0.661889,-13.2546,-4.17436,-2.3273,-2.28906,2.03911,-1.65554,-6.34686,2.77328,69.784,-911.584,-395.768,4200,-840,0
14.9894,17.914,16.0541,13.1539,16.9025,9.03185,10.8601,8.11003,20.6128,17.9912,15.233,17.0608,13.9021,11.6283,8.52826,16.112,67.344,-913.536,-398.696,4200,-840,0
7.09032,5.39246,4.7847,3.46294,2.28754,-5.86445,1.99636,-1.43273,5.46841,5.84726,4.57621,3.30546,2.62279,-0.0453303,0.888732,2.67875,67.344,-912.072,-398.696,4060,-700,140
1.37312,1.24012,0.0629737,1.80458,0.0697066,-7.2769,0.576063,-2.21207,2.06109,0.315379,-0.65441,-1.37959,-2.63998,-1.60211,0.419534,0.73337,67.344,-912.56,-396.744,4060,-560,280
5.82202,6.34196,4.32443,4.58169,3.69276,-2.75958,3.29685,-0.261966,7.09411,5.53709,4.64487,3.98475,0.508184,0.899038,4.25461,1.83965,65.392,-913.048,-400.16,4060,-700,280
-6.25241,-12.8159,-9.93768,-8.25498,-15.789,-16.3471,-9.59249,-16.0558,-13.4651,-12.5961,-9.43543,-14.7117,-13.3873,-11.9099,-8.45926,-16.8897,64.416,-914.512,-397.72,4340,-700,280
10.3699,10.7156,3.88663,10.0371,5.33053,-7.45336,4.63624,-3.51012,13.8161,5.77613,6.14436,7.49332,-0.729675,4.88342,8.13821,-0.997651,64.416,-914.024,-399.672,4480,-840,140
-5.81797,-8.94647,-5.67253,-5.23897,-9.2638,-16.3617,-5.29906,-7.16153,-11.1631,-10.2281,-5.38,-8.8721,-7.25115,-2.05523,-4.71464,-9.20238,63.44,-914.024,-399.184,4760,-840,280
-6.07452,-9.25761,-6.6485,-5.17378,-7.65247,-11.5693,-3.66119,-3.58526,-9.23182,-9.16241,-5.55795,-11.0258,-5.64842,-0.479203,-2.6101,-6.12415,65.88,-914.024,-397.72,4760,-840,280
8.20487,7.8341,6.43062,6.16527,9.9298,1.43049,6.9271,7.20071,9.08483,8.89271,9.24151,5.84538,7.5807,10.3376,8.33864,3.04361,65.392,-915.488,-397.72,4760,-700,420
-7.5814,-13.067,-6.67909,-9.34375,-5.44144,-4.68989,-3.37585,-1.41932,-14.9186,-10.3211,-7.02143,-12.9893,-2.88313,-0.687395,-3.72626,-11.6823,64.416,-915.976,-399.184,4900,-1260,280
4.07871,9.79664,5.17741,8.05827,15.85,11.9284,11.5235,12.1329,8.54627,5.79936,5.40517,8.34089,7.96643,13.7368,15.4693,5.19301,65.392,-918.416,-398.208,5040,-1120,140
-1.16886,0.865306,-0.190475,1.13923,3.24655,5.84308,3.89646,4.21944,-2.35958,-1.60242,-1.87174,0.478807,-0.00523306,4.33162,8.41055,-4.4707,64.904,-912.56,-396.744,5180,-1260,280
-2.79649,-2.63175,-2.72021,-2.20269,-2.31534,4.89911,-2.8465,1.72088,-2.33377,-3.20471,-4.93158,-2.75418,-2.38751,0.374231,0.177001,-5.5359,61.488,-914.024,-401.136,5460,-1540,420
5.68249,6.88913,3.00792,-0.0947957,4.43447,9.20129,-2.5561,6.08069,8.8014,6.61526,3.80676,7.527,4.47167,2.5449,-0.816092,1.42093,61.976,-912.56,-399.184,5740,-1820,280
-11.5775,-15.756,-14.1477,-16.8292,-15.4347,-4.23342,-18.0684,-7.4714,-15.5854,-14.1926,-14.7043,-14.1309,-10.612,-14.1311,-19.6301,-13.4982,63.928,-915.976,-398.208,6020,-2100,280
1.32569,6.22954,-1.5948,0.924501,5.305,4.60054,-3.84511,1.87143,8.15644,3.37501,-2.03834,4.74969,0.751465,-0.301921,-4.00462,1.45279,67.344,-915.976,-393.328,6020,-2240,420
-3.16146,-2.20601,-3.32444,-1.64003,-1.55532,0.381763,-5.46972,-4.55488,-3.53098,-2.31984,-5.86306,-2.26235,-2.44855,-4.08337,-5.3609,-5.25417,63.928,-914.512,-394.792,6020,-2240,420
-3.1568,-0.292282,1.94822,4.81531,2.43059,6.02004,1.70914,-3.05587,0.171947,2.10583,-1.6705,1.1261,0.107465,0.292877,1.37558,0.423041,65.392,-914.512,-397.232,6300,-1960,560
7.13169,10.9857,11.2282,11.4286,9.95967,12.3828,11.7414,8.31405,13.3876,14.2895,10.7604,11.5775,8.86691,7.21886,9.46823,13.4224,68.808,-913.048,-400.648,6440,-1680,700
-15.2436,-18.8417,-9.3508,-14.5925,-19.1222,-4.31629,-7.19083,-6.12306,-17.9422,-13.1544,-10.7595,-16.2136,-9.2329,-12.1381,-12.8326,-6.59321,66.368,-913.536,-401.624,6580,-1820,840
-4.57228,0.00774443,0.73901,-2.75925,-1.03361,5.77963,4.66867,4.00825,3.47298,0.296781,-0.0851164,2.23269,-0.445333,-0.435079,0.228096,6.79314,69.784,-913.048,-397.72,6580,-1400,980
-13.3539,-13.6218,-8.23643,-13.6046,-13.6427,-1.80183,-6.19905,-5.31455,-13.9207,-12.7996,-10.9216,-11.212,-8.40145,-10.2969,-10.7074,-4.83226,70.272,-912.56,-397.72,7000,-840,1260
-4.25997,-3.60688,-3.56777,-5.29919,-5.78132,-0.131406,-1.90192,-5.47077,-2.5742,-6.67642,-7.72168,-4.34973,-4.94929,-4.23623,-4.58386,-0.265259,67.832,-913.048,-394.792,6720,-840,1540
10.0491,16.3607,7.74749,9.23648,10.3658,3.54751,8.66361,0.514861,15.0033,9.03469,6.59938,13.8979,6.25789,6.19429,7.58878,11.1253,68.32,-911.096,-394.792,6720,-420,1680
-9.26432,-9.36708,-7.2901,-7.78864,-9.67349,-10.796,-4.8175,-10.9132,-16.2748,-10.2607,-7.10843,-7.37146,-6.18869,-8.0849,-8.2948,-4.21012,69.784,-913.536,-395.768,6720,-280,1820
-0.0298804,3.46144,1.08476,1.91604,4.34117,-0.581524,4.86503,4.16701,-0.793538,2.40882,3.68223,5.86407,2.47694,2.96012,1.99181,11.1299,70.76,-909.632,-397.72,6860,0,1960
-9.77485,-12.5377,-10.4416,-10.7345,-11.691,-10.2718,-6.29,-4.6631,-18.3889,-12.2751,-8.38554,-10.852,-8.15185,-9.08641,-6.99931,-3.93939,67.344,-911.096,-399.672,6860,280,2100
-0.00833135,-5.68166,-4.10626,-3.28713,-5.29454,-5.17696,-4.42454,-3.03418,-6.00131,-3.58448,-0.375949,-5.19554,-3.08467,-2.92138,-3.79128,-1.82775,67.344,-911.096,-398.208,7000,140,1960
11.8763,7.70177,5.65126,6.33005,5.2023,0.429583,-5.00996,-0.535437,8.72566,10.2661,12.1227,6.15714,5.84618,2.3325,-0.874946,1.84906,66.368,-911.584,-398.696,7280,0,1960
-0.978046,-9.59754,-5.19499,-5.78007,-9.47854,-7.94829,-15.7847,-8.8136,-7.94552,-4.83434,-0.245449,-11.224,-4.23993,-8.44892,-12.5917,-11.1645,68.808,-911.096,-399.672,7420,140,1960
12.9225,12.2463,10.3656,10.1397,11.9148,6.59601,5.63894,8.24105,17.9081,14.1077,15.4664,9.6779,9.94317,9.90276,7.34289,9.0353,66.856,-915,-399.184,7560,-280,1960
6.98329,2.03093,6.62647,4.05731,3.11288,2.79007,5.45445,3.65704,3.60041,6.62991,9.57582,0.728631,5.23936,5.19879,6.12865,2.21799,65.88,-913.536,-396.256,7560,-560,1960
11.5345,8.87927,11.9652,11.3955,9.76435,6.36471,11.5365,7.52658,12.059,12.2047,11.6724,7.50861,8.8127,10.9152,13.2331,5.79038,64.904,-911.584,-396.256,7420,-840,1820
21.9516,27.1012,22.1393,25.5131,26.0643,12.3886,22.6393,19.8936,29.1051,25.6862,21.4129,25.5082,18.5534,21.9192,26.9708,16.8553,65.88,-914.512,-395.768,7700,-840,1820
1.90152,1.13584,2.73522,5.39647,1.56296,-2.13905,3.46214,5.90022,2.04385,1.24817,0.253314,1.2643,0.44193,1.99579,6.50881,-2.18966,63.928,-914.512,-393.816,7840,-840,1680
15.0953,21.5714,13.4045,19.6699,18.9481,7.95178,13.2901,11.966,26.0217,16.5205,12.1389,18.6332,9.12357,10.7019,18.6116,8.05894,64.904,-918.416,-397.232,7980,-1260,1540
5.91162,8.08532,5.64064,9.32841,6.36026,1.67787,6.09392,-0.546286,8.25309,4.12022,3.54966,6.43002,3.3143,0.544503,8.82549,-4.32143,63.44,-914.512,-397.232,7980,-1540,1540
3.75466,4.15739,2.54996,6.18804,3.64574,1.79037,3.7757,-3.82909,5.77116,0.918235,0.485769,3.32992,2.06524,-0.926662,7.3099,-4.75506,61,-915.976,-394.304,7980,-1540,1400
9.24438,12.359,4.43732,9.53651,9.97766,1.63611,5.75594,0.848959,11.8892,5.0994,4.05224,11.2959,5.07598,3.60322,10.5426,3.42848,62.952,-918.416,-395.768,7980,-1820,1400
-5.02782,-9.89384,-9.90552,-9.86036,-11.2449,-13.4474,-11.6135,-13.1844,-11.5151,-12.4994,-11.583,-7.3146,-7.50887,-10.0332,-10.3878,-12.207,62.952,-918.416,-396.744,7980,-1960,1540
6.85335,10.706,2.79851,6.96159,9.79779,-0.4891,5.08901,1.18432,11.2837,6.73514,2.59881,13.5687,3.77828,6.27126,8.17058,5.89902,63.928,-916.952,-394.792,7980,-2100,1540
-6.81067,-5.76311,-8.85774,-4.71342,-5.10857,-10.3363,-3.17098,-7.06241,-8.67591,-7.49524,-11.2239,-3.02781,-8.70774,-4.25428,-1.7574,-5.15307,64.416,-916.464,-396.744,8260,-2100,1540
-11.2212,-8.09662,-10.065,-8.48976,-7.90899,-7.41258,-7.16127,-6.0239,-7.52226,-8.74494,-13.4297,-8.55409,-9.96921,-4.15782,-9.13814,-5.94221,64.904,-917.44,-394.792,8540,-2380,1680
-9.2772,0.000325514,-3.52807,-3.77644,0.629577,3.59176,0.10224,2.81303,-2.47535,-3.38648,-6.05796,-2.07233,-2.52423,2.80839,-5.54287,5.26322,66.856,-915.976,-398.696,8960,-2380,1680
-21.0748,-22.944,-16.4576,-17.7734,-18.7878,-9.22853,-12.5522,-11.9067,-27.2144,-21.9988,-20.1635,-22.9455,-14.5231,-13.0243,-17.0973,-11.046,69.296,-918.416,-395.768,9240,-2660,1820
0.0523425,2.94225,1.21966,5.10619,5.95902,4.05971,6.75926,2.02575,1.23367,0.281222,-1.23989,2.37243,1.27281,3.16643,4.70937,4.54105,68.32,-916.464,-394.792,9660,-2660,1820
-10.2908,-12.8404,-4.91523,-8.35993,-5.98089,-0.0110682,-2.39242,-1.54949,-17.7341,-10.8482,-8.52395,-11.4841,-5.18268,-4.86118,-8.59099,-5.84483,64.416,-917.44,-397.72,10080,-2660,2100
-19.3332,-19.4473,-8.81941,-16.0502,-9.53876,3.90711,-7.26327,1.15215,-23.2669,-15.6075,-11.4889,-20.0858,-7.6718,-5.45224,-14.2044,-5.31261,66.856,-917.44,-396.744,10360,-2800,1960
-9.0678,-7.60983,-2.07733,-11.085,-3.07715,8.71236,-3.07564,8.7805,-10.8601,-4.28215,-0.339139,-9.74827,0.528998,2.42557,-9.24869,2.84277,69.296,-918.904,-395.768,11060,-3080,1960
-23.0141,-33.6361,-19.0534,-34.4257,-30.8052,-7.91469,-25.5709,-7.39167,-33.893,-23.808,-16.8759,-33.3494,-13.3411,-15.0031,-33.3835,-15.1329,69.296,-920.856,-393.816,11480,-3220,1960
-6.65769,-13.2193,-6.89009,-19.8761,-12.11,2.64447,-12.9168,4.38435,-7.5334,-5.60458,-2.98444,-13.2284,-1.79133,-2.91819,-18.7268,2.76901,68.808,-919.88,-396.744,12180,-3080,1820
-21.7268,-33.3851,-17.6098,-35.2124,-28.3614,-7.60174,-22.8326,-5.6172,-33.3283,-20.5817,-13.454,-29.0151,-11.2811,-16.6378,-29.2771,-10.093,67.832,-918.904,-394.792,12460,-3080,1820
-19.624,-27.426,-13.8866,-28.9999,-24.0637,-2.8511,-20.0452,-6.58141,-25.9686,-15.9237,-9.04087,-22.01,-8.46511,-15.4323,-25.0856,-9.84409,67.344,-919.392,-394.792,12740,-2940,1540
-8.39343,-7.10864,-4.98157,-11.0816,-8.82237,0.759853,-8.04269,-0.903904,-7.49069,-4.39188,-0.596103,-5.10551,-2.99226,-8.16541,-8.01917,-1.54848,67.344,-919.392,-389.912,12460,-3080,1540
-13.6485,-12.3028,-11.8471,-9.4205,-15.5519,-12.2036,-11.0439,-11.7086,-14.279,-13.6485,-10.3747,-12.8708,-11.3579,-14.3134,-7.50448,-11.2639,66.856,-917.44,-393.816,12180,-2940,1260
14.5951,22.3687,9.3242,19.4699,12.3384,-1.24662,7.06725,-0.328605,24.6454,17.1708,14.9051,20.9156,7.47629,4.86334,14.741,5.09477,67.344,-917.928,-391.376,12040,-2660,1260
10.7162,9.95251,5.20361,11.3055,1.44973,-6.79179,0.660632,-8.60294,10.4336,10.5852,10.8067,12.2745,3.73002,-2.06768,5.28856,-5.60807,64.416,-916.464,-390.888,12040,-2380,1260
23.1326,22.6396,14.7413,23.8131,15.5724,5.06174,12.3839,0.702076,28.4744,21.5495,18.1056,24.784,11.6241,8.66092,18.6539,4.96833,62.464,-918.904,-389.912,11900,-2240,1120
41.7504,45.2933,29.5014,41.1049,36.1023,18.3722,29.0082,13.0754,51.9075,40.6422,30.8075,45.7358,24.2103,23.198,36.6864,18.5912,63.44,-914.512,-388.448,12040,-2100,1120
38.5864,35.5273,24.7142,36.9989,26.8469,13.4065,22.8704,4.48222,41.7922,32.6863,22.531,35.4699,18.8555,18.3136,28.9922,10.1921,64.416,-914.512,-391.864,11620,-1960,1120
50.5253,56.9424,38.75,55.2174,48.3787,29.0594,37.5917,17.6414,62.745,48.5667,36.992,53.272,30.817,34.481,46.0875,28.3176,64.416,-917.44,-391.864,11480,-1540,1260
34.7421,38.5815,26.036,41.231,32.173,17.2323,28.5805,10.0583,38.4399,28.2541,21.252,34.0924,17.8438,22.3835,35.5076,16.3385,65.392,-915.976,-393.328,11620,-1400,1400
23.171,27.7814,17.2863,33.2081,25.8761,10.1047,24.7275,8.09292,26.2794,16.2252,10.8998,24.3283,9.49374,16.4457,30.1977,13.5476,62.464,-915.488,-396.256,12040,-1400,1680
19.3419,25.1503,16.8536,27.716,27.9807,9.56062,26.9635,13.4729,20.7049,15.0629,11.0983,24.0808,10.5181,19.1972,29.1892,18.9852,61.976,-915.976,-393.328,12460,-1260,1820
-9.22699,-11.5639,-8.78198,-5.22077,-4.28737,-10.0524,2.97545,0.69411,-15.4852,-15.3277,-12.168,-11.7531,-9.50129,-3.05727,1.85772,-1.14502,66.368,-917.44,-397.232,13020,-1540,1960
-4.04029,-0.693714,-3.7418,-4.4388,2.05865,-1.68106,3.01105,8.77376,0.875139,-5.35468,-3.48909,-4.67677,-3.13105,1.07767,1.74859,6.25309,62.952,-917.928,-393.328,13720,-1820,2240
-28.0553,-18.4683,-16.3185,-18.4655,-14.2706,-11.52,-10.0772,-3.45817,-26.4715,-27.3811,-21.6433,-24.731,-14.9917,-11.5337,-11.6114,-7.5502,66.368,-915.488,-393.816,14000,-1960,2380
-37.9804,-21.9297,-19.2929,-19.1784,-14.7015,-13.6275,-12.0039,-5.37661,-33.7644,-33.198,-27.1621,-30.0706,-16.4213,-12.0834,-12.8301,-7.62692,66.368,-919.88,-391.864,14000,-1960,2380
-23.4082,-13.5434,-11.4009,-14.142,-8.8048,-14.6106,-9.56222,-1.34704,-25.0404,-17.7618,-17.0035,-18.3296,-8.91938,-9.832,-9.09409,-5.106,66.368,-917.928,-393.816,14140,-2240,2660
-37.8974,-46.244,-29.3865,-40.8623,-38.1328,-31.5912,-30.8031,-16.903,-50.6334,-34.3641,-31.3285,-43.136,-22.4298,-30.8708,-35.7481,-28.5953,67.344,-918.416,-389.424,14280,-2240,2660
-13.5708,-24.9124,-14.7617,-32.6569,-23.037,-19.2155,-23.9193,-7.84859,-13.6595,-9.47514,-7.26173,-19.6571,-6.52567,-16.1731,-31.152,-15.8673,69.296,-916.464,-389.424,13860,-2520,2660
-26.3351,-40.5482,-23.5295,-46.8128,-39.4076,-25.8653,-36.9821,-19.3976,-34.6853,-22.6638,-13.4001,-32.3223,-14.3421,-25.2299,-45.788,-27.1147,68.808,-916.464,-391.376,13860,-2520,2660
-18.7973,-31.1103,-15.8506,-37.5492,-30.4035,-17.8045,-30.8332,-15.3685,-23.6708,-13.8026,-8.03817,-22.3712,-9.06915,-17.9494,-38.9329,-18.7898,68.32,-916.952,-389.424,13720,-2800,2800
-4.18771,-12.175,-3.07687,-17.1455,-10.5972,-5.48133,-12.9113,-4.39848,-6.5348,1.26527,1.73608,-3.95225,0.325977,-4.2125,-19.3794,-1.93196,64.904,-916.464,-386.984,13720,-2800,2800
-14.9164,-30.8211,-12.6414,-25.0254,-23.6398,-5.34341,-18.3855,-7.73534,-26.0329,-13.0923,-12.7692,-19.6518,-10.227,-11.7687,-27.0285,-9.08984,65.88,-916.464,-392.84,13580,-2800,2800
9.0167,0.542115,6.82645,0.295017,4.39058,15.6669,4.25227,10.911,6.99834,11.5853,6.90906,8.81769,6.14334,8.2424,-0.375907,12.8078,63.44,-914.024,-388.448,13160,-2660,2800
2.4103,-2.39121,1.06873,1.67347,1.35371,11.1201,4.68927,2.99573,-3.34683,0.17979,-0.689756,1.10944,0.454911,4.44287,2.15154,4.55308,63.928,-916.464,-387.472,12740,-2660,2800
14.1039,17.2122,7.45286,21.7046,16.8787,14.1131,18.0121,4.99381,16.7826,8.10077,5.001,12.9126,4.71343,12.3386,23.7284,9.7428,61.976,-917.928,-387.472,12460,-2100,2800
25.7682,38.6938,19.0711,40.3132,34.6835,21.5868,31.4223,13.0627,33.3041,21.9851,17.9667,29.4216,13.3821,23.8601,43.0389,20.2853,61.488,-917.44,-390.4,12320,-1820,2800
19.5542,29.56,13.3658,33.637,22.1684,13.0957,20.2464,-8.76475,24.2514,13.9646,12.2998,18.7057,5.53129,12.2659,36.2176,-4.07453,59.536,-919.392,-394.304,12040,-1540,2520
24.2462,45.6787,22.3233,47.6981,36.5767,22.3845,27.5993,-0.412491,39.0906,26.5703,24.0817,33.2599,15.6165,21.1829,49.6976,6.49182,60.024,-916.952,-394.792,12040,-1400,2520
2.70863,12.8305,5.45169,14.9581,6.02048,13.1947,-4.33916,1.35367,5.88106,4.40072,5.38408,6.43468,2.02507,2.72397,9.7766,-2.44676,61,-922.32,-396.744,12320,-1260,2380
3.42418,2.12725,4.07515,-1.96602,-4.58755,19.1113,-13.8582,10.1449,3.51471,4.62714,4.35585,1.79249,1.47132,-0.0607863,-14.6441,3.81678,60.512,-919.88,-401.136,12740,-1820,2240
5.79258,0.0438477,8.75627,-7.40038,1.41252,18.5437,-2.19601,19.0124,3.43366,10.8076,9.42081,6.12368,5.98618,11.1133,-16.2965,22.6037,61,-919.392,-400.16,13440,-2380,2240
-9.4775,-26.5385,-5.93151,-27.815,-16.6577,-2.04622,-8.83183,4.1388,-21.4616,-7.66823,-5.47416,-14.5789,-5.99831,-0.375228,-25.6578,12.2488,61.976,-914.024,-398.696,14420,-2940,2100
1.04058,-3.64492,5.41602,-6.22909,8.60581,10.2581,11.3147,15.6969,2.90897,5.99835,3.33792,5.28463,3.11278,13.9021,-2.24497,27.2642,60.512,-918.904,-393.328,14980,-3080,2240
-9.40694,-14.9655,-4.50443,-11.3124,-3.03306,-0.309068,3.68365,4.01239,-15.2175,-8.7077,-7.59629,-9.91283,-5.38425,1.21398,-9.16677,10.4554,63.44,-919.392,-394.792,15400,-2940,2380
-3.60246,-4.88415,0.656158,-0.577791,3.96797,2.45564,7.81233,3.58338,-5.19792,-3.60665,-1.11713,-4.91704,0.570052,2.51043,-2.34917,7.7317,61.976,-920.368,-394.792,15260,-2240,2380
4.72323,15.548,7.50402,17.8471,14.8907,9.51494,17.2017,8.86423,11.8575,2.34628,3.78951,7.42571,6.50651,3.68957,11.0814,4.89226,64.904,-921.832,-394.304,15260,-1820,2520
-10.7039,-0.0185628,-11.7337,11.2819,-8.46535,-7.20376,4.07325,-15.4218,-8.07122,-19.5887,-15.8389,-12.9033,-9.28911,-22.7449,6.57242,-28.99,64.904,-924.272,-389.424,15120,-1400,2520
2.36386,20.0392,-5.22791,21.5438,3.85521,-17.2231,5.51541,-17.261,14.3485,-4.60439,-2.25324,3.28804,0.334834,-20.5113,17.0973,-28.2597,68.808,-925.248,-390.4,15120,-1260,2660
-2.16895,4.70799,-19.2368,2.20672,-21.035,-39.8895,-17.6746,-30.4399,1.50055,-15.4176,-3.33264,-13.8967,-5.693,-40.102,-1.86084,-48.2087,71.248,-926.712,-388.448,14980,-1120,2520
-3.9576,-0.773663,-18.8083,-5.63996,-25.6624,-37.888,-26.9315,-31.9463,3.43784,-13.9814,-3.9439,-17.3369,-7.35208,-39.8617,-7.20665,-48.955,69.784,-925.736,-388.448,15400,-1400,2380
5.37096,3.6304,-1.85066,-9.89314,-12.5031,-25.4357,-23.8569,-9.32569,10.5582,2.94145,6.82,-2.19249,4.68902,-13.6156,-11.3616,-20.0025,72.224,-924.272,-386.984,15260,-1820,2100
-7.08351,-20.0595,-3.14058,-28.3577,-17.9859,-21.0613,-25.3621,-1.23984,-17.2344,-6.0288,-1.89147,-9.90364,1.34454,-0.641692,-28.3135,-7.89873,70.272,-925.248,-383.568,15540,-2240,2100
5.75868,3.69453,16.2901,-5.07855,16.7352,8.45006,8.98027,24.1248,2.91568,13.4346,9.88451,20.1445,17.6703,30.1426,-0.338756,28.0673,66.856,-924.272,-381.128,15400,-2240,2100
-0.105464,-11.7375,5.04823,-10.0426,7.57543,7.39043,9.88887,16.0202,-13.6854,0.241652,-10.2186,8.8643,4.93785,20.6879,1.22012,21.0279,67.344,-919.88,-383.568,15260,-1960,2100
-1.49103,-16.3848,-0.791047,-10.3344,4.61883,11.0059,7.59014,9.02847,-12.276,-1.6904,-15.4406,4.97125,-2.30704,14.787,0.643275,16.0489,65.88,-923.296,-385.032,15540,-1540,2520
4.89311,-4.26977,1.54309,-3.57898,9.55632,15.7827,12.1785,10.5499,1.99993,5.07639,-5.46668,11.1583,-1.97274,16.2569,6.43467,19.0501,66.856,-918.904,-385.52,15120,-980,2520
-14.8813,-22.6049,-14.8157,-17.91,-10.5693,-2.64027,-5.65277,-7.53588,-20.4839,-14.5062,-19.4197,-12.5385,-18.0229,-1.40686,-9.23536,-2.48876,63.44,-919.392,-382.104,14560,-980,2940
3.62216,5.41032,2.94514,3.73677,10.3638,2.67439,7.60857,5.98829,9.67479,9.95878,3.71888,10.4822,-1.81777,11.3462,6.74407,9.19551,62.952,-918.416,-383.08,14560,-700,2940
-3.62995,-4.92963,-2.92089,-2.37214,-3.89497,-8.41973,2.51152,-3.10397,-6.77991,0.34944,-4.54046,-1.04571,-9.82407,0.0787738,2.80587,-2.54913,64.904,-916.464,-385.52,13580,0,2940
2.49062,5.84249,3.83666,8.03206,2.08762,-1.26074,9.15102,-1.42441,5.16758,8.3071,1.60749,3.66031,-5.76385,5.7748,13.6743,5.78299,62.952,-913.536,-385.52,13020,560,2940
8.61454,18.7444,13.3634,18.2713,12.1226,5.62348,13.4047,6.81221,13.7331,16.0282,11.8985,11.4034,3.13479,13.5168,17.108,17.5691,63.928,-915,-383.08,12320,980,2520
-11.8652,-6.0373,-1.31803,-0.3262,-8.81352,-2.75791,-5.61734,-2.51109,-14.4856,-5.27177,-1.67121,-13.9774,-6.73236,0.259368,-6.80137,6.46356,65.392,-916.464,-382.104,11480,1540,2380
8.64114,17.2534,11.8054,12.2924,9.48485,9.04844,4.46787,8.96681,17.9101,16.3273,17.4049,6.55583,8.02285,10.066,4.75293,19.6726,65.392,-918.904,-377.712,11060,2100,2240
-1.05973,2.98808,1.63251,3.94034,-3.70345,1.17961,-3.3004,-1.01476,0.992296,4.05197,8.521,-7.93451,1.66595,-7.22176,0.868131,1.59684,61,-915,-377.712,11060,2380,1960
10.0996,13.6412,8.76999,17.0218,4.11675,8.66825,0.516476,-0.899526,16.4237,13.2318,14.7191,2.23285,9.40738,-6.70688,9.41005,0.390314,56.12,-914.512,-380.64,11340,3220,1820
21.4582,30.1277,17.721,28.2501,19.7549,20.412,8.34302,7.58696,30.9328,20.5593,18.4004,18.6981,16.3065,3.10233,16.8966,12.4959,57.584,-915.976,-378.688,11620,3220,1960
2.81011,2.81137,1.61829,9.47858,4.0201,13.7409,-1.71768,-0.864438,0.515758,-3.13315,-1.49224,0.400489,2.62854,-6.80875,0.974764,1.09278,52.704,-917.928,-375.76,11340,3920,2380
11.9282,12.5099,10.1141,14.0661,17.6454,21.4333,8.09015,8.80952,16.0891,11.5637,12.2851,17.7832,13.5895,5.26998,8.0113,14.1356,52.216,-916.952,-375.76,11340,4200,2660
-11.9153,-14.8812,-10.1239,-9.66536,-7.86932,4.34748,-9.76228,-6.27516,-15.8682,-13.9727,-7.98258,-7.62259,-4.31594,-11.4484,-11.9825,-7.96428,49.776,-921.344,-376.248,11340,4760,3220
-14.5834,-17.6927,-14.3668,-14.4952,-11.4156,4.6248,-11.7277,-9.81448,-19.0719,-17.8937,-12.3171,-11.026,-8.53243,-11.8118,-14.5762,-17.8329,50.752,-924.76,-376.248,11480,4620,3500
-6.28941,-10.1393,-6.88885,-13.6989,-7.27211,7.76017,-6.27357,-1.76464,-10.978,-7.98788,-0.771414,-6.31257,-1.5669,-4.82215,-11.0162,-14.0156,52.704,-919.88,-374.296,11340,4340,3920
-14.8346,-28.8062,-14.9044,-31.0745,-25.7392,-5.15471,-15.9266,-8.38451,-25.8582,-21.6869,-11.0137,-25.0336,-10.8916,-12.3138,-26.4308,-24.1414,54.656,-922.808,-376.248,11620,3920,3920
0.172816,-1.6756,-0.473845,-7.78117,0.524298,3.45667,6.99146,6.31006,0.807857,-4.60803,1.10653,-3.12129,-0.330849,7.4484,-1.89481,-0.935089,53.68,-925.736,-377.712,11620,3920,3920
-8.94173,-7.78591,-7.96234,-6.98143,-6.37472,-9.99578,4.65252,-6.557,-14.1027,-14.5412,-7.69332,-12.0128,-8.4877,-0.296164,2.44212,-11.3051,55.144,-924.76,-372.344,10920,3780,3780
-1.49317,2.7186,-2.98223,3.34945,0.869237,-14.1282,7.0781,-8.95105,-1.8649,-4.0867,0.323676,-3.98792,-2.98033,2.25221,12.0184,-10.9367,58.56,-924.272,-371.368,10500,3920,3640
7.21313,16.0425,6.21794,13.554,12.0997,-12.0997,10.737,-1.76169,10.7013,6.70206,9.22426,9.06065,6.1596,7.87651,16.7232,-6.60667,57.584,-926.224,-373.808,10640,3780,3360
-6.31422,-10.1033,-7.70636,-9.35547,-11.5055,-23.9721,-10.8842,-15.8213,-10.0397,-9.86523,-6.31989,-10.9088,-6.21715,-8.82119,-9.87872,-26.9708,59.536,-929.152,-371.856,9800,3780,3220
8.19023,7.38132,2.97202,-0.358427,3.01868,-13.4627,-5.14131,-1.87566,15.1965,9.40351,7.12233,7.01233,4.63609,0.387882,-4.18244,-5.12141,60.512,-929.64,-374.296,9380,4060,3080
-7.50975,-13.9179,-8.51456,-17.7467,-13.5483,-18.452,-15.0756,-0.258858,-9.31946,-8.89923,-8.17662,-12.5541,-5.08843,-11.0726,-19.8917,-4.63849,62.952,-927.2,-374.296,9100,4200,2660
-5.36703,-8.31784,-4.87047,-11.5903,-6.03933,-12.0272,-10.1139,5.36499,-0.783937,-6.86527,-9.87411,-8.55374,-2.83153,-5.29113,-16.7685,5.38537,61.488,-926.224,-375.272,9520,4480,2380
9.3657,13.4083,9.15657,10.9698,12.499,-4.25118,8.87695,12.6568,17.3335,8.67255,0.286117,10.8768,7.6027,8.01464,8.04084,21.7705,61.488,-925.248,-371.368,8680,4760,2240
-2.57475,-4.94432,-2.81723,0.772863,-4.29058,-9.59531,1.14148,1.03286,-3.05659,-5.14579,-13.1431,-4.80038,-3.693,-3.73359,0.533812,9.08299,61,-924.76,-375.76,8820,5180,2100
9.21922,16.6518,11.0386,17.0995,17.9359,18.2232,14.3479,12.7312,16.0494,14.1009,-1.49854,18.8798,7.22723,12.9284,15.7279,24.8542,59.048,-926.224,-374.296,8820,5320,2240
-5.85979,-5.43032,-1.04874,0.209732,-0.653931,10.9164,-0.621332,1.58743,-9.43747,-1.3943,-12.9894,1.65009,-3.09609,0.423304,-1.00603,8.37847,60.024,-922.808,-378.2,8400,5460,2240
4.25328,1.95733,1.29917,2.84786,2.10801,11.7118,-0.0376545,0.604088,6.00696,4.54969,-4.82376,7.2601,1.82245,1.89531,-0.873236,6.73119,60.024,-920.368,-374.784,8540,5320,2520
14.3074,15.7701,10.8472,14.6392,12.4455,16.7886,11.3935,6.33767,15.7164,14.6616,9.5177,18.7167,11.0197,8.79073,13.0437,12.011,55.144,-914.512,-377.712,8260,5880,2380
0.247434,-1.85299,0.911379,2.50604,-5.09646,6.17703,-2.13325,-2.42707,-5.4928,-0.381882,1.41317,0.549173,1.68386,-3.17909,-1.31867,-4.70213,55.632,-912.072,-375.76,7840,6160,2520
7.49439,11.8174,9.88813,11.6018,9.998,12.9829,7.00538,10.6338,7.8312,12.1128,14.6667,16.5133,11.1175,9.59542,7.80746,9.71641,55.144,-913.048,-379.664,7420,6440,2660
-13.6853,-15.9402,-9.37036,-9.1388,-11.4318,-3.82011,-5.47891,-2.34739,-23.6743,-11.498,-2.35727,-6.42145,-5.51197,-5.28044,-5.60283,-4.88105,53.68,-911.096,-378.2,6720,6860,2660
-6.09556,-6.108,-7.9379,-4.27311,-6.23224,-1.66818,-3.92035,-4.30053,-8.46285,-6.45356,0.905867,-1.52519,-4.40117,-4.30431,-1.62744,-7.91628,52.216,-908.656,-377.712,6440,6860,2940
8.42693,15.6252,4.04319,11.1504,8.37865,-0.661869,3.3574,-1.36397,11.4301,8.1218,11.6681,15.1274,2.66263,2.91063,9.64641,-3.6551,51.728,-909.632,-378.2,5740,7140,3220
-5.87584,-3.19012,-6.94533,-1.05792,-6.90807,-11.7316,-5.00033,-8.87481,-9.91375,-8.53917,-2.9943,-6.1854,-9.90527,-6.04108,-0.365588,-13.7441,51.24,-909.144,-379.176,4760,7980,3640
3.14724,7.17492,4.7162,3.5923,8.56531,0.0254623,6.78832,6.66412,5.67301,8.77805,12.2368,4.50856,1.30184,8.60958,8.7568,5.30336,47.336,-908.168,-383.08,4340,8540,3780
-9.06909,-16.3309,-6.18579,-16.5296,-10.7232,-10.2,-6.03394,-2.61305,-16.8865,-4.62699,-0.0870592,-17.1738,-10.0216,-3.43985,-6.82546,-6.47902,47.824,-914.024,-383.568,3780,9240,4060
-1.17946,-7.34972,-1.84098,-7.77414,-5.16855,-8.02732,-2.53284,-3.08454,1.39262,0.555125,0.389051,-10.5052,-8.03787,-0.5897,-1.83055,-5.34738,48.312,-915.488,-383.568,4060,9380,4480
7.86099,8.48205,7.99895,3.81039,6.71792,1.02849,2.9574,-2.0653,15.1747,8.92495,5.42249,3.28549,0.656712,4.88867,4.80536,0.659855,51.24,-915.976,-386.496,4340,10080,5040
-4.72171,-8.97436,-1.80168,-7.37203,-8.16074,-1.32556,-5.34185,-7.51818,-5.72883,-6.94011,-8.64019,-14.5827,-6.99329,-5.24702,-3.94939,-5.39179,48.312,-918.416,-384.056,4900,10640,5600
13.2869,13.7144,11.921,7.15608,10.2381,14.0354,6.53009,5.41858,22.6169,14.6917,6.51158,7.62872,6.14697,6.91875,9.2062,13.7787,49.288,-917.44,-384.544,5040,11200,5880
2.22746,-4.88973,-0.524279,-10.6831,-9.37408,5.00167,-9.04259,-7.89318,1.17336,-1.41247,-7.22188,-9.76935,-3.3317,-8.35505,-10.273,-2.02381,50.752,-919.88,-384.056,5320,11760,6160
5.64385,-1.64456,2.90765,-7.82376,-3.73261,10.4961,-5.59834,-5.46697,4.17692,2.56948,-1.22293,-3.51787,3.07832,-3.92447,-8.66811,-0.113083,51.728,-922.32,-381.616,5320,12320,6300
3.90585,-1.03048,2.83742,-5.36653,0.854653,12.2729,0.453123,1.30688,1.04815,4.99069,5.93175,1.71098,7.33794,-1.49049,-4.55404,4.64784,51.728,-923.784,-377.224,5460,12880,6440
-21.1489,-27.2908,-14.8171,-15.0724,-15.8965,-0.824039,-5.26945,-4.73962,-32.5933,-21.4091,-13.6327,-22.5677,-8.36169,-14.1641,-9.40499,-6.74837,53.68,-925.248,-378.2,5180,13020,6300
-6.71825,-4.63222,-1.40653,-0.762988,3.25739,6.33526,3.96544,8.15637,-5.42187,-1.55888,4.61265,-0.0307911,6.92764,0.0427843,1.42453,5.98711,52.704,-925.248,-378.2,5180,13160,6440
-10.2375,-2.23262,-6.54057,4.64887,0.0910812,-6.03736,2.15499,1.78181,-11.2005,-10.8938,-4.64868,-1.73967,-1.09197,-3.40526,4.49305,-1.6157,59.048,-925.248,-377.712,4900,12460,5740
7.70007,29.6676,5.29447,35.2505,22.1268,1.4248,15.0807,5.22343,16.77,1.4473,1.08971,20.8712,5.82789,9.00451,24.6385,7.09499,58.56,-925.736,-378.688,4900,11620,5460
22.7246,41.7919,13.8103,40.5552,30.9295,7.8788,17.7218,11.6201,28.5233,14.0269,11.0052,33.7946,14.9879,17.4289,20.4471,12.7776,63.928,-929.64,-381.616,5320,10500,4760
1.43482,0.717806,-3.9257,3.3067,-1.07019,-4.05046,-4.52526,-0.247563,-7.13844,-4.92532,-3.19316,0.637995,1.05702,0.101351,-9.18435,-5.04865,63.928,-931.592,-382.104,5320,8820,4060
9.7746,7.72876,3.30817,1.75302,3.59162,2.18398,0.721539,7.81211,15.7156,11.0196,12.013,7.68321,9.67565,6.84281,-1.55534,4.51339,65.88,-933.544,-382.592,6020,7980,3640
-4.53066,-7.62525,-4.97251,-3.57719,-6.83291,-5.84478,-1.46305,-2.72033,-7.36168,-5.43719,-2.84052,-6.68983,-2.55838,0.0593975,-1.72629,-5.48452,70.272,-937.448,-381.616,6580,6300,3080
-0.101657,-6.38625,-0.712548,-5.99139,-3.06364,-2.85222,-1.16519,-3.4816,0.532792,0.874176,0.819226,-3.73882,-0.395525,2.45432,-2.86996,-4.32094,71.736,-938.424,-381.616,7140,5180,2800
-1.95476,-12.1577,1.04934,-18.4781,-5.62836,-2.96497,-7.56286,-4.27836,-3.24076,4.5322,3.82518,-4.37172,2.2078,0.0679846,-14.1071,-5.87503,73.2,-937.936,-383.568,7700,3780,2240
-19.4088,-33.1347,-12.5939,-32.6373,-23.586,-11.7861,-17.994,-13.0682,-25.2489,-14.8888,-13.8861,-23.9307,-10.8164,-13.6533,-23.6004,-17.7098,78.568,-937.936,-387.472,8680,2940,2100
-4.28312,-0.30248,0.365829,-0.31523,4.18822,0.347303,7.4995,5.1278,2.43172,1.25213,-0.580557,1.61184,1.58756,3.77008,9.56352,5.72886,78.568,-938.912,-386.008,9100,2660,1680
-9.5874,-5.7102,-8.21572,-4.73482,-7.16153,-13.9874,-4.94278,-6.30494,-7.5048,-12.4614,-13.1846,-8.89437,-8.73873,-6.49631,-1.63927,-8.69081,81.496,-938.424,-391.376,9240,2380,1680
1.96991,8.45283,1.50381,7.75903,5.61529,-7.5507,0.581755,-1.24125,7.61957,-3.11495,-7.96536,1.97892,-3.84489,2.04394,4.86788,-2.76278,80.032,-938.912,-386.984,8960,2800,1680
2.89901,6.81614,9.99558,8.87703,11.8255,-0.0755907,7.68484,8.28205,1.93405,6.24615,3.24334,7.21031,4.78429,9.64102,5.60148,6.78813,77.592,-936.472,-382.592,8820,3220,1540
-7.93067,-20.8068,-4.27407,-20.2711,-19.6177,-10.2076,-15.867,-5.49323,-14.4545,-5.95035,-5.10814,-15.4155,-6.28605,-8.80476,-25.1045,-14.2288,76.616,-934.032,-386.984,8680,3640,1400
8.77003,6.94648,9.85616,1.78109,1.37965,4.31359,1.71867,8.6054,14.8213,13.7904,12.4954,9.45736,6.62921,4.88779,-3.84708,4.30017,74.664,-933.056,-390.888,9100,3360,1400
1.37485,2.86964,3.49136,8.71333,-0.876393,-1.94199,8.45047,4.37078,1.08921,0.724,4.19562,4.48198,-1.87872,0.133814,8.38608,2.41228,75.152,-932.08,-390.888,9520,2800,1820
3.61651,9.29467,1.35401,15.7416,4.70703,-4.93341,9.80721,1.36558,8.44348,2.51836,5.27672,8.83853,-3.29182,1.31659,12.4444,4.76821,69.784,-935.008,-386.496,9800,2520,1820
2.40956,10.1706,0.31594,13.4018,7.06709,-8.97864,6.33254,3.04424,7.41097,4.36436,4.76521,10.4802,-2.99907,2.46979,3.72869,6.72805,69.296,-929.152,-383.568,9660,2520,2240
-14.2994,-11.0751,-13.2929,-4.499,-10.9114,-6.49092,-5.81478,-4.33286,-19.9045,-15.0499,-11.88,-10.2074,-14.3563,-9.07734,-6.87128,-3.45959,67.832,-930.128,-381.616,9800,3220,2660
8.80212,20.6733,3.78592,12.6278,10.706,11.0608,8.22714,8.62573,14.2087,7.47382,4.15188,14.7573,0.378815,4.37022,12.7499,14.9082,66.856,-925.248,-382.592,10780,2800,2660
-5.41969,-2.29673,-4.81944,-6.15827,-6.2696,-1.37342,-5.56112,-4.19453,-12.3757,-7.61829,-11.0253,-1.79675,-7.0169,-7.61715,-1.51535,-0.427848,65.392,-924.76,-382.104,10780,2380,2520
-4.40651,-6.10072,-0.543254,-9.47307,-1.45217,2.47952,-6.46129,-4.59693,-8.69823,-2.32086,-9.04976,-2.30822,-1.68076,-4.36612,-1.30762,1.59767,64.904,-926.712,-378.688,10360,2240,2660
10.7774,6.03554,6.82386,-9.04586,3.47219,3.0365,-8.12987,-4.81,12.1792,11.2102,1.90519,5.26721,5.85698,-3.29191,-3.51936,0.580517,66.856,-920.368,-382.592,10500,1820,2940
-0.89089,-12.3739,-7.10973,-16.5025,-11.9469,-5.16536,-13.1166,-12.3525,-9.9975,-6.87863,-10.6309,-14.4746,-4.36799,-12.2578,-4.36803,-8.76509,61.488,-921.344,-386.984,10780,1120,2800
16.9632,17.2363,9.67016,14.9586,19.8642,16.0352,15.1887,5.80785,16.2782,14.0838,9.11087,11.8855,13.0817,11.9076,27.6051,19.6355,56.12,-925.736,-384.544,10080,1260,2660
-2.50599,-13.4188,-5.54806,-11.9244,-6.70779,9.23058,-4.52621,-6.17667,-12.8877,-4.49921,0.466836,-12.4175,2.28454,-3.52524,-1.32956,1.31042,55.144,-922.32,-386.984,10220,1260,3360
-3.88929,-13.9864,-5.93769,-14.3588,-8.02454,14.3356,-6.06045,-2.57027,-7.08038,-2.98406,4.53216,-13.9571,2.46318,-3.95271,-10.5794,-0.572309,55.144,-924.272,-387.472,10780,560,3780
9.28608,2.69887,2.95174,-0.468972,2.67889,17.115,3.49266,2.21337,9.71352,8.45993,13.281,-0.613161,5.93593,1.65815,-2.82102,1.24652,54.656,-922.808,-385.032,11060,420,4060
-1.41389,-12.6644,-5.27146,-9.81605,-12.5133,5.85853,-8.20627,-10.0198,-8.03905,-3.45636,1.04729,-14.4809,-4.03673,-6.92276,-16.0895,-16.215,57.584,-919.88,-387.96,11060,280,4200
19.2879,18.715,13.5018,13.0265,12.3096,16.5366,7.09554,4.77211,26.0727,19.8512,16.5523,13.1093,12.2953,10.83,1.52642,0.736676,54.168,-915.976,-381.616,11060,420,4340
-5.7462,2.55407,0.235361,6.92671,-0.580076,3.46253,3.69406,1.7333,-0.935166,-4.58237,-2.4627,-3.65718,1.08899,1.79869,0.210833,-5.12763,52.704,-914.512,-381.616,10780,840,4060
-14.2437,6.67976,0.621537,13.8315,6.97528,7.41595,9.2554,8.18017,-1.21856,-8.24015,-4.30617,2.90679,3.00691,7.75809,6.59301,2.97796,50.264,-913.536,-379.664,10780,980,3920
-2.32095,5.73351,3.45062,12.157,9.07422,6.01943,8.3514,9.0906,-0.293842,-0.504595,-0.64904,12.68,5.60822,9.47461,5.33858,3.82364,53.192,-915.488,-383.568,10780,840,4200
-12.756,-18.843,-8.76664,-4.57969,-7.42228,-6.93713,-3.9581,-4.77798,-21.0828,-13.2151,-12.2607,-5.03622,-4.87641,-1.80274,-3.92092,-10.441,51.728,-915.976,-380.152,10920,140,3920
17.8492,17.4166,11.0115,15.4129,15.4653,-1.50455,6.52589,6.32437,29.055,17.3946,14.4835,23.0846,9.77233,12.2749,11.9473,5.00017,55.144,-918.416,-383.08,11200,-560,4060
3.80892,-4.11734,-2.57405,-6.71471,-6.58865,-17.5415,-8.60748,-0.736325,2.56515,0.392298,3.06642,0.978229,-2.83262,-3.29707,-6.10635,-8.66452,54.656,-917.44,-381.616,11340,-1820,4060
-3.06763,0.912922,-0.698956,4.69106,3.44,-8.48806,3.34033,7.01272,-0.197348,-0.479559,5.67561,1.69563,-0.313501,2.99061,10.7775,-0.230318,55.144,-919.392,-377.224,11760,-2380,4200
6.8898,19.5758,9.07517,17.083,15.4015,-4.41106,10.0406,11.2289,16.7847,7.2221,11.7976,14.7023,3.93906,8.49071,16.7138,6.87816,58.56,-919.88,-378.2,11480,-2800,4200
-3.71624,-6.15896,-2.70839,-4.3943,-6.47077,-12.6855,-2.26074,0.259076,-9.192,-9.05632,-5.71791,-5.95691,-8.72304,-4.83615,-1.81423,-3.84239,59.048,-924.76,-376.736,10920,-3360,4200
7.7186,0.880373,3.44844,-2.29134,1.62141,-6.22702,4.76254,2.07769,7.19083,6.42006,5.45507,3.73348,-2.97895,0.463739,7.57173,10.058,58.56,-927.688,-376.248,10780,-3640,4200
-25.5871,-22.3242,-12.7232,-20.1204,-18.4974,-19.968,-10.5955,-13.2697,-25.4072,-20.5709,-14.4638,-20.8432,-18.3088,-15.2007,-14.2791,-4.70918,58.56,-933.056,-378.688,10920,-3920,4200
-34.6618,-12.0844,-7.23569,-5.43041,-5.92971,-8.72562,-1.58136,-4.494,-29.9947,-21.1854,-12.4722,-15.3263,-11.0997,-3.82857,-8.67684,3.75635,58.072,-930.616,-379.176,11200,-5040,4340
-6.47791,-1.19499,1.33871,3.02851,3.17923,-3.3963,4.87756,2.9724,-13.7772,-3.12408,-3.05876,-0.966416,-1.8985,2.50001,1.19548,9.07003,61.976,-924.272,-376.736,11340,-5320,4760
-0.242301,-16.0077,-8.26167,-12.7309,-13.5731,-7.07718,-15.96,-7.50044,-14.4855,-5.28985,-8.35549,-13.3434,-5.07102,-10.3782,-21.4696,-9.09871,61,-920.368,-379.176,11200,-5460,4620
30.6744,24.6036,12.7859,11.5537,12.5177,6.43689,-6.59917,4.27508,34.2896,23.639,14.0186,17.2126,15.6489,7.23017,-11.8485,3.70763,50.752,-935.984,-373.32,10780,-5460,4620
2.23637,-2.05912,-3.29631,-8.15569,-9.91959,-5.80834,-14.5267,-10.7657,-6.67554,-1.56774,-7.43934,-6.77585,1.44187,-6.8558,-19.4258,-11.6612,51.728,-937.936,-375.272,10640,-4200,5460
-3.83348,-5.75382,-4.23914,-7.59304,-6.8751,0.149935,-3.85979,-5.9306,-7.54728,-2.08028,-8.06515,-8.63582,-0.895192,-4.41593,-1.31487,-2.67637,56.12,-936.472,-378.2,10640,-4480,6020
15.1404,28.5722,11.2343,27.2024,19.3623,7.3186,21.0224,6.65626,22.0175,13.1532,2.78355,14.5859,7.03046,10.603,29.7298,14.0535,52.704,-933.544,-377.224,10640,-5600,6300
-0.694599,4.34685,-2.73218,5.66662,-0.756189,-5.24207,4.44637,-7.08146,-0.500007,-4.53345,-11.6902,-4.8715,-4.57658,-2.71427,3.33223,-3.97685,52.216,-935.496,-380.152,10780,-6160,6440
15.4464,16.8978,9.78551,10.6077,15.6738,6.12246,16.5989,4.75109,26.5988,18.5733,8.72831,16.6282,10.8125,9.65202,14.1943,9.64229,54.656,-937.448,-384.056,11900,-7000,6580
-14.1133,-21.8258,-10.9863,-21.8326,-13.7737,-5.17007,-3.08793,-6.29096,-14.802,-7.55538,-7.69819,-12.293,-4.03848,-10.6891,-7.41802,-9.98384,53.192,-938.912,-384.056,13020,-8120,6580
-7.04258,-17.7236,-9.15653,-23.0563,-13.3776,-0.316159,-6.51723,0.207847,-2.78017,-3.16586,-4.69847,-7.43324,-1.43939,-7.19133,-9.00897,-7.54927,53.192,-939.4,-384.056,14560,-9240,6860
2.9394,-7.32575,-5.13561,-16.7827,-9.31215,0.111786,-7.13441,2.71117,7.68182,2.57534,-0.5565,1.7903,0.736034,-5.03466,-7.72594,-5.87985,52.216,-935.984,-385.032,16240,-10500,6860
-12.584,-26.3673,-17.0593,-21.5903,-23.4591,-3.83832,-13.2214,-4.6034,-17.4106,-16.9357,-16.4784,-17.7671,-11.775,-15.2855,-12.7989,-14.388,54.656,-930.616,-382.592,17360,-11200,6580
5.2834,16.4578,6.28744,21.1223,13.0116,17.7637,11.3766,11.7467,11.3496,3.49955,0.536208,14.6324,4.16038,9.57204,15.6827,11.7198,54.656,-931.592,-380.64,18340,-11340,6580
-13.5963,-6.2749,-3.2441,5.13942,-2.26624,4.39104,-3.7379,-4.64398,-23.4616,-14.5185,-11.8741,-1.47802,-7.21062,-1.48738,-2.87858,-4.63826,51.728,-931.592,-383.08,18620,-11760,6580
-2.3545,1.08212,7.66685,8.41646,8.49807,10.7194,4.71392,-0.540661,-7.06352,-1.33665,2.18909,9.82863,4.60231,9.80882,5.35259,1.57476,50.752,-927.2,-382.104,19040,-11760,6300
16.8984,12.435,13.4671,9.02525,12.303,11.4705,4.73533,5.65658,16.9107,11.2407,12.2423,18.1102,9.86649,10.5718,6.08126,3.7724,53.192,-930.616,-385.032,19460,-11760,6300
16.6375,0.0156707,1.13027,-8.14929,-4.57318,1.50814,-8.77947,-2.89544,17.7142,1.1842,2.59258,3.10472,-1.70042,-3.29172,-8.04986,-6.92321,52.704,-931.104,-381.616,20020,-11620,6160
31.4415,23.5552,18.0843,12.9238,21.642,16.4238,9.68339,12.8,34.0272,23.0608,22.4332,24.3192,14.3191,14.8907,13.7137,14.6681,53.68,-932.08,-383.568,20300,-11760,6160
-6.19782,-16.8873,-2.2306,-10.0665,-2.51105,3.88255,0.576124,5.04771,-29.9854,-4.78123,5.63638,-14.3841,-0.327409,-0.912597,3.49377,3.86179,53.68,-929.64,-379.176,20160,-12040,6440
-9.68571,-4.79569,-3.95953,-5.30099,-2.67615,5.07728,-0.425299,3.00444,-9.78873,-7.19546,3.74673,-17.5891,-2.66056,-2.66472,4.37759,3.20801,52.704,-928.664,-378.2,20020,-12040,6580
7.79943,34.3581,13.0653,31.3621,22.7046,10.9891,18.0586,9.34863,23.9719,8.60756,14.6067,9.87279,5.61417,11.3365,28.5459,16.9736,50.752,-930.128,-383.08,20020,-11620,7280
-6.4659,15.5639,4.81189,26.0673,11.8426,-1.17886,6.91191,-3.24077,-7.42763,-8.57684,2.31788,-2.95482,-6.47069,3.66047,15.1591,4.19885,51.24,-930.128,-388.448,19460,-11340,7700
2.46447,21.3696,8.99068,21.0964,15.6622,6.30492,1.43353,0.635529,12.0223,7.90325,15.1993,6.78167,-0.0746747,8.08169,4.61272,7.55431,50.264,-930.616,-386.008,19040,-11200,8120
-18.3952,-11.8635,-9.98815,-16.1214,-11.861,-5.5662,-12.6871,-7.26501,-11.8264,-12.1919,1.15596,-16.8409,-14.3359,-7.0932,-26.7897,-3.61201,53.192,-933.544,-385.032,18200,-10360,8400
-12.5798,-23.8877,-7.20418,-23.1144,-9.38646,0.398236,-2.53157,1.19429,-21.574,-2.17313,5.52815,-15.0531,-5.61968,-0.671763,-21.7498,4.95099,54.168,-938.424,-380.152,17500,-9240,8400
-3.06745,-24.9622,-2.42066,-23.2893,-8.44602,-1.46374,-1.82682,5.97175,-22.4185,12.6302,13.3735,-11.7192,4.78129,0.105438,-12.7066,6.13542,53.68,-940.376,-388.448,17500,-7980,8540
-7.89021,-26.4154,-11.8945,-23.6577,-24.8507,-21.316,-17.4756,-15.6541,-10.9708,3.5898,5.20778,-20.775,-3.21411,-16.2944,-15.1595,-19.0054,45.872,-944.28,-387.96,18340,-7420,8540
14.055,11.6312,4.88943,7.24179,1.1572,-8.3258,3.19829,3.52497,31.4109,20.2874,17.8842,9.22379,12.1393,2.33202,11.4424,4.76597,47.336,-951.112,-386.984,17920,-6440,8680
12.2468,9.25695,-4.60458,8.41471,-7.60736,-18.8371,0.673779,-5.19536,22.8596,-1.9996,-1.72786,3.60357,0.137004,-5.76782,5.65164,-3.76044,46.848,-947.696,-380.64,16800,-4200,8820
12.783,18.3789,0.419632,19.2813,1.50268,-19.0356,4.39026,-20.791,22.3158,0.366885,0.268388,14.5917,2.85079,-6.55235,10.1708,-15.147,46.848,-944.768,-380.64,15820,-2520,8680
-7.47943,5.74599,2.28115,6.99029,-0.239532,-13.4922,-3.561,-17.5366,-2.21165,0.0566378,-1.27609,12.4775,7.0694,-7.30431,-2.46518,-16.3193,41.48,-948.184,-384.544,14980,-700,8400
-13.9573,-21.9311,-10.831,-22.6164,-20.7481,-15.3945,-25.4574,-14.4366,-17.1334,-13.3939,-27.4301,-4.50163,-5.88891,-15.9163,-34.5544,-23.8911,43.432,-948.672,-388.936,14140,980,8680
-2.62912,-2.65738,0.249937,6.76047,13.7352,8.18528,17.1313,28.2932,-1.82227,-1.29017,-30.922,17.8301,2.12663,13.0612,12.8255,23.5774,47.336,-951.112,-384.544,13020,2660,9240
-8.54521,-12.1301,-1.50298,15.6671,10.6949,4.18611,25.3191,18.9539,-33.0775,-5.09436,-39.0027,10.5836,-1.68224,12.7606,31.2757,17.077,49.288,-950.136,-383.568,12040,4480,9940
5.12082,12.7695,13.7193,17.8393,12.9879,8.29276,-2.71945,1.95394,-6.84751,13.0016,-17.9039,22.9338,11.5792,12.6687,0.11921,-3.06677,53.192,-941.84,-391.864,12320,5040,10640
-0.641731,24.7618,10.3568,5.57278,4.39011,3.87578,-20.7591,-5.20114,20.1986,11.0171,-0.708992,14.8483,12.0245,0.611209,-22.5778,-14.2209,49.288,-956.48,-380.64,12040,5740,11620
-19.47,-9.4538,-10.4515,-9.81246,-7.85044,-1.13012,-4.79931,-5.07617,-17.9897,-22.139,-15.2101,-18.745,-5.82888,-9.50105,-4.10264,-8.34723,47.824,-962.824,-383.568,9240,7560,12740
-11.7096,-19.2158,-10.4807,-10.8616,2.02193,12.8064,17.4381,16.0427,-23.083,-20.7094,-3.6879,-18.3998,-3.34786,2.05931,21.8004,18.7888,54.168,-964.288,-384.544,7140,9660,13440
0.0238653,-17.467,-17.4728,-21.9343,-20.5923,1.37288,-6.98975,-3.57557,-6.94483,-23.5763,-9.38019,-24.0287,-16.178,-13.8076,-4.0446,-8.42749,60.024,-968.68,-386.496,6300,11760,14140
9.32452,11.9757,-3.38498,-7.14151,-7.11721,8.99931,-13.4873,-5.50741,23.4237,-6.63026,-1.75417,-5.65726,-9.64561,-4.77762,-19.8812,-9.22996,62.952,-963.8,-381.616,5880,12180,14980
7.23725,10.0903,1.92212,-12.3209,-0.772555,9.9972,-10.6675,-3.20647,17.3225,1.89362,6.48749,-4.41186,-5.14361,-0.659935,-23.514,-4.56487,59.536,-965.264,-381.616,4340,13160,15680
-4.6288,-3.6277,-5.27895,-5.68734,-2.8108,4.66583,1.90936,-8.34177,-3.95669,-10.3071,-0.930112,-13.4305,-12.3273,-2.956,2.14414,-2.56682,57.096,-959.896,-371.856,1680,15540,16380
10.1873,18.9056,6.74016,11.7061,12.4743,10.5803,10.5282,0.110879,24.1986,8.33821,18.1915,8.40658,0.0864775,7.07103,18.7706,7.27786,59.536,-961.848,-368.44,-140,17220,16520
-13.2188,-17.0298,-13.4799,-9.35796,-15.3117,-7.87972,-0.402906,-3.81025,-21.1388,-13.5553,4.35278,-23.2476,-13.7601,-11.7148,6.45448,-6.05533,65.392,-963.312,-368.44,-2380,18200,16800
-12.1907,-31.142,-12.5933,-28.3305,-20.1801,-11.7652,-11.1799,-3.6877,-27.6767,-6.13702,14.185,-26.8162,-8.36833,-14.1007,-18.9652,-8.27446,63.44,-961.848,-365.512,-4480,19600,16800
12.2325,1.65095,12.4041,-12.2204,3.23656,-3.46328,-8.72697,1.07268,6.87064,15.5705,26.5987,7.36845,8.01102,3.50685,-23.9574,0.559375,60.512,-962.824,-363.072,-7280,21980,16520
8.62347,-2.81382,8.01172,-11.2359,-2.64591,-9.46934,-10.9003,-3.16515,3.29021,4.52348,7.29868,5.01419,0.238729,1.59034,-22.3032,-2.70415,59.536,-957.456,-372.344,-8960,24220,16380
9.1845,14.137,14.078,23.839,28.7955,11.2154,36.6416,28.2658,11.102,10.0935,4.97347,24.3568,9.44693,23.8273,41.9284,38.4884,56.12,-944.28,-368.928,-10640,25060,16240
-9.43138,-2.27808,0.537669,34.0628,18.6997,7.46361,47.4592,27.8109,-15.4123,-6.26811,-8.98484,6.24098,-2.01877,16.6288,65.0103,38.4495,48.8,-930.616,-366.488,-11480,26740,16380
18.1018,15.371,13.0945,20.4151,11.7888,8.06765,22.1818,18.4313,32.6825,18.7509,9.82243,16.9219,7.4197,13.3298,18.745,23.0952,49.288,-925.248,-359.656,-13160,28560,16380
28.6537,25.3181,17.3674,14.144,9.1962,4.58608,11.8501,15.6945,46.2475,29.5533,21.041,18.3734,13.8316,10.0567,4.61753,13.207,43.92,-927.688,-358.192,-16800,32060,15960
14.4251,10.5733,7.83199,0.290276,-8.30204,-7.66725,-13.7375,-13.0385,18.7061,15.087,10.4719,-0.220306,7.7834,-7.14298,-6.72208,-28.0644,43.92,-929.64,-373.32,-19880,35140,15540
23.189,38.7771,25.7726,40.4108,27.2712,6.28698,-1.72123,-11.7275,20.4978,29.6508,22.2945,29.8156,22.2917,13.4031,26.7298,-15.7185,47.336,-921.344,-382.104,-20720,35560,15400
0.238387,20.5895,9.97646,47.2991,20.9564,-6.5314,-7.67843,-28.0367,-22.8685,4.33349,1.5055,15.4785,4.53474,2.5021,27.4666,-25.2053,51.24,-918.904,-385.52,-20860,35000,15540
4.65513,15.9619,10.1973,17.2032,12.9806,-2.92524,-33.0976,-28.8532,-8.41479,8.83742,2.72916,17.3624,5.73474,0.0268691,-30.6315,-26.1724,60.512,-915,-387.472,-20860,34860,15820
15.3737,0.52005,5.38578,-19.6897,-3.83939,-7.86525,-50.1127,-29.5095,-0.634571,16.3263,6.19661,12.3818,4.99813,-9.17707,-66.2385,-26.1107,60.024,-909.144,-405.04,-20020,35840,15820
-21.9748,-50.5086,-22.394,-48.8169,-31.1653,-17.1469,-22.6665,-24.3099,-38.4614,-12.3452,-15.6866,-29.121,-12.0648,-23.0977,-35.2759,-14.9034,61.488,-896.944,-413.336,-18760,36680,15960
-29.4603,-42.6968,-25.2898,-36.183,-20.1716,3.82377,15.4305,13.8342,-12.9028,-9.75419,-9.51725,-28.0695,-3.45228,-7.22675,6.16714,26.4125,60.512,-889.624,-400.648,-16800,37660,16100
-41.8146,-50.3709,-36.8865,-41.2058,-36.4631,-3.8306,3.10847,12.1531,-26.7974,-34.2001,-24.8917,-38.9134,-13.7486,-19.9392,-3.01795,12.2995,58.56,-901.824,-398.208,-15260,39620,16380
-23.2444,-25.1392,-22.4993,-12.8743,-9.51511,2.69236,28.3445,30.9286,-9.17286,-28.4104,-25.7113,-17.7904,-10.7184,-1.08582,25.163,35.4773,62.952,-914.024,-402.112,-15260,41160,16660
17.9463,23.6156,-2.28892,17.1115,12.7253,13.7067,38.9768,36.0301,41.8067,-1.55941,-9.61074,10.2218,0.767968,13.5506,30.6887,39.6471,72.712,-916.464,-405.04,-15120,42140,17220
17.7357,25.595,-1.3182,13.1655,2.3855,6.45672,17.5606,18.4663,29.9138,-4.31471,-10.805,4.11029,-2.67165,7.11368,1.39649,14.7756,70.272,-917.928,-405.528,-13860,41860,17640
5.83351,25.0002,16.4194,24.6619,25.6205,9.85588,30.6329,17.6518,-2.60816,10.6889,6.34943,19.9484,12.5087,21.404,23.7958,17.9947,74.176,-917.928,-411.872,-11760,41300,18200
-46.5728,-21.7693,-1.88919,-12.242,-7.59624,-6.1706,-8.41268,-12.7751,-70.4411,-21.0208,-7.85039,-16.4004,2.62344,-1.9702,-10.4648,-23.8983,70.272,-909.632,-418.704,-8540,40040,19180
-30.8248,2.9806,8.8118,0.12695,0.081023,-2.56414,-31.4243,-30.0197,-40.0488,-12.1686,-5.61954,3.51329,7.00183,-1.24023,-17.7579,-45.6883,70.272,-888.16,-430.416,-6300,38780,19460
0.472876,24.3239,3.67656,4.28793,-12.7094,-11.6693,-64.5895,-46.8451,-0.629391,4.19082,4.32524,9.98359,2.08606,-17.8545,-42.0744,-68.6945,61,-932.08,-307.928,-3920,37240,19600
-4.37607,1.13212,-16.91,-22.6633,-35.1748,-13.1643,-75.6591,-29.7347,-3.08062,-12.5315,-6.27319,-16.501,-14.0953,-28.9007,-86.5196,-48.246,58.072,-930.616,-388.448,-3360,34580,19320
8.80534,-16.9257,-0.647393,-37.202,-17.2948,8.35377,-39.3585,7.12473,9.97024,7.94677,16.5259,-5.27596,3.79642,-6.79159,-69.9978,1.02468,70.272,-881.328,-420.168,-5180,33880,18760
-8.90142,-44.0068,8.18532,-43.6026,-6.21577,4.45819,-11.6326,4.79496,-25.4976,-8.93113,0.949633,-5.95113,-0.335049,1.02074,-38.0597,7.30496,84.424,-930.128,-386.008,-2660,35700,17080
8.83138,-13.8402,28.9872,4.42245,40.4812,11.6543,49.4236,19.3922,0.629646,-2.60785,-2.9399,24.1505,5.69779,26.1774,41.99,36.4488,85.888,-946.72,-388.936,-7840,32900,17080
29.1469,11.7849,11.1292,27.4705,37.1244,9.89558,76.3585,37.5506,41.3337,4.05225,1.56045,13.0727,0.656383,20.3049,86.1066,49.6461,85.4,-934.52,-411.872,-8820,29120,18060
29.7163,6.40345,-9.72641,13.5937,5.36585,-3.36565,54.8355,23.1676,41.117,1.54872,-3.90758,-11.4874,-13.386,-1.5148,66.0553,28.1788,81.008,-934.032,-418.704,-5600,24080,18200
33.1816,23.8443,-2.97063,35.4001,12.5249,3.72433,54.3496,28.4627,54.1061,17.0165,7.26184,0.184918,-3.99291,6.36011,69.0559,36.2367,79.056,-930.128,-421.144,-5040,20300,17780
18.1937,13.4421,-16.1871,28.9302,-12.0885,-9.10972,24.168,8.71231,38.114,2.26753,-7.15476,-12.9869,-15.2727,-10.9401,38.5281,7.06866,78.08,-942.328,-385.032,-5040,17500,17080
11.8992,9.73901,-15.1155,9.23281,-25.6226,-12.3623,-21.0673,-18.1847,29.09,8.13497,-1.5226,-11.1264,-11.2561,-19.9414,-3.64835,-20.509,78.08,-945.256,-381.128,-5180,15680,16660
19.2994,28.126,-11.0029,10.9594,-21.6129,-13.4685,-29.8078,-20.6539,30.6161,16.4661,10.5097,-0.970412,-7.75346,-20.2344,-21.1141,-18.6062,84.912,-942.816,-381.616,-4760,10780,15540
-26.3703,-4.1689,-15.7171,6.89646,-13.0361,-9.16011,-9.85757,-10.8069,-51.4369,-15.3099,-8.60774,-18.6012,-14.2875,-9.13506,-6.37543,-3.84566,81.008,-896.456,-345.504,-3640,5600,13160
-34.7208,2.88869,12.4655,21.4514,26.7973,9.63735,12.1625,2.93208,-70.907,-5.89712,5.20786,9.85395,8.98846,21.4199,30.0411,11.4878,65.88,-910.608,-279.136,-4900,5740,10500
-10.4942,5.51229,3.65387,-14.3995,-9.9668,-11.7922,-37.599,-31.8469,-21.6881,-5.87234,6.68838,-1.73589,0.900036,-8.40048,-18.2608,-39.8171,65.392,-951.6,-278.16,-14000,3500,7560
-30.998,3.52849,1.69726,-8.05169,-0.789461,0.338673,-30.7029,-21.5826,-23.33,-21.0204,0.925369,-5.02955,2.55437,1.2985,-15.5149,-26.537,51.728,-922.32,-293.776,-21840,-1400,5880
-10.4626,-0.60111,0.311949,-11.6084,-3.58782,2.47791,-21.6046,-7.69082,4.45628,-2.77303,14.6347,-1.25261,5.91169,-0.628268,-16.6062,-17.6049,47.336,-925.736,-325.496,-24780,-8680,3360
11.9628,-17.8293,1.37815,-29.9302,-13.6059,3.5251,-12.0981,-6.8614,7.1213,14.8276,16.3152,-1.27514,4.40127,-1.02165,-28.7191,-5.04182,46.848,-923.296,-271.816,-28000,-17920,1540
33.677,24.8499,45.0534,15.8968,45.8297,25.6706,40.5025,14.086,25.8903,48.4578,35.2463,58.0513,34.2166,40.9166,22.4323,40.4556,61.488,-952.088,-332.816,-28560,-17500,-560
-15.5252,9.36957,29.2346,24.0158,47.1515,17.8061,51.9618,18.0961,-14.547,6.64297,2.24426,35.754,19.6858,34.5139,37.1391,41.0528,55.632,-951.112,-367.464,-36260,-24360,-1120
-2.90603,15.3026,25.7695,24.1405,41.231,27.3654,26.1493,19.7648,17.4236,8.29431,-3.66423,36.4042,23.927,30.0457,11.7694,25.7285,35.136,-924.272,-301.584,-33600,-28980,-1680
33.3319,27.4661,31.9744,21.8302,25.9453,16.8088,-19.3198,-7.70218,35.1374,29.0487,3.1178,51.1892,29.7214,15.2497,-20.5154,-18.6504,42.456,-915,-337.696,-30800,-33600,-3500
-0.42435,-35.4621,-1.20623,-37.9847,-29.7229,-15.9869,-78.2958,-38.6896,-29.259,3.35912,-12.2371,0.967294,4.69525,-22.872,-81.7746,-63.2521,46.848,-904.264,-333.792,-33880,-38780,-4340
-1.77414,-43.0954,-23.4427,-60.7199,-46.262,-20.1188,-71.433,-26.5555,-10.1346,-2.71747,-15.6426,-26.991,-7.86064,-32.3185,-88.8648,-39.1327,47.824,-884.744,-372.344,-34300,-40600,-5180
-33.3063,-67.7666,-50.3229,-60.8988,-51.7463,-18.1047,-15.9067,3.41719,-51.8905,-39.2991,-46.5104,-72.9484,-33.6042,-28.2847,-40.0655,10.739,38.552,-886.208,-347.456,-35420,-40460,-6720
-18.8417,-31.1116,-37.1649,-19.2903,-23.3708,-4.22138,27.5727,26.0311,-24.9673,-23.6423,-31.5537,-58.5999,-29.0422,-8.57075,14.5536,39.6123,25.376,-880.84,-304.024,-36400,-39620,-7420
-21.0327,-21.0588,-24.4017,5.55889,-4.24548,-3.06084,40.7476,30.9147,-32.3127,-12.0178,-7.45782,-43.9149,-22.8545,-2.22807,46.0178,35.6537,9.272,-894.992,-303.536,-39620,-38080,-7980
-9.24599,-32.8603,-37.7027,-18.0606,-40.4004,-20.8726,-7.8982,5.34713,-5.60744,-12.8491,2.07449,-55.9251,-33.9956,-31.5381,17.9516,-20.3904,-0.976,-912.072,-303.536,-43820,-37240,-8120
16.5458,16.9478,-12.5229,17.1526,-10.4807,-10.928,-0.108214,-4.18705,31.533,10.5686,25.8035,-14.168,-18.2445,-17.0016,23.4751,-18.1942,-3.416,-929.152,-292.312,-48020,-36960,-7700
-1.0841,11.1606,-3.96659,12.8756,-1.3819,-7.43839,7.44978,-0.607895,1.24664,-7.32262,11.6707,-9.29346,-18.3735,-8.30124,-1.23681,-4.02364,-3.416,-929.152,-292.312,-49700,-37660,-7280
26.9903,53.9833,16.1067,44.1515,30.2489,11.2959,35.6486,22.4176,54.1495,3.29544,9.26401,28.2972,-5.61602,12.4615,25.6859,22.4155,-7.32,-938.424,-305,-50820,-39060,-7000
13.9136,33.6038,22.1621,41.169,39.9115,19.2407,55.5089,34.576,21.1454,1.53297,2.02696,31.8325,5.97771,26.123,50.7538,38.6203,-10.248,-936.472,-315.248,-49560,-39900,-6720
6.2117,6.94534,15.5481,16.1418,16.7006,0.460282,28.3652,1.48458,3.26109,-6.28651,-15.4125,17.6936,5.83201,13.6431,24.7105,9.3928,-7.32,-944.768,-325.984,-48300,-42280,-6440
28.9484,40.4096,40.9228,34.0484,42.0281,5.75232,6.77659,1.8426,37.9105,18.6802,-1.82971,60.9032,29.808,30.5672,19.7399,8.78509,-3.416,-932.08,-333.792,-45360,-44800,-6300
34.7443,51.0116,39.8784,32.9418,29.3863,-13.51,-34.4681,-18.5239,45.393,16.8078,-6.06204,67.6115,30.1984,13.8427,-14.6861,-28.3622,1.952,-926.224,-338.672,-41720,-48160,-6440
30.5155,38.0671,35.7128,26.9685,28.3268,-11.3876,-5.44862,-13.1714,32.2201,26.971,8.40415,59.5026,38.0681,15.1955,-6.39334,-9.05813,6.832,-918.904,-345.992,-38920,-50400,-6860
-14.869,-7.65009,7.72945,1.58615,9.53541,-13.2766,9.68402,-3.55266,-30.0684,1.49562,4.1972,19.9769,26.6207,1.57099,6.41916,-1.57882,7.808,-909.144,-343.064,-35420,-53900,-7420
-8.18702,-18.3707,-32.5342,-24.2299,-40.0457,-22.3357,-20.0931,-21.5848,0.974497,-15.9979,-4.63758,-26.0313,-2.18071,-39.3318,-7.96025,-29.9235,18.056,-907.68,-345.992,-33460,-58800,-8540
-24.0727,-27.2358,-43.2763,-32.7347,-41.2655,9.14759,2.06667,0.697657,-4.37884,-19.8721,5.60445,-48.9807,-3.64862,-30.1724,13.4426,8.55966,24.888,-896.456,-341.112,-32060,-60620,-9240
-71.6976,-77.6904,-50.3129,-72.9787,-62.2839,13.2452,-40.4173,-5.39953,-83.6112,-49.5152,-11.6183,-79.8983,-15.5537,-32.5189,-35.7454,-9.78063,30.256,-894.504,-339.648,-31220,-62860,-10640
-21.3509,-29.6702,-12.5657,-46.0038,-32.8839,22.9065,-44.1792,-7.77036,-30.4022,-8.48502,6.83803,-30.6698,-0.0663572,-10.9455,-48.9668,-15.1053,38.064,-903.776,-340.624,-31220,-64820,-11760
5.03724,12.5614,11.7111,-4.22339,5.97406,25.5292,-1.28138,-1.41938,2.77825,14.6418,17.8803,6.2104,8.06161,12.4203,-16.2108,5.14621,44.408,-904.752,-347.456,-31640,-66500,-13160
-5.87844,-1.89335,6.9637,3.17791,15.1065,17.5138,18.7117,-6.29738,-15.6928,0.793104,4.47848,2.64453,-3.34054,17.2014,-0.904521,7.28138,54.168,-896.944,-359.656,-31780,-66640,-14700
-1.15176,23.8256,15.1627,41.452,48.2009,24.7622,62.0053,13.9382,6.92172,5.1775,11.8964,27.005,4.36187,36.3944,49.8418,39.1631,61,-889.624,-378.2,-32620,-65520,-15400
-14.6327,-14.2384,-3.13779,-10.3222,9.17244,8.80341,26.3021,14.3042,-10.4768,-17.1842,-7.50656,-1.19992,-9.34337,19.77,-5.63726,23.112,63.44,-884.744,-386.008,-32340,-62860,-15960
1.51384,0.333532,9.52883,-3.26907,16.6919,7.18708,17.6335,11.1066,-0.0713585,1.36079,2.37475,13.0807,-3.16261,23.8055,-8.83292,15.735,66.856,-888.16,-386.984,-33180,-59920,-15960
18.4705,15.9563,10.2121,7.82964,11.8213,-1.40523,16.3028,8.82423,17.4404,15.9996,14.804,12.5552,-2.50326,11.2392,6.91731,8.07434,63.44,-889.624,-390.4,-34300,-55720,-15260
-28.5154,-28.8863,-10.6025,-16.8731,-16.4596,-7.23711,-2.73248,7.77436,-50.7096,-12.3347,-1.30265,-30.7791,-14.7155,-10.1887,-3.37796,-6.249,61.488,-892.552,-386.008,-34720,-52640,-14700
-16.1074,-4.57467,-1.55348,1.76574,-13.0628,3.37432,-47.6738,24.3058,-19.2773,-2.53984,4.42726,-11.5098,-6.62546,-11.3937,0.105017,-19.3073,57.584,-900.848,-386.984,-35420,-49700,-13440
34.0821,19.8094,-1.51069,4.79634,-34.1764,-26.5814,-97.4231,-26.4707,39.6399,15.4325,7.30941,3.76193,-14.2508,-38.2,-35.5401,-83.9135,38.552,-888.16,-376.736,-35420,-49140,-11760
57.0867,33.1942,12.0219,3.65907,-13.0582,-32.5166,-49.6891,-42.0977,73.5352,37.7695,24.4124,22.8856,-4.4652,-22.0475,-36.3276,-57.7921,49.776,-895.968,-400.16,-37240,-44380,-10360
61.9058,48.7232,15.2069,12.4782,-1.10046,-32.2489,-29.311,-25.5912,84.321,34.7775,21.1611,33.4171,-1.04507,-11.9492,-33.0395,-32.4742,45.872,-886.696,-404.064,-31360,-38220,-8960
1.80195,-1.42045,-0.447601,6.80755,-5.95287,-27.586,-16.2866,-23.6698,-15.3704,-0.737375,-2.59548,-1.77997,-6.6232,-12.1744,-9.92153,-27.433,38.552,-881.816,-411.872,-28280,-35700,-8260
-24.2546,-19.9105,5.34949,0.0511113,8.12128,-4.65431,15.9786,-8.05634,-50.5587,-2.09098,4.18254,-10.6773,8.69538,4.2369,17.6141,8.50941,38.064,-879.376,-425.048,-26460,-33740,-7420
-64.6671,-42.1676,-13.4632,-1.07506,8.02525,-0.367233,46.4884,6.82905,-92.6921,-44.9545,-31.3927,-40.2319,-9.08405,6.88542,49.7756,37.771,37.576,-878.888,-422.608,-24640,-32340,-6160
-43.8359,-9.79214,-6.73118,25.5311,31.3263,14.0487,70.3129,23.8239,-44.2178,-39.5927,-42.6306,-24.6727,-9.5492,25.0175,71.9715,65.7474,34.648,-901.336,-409.432,-23800,-30380,-5740
5.32673,5.35519,-1.18708,4.67027,9.53838,4.09752,35.1297,7.94118,9.99224,-0.956258,-24.3081,-11.1096,-4.93613,10.0527,18.0967,44.013,34.648,-904.752,-412.36,-21280,-27300,-5180
-1.26033,-24.3673,-13.9087,-14.9045,-3.32344,-1.2375,42.7597,5.79325,-11.8418,-6.1608,-38.6482,-25.7962,-16.4991,1.96663,18.0997,43.7258,35.136,-910.12,-419.192,-19320,-25620,-4760
25.8891,17.7897,6.51229,33.5971,39.0167,22.7809,77.8309,28.7847,34.1358,18.9196,-27.2366,13.774,-0.0196623,28.1006,72.3933,70.0445,35.624,-916.464,-412.848,-17360,-24500,-4760
27.1091,2.65752,-8.33243,2.5172,-2.60506,9.64619,12.1141,15.3208,36.9406,12.4221,-28.4425,2.20435,-8.47107,-0.0460736,15.0197,26.5635,29.768,-934.52,-400.648,-14000,-23240,-4480
29.3695,-3.89513,-6.89952,-27.8995,-38.5187,4.95089,-100.737,-2.4011,32.6017,27.3422,-9.76094,7.7757,1.28297,-24.8679,-81.519,-38.2523,27.328,-942.816,-389.912,-12040,-23800,-4340
45.2042,28.9504,15.5991,1.50442,-20.0277,4.17038,-119.681,-25.2263,49.9455,46.8677,8.14203,38.8121,19.2352,-23.3667,-95.0103,-73.4894,36.112,-1005.28,-353.312,-8820,-24500,-4200
37.3107,25.5995,11.1725,15.2351,-3.13582,-1.76181,-37.3298,-34.4839,54.9185,33.963,4.70203,35.255,17.1603,-15.8397,-37.9397,-46.9793,43.92,-1374.21,-395.28,560,-20860,-2800
32.3674,2.76073,12.5768,6.63161,20.546,15.3865,62.1685,9.69612,58.1821,40.0991,30.7439,52.826,34.8731,14.8231,39.5665,35.832,-51.24,-1014.55,-295.24,50120,-6580,6440
-21.7164,-54.9531,-7.65893,-35.0566,-2.0936,7.98915,63.238,25.0448,-13.5138,2.87087,38.3446,36.1575,36.7414,16.408,17.4994,47.7115,-168.36,-490.928,-52.704,60760,-1400,7420
-52.2849,-44.4774,-4.42814,-11.7168,11.2041,13.3238,70.0168,38.1501,-43.0011,-17.7788,69.8331,24.336,45.0758,27.562,29.4727,53.3018,101.504,-799.832,-525.576,7700,-24640,1680
-26.7313,32.7254,13.5038,49.0469,39.8602,18.9122,61.3905,40.0824,-8.47301,-22.3145,84.721,14.8475,37.4947,29.3616,63.5241,40.5538,55.144,-495.32,-701.744,21980,-39900,-7280
-60.9828,0.285131,-2.81713,-8.46169,-20.4945,-4.89185,-58.7199,-8.1992,-84.7954,-54.393,41.6663,-68.1228,3.71453,-21.3894,-11.9918,-49.1664,120.048,-966.728,-433.832,-140,-40600,-8540
-34.8965,15.596,6.78735,-19.7564,-18.9968,-15.9109,-67.1165,-30.5171,-57.7862,-39.6628,1.11864,-71.6886,-15.0087,-27.1208,-22.3318,-67.3956,109.8,-1097.51,-249.368,6440,-19460,-12460
3.20829,19.2362,-7.19466,-20.9351,-16.4578,-25.0522,-34.8077,-23.4744,1.06341,-40.6839,-62.0106,-58.2373,-54.9725,-22.6015,-31.1413,-42.2771,72.224,-785.192,-192.272,29820,-35000,-14560
33.9286,31.2263,-3.69389,3.31316,7.25787,-7.91009,-1.88009,-5.76077,38.829,-9.07,-67.5157,-22.0076,-53.9535,-4.08271,-8.74103,-18.5926,77.592,-941.352,-411.384,1260,-61460,-17640
8.62101,14.7387,-4.84936,18.8197,19.811,-1.22499,12.0704,-3.3253,-10.3862,-6.65692,-79.0076,-12.9264,-49.7722,8.16587,0.400417,-10.2317,92.72,-996.496,-488.976,6720,-51240,-17360
-14.812,-23.4652,-15.5744,-6.90957,-6.43321,-7.49182,-8.64314,-17.7898,-39.2108,-13.2886,-89.07,-18.7374,-48.3232,-3.28351,-35.7426,-26.9553,86.864,-1370.79,-540.216,15680,-38500,-14700
-13.6215,-27.9471,-3.58035,0.474597,14.2244,16.0172,28.9107,18.3622,-10.9419,2.62818,-58.2813,37.1235,-12.4154,23.906,-10.9493,18.3917,6.344,-1461.07,-446.032,71120,-23100,-5180
-24.6025,-51.5932,-24.9624,-12.4618,-13.8208,-5.89803,3.85669,11.4604,4.3644,-17.3377,-28.5165,66.1048,7.60055,9.05875,-26.3941,-6.03309,-76.616,-616.344,-662.704,107940,-24500,11760
-8.6318,-25.9945,-16.3095,-7.25997,-11.4763,-15.3707,-7.20208,-2.17601,19.2723,-5.83362,38.6076,72.143,41.3876,7.4123,-44.451,-20.0625,31.232,237.168,-677.832,86100,-45640,4760
5.64726,14.308,4.76716,1.01635,-2.85221,-5.62241,-16.9776,17.3472,3.4056,-3.22332,78.8607,-2.20913,43.2987,0.21857,-11.4893,-9.59915,213.744,-398.208,-705.16,-24220,-94360,-21700
21.7005,51.2081,19.0023,0.769613,-22.3229,-7.9448,-64.8038,-1.39706,-0.157848,1.87168,79.647,-86.3885,14.398,-38.0836,23.2382,-52.4056,243.024,-1461.07,-371.368,-13580,-36120,-22680
26.8273,66.7681,39.0672,20.1497,5.82211,4.53413,-4.68328,-26.5071,18.1416,21.4845,53.7625,-66.2373,2.87524,-18.6428,82.4761,-19.4716,133.224,-1570.87,-272.304,62720,6440,-12880
2.69327,-2.05272,16.7278,-12.1306,-1.72561,3.58848,31.158,-23.7553,7.63827,12.179,10.0046,-15.6661,-8.7291,3.01185,40.9295,30.8139,-59.048,-1023.34,-478.24,105980,-42000,280
-31.8267,-57.1806,-7.67767,-32.6718,-11.3963,2.9322,26.2137,-2.01312,-34.0243,8.55369,16.7228,30.4384,-0.224663,19.9443,-10.5508,63.6821,-3.416,-352.336,-351.36,96180,-37520,4340
4.79316,-15.4161,-17.5453,-14.3769,-15.7126,-10.9883,-8.19467,-13.3407,24.9818,21.9132,48.827,42.8482,4.21416,4.99528,-23.9059,27.1541,27.328,-472.872,-391.376,24220,-65660,-13580
25.6203,8.13286,-8.17539,-4.06229,-2.77693,-1.90605,-6.53222,-8.84611,19.7419,30.7454,60.5836,3.75494,4.65528,-5.19929,-14.8346,10.4423,99.552,-1093.61,-158.112,-21560,-43260,-18760
30.847,27.5137,21.9334,25.9675,36.572,33.5728,28.8374,38.0366,1.48587,42.2586,44.2235,-7.77121,16.8294,14.1598,35.9377,44.263,96.136,-1203.9,-148.84,6440,-25480,-14840
-0.285048,-21.0802,7.97093,1.58521,12.3056,26.032,6.94364,31.7327,-43.7531,9.27126,-36.1566,-20.0291,-6.51368,2.23726,7.30937,16.9128,56.608,-1123.86,-451.888,44100,-46620,-8400
28.7784,20.741,13.9284,41.1523,31.8841,19.7554,40.933,4.28033,39.1944,25.6721,-64.3984,49.6323,-5.93925,17.2131,38.2123,17.756,-2.928,-998.936,-442.616,61320,-39620,2800
31.1016,20.363,-1.64602,30.6424,11.1989,1.39359,32.6264,6.79737,66.7203,22.4831,-58.3574,71.0942,-7.21504,13.7334,22.5305,25.4973,-99.064,-724.192,-391.864,66640,-3920,11480
-35.7504,-50.0195,-39.4988,-29.4343,-51.5398,-32.7998,-40.3389,-13.4268,-30.2188,-20.3553,-45.3574,10.1589,-17.9043,-23.032,-49.6777,-16.9767,-76.616,-812.52,-272.792,40600,5740,5880
-34.6014,-47.4217,-28.181,-53.7808,-61.8967,-30.064,-89.3087,-18.5942,-36.9447,-9.6451,2.01348,-18.0177,3.25953,-37.5645,-84.4362,-47.1023,-23.424,-937.936,-312.808,13860,-20440,-420
-7.14195,-11.6328,0.591668,-16.7943,-20.5897,-18.7009,-37.9451,-36.1411,-24.7404,-3.42139,7.71781,-19.3652,12.6504,-23.7676,-27.1345,-43.1368,-5.368,-885.232,-146.888,26880,-35420,-700
31.8734,57.8437,33.8356,58.6259,56.6609,13.3852,53.1306,-3.05442,38.1161,8.68066,-2.29437,17.8919,24.212,25.2698,61.2994,24.9579,58.072,-949.16,-303.048,15540,-45780,-2520
27.3955,44.9979,19.0728,39.9621,41.5005,13.8095,50.5995,19.125,45.721,-6.4206,-21.6005,2.4797,10.0648,22.4507,51.4554,38.5526,90.28,-861.32,-385.032,14700,-47460,-3640
-11.5404,-7.23291,-19.966,-3.27904,-9.49631,-6.20975,16.1291,-4.77988,2.93813,-41.1004,-41.1967,-36.9672,-20.6563,-10.4323,22.8339,8.57951,67.832,-892.064,-484.584,13020,-40600,-1680
-14.132,-16.5061,-14.9467,-19.6276,-7.92883,5.73269,-3.74359,4.41153,-2.09325,-27.6902,-16.8534,-20.066,-13.876,-1.79764,-9.04902,12.1229,41.968,-873.52,-331.352,9520,-15260,1400
-45.2601,-51.105,-12.9177,-29.4067,-8.43454,-1.15251,-2.01281,-18.5457,-73.8916,-35.2304,-6.19916,-22.8613,-16.0213,-1.44398,-14.7839,-12.6406,31.72,-941.352,-351.848,2240,-9240,1960
-19.4704,-18.208,4.64037,-10.4969,8.88096,6.68634,-2.78885,-1.65535,-35.5229,-11.7745,18.9187,-0.0812904,-5.76051,8.64378,-7.35228,-6.52867,21.472,-939.888,-360.632,5320,-10920,1960
26.0653,34.706,16.4037,9.25565,8.72321,4.94527,-42.8055,6.54431,35.7393,10.1149,22.117,16.0034,-3.53973,1.72779,-25.2107,-27.2989,10.248,-963.312,-325.984,-1680,-8120,1960
11.0574,22.9216,9.09255,17.1783,14.1306,2.24533,-7.19858,4.71875,16.0223,-3.05504,-5.2309,-1.63132,-12.7638,0.205646,-0.782652,-23.3369,20.984,-1022.36,-321.592,-5740,-1120,1960
15.0392,33.6165,17.6368,26.6442,36.0324,8.81883,42.251,10.6751,36.375,18.2266,8.43267,14.0343,5.59767,14.5823,21.5332,2.12765,21.96,-1056.03,-377.712,-1540,8400,1260
-23.7136,-3.97032,-2.48632,1.82023,9.64352,1.30131,11.1956,16.6679,-23.1977,-8.54822,-14.4442,-9.52768,0.928717,4.23288,-16.0392,-5.78393,35.624,-943.304,-427,5740,-280,1680
-9.26485,0.730409,-6.12486,-4.27149,-8.88687,3.59951,-27.4294,26.9439,-4.08053,0.298679,-10.9472,-4.34628,10.4864,-2.22492,-40.5916,-15.8012,98.576,-906.704,-446.52,8400,-11480,2100
-1.58043,-8.4678,-13.9587,-5.82768,-20.9524,-12.8286,0.439839,4.90251,0.0843993,3.71778,3.3171,-11.3764,14.6573,-12.1058,-6.9159,-19.3957,100.04,-755.424,-505.568,22960,-4900,3360
-9.70572,-25.5788,-17.1256,-10.526,-15.4462,-15.51,34.2709,4.40951,-14.0012,-8.96613,1.91522,-22.6374,12.8153,-4.1112,21.0846,5.95939,69.296,-621.224,-484.096,17080,-4620,3500
-8.14955,-15.1031,-0.832549,-8.72202,-0.279781,-3.17384,13.2338,19.2571,-22.7854,-0.602188,14.0457,-9.41778,19.9667,6.43285,16.5879,18.9251,79.056,-894.504,-388.448,-5600,-16380,1960
-27.7279,-35.4664,-5.81542,-22.1032,-10.1556,-8.61789,3.67652,-0.338994,-56.5785,-21.5763,5.16067,-21.7561,0.73528,-3.59799,8.06677,1.90416,48.8,-855.464,-436.272,4340,-1260,3500
11.5289,14.1074,13.7243,10.6783,8.57995,2.25092,-1.20758,-1.42294,12.4819,3.51206,22.4187,16.2735,3.22888,5.99632,11.0313,2.76732,17.08,-802.272,-435.296,8260,2660,3920
35.4192,52.5479,25.7181,42.1789,26.1132,13.6882,-1.26703,10.9604,48.0751,19.6886,24.7752,43.5775,4.48829,17.4354,17.4484,9.12779,15.128,-847.656,-398.696,-3220,0,3080
15.3308,14.6944,3.5439,1.77994,-13.3678,-1.77939,-34.3522,-21.9682,16.2573,7.63934,14.0418,9.07686,-14.9908,-8.42637,-18.8549,-26.1049,14.64,-909.632,-349.896,-4340,1540,1820
41.2822,38.0074,4.08668,-9.61144,-23.7971,1.34832,-62.4081,-13.1438,73.2679,30.0843,27.3653,19.2574,-10.6046,-15.4161,-43.6081,-24.5814,7.32,-929.152,-345.992,-2800,2380,280
5.92202,-16.4293,-13.059,-42.091,-43.1213,-6.84766,-57.1352,-28.7248,4.1791,9.97737,6.96287,-10.9512,-17.6928,-28.9052,-49.8789,-39.8335,9.272,-931.592,-353.312,-2100,840,140
-7.68652,-29.3986,-4.92401,-43.0296,-21.1535,0.865201,-18.7953,-36.8391,-17.6282,12.8161,9.3757,-2.46866,-2.00889,-9.72141,-44.5127,-13.1723,14.152,-899.872,-386.496,280,280,140
6.04669,10.2459,9.84099,11.004,28.1729,18.3866,61.0869,6.83756,14.3934,9.91113,-2.76285,23.0546,10.5451,27.7674,38.3957,60.0957,18.544,-866.2,-426.512,140,-2380,-1120
-29.4317,-31.2194,-11.1056,6.40464,8.635,8.67971,55.2,19.1927,-43.3252,-20.7144,-29.5088,-20.3005,-3.59824,16.0196,68.7094,60.3362,32.696,-882.304,-412.848,-2100,-5460,-2380
4.87506,2.43846,1.35394,1.70556,1.15023,-0.0381031,7.43349,0.31268,15.5148,10.0777,-2.7578,-8.12774,8.91563,4.41234,16.671,18.7732,45.872,-875.472,-420.656,-3360,-6720,-3360
-36.2983,-30.7846,-23.3065,-15.091,-26.085,-21.497,-9.52696,-17.121,-44.1257,-22.6653,-22.0462,-49.2094,-11.03,-21.8815,-1.74823,-5.39358,55.144,-882.304,-435.296,-2940,-8680,-3640
-36.8899,-17.6101,-15.8297,-0.207906,-5.71456,-5.2487,4.2367,11.8798,-34.4014,-27.314,-32.5387,-33.1189,-11.8176,-6.7962,15.6773,18.1968,63.44,-933.544,-419.68,-3360,-8400,-3080
-11.5803,7.3673,5.92542,30.4017,26.3894,3.39051,43.9961,10.4202,-21.2094,-12.5467,-28.6841,2.18648,-4.23912,11.698,50.1706,20.0903,52.704,-933.056,-414.8,-1260,-2660,-1400
-19.3668,-6.92463,3.26363,25.8935,21.127,0.202299,29.9996,3.42931,-35.9232,-16.0452,-27.0564,2.35027,-9.76391,10.2826,31.3464,7.53204,40.992,-954.528,-388.448,-1540,1260,-140
48.6465,56.9898,29.3273,51.712,37.5861,11.4198,19.5147,18.1185,69.3654,33.9702,14.4591,55.4032,10.5021,21.0251,33.1229,14.9604,34.16,-969.168,-368.44,-2520,6860,1400
21.7604,5.03367,0.881102,4.12628,-10.7314,-8.36828,-16.3421,-3.75252,17.3392,10.5764,5.01877,15.8444,-7.44038,-10.9418,-6.81832,-17.3391,26.352,-957.944,-363.56,-1400,11760,2240
10.3003,-16.7424,9.31824,-26.3295,-5.70299,-1.01833,-39.834,-15.5222,-20.0472,19.8286,20.3638,17.5758,4.53345,-5.12354,-64.1236,-30.0704,20.984,-946.72,-356.728,-420,14980,2800
37.8787,15.1395,33.1674,-15.6917,17.6813,7.42761,-48.3023,-19.6679,6.60491,45.3657,37.3442,47.2468,21.8762,8.89667,-90.9818,-27.3041,19.52,-934.52,-344.04,0,15120,2800
35.8557,39.4419,15.5734,20.2509,21.2585,3.26032,5.8597,-12.1285,55.3376,24.1394,14.7051,32.7845,7.99685,5.06779,-3.34321,-9.7782,15.616,-930.128,-329.4,420,13720,2660
10.3033,14.9543,-7.04866,17.051,3.32342,2.59012,18.8593,10.7438,37.2869,9.36592,11.3138,3.72221,3.69704,-5.44495,43.1489,6.73469,10.248,-916.464,-341.112,1400,10500,2800
-35.8385,-50.7509,-33.9646,-34.9619,-42.9041,-15.8119,-37.162,-8.11637,-39.5186,-26.7338,-9.37503,-41.0048,-9.65375,-32.3035,-18.3665,-30.9174,11.224,-901.336,-361.12,2100,6580,2380
-5.56043,-5.44863,-9.99152,7.93202,1.59989,-2.87552,17.8075,-5.26991,4.5583,-3.43478,3.31322,-2.5294,7.12905,-1.06348,22.5503,0.587484,17.08,-910.12,-376.736,2380,280,2380
-0.270131,1.72587,-1.00303,-0.264225,5.65417,3.46979,9.75898,12.9385,3.92263,-6.80135,-3.92258,9.00238,11.3599,9.36169,-10.2317,14.8181,29.28,-904.752,-391.864,4200,-3080,2240
-32.9206,-41.2102,-22.8428,-45.1937,-31.7005,-11.8676,-40.7487,-3.33749,-40.8196,-45.7879,-29.4514,-24.4874,-6.53427,-15.5161,-63.1195,-25.9852,39.04,-882.304,-413.824,4620,-4900,2100
-16.2216,-2.70945,-8.9789,-7.26835,-2.0037,-0.544716,0.399502,7.11666,-0.697628,-31.5312,-6.27493,-5.55831,3.12759,2.8085,-8.34298,-4.49177,45.872,-901.824,-401.624,2940,-4900,2240
-38.2526,-18.8188,-26.3435,-13.7369,-23.7867,-12.0427,7.39638,-0.629549,-22.4762,-47.9463,-8.83207,-38.6825,-13.192,-14.6658,10.2283,-13.0259,47.824,-910.12,-386.008,1680,-2240,2660
-32.7847,-22.0876,-17.3764,-13.1717,-13.3261,2.05313,5.04501,14.5859,-30.6476,-32.2771,-3.2891,-37.5016,-12.1015,-2.61718,10.614,4.16105,49.288,-913.048,-377.224,-1260,-140,2380
21.3913,34.5718,11.2711,24.0354,23.1888,16.8477,33.528,29.8197,42.0746,4.45124,9.37983,1.19789,-0.146548,21.3999,35.6285,29.214,47.336,-901.336,-389.912,-5320,0,1680
25.9878,23.3479,8.24264,2.3678,-0.182884,1.04977,15.3458,-1.70558,36.4018,14.2657,8.64379,-10.9352,-7.17808,2.35796,12.4775,-0.32095,46.848,-932.08,-379.176,-8400,140,1120
27.1275,26.1225,24.1333,1.39099,9.06136,10.1012,-3.04917,0.357558,20.8177,36.4987,25.9122,5.61099,7.89711,9.76468,-6.12578,0.83963,40.504,-935.984,-384.056,-11620,2660,280
-20.0555,-30.327,-2.98295,-31.9954,-26.3549,-8.07608,-41.8884,-7.88088,-59.3869,4.0165,-0.121461,-31.7182,-12.772,-16.643,-35.5146,-22.5006,29.768,-949.648,-382.104,-13160,3780,-420
-37.8345,-20.8304,-1.19607,9.73846,10.0486,5.35972,15.7382,0.169379,-67.9754,-2.55724,-7.05931,-19.2931,-7.13591,5.37797,25.767,5.49753,26.84,-949.648,-382.104,-12740,5460,-420
13.3168,41.2323,19.3679,49.978,43.3614,15.7568,45.0585,3.83891,24.9645,16.0106,-3.77245,30.7084,6.58035,26.946,44.3405,25.8045,19.032,-948.184,-382.104,-11340,6300,-280
27.9299,29.7038,17.1357,28.5641,29.8546,15.8982,36.1268,8.93533,35.316,13.9314,-12.8965,30.453,4.61815,24.5312,28.3646,27.3242,15.128,-939.888,-381.616,-9940,6720,0
-5.51974,-12.6175,15.1899,12.1144,23.9132,23.2868,31.3896,24.3206,-30.1326,16.1638,2.76109,17.6604,15.6671,24.5448,36.8749,35.3162,12.688,-940.376,-373.32,-8120,7140,420
23.9766,-7.01886,7.01699,-26.6003,-28.2087,-4.46541,-72.0422,-9.70669,14.3655,20.3759,3.1474,13.8005,6.42908,-17.2841,-66.8531,-32.7563,12.688,-941.84,-369.416,-6440,6860,1120
54.5375,33.6977,12.615,-13.3903,-23.8269,-10.1921,-85.723,-20.8465,82.227,35.4933,14.2512,34.7494,10.7305,-25.2666,-73.8681,-48.8275,14.64,-933.544,-369.416,-3920,5740,1960
11.3693,3.76132,-4.603,8.01854,-4.3423,-9.25165,8.80823,-10.0708,32.5608,5.21892,-3.37564,7.99194,2.64542,-13.8407,31.3813,-0.238813,15.128,-928.664,-371.856,-1540,3920,2380
-19.6243,-38.1938,-27.5416,-9.28596,-16.8506,-17.315,36.0994,-11.0349,-16.3933,-25.2905,-25.975,-26.7173,-14.0577,-16.4295,44.8725,22.3481,19.52,-930.616,-376.248,-140,2800,2520
9.06595,7.1212,3.64612,13.2424,13.3226,-0.829232,20.0136,12.166,11.1586,9.00071,7.46172,16.6625,8.87147,9.12007,16.2721,39.5203,18.056,-924.76,-384.544,1680,1400,2520
6.64793,-8.74009,6.31528,-11.263,-3.10193,-11.7625,-13.5775,-11.5345,-15.9934,10.9341,16.6464,10.3204,9.45899,-2.54194,-36.04,-1.65634,25.864,-919.88,-396.744,3080,420,2100
0.658144,-3.55077,6.11108,8.62462,10.2585,-3.51536,11.0299,-2.63382,-11.7729,7.52273,12.5201,9.44257,8.20485,4.27113,7.85228,6.30209,27.328,-912.072,-407.48,4620,-1260,1820
-6.06027,8.72985,-3.60533,11.4836,7.58772,-1.90347,17.0858,9.50468,10.5623,-9.66638,-3.87995,0.375213,-1.73332,3.34574,15.2189,10.2009,29.28,-901.824,-406.016,5880,-1960,1400
-20.5519,-17.0094,-17.5564,-33.5303,-27.7166,-17.8803,-40.2469,-10.634,-10.9296,-24.7762,-12.0143,-23.02,-15.3178,-19.0534,-57.0547,-25.5058,32.696,-898.408,-403.088,5320,-2100,980
-9.53191,0.818959,-2.97473,-1.5185,4.84576,2.10432,-3.86873,9.0003,-8.84834,-11.9636,0.307643,-3.863,-2.77408,5.33016,-10.3977,2.84944,29.28,-906.216,-395.28,4480,-2100,280
-42.3281,-38.514,-21.8404,-17.3819,-17.6854,-9.26604,-11.4877,-3.85226,-64.1896,-37.4114,-19.5143,-32.8711,-18.1229,-9.72883,-8.20393,-13.6091,31.232,-911.096,-396.744,4200,-2380,0
-20.0646,11.7312,0.684179,20.7473,15.1225,2.8057,9.53075,-9.29489,-10.4102,-12.0754,-0.476609,4.36379,-1.02427,7.36207,18.3918,-11.1226,30.256,-913.048,-397.72,3360,-1820,-700
3.95947,44.0833,3.94189,48.5532,30.654,5.14026,37.9187,-8.41925,28.3251,-6.15875,-1.2271,19.5505,0.149811,13.3716,49.605,-0.711501,31.232,-914.024,-394.792,2940,-840,-1400
-3.72777,11.197,-8.30831,18.8092,1.12646,-1.86939,9.04077,-13.785,-3.06789,-13.6988,-10.5381,-3.7065,-8.59844,-2.81872,18.9726,-17.3972,28.304,-921.832,-394.792,2520,-140,-1680
-9.38634,-5.72452,0.0513573,-3.62483,-0.473025,4.62717,1.07859,-10.1776,-20.6058,3.67096,13.8255,-5.74845,4.42653,0.369075,-1.61327,-13.1018,24.888,-926.224,-398.208,1960,-700,-2100
-3.9649,-14.1534,-5.00557,-18.381,-12.5317,1.32606,8.43606,-2.54376,-11.8994,-2.7315,7.87662,-20.6712,-1.91719,-3.09684,-2.16089,-1.78269,27.328,-925.736,-403.576,2100,-1260,-2380
11.512,-4.07106,5.78671,-12.1896,0.889893,15.0874,32.7274,19.7522,12.408,13.5129,15.8677,-7.99695,5.78705,12.7754,23.0544,26.6666,24.888,-925.248,-405.528,2240,-1680,-2520
32.5814,9.30365,17.9576,-11.2369,2.91489,17.0194,0.116143,25.8043,36.563,25.896,5.88058,13.9733,6.74145,16.5663,-0.075424,20.7112,22.448,-919.392,-396.256,2380,-1120,-2520
22.3012,-9.82255,11.4626,-30.0944,-15.8191,-0.165679,-53.4155,-0.946973,4.11812,13.8621,-23.636,9.64224,-6.47414,-2.11101,-53.7741,-22.3179,22.936,-917.928,-402.112,2660,-560,-2380
2.20273,-5.04318,-0.495367,-23.2568,-16.9259,-5.69599,-68.1135,-0.374608,-8.11266,3.09804,-13.3166,7.52939,-8.99435,-12.4378,-63.8328,-27.1989,24.4,-914.024,-401.624,3640,-420,-2100
-31.911,-29.556,-21.3169,-34.1566,-26.4204,-16.7954,-45.3384,-21.0931,-39.1298,-24.4844,-6.6307,-20.5833,-14.53,-22.9565,-63.2477,-34.7084,26.352,-911.096,-405.528,3920,-560,-1820
-3.99963,5.17139,-1.00637,13.9875,20.1545,0.00480387,41.954,-6.36288,12.7702,-1.13676,8.25055,4.86002,4.26496,7.78966,27.257,17.9983,27.328,-906.704,-397.72,3780,-560,-1540
5.86317,-13.6047,-0.836683,2.7817,9.77802,6.01611,46.1411,21.328,9.56159,5.91315,7.01475,-4.78735,6.94859,6.96322,45.8274,38.3332,26.84,-912.072,-385.52,2940,0,-1400
2.78697,-22.5584,-3.47085,-9.86988,-9.87035,-1.02702,11.2578,13.1908,-4.51815,3.01624,2.28592,-13.479,1.89712,-4.80251,20.5055,15.2638,33.184,-907.68,-397.232,2240,280,-1540
35.8784,48.459,22.8496,47.8544,26.3073,10.9166,18.9119,19.301,52.1378,32.4383,23.8622,30.6799,19.8239,11.2495,50.3233,14.1088,35.136,-917.44,-393.328,1960,-700,-1540
-16.2137,-2.10663,-2.91529,15.9136,-8.59338,-8.87111,-13.9299,-9.28291,-26.6275,-3.31632,1.94209,-12.1698,1.12962,-18.0249,16.8513,-24.9895,40.016,-916.464,-393.328,1820,-1400,-1400
-2.17238,18.748,5.77849,16.6526,0.439277,-2.23951,-15.6655,-15.8912,10.4588,5.24944,5.84996,2.41975,5.85671,-10.0885,-6.56945,-17.0329,41.48,-918.416,-393.816,2380,-1680,-1400
24.034,32.8485,15.3147,10.169,9.80153,7.48284,-16.3701,4.00734,36.3612,18.0921,10.5252,19.1402,11.5127,5.96562,-36.5487,13.765,40.504,-915.976,-385.52,2380,-2240,-1540
16.7252,6.22293,2.7077,-5.68288,-1.41352,4.93134,1.89537,7.44589,21.6611,2.81407,-5.01871,3.83319,0.928428,1.96386,-17.221,16.0852,40.016,-916.952,-383.568,2380,-1400,-1260
4.47559,0.726955,5.99849,14.1518,21.7632,13.8343,54.4028,9.53081,-0.948053,5.5105,4.13264,11.7615,8.00566,15.5583,45.9179,33.325,40.504,-918.904,-415.288,4060,-1120,-980
-51.9517,-46.3451,-25.2196,-9.48536,-7.94761,3.36135,38.1757,1.67652,-76.2882,-37.9909,-23.2794,-31.6997,-13.7009,-2.74792,35.2175,20.0652,32.696,-893.528,-396.744,5880,-280,-980
-43.0901,-9.11534,-14.3327,16.2159,8.59557,12.4569,33.3585,8.14309,-40.63,-29.3609,-16.6872,-11.9307,-6.38943,8.04622,40.5128,21.1955,31.232,-896.944,-388.448,4060,700,-840
4.92943,18.9639,-2.75903,-0.720141,-8.77282,-1.65741,-43.3143,-9.94864,22.3016,-6.08812,-7.44625,9.20337,-5.05585,-4.78483,-36.3019,-20.5169,32.696,-904.752,-387.96,2940,1820,-980
14.4349,-11.6697,-5.0465,-43.0663,-30.7778,-20.1891,-78.6176,-43.5151,10.0742,-2.77229,-11.4662,-2.9044,-12.0716,-21.0874,-94.0468,-63.5153,31.72,-907.68,-395.768,3360,1680,-840
13.1638,-3.32751,7.21012,-20.2723,2.76446,-5.2993,-17.0959,-19.0339,4.27529,10.6541,4.1294,9.51439,1.43948,3.54407,-34.411,-19.5282,35.136,-905.24,-398.696,3640,280,-840
-19.6571,-42.1673,-22.7031,-40.149,-28.0712,-17.9119,-10.6907,-8.20975,-32.051,-21.8679,-15.0919,-31.8542,-20.4317,-15.2358,-10.5543,-16.0362,38.552,-908.656,-388.936,3360,-420,-840
14.7483,14.5433,-0.610706,6.42817,0.482593,-4.48865,-0.0336714,8.5518,30.4453,7.67412,4.19251,4.29954,-3.29938,2.07024,14.4126,-2.55,42.944,-907.192,-391.864,2380,-420,-1120
21.1299,38.4703,10.0415,30.364,14.6712,-2.80216,5.90494,3.37148,40.0883,12.1789,6.3604,21.4411,5.70888,8.2234,18.5272,-4.7335,40.016,-905.24,-389.424,1820,280,-1120
-12.5084,-2.16761,-7.72441,2.0164,-9.15219,-7.52431,-15.9385,9.88951,-11.4177,-14.2249,-12.6595,-6.38579,-6.0268,-2.31494,-11.7239,-1.88425,42.456,-907.68,-386.008,980,560,-840
12.499,11.3177,2.93656,-7.89212,-13.3135,-6.33137,-54.4687,11.2345,20.2816,13.8003,12.763,7.45935,6.29288,-8.03844,-44.6221,-21.6737,41.968,-912.072,-387.472,280,1400,-980
20.1175,3.95699,8.56184,6.82919,6.92065,-11.5728,13.32,-18.0951,8.90355,17.3131,19.0513,4.62447,8.30797,-1.16201,12.907,-16.2752,39.528,-912.072,-388.448,420,1680,-980
-3.50656,-1.30331,12.2794,28.5957,38.9307,17.0739,88.256,27.4618,-15.1096,5.49748,12.463,5.12567,14.3737,33.1494,78.9242,61.6239,38.064,-909.144,-390.888,700,1820,-1120
-35.842,-16.2212,2.20263,16.3281,27.8639,13.7034,63.6505,32.8101,-49.1564,-12.4323,-0.315634,-7.70223,7.4799,26.4438,55.0264,54.8677,34.16,-903.776,-390.4,420,1820,-700
-51.2294,-34.6609,-8.80896,-2.88834,2.16248,-0.307546,22.0818,7.14467,-71.0006,-21.2464,-5.84017,-24.1776,-2.10126,3.55551,15.7256,13.0156,36.112,-905.728,-387.472,420,1400,-420
4.45109,20.0284,16.9509,21.1869,23.764,11.7526,21.1151,9.49906,9.84811,14.1252,13.6028,22.0769,13.4854,15.0029,16.0629,18.4781,35.624,-904.264,-387.96,-140,1260,-420
24.604,3.64873,11.4576,-9.33265,-4.44122,3.80023,-13.8917,-0.199264,21.2506,12.0517,0.932931,13.4185,3.6211,-1.74233,-21.4654,-2.99765,37.576,-901.336,-382.104,-700,980,-280
43.9558,23.8422,16.7001,5.5396,1.84763,8.03679,-7.76548,3.78134,58.3786,28.3587,14.8794,22.6017,8.82319,0.465651,-1.66261,-0.878829,32.696,-906.216,-381.128,-1540,420,-280
53.1018,52.3443,20.7115,25.2004,10.8221,4.39611,4.1772,-4.78128,82.6336,35.0345,23.7209,30.4449,12.3081,2.79453,10.0837,-1.82357,34.648,-908.656,-377.712,-2940,-280,-420
-13.6911,-2.59212,-4.63004,3.79619,-9.92774,-0.112138,-11.1297,-5.29133,-12.2294,-10.2623,-7.85819,-13.873,-6.25235,-8.13475,-3.28974,-9.98668,36.6,-913.048,-377.712,-3220,-280,-420
16.1733,33.3425,9.19815,23.0763,11.6619,6.50796,-10.0902,-2.5545,34.4806,7.52943,-1.18204,15.8365,1.65246,0.50671,-0.192568,-8.19017,41.968,-915.976,-382.104,-3640,-840,-420
-1.03108,-15.2413,-12.793,-18.3082,-22.5631,-13.9593,-25.9142,-29.8499,-12.4909,-11.381,-13.576,-16.6533,-14.4775,-24.6337,-26.9054,-37.7183,38.552,-910.12,-386.008,-3500,-840,-280
-5.15554,-13.3167,-11.68,-16.4173,-18.9745,-1.99852,-20.7656,-7.78102,-11.6634,-4.99602,-6.54168,-13.625,-8.41337,-16.9489,-21.0094,-13.1584,42.944,-908.656,-388.448,-3360,-700,0
-12.1129,-30.0862,-4.22227,-29.6841,-12.1254,1.68328,-12.7723,-7.67898,-38.0592,0.325417,-3.92379,-8.94667,-0.755826,-8.6326,-28.2297,-9.08583,41.48,-903.776,-387.472,-3500,-700,280
-56.3413,-85.0597,-24.7588,-60.6413,-29.1894,-9.54327,-7.78247,-21.2239,-106.939,-31.1594,-25.7257,-41.7248,-16.052,-15.4934,-38.2458,-9.51582,38.064,-900.36,-387.472,-3780,-560,560
-12.8364,-18.8054,-12.4026,-20.4185,-7.50196,2.61415,6.0009,8.31942,-8.08422,-11.21,-6.01398,-8.21689,-3.71489,-0.0726908,-3.98653,18.6645,35.136,-898.408,-388.936,-4340,0,700
-3.80171,1.81571,-13.1245,9.21198,-0.949417,-5.91886,15.8842,-1.01508,5.88708,-16.7706,-6.56169,-8.25514,-5.84576,-1.19188,28.2596,9.60708,34.648,-895.48,-390.4,-4900,280,700
19.7107,38.0246,-1.9709,31.7646,10.2416,0.628521,-0.452612,4.982,48.2973,0.30466,5.82289,14.4375,2.51656,2.9757,26.3972,6.41766,37.088,-900.848,-390.888,-5040,840,840
7.74978,7.43837,-8.22143,-17.0119,-24.745,-6.44833,-71.7101,-5.00124,19.1301,-2.87285,2.97508,0.837648,-2.85205,-18.7834,-50.2865,-36.7991,34.16,-900.36,-395.28,-5040,1680,1120
-2.79802,-4.79623,-7.04502,-22.3345,-25.702,-9.8409,-58.4033,-18.9148,-2.72417,-6.55908,-4.64496,-7.56356,-10.477,-21.018,-48.4938,-46.912,33.672,-897.92,-397.72,-4900,1960,1260
27.3197,46.7587,24.0546,44.9094,42.3569,18.3198,48.5836,11.564,40.9664,23.2337,12.784,35.5924,8.8919,28.1927,55.6934,28.5154,36.112,-892.064,-395.768,-5180,2940,1400
-8.73208,-9.19002,-0.689651,-0.90212,5.6771,5.75639,24.0549,9.02896,-14.1487,-6.81246,-8.96212,-3.95662,-7.75203,9.03151,23.2267,20.7608,32.208,-894.992,-390.888,-6160,3360,1400
-17.1434,-9.24154,-2.46561,-4.46524,5.84292,8.42174,16.5935,13.4406,-8.18184,-10.3033,-4.5832,-2.97241,-3.46901,8.56571,16.8487,15.6388,35.624,-897.432,-392.84,-7280,4200,1540
-30.0404,-6.62803,-7.91034,1.94733,4.41439,1.06387,9.55381,10.9881,-21.6002,-22.959,-10.3367,-7.18784,-5.53192,6.77268,8.9589,10.7531,35.624,-900.848,-395.28,-7560,4480,1820
-24.5158,-4.72831,-11.6913,10.3871,0.131166,-6.1917,15.8014,-1.10126,-18.4458,-24.3337,-19.2089,-13.3352,-11.3759,2.79801,17.5414,4.45426,34.16,-895.48,-397.72,-7000,4480,1680
-3.6158,-8.05093,3.79706,-1.2019,3.74044,1.33503,2.6489,9.80664,-14.4383,8.4934,3.43722,0.470803,3.55953,11.912,-2.72293,14.5582,36.6,-890.112,-398.696,-6720,4200,1540
-8.56716,-22.6679,-7.58626,-22.2987,-22.1586,-18.0168,-24.8978,-12.3961,-19.502,0.691799,-0.0302314,-17.3572,-5.44603,-10.0809,-35.8205,-16.2754,30.744,-886.696,-395.28,-6580,3920,1540
20.9984,13.8933,8.27083,-1.01674,-0.786652,-12.3323,-6.4534,-17.1585,32.7931,19.9755,12.8041,5.90025,5.5503,0.978546,-17.2926,-9.87423,33.184,-886.208,-391.376,-6580,3360,1540
17.5451,6.52025,16.6991,7.40399,16.9183,-3.6188,22.6548,0.986381,7.58595,19.5863,13.3234,10.554,12.4292,13.9946,12.9516,12.306,33.184,-884.256,-395.768,-6440,2660,1120
0.952476,-3.48738,8.08784,11.0559,14.9083,-2.95685,36.2964,5.77548,-9.87956,2.16641,-0.272793,-0.152503,6.20048,12.3771,27.1302,16.8716,34.648,-882.304,-391.376,-6440,2660,1120
21.6319,34.3091,17.8537,32.8273,26.5492,6.9805,36.0507,13.2136,36.431,19.2703,15.0059,22.997,18.6107,16.4525,35.5684,22.9097,34.16,-886.208,-390.4,-6860,2520,1120
5.4053,1.67149,-4.92645,2.93237,-9.9143,-2.1436,-5.52141,8.84905,7.0309,-1.16853,-1.64012,-7.81989,4.0357,-9.25352,-0.467451,1.01693,30.256,-880.84,-394.304,-6860,2660,1120
-20.1889,-31.9927,-7.84398,-25.3548,-21.473,3.38241,-41.4539,11.3478,-41.9684,2.53817,11.8733,-19.8786,9.50912,-16.8188,-43.5473,-13.1179,34.16,-881.328,-405.04,-6720,3080,1120
-5.05963,-2.98158,7.61502,4.85454,7.50361,10.0189,-8.03006,3.42315,-18.8243,9.73704,17.6162,5.89449,17.8821,-4.461,-11.5349,-8.89148,29.768,-874.496,-405.528,-6160,3780,1400
30.1826,20.9375,14.0121,14.3186,12.6994,8.74087,-1.05549,-5.01821,29.6272,11.6456,5.44308,21.5799,12.4269,-1.32121,-6.29475,-6.74916,33.184,-872.056,-393.816,-6440,4200,1260
37.0012,35.9209,23.8496,36.41,39.8295,21.4656,36.6191,12.9923,42.7899,22.9622,14.8192,37.0842,19.7145,18.6294,41.03,24.7701,29.768,-875.472,-386.984,-7840,4340,1260
9.5866,-1.02485,-3.39567,-0.365362,-1.92122,1.04553,7.74182,-3.68955,13.6524,-5.20356,-4.6721,-1.51837,-5.16329,-6.9004,12.3726,-2.7536,30.744,-880.84,-386.496,-9240,4340,1400
12.057,-4.58637,-2.87126,-13.0194,-8.86276,1.43635,-5.36032,-5.94601,14.8898,5.5202,6.09368,-2.68618,-6.04479,-8.77644,-8.46634,-9.76988,37.088,-883.768,-384.056,-10360,4480,1540
-1.55309,-20.3491,-10.1327,-27.0525,-20.8685,-3.60641,-18.6203,-4.73169,-11.176,-2.04521,0.910078,-13.004,-11.7363,-13.9398,-22.3073,-17.2388,38.064,-884.256,-392.352,-10920,4480,1820
-13.5878,-25.9428,-19.2119,-28.544,-34.7607,-15.0782,-32.5722,-17.9642,-24.1215,-14.9342,-12.8356,-23.27,-22.0755,-24.7493,-28.6399,-35.7918,36.6,-883.28,-389.424,-11340,4900,1960
-2.30184,10.0412,1.00017,8.34422,5.36205,2.93515,7.57604,-2.09417,1.34977,1.96617,-2.90945,7.8395,-6.08167,5.21209,10.4375,-4.48685,40.992,-884.744,-385.032,-11480,5740,2520
-20.9037,-11.3754,-10.8753,-11.6863,-10.5003,-0.595165,-8.24617,-1.78649,-22.0666,-19.9537,-24.6023,-11.2109,-14.0922,1.28562,-17.4319,-4.51772,41.968,-885.72,-386.008,-12180,6440,3220
-5.70034,10.9692,-3.88719,-6.65955,-11.792,3.20461,-34.3034,6.49919,11.6424,-3.80748,-12.3853,-0.506744,-3.86404,1.57746,-35.5801,-5.92948,41.968,-884.256,-388.936,-13300,7280,3640
-6.54242,10.9217,0.811975,4.79669,0.786407,-6.26238,3.97832,-8.76955,-0.150376,-0.74929,-7.81544,-0.918194,0.633452,4.42201,3.04389,-5.82643,40.016,-882.792,-382.104,-13580,8400,3920
-13.1126,1.94913,-6.94923,5.84817,-1.11246,-14.9178,14.0251,-11.611,-9.35582,-13.2964,-22.6645,-11.759,-9.14325,-0.51652,17.9863,4.43351,39.528,-883.28,-378.2,-14700,9520,4340
3.41868,29.2548,6.31703,23.1945,13.1202,-3.0449,12.1762,0.848093,21.859,6.17559,-4.23218,10.632,3.85032,7.91909,31.0719,13.8667,39.528,-881.328,-376.248,-15260,10080,4760
-1.9937,11.4147,0.987425,12.0382,4.23098,-7.10729,15.4527,-12.1731,-0.139827,-4.26874,-8.28209,-1.00667,-3.43312,1.4446,27.6332,3.26104,38.064,-878.4,-381.616,-15540,10220,5040
4.79685,13.1693,9.549,16.0613,20.3701,7.37093,33.5016,6.68469,4.48068,7.79344,8.41125,8.802,1.94225,14.3181,37.2436,27.7185,39.04,-882.304,-378.2,-16240,10640,5320
-26.2937,-18.4057,-3.53953,-9.76742,2.52612,6.51478,3.21502,10.7934,-35.5572,-11.2904,8.28856,-7.56272,-2.97401,3.99282,4.79572,17.9505,40.504,-882.304,-380.152,-16100,11060,5460
-33.3177,-27.316,-17.7349,-28.3627,-25.6768,-10.4691,-43.6893,-7.51813,-29.6958,-28.7719,-3.85197,-17.5799,-14.9739,-17.7521,-35.103,-16.6298,47.336,-879.864,-381.616,-15540,11340,5600
-8.016,-9.40852,-3.75497,-7.26677,-2.10411,-6.36587,-9.22516,-3.28929,-2.4156,-7.46769,5.43766,5.72618,-3.10278,-4.56147,0.975562,-1.96592,35.136,-878.4,-390.4,-14980,10780,5460
9.19062,-17.3405,-5.68636,-10.4644,-6.53552,-9.19873,-6.28752,-4.67177,1.38418,-7.29862,-4.34041,3.87055,-5.56743,-6.6056,-3.45438,-4.03856,37.088,-884.256,-371.368,-15680,10640,6020
32.5919,12.1915,9.76639,18.4544,20.2339,8.92685,20.8435,9.26673,37.633,14.6228,10.036,27.1302,7.79422,13.057,26.7938,15.8222,37.576,-881.328,-384.056,-13160,9940,6440
18.9631,9.74552,6.97137,13.2324,15.6007,9.41607,16.9135,7.50013,24.6266,11.9942,13.7415,17.9581,7.02295,9.51288,19.6917,14.4082,44.408,-894.504,-381.616,-13300,9660,7140
1.23929,-6.28904,-3.44365,-4.35451,-5.98506,3.77078,-10.1971,3.11961,3.22255,-0.3756,6.35127,-5.58319,-1.65608,-2.05834,-10.131,-0.147556,46.848,-893.04,-380.64,-11900,9240,7700
3.82975,6.97195,10.7523,11.9237,11.9925,18.7361,-11.6448,20.9365,0.579149,11.1063,16.3421,7.39599,12.7125,14.2052,-7.99389,9.93685,40.504,-894.992,-380.152,-9520,8680,8540
-6.02016,-18.4326,1.23124,-6.49688,-2.81978,5.47779,-5.97593,-1.786,-23.3742,-2.91312,2.76195,-13.4114,3.79517,1.80998,-12.9872,-9.79785,43.432,-897.92,-377.712,-9240,8540,9380
33.2399,16.8923,23.8042,12.6536,19.0861,18.5292,16.2846,5.27792,30.4561,30.3646,23.427,16.5434,20.1345,16.4284,0.970965,4.80905,30.256,-901.336,-384.544,-7700,8260,9940
26.5636,14.7013,21.0729,9.77798,17.0461,15.5278,19.188,10.5875,20.2597,23.7373,15.7832,13.2351,18.7885,14.1498,-3.69062,6.04164,36.6,-904.264,-387.472,-6300,7560,10640
-13.7245,-23.47,-11.2462,-24.6495,-21.1708,-4.03036,-12.7867,-6.60775,-25.4704,-12.3353,-16.2909,-25.4218,-6.0972,-13.5541,-36.2794,-20.831,36.112,-903.776,-388.936,-4480,7420,10360
-20.7905,-9.36342,-11.8528,-13.7554,-15.8537,-1.68181,-11.4993,-2.05158,-21.4516,-5.69817,-9.44637,-18.0729,-1.24648,-11.1151,-25.9348,-11.063,35.136,-906.704,-388.936,-2800,8260,10360
-51.2136,-36.4134,-30.6545,-25.6294,-32.5197,-17.5496,-12.6757,-11.7677,-60.7878,-32.9781,-27.9517,-42.5182,-14.1493,-22.6527,-24.9454,-16.099,38.064,-901.824,-390.4,-2380,8260,10360
-22.5693,-14.4331,-13.6827,-15.0052,-14.3352,-10.4248,-3.04712,-5.80952,-22.7132,-16.6711,-20.1415,-14.9732,-4.55207,-8.57288,-13.039,-2.5903,39.04,-906.704,-392.84,-2240,8400,10220
-3.88409,-10.6731,-7.07831,-18.0409,-15.9371,-6.73233,-6.41755,-1.9431,-5.43223,-5.33087,-12.8286,-3.96173,-1.88393,-8.48223,-14.5288,-3.09555,39.04,-907.192,-391.864,-700,9380,10220
-1.49217,-16.2924,-8.49549,-21.8558,-23.6942,-10.4586,-15.4403,-10.2333,-8.0257,-4.69549,-12.2414,-7.47921,-7.52887,-15.7363,-20.1961,-16.2971,34.648,-894.504,-395.768,1120,9380,10780
30.8401,23.5422,17.5049,8.86658,12.1889,6.32398,8.31812,6.02489,34.1843,25.2201,11.1631,28.7681,12.1641,7.93876,7.35772,8.15727,32.696,-894.016,-392.352,2240,9100,10500
19.2015,14.2282,8.2123,8.42969,5.85059,2.06266,1.79635,3.45664,17.4438,9.99014,6.46551,12.0624,4.70303,0.765867,2.71662,3.19968,37.088,-896.944,-395.768,2800,8540,10500
6.14565,24.8958,7.43243,26.0229,19.0472,1.00902,16.9671,8.60695,21.0564,7.04924,14.8761,9.76358,5.90195,4.67391,28.2617,14.5983,39.04,-893.528,-400.16,4620,7980,10500
6.19586,27.7793,6.40811,30.9868,21.4214,-9.84665,20.2023,4.73889,21.4687,2.52178,11.2932,6.96995,1.14989,2.57642,34.3031,13.9827,32.208,-889.624,-403.088,6160,7980,10500
5.6396,1.57914,-4.06084,5.50189,-0.558978,-18.9729,-4.22124,-4.34957,7.02867,-1.95217,2.51801,-10.4017,-10.2502,-9.77441,5.749,-4.39673,28.304,-883.768,-406.016,8120,7560,10500
21.111,15.9477,8.65029,12.2858,9.3029,-5.67809,-11.8949,1.53915,21.5771,21.972,23.7759,9.82368,3.68555,0.145419,3.37368,-4.67978,27.816,-881.816,-408.456,9380,7840,10640
-6.24838,-4.88586,-7.20932,-0.231816,-8.86608,-17.979,-23.8041,-20.8434,-9.16611,-1.88149,6.72684,-9.9002,-10.1073,-13.9118,-2.52226,-24.7337,22.936,-882.304,-408.944,10640,7840,10920
3.68446,22.3786,10.8415,27.7148,23.0329,3.11591,14.1669,-5.38141,14.8816,11.3767,13.5503,16.5431,4.807,11.6306,34.9397,4.56401,15.128,-883.768,-407.48,12320,8120,11060
0.0176766,23.7125,13.2676,38.6994,34.8617,10.8848,42.9031,9.12721,5.73446,0.396849,-2.09816,20.5711,3.35127,25.6123,61.4896,25.0181,15.616,-880.84,-407.968,12880,7700,11060
-18.8989,-4.41473,-8.45997,6.96393,3.0651,3.16424,13.3084,4.7762,-13.905,-28.4029,-26.715,-3.62852,-15.3945,8.55887,28.6869,6.9849,16.592,-892.064,-404.552,13580,7560,10780
5.6605,17.8118,7.51924,9.26731,13.4146,18.3797,9.46029,12.3792,19.5837,-3.68788,-4.27031,17.8968,0.897082,17.3425,14.16,8.45471,20.008,-891.576,-404.064,14280,7140,10360
-1.23423,-7.85895,-0.588189,-15.7832,-10.957,10.2756,-12.334,-0.581164,-4.89019,-2.62653,-0.0253235,-3.59203,-1.54613,-0.443746,-15.9188,-12.4361,23.424,-889.624,-401.624,14840,6300,10360
15.9962,8.51028,12.3114,-0.34604,6.15892,21.8877,4.87135,9.3866,13.4594,20.505,18.8776,11.7414,11.803,9.63017,3.48161,5.53344,24.4,-894.504,-399.672,14980,4060,9940
3.74377,1.82752,3.96383,-2.27684,4.24454,12.4264,8.36229,3.86046,2.69046,8.99375,5.5436,5.55627,2.70911,5.45685,4.86835,8.87602,26.352,-908.168,-391.864,15540,2100,9800
-19.1611,-27.6992,-12.363,-26.8143,-18.6468,-4.26913,-14.305,-15.2622,-28.5508,-9.99845,-13.0349,-16.3198,-10.7789,-11.263,-25.5609,-11.0259,28.792,-916.952,-392.84,16660,-420,9660
-8.2735,-11.5455,-7.16206,-20.1479,-12.8729,-3.42918,-11.4392,-9.06056,-7.69484,0.24897,-6.40579,-4.53093,-3.1509,-7.21305,-20.1097,-2.58805,28.792,-923.784,-393.328,18480,-3080,9520
-24.5309,-39.144,-25.8438,-43.1819,-39.6339,-19.7411,-29.2201,-21.5979,-34.4116,-26.4158,-27.5654,-30.8098,-18.5134,-23.9967,-41.8099,-16.6804,30.744,-924.76,-404.064,20160,-4620,9100
-8.63766,-20.4336,-10.8381,-22.9361,-16.9139,-8.31077,-13.8596,-8.15033,-14.472,-12.3184,-17.1322,-10.1156,-4.47829,-4.9409,-26.4947,0.160435,35.136,-927.2,-408.456,22540,-6300,9520
-6.89246,-14.588,-7.27307,-15.4733,-12.2245,-5.74163,-10.4814,-0.780272,-13.4595,-10.9741,-12.4262,-6.14047,1.45022,-2.33847,-23.2057,0.801116,27.816,-932.568,-406.504,24780,-7000,9380
-26.5849,-34.2541,-21.3002,-28.8996,-29.4907,-9.59573,-23.4313,-2.41066,-34.316,-27.0273,-21.3082,-28.0465,-7.91716,-17.8143,-37.0254,-13.2044,24.888,-933.544,-412.848,27160,-8400,9520
-3.82222,-5.34741,-6.2845,-1.62159,-0.749515,3.01348,1.82254,15.3564,-1.99671,-3.95956,-6.78881,-3.69165,4.27155,-1.0448,-6.28358,8.83202,20.008,-933.544,-413.336,29680,-9660,9380
8.94575,-1.56835,-2.35651,5.5227,-1.51117,-3.03867,-4.17381,5.62103,-1.86773,0.197021,-11.0243,-0.676537,1.24498,-2.6082,-8.95428,-2.1687,15.128,-935.496,-412.36,31780,-10640,9240
26.6327,25.1571,14.3825,23.561,17.7686,7.69266,6.62507,6.63019,27.0929,23.1347,6.61525,21.6329,14.2281,11.3129,3.01498,2.78939,12.2,-939.888,-416.752,34720,-11760,8680
24.3486,24.3235,17.1412,23.3172,21.6765,5.90412,23.2469,4.14467,26.4188,19.9304,5.63139,20.5848,13.2717,16.5898,17.0773,8.89914,9.272,-942.328,-415.776,36820,-13020,8120
10.2308,7.29759,9.10457,14.3034,11.0429,0.930862,19.8463,1.03571,10.3769,3.43272,-4.85738,5.67749,5.01059,11.8481,16.0701,4.09492,0.488,-942.816,-419.68,40040,-14560,7000
25.7447,27.4035,21.6782,23.8542,24.1625,8.7539,20.0728,10.6503,35.7282,20.5439,16.4349,24.5102,16.7783,18.7401,20.1312,12.752,-2.928,-942.816,-424.072,42420,-15820,6160
19.0038,11.0804,10.739,5.75575,2.50314,-8.8504,-2.2352,-12.2245,21.6658,6.34636,9.16936,7.88034,3.6318,-2.04326,-0.540118,-11.3402,-3.416,-942.328,-413.824,42840,-15540,5600
16.8193,13.4587,12.566,9.82603,11.6935,-1.08531,11.2366,-3.83856,22.8095,13.7784,21.2941,9.87862,6.9331,3.05157,18.4082,4.12865,-6.832,-939.888,-407.48,43120,-15680,4620
-25.8352,-14.309,-2.97153,-2.63719,1.01837,1.13059,9.17347,8.1452,-35.2755,-4.66063,16.6837,-15.6163,-1.95242,-3.80673,16.2776,10.7438,-8.784,-939.4,-395.768,42840,-15680,3780
-60.6938,-36.857,-19.826,-14.5558,-15.4517,-2.10843,-10.3661,4.15128,-69.7623,-29.8035,-0.615863,-38.189,-15.6344,-16.0481,-0.131938,-2.98596,-12.2,-942.816,-385.032,41020,-16940,3080
-8.2564,1.48916,2.63405,0.6039,-1.40705,8.75153,-24.6442,7.41265,-1.74673,4.741,21.4853,-0.856562,1.37334,-8.64112,-9.15502,-7.68106,-12.2,-949.16,-373.32,37240,-18200,1960
1.80615,-10.7148,-5.24596,-13.6074,-14.5623,-3.73861,-24.8812,-10.1075,-0.565758,0.616842,13.8982,-10.2136,-8.43635,-18.4063,-20.5327,-23.475,-9.272,-954.04,-358.192,34160,-19180,1260
28.2928,26.3964,12.2097,15.8809,16.7469,10.1678,12.8551,5.83463,44.3187,22.2191,29.3581,21.5622,5.28579,7.41495,14.8013,8.55465,-9.76,-962.824,-347.456,30380,-20860,700
16.4558,21.5535,8.33861,16.3105,13.9777,7.2982,12.4962,7.55903,29.6191,11.5736,22.7242,16.8288,3.90003,6.15398,17.6069,11.5481,-2.44,-978.928,-341.6,27300,-22960,420
-22.3783,-13.7289,-13.0935,-4.9084,-10.1602,-4.17962,-6.17939,-3.86044,-19.6278,-17.9225,1.12158,-16.045,-10.8037,-11.4061,1.42883,-5.17545,-0.976,-985.76,-335.744,23800,-27440,-140
6.07716,15.5499,7.54836,12.1314,14.5556,9.05855,8.43339,8.77656,14.0439,3.91159,11.8298,12.6002,6.1468,8.06762,13.5129,14.7118,2.928,-992.104,-334.768,21280,-32620,-280
2.57119,1.45821,0.371216,2.31855,3.18209,-2.80283,6.68394,0.277327,-1.5952,-8.06234,-9.00504,0.149779,-4.3341,2.12583,9.47497,8.44098,6.832,-993.568,-346.48,18340,-35700,-420
-2.32585,2.60211,-2.45217,2.25979,2.10957,-2.2814,2.66069,2.41707,0.608633,-1.82766,-5.10496,-0.292793,-2.33672,4.07833,8.60925,7.36744,11.712,-994.544,-350.872,15960,-40180,-840
-11.512,-2.04875,-10.2389,-3.21383,-3.87162,-9.0058,-2.97427,-4.24975,-8.80918,-8.17372,-13.7242,-2.54821,-5.57555,0.14988,0.290374,-0.779092,20.984,-993.08,-358.192,14980,-42700,-840
-14.7493,-12.2767,-15.6122,-8.2639,-11.6635,-13.1778,-6.52452,-11.7519,-19.9217,-15.169,-28.2849,-7.52146,-11.303,-6.36496,-7.83568,-8.57583,31.72,-977.952,-363.072,13160,-43960,-980
-1.76838,-2.43587,-3.90145,-3.77078,-0.423548,-4.79022,1.99375,-4.77279,-4.38774,4.60911,-14.7293,6.53775,0.0492543,1.18434,-2.99057,0.934124,36.112,-970.144,-363.072,12320,-42700,-1120
-1.86956,-20.4134,-10.4074,-24.4392,-21.0011,-13.6334,-12.6926,-16.3427,-14.4347,-3.45094,-24.4427,-7.41463,-7.25653,-10.8179,-24.9129,-17.1938,39.528,-957.944,-354.288,10920,-40880,-980
18.7696,5.76472,6.0234,-3.88528,0.0114589,-1.00808,6.14883,-0.278937,18.6159,14.2983,-8.88164,13.8435,5.64453,6.30413,-3.91355,-1.96427,43.432,-949.648,-352.336,7980,-37380,-700
7.98967,4.49638,3.83186,-1.62534,0.207324,-2.21384,7.87519,-0.0991558,4.76391,8.52388,-7.1464,7.90573,5.43751,4.41622,0.376179,-4.59386,42.944,-931.104,-325.984,4480,-34300,-420
-6.86573,-3.85641,-4.90341,-3.79151,-5.40287,0.432257,2.80987,-2.11458,-11.1798,-7.60858,-19.9128,-8.33161,-2.3187,1.13857,-5.16993,-8.00525,50.264,-948.184,-318.664,-700,-28700,-420
9.45604,24.5238,11.0832,12.7542,14.7222,16.6598,8.83533,11.0334,13.7479,9.34256,-4.702,9.77077,10.0399,14.9885,1.04234,5.64583,46.36,-940.864,-322.08,-3640,-23660,0
-3.6048,-4.59279,-1.49148,-14.0546,-13.24,3.9559,-16.1872,-4.79662,-18.73,-6.49348,-11.7955,-20.2542,-3.33436,-4.18114,-25.4073,-17.39,43.92,-933.544,-321.104,-5320,-22120,140
9.50962,4.09689,6.61123,-1.14849,-0.715942,6.92694,0.60702,1.39435,-0.55424,2.47954,2.90588,-12.193,1.164,4.62714,-0.274369,-3.35269,37.576,-936.96,-327.936,-5600,-19600,420
5.32977,0.806686,2.49419,1.61719,-0.997595,3.02197,5.34706,4.55347,-0.0506933,-11.9337,2.77915,-13.7294,-2.76097,4.13221,6.67095,1.2539,23.424,-916.952,-312.808,-4760,-19040,420
-8.88684,-11.0447,-6.04369,-3.67784,-10.7451,-0.918886,-3.56326,-1.93104,-11.4475,-24.7047,1.04654,-20.1558,-9.30555,-3.24168,-2.30488,-6.49734,20.984,-931.592,-317.688,-11340,-17920,0
0.917562,7.3761,8.87606,11.9462,11.9536,12.404,7.22516,10.5138,8.91449,1.89368,25.4755,9.42224,7.53404,11.2436,11.5934,11.4569,13.664,-928.176,-331.352,-15680,-12040,-840
-13.3961,-17.0845,-6.62184,-3.04345,-5.74535,-1.71814,-5.47898,-0.808571,-12.8205,-8.4373,7.77948,-3.99529,-4.89661,-4.38341,-0.720452,-1.58103,5.368,-916.952,-350.872,-19180,-7140,-1120
4.16837,-0.627289,4.09212,5.34796,5.00778,-1.52177,-5.64176,-2.28681,12.8955,15.6621,14.3285,16.1673,4.01749,0.237975,-2.37692,0.664371,3.904,-913.048,-365.024,-18060,-2520,-1400
15.2505,8.09323,13.5204,11.8837,14.8062,-0.713656,4.95879,0.667199,21.686,26.3709,11.3954,27.6222,13.0247,5.93443,5.45519,9.21745,1.952,-904.264,-382.104,-16660,0,-1680
4.85096,-4.40789,6.53827,6.40082,10.4599,0.639008,10.0827,2.83556,8.863,15.7045,-6.04048,14.9365,10.817,0.825757,11.0111,13.0153,-1.464,-899.384,-389.424,-15680,1260,-1400
13.0235,12.3677,13.7148,17.4619,23.2413,12.1047,19.8716,14.5481,25.4738,24.7322,0.0113475,22.9816,21.0066,9.44285,22.0467,26.4355,-3.904,-898.408,-387.96,-13440,700,-980
-6.38864,-10.5889,-5.36676,-5.79385,-9.56039,-6.68951,-12.9854,-7.01399,-4.65365,-3.99955,-20.1394,-8.44944,2.44972,-13.8669,-7.14143,-3.73598,-0.488,-894.992,-379.664,-8680,-1820,-1260
-5.59903,-0.0463238,-7.10599,-4.27868,-8.77022,-6.73765,-25.9694,-7.14224,4.90502,-7.06479,-13.4252,-7.56505,-0.213584,-14.2252,-13.579,-7.51234,1.952,-892.552,-381.616,-4620,-5460,-1400
-24.201,-11.6714,-17.548,-12.3759,-13.5611,-9.34247,-14.7085,-11.7877,-19.5912,-26.7982,-11.5981,-21.3658,-10.3099,-16.5881,-10.4136,-6.00538,8.784,-901.336,-388.448,-3920,-7280,-1960
-32.0747,-24.8822,-22.5871,-19.3275,-18.8794,-8.79264,-8.12971,-11.9883,-37.374,-37.0867,-7.76333,-29.5724,-19.3854,-14.2826,-6.88832,-1.79687,6.344,-898.896,-390.888,-2520,-7560,-2800
-1.90112,3.10821,-0.436937,6.87914,11.7465,4.50642,18.5054,6.6421,-9.22036,-6.63424,18.267,4.86534,-5.52068,9.79943,22.3514,21.1809,9.76,-902.312,-387.96,-3220,-5880,-3780
-10.2791,-18.8972,-14.1031,-13.4679,-14.7726,-13.984,-6.64043,-9.29725,-25.2159,-13.951,10.5897,-12.8712,-18.3941,-10.8218,-4.60723,-5.88139,14.152,-904.752,-380.64,-4060,-4340,-4480
15.5013,6.86526,-2.02568,-7.03445,-11.0882,-9.92648,-20.794,-9.45388,19.7152,12.9663,26.0337,4.79725,-6.54427,-9.97145,-16.9518,-15.1913,19.032,-908.168,-375.272,-3360,-1680,-5040
19.074,15.5531,5.56555,-0.343438,-1.35602,-5.22675,-7.94607,-2.59532,17.7717,18.0957,23.6127,12.6792,-0.689402,-1.01951,-9.87346,-10.7436,28.304,-910.12,-377.224,-3920,-420,-5320
10.1108,4.18391,3.00641,-3.44432,-0.651002,-1.22174,4.20361,5.61006,0.957335,7.62136,7.5711,5.03073,-2.52845,3.04459,-6.18141,-3.20284,30.256,-915.488,-374.296,-4620,0,-5740
13.2285,20.2464,12.8771,12.8098,19.7346,12.9875,20.9087,20.8789,15.5923,15.1092,8.18705,19.2432,7.94864,17.6187,12.6732,13.7995,34.648,-923.784,-377.712,-4620,-840,-6020
-6.20908,-1.86191,-2.28371,-0.452489,-0.928818,-1.36528,5.09811,5.5003,-13.8537,-11.0098,-18.2277,-3.51712,-7.21845,1.20274,-1.59942,-7.05048,40.016,-924.76,-374.784,-3640,-2380,-6580
8.58561,13.3332,9.86287,10.2912,12.1827,8.5711,7.88592,9.02737,3.19756,4.70709,-8.14435,11.7245,4.59845,7.82279,3.95241,-2.79739,48.8,-928.176,-380.152,-1260,-5040,-6720
4.85278,2.26391,3.63771,-2.62633,1.58249,3.40249,0.078431,3.57598,-0.700414,2.20122,-10.4704,2.00319,2.37202,-0.534253,-2.42693,-7.58975,53.192,-934.032,-384.056,-700,-6580,-7280
-8.06113,-4.59357,-6.77039,-4.20285,-7.07547,0.147237,0.391757,-1.14527,-2.85427,-13.7001,-24.7039,-13.2212,-6.87928,-5.62406,-0.281886,-9.8718,58.56,-935.984,-397.232,1680,-8260,-7840
2.54884,21.8866,12.6058,24.2109,22.3292,14.6662,22.9704,12.062,14.9066,7.08682,-5.04282,11.6423,10.0238,16.273,26.3872,10.9382,62.952,-936.96,-406.504,3360,-8960,-8260
-11.6779,-10.4837,0.672941,-1.98065,-4.61113,-1.46272,1.26059,-6.1175,-15.654,-3.35938,-7.18411,-11.1937,0.330297,-0.54914,-1.39527,-10.3573,61.488,-935.008,-417.24,3780,-7980,-8820
2.51976,-1.19351,4.66363,-0.742795,-2.31019,1.19311,-1.13817,-0.989046,8.18597,11.7629,12.3116,-2.92763,7.47252,1.48933,-5.30289,-4.07584,66.368,-933.056,-415.776,2520,-5180,-9380
1.89845,4.24884,4.91544,5.8982,1.52942,0.777473,7.34134,2.57986,8.92581,9.70198,14.4609,-1.34936,8.2172,3.9539,3.1997,5.26098,66.856,-935.984,-412.848,3220,-3080,-9520
-0.296001,3.60365,4.76248,9.39718,3.95598,1.96913,9.46698,-0.783584,5.67301,5.06491,7.01317,-1.52266,6.40265,6.82948,5.60072,8.26333,65.88,-937.936,-417.728,4760,-1120,-9520
14.1856,19.7581,14.6333,18.121,16.661,7.34126,12.4568,3.76282,24.5439,18.7603,16.7652,15.8721,15.0622,13.7435,14.5401,17.1579,60.512,-934.032,-422.608,5460,0,-9240
-5.70169,-10.9699,-6.93897,-6.70796,-13.8663,-9.06286,-12.7408,-12.6962,-6.98769,-8.15869,-2.20054,-12.411,-3.01742,-8.8445,-7.10206,-5.8148,58.072,-934.52,-421.144,6160,980,-9240
0.284011,-6.98005,-3.3726,-8.20053,-7.81955,-4.35835,-11.4398,-8.98119,2.76262,-1.33602,3.96305,-4.19893,1.55551,-3.3373,-6.79805,-0.228925,64.416,-929.64,-425.048,6440,2100,-9100
-1.13381,-11.1335,-7.74434,-11.8215,-9.71828,-4.58335,-10.8608,-8.05003,-3.12888,-6.15211,-1.58735,-4.28244,-2.52784,-4.03589,-7.5316,0.0978452,58.072,-930.616,-424.072,6160,2940,-9100
-11.8037,-20.8701,-15.3463,-19.9317,-18.6513,-4.42806,-18.4409,-11.9812,-14.1446,-15.2941,-10.7815,-13.0891,-8.78188,-10.2183,-17.3313,-8.24282,57.096,-935.984,-422.608,5600,4200,-8960
-18.3248,0.558492,-5.86312,3.362,6.71557,10.3745,3.66329,5.76675,-9.92,-10.8717,-9.09954,1.62591,-0.216964,5.33935,8.12176,13.7063,54.168,-935.496,-421.632,5320,5180,-8680
