2102.718008,-4447.818333,1665.853163,-118.173673,2844.237130,1165.285845,4339.054744,-3549.278206,-5207.375313,10205.761815,5216.740694,10224.090245,15702.502811,2426.550082,8835.935156,9881.102727,-154.208008,-991.127991,-138.104004,-44100.000000,-34440.000000,12180.000000
2175.785861,-4379.399643,1718.156245,-63.970693,2898.618924,1217.678334,4390.731977,-3504.507661,-5129.859463,10269.129010,5325.481930,10286.295150,15755.029411,2479.881344,8885.667787,9924.442759,-153.231995,-988.200012,-141.031998,-43120.000000,-34160.000000,12040.000000
2256.430955,-4378.371463,1761.563332,-263.102384,2722.777751,1489.117919,4799.612439,-3562.577493,-4997.514784,9967.156943,5766.861828,10452.815646,15979.843256,2623.759523,9158.984918,9890.110480,-200.568008,-911.583984,-318.664001,-16940.000000,-5180.000000,7700.000000
2201.110387,-4432.686202,1706.980372,-320.322850,2666.473707,1436.948948,4744.023650,-3602.631820,-5052.365965,9908.550669,5677.857182,10395.908105,15925.997904,2570.294150,9103.150261,9851.218444,-197.639999,-906.216003,-324.519989,-15960.000000,-4620.000000,8400.000000
2144.135790,-4483.804641,1643.166142,-375.978693,2604.894651,1376.219258,4680.365882,-3654.152591,-5107.597125,9831.101874,5462.967511,10332.697372,15862.496598,2509.720923,9050.511903,9806.693769,-196.175995,-902.312012,-327.936005,-15120.000000,-3780.000000,9240.000000
2083.875487,-4546.925968,1589.745473,-438.697688,2541.147475,1314.528443,4621.893718,-3703.952277,-5169.936141,9771.333310,5326.890090,10268.704327,15809.724129,2447.136038,8998.789966,9762.861998,-198.128006,-896.455994,-327.447998,-14980.000000,-3640.000000,9940.000000
2039.283757,-4596.368026,1560.196466,-479.869602,2502.814234,1274.965855,4587.784956,-3735.915272,-5216.472473,9749.048620,5451.590473,10232.047466,15780.018661,2407.037009,8959.450896,9728.149739,-198.128006,-897.919983,-331.351990,-15120.000000,-3920.000000,10780.000000
2074.264237,-4557.632453,1596.898031,-436.462514,2544.924920,1312.405027,4629.225091,-3707.841481,-5180.910847,9789.035891,5524.479511,10273.800525,15816.116728,2445.482009,9001.852155,9749.048620,-197.639999,-890.600037,-330.864014,-15680.000000,-4480.000000,11760.000000
2148.136753,-4486.710368,1656.420726,-372.514173,2606.280459,1374.274656,4681.148193,-3650.799829,-5107.530070,9866.350575,5718.425598,10344.655555,15875.639424,2506.614030,9062.090106,9791.606342,-197.152008,-889.624023,-326.959991,-16240.000000,-5040.000000,12600.000000
2211.638059,-4419.342210,1714.401151,-306.710637,2672.240457,1438.088887,4741.050868,-3593.333494,-5044.274633,9932.914070,5900.838184,10414.974143,15933.642201,2572.439918,9123.490348,9843.775313,-199.104004,-886.695984,-334.768005,-17640.000000,-6300.000000,13720.000000
2256.319196,-4373.007044,1752.019137,-267.125698,2712.384190,1474.119899,4780.658159,-3568.813630,-4997.693598,9962.418373,5795.226192,10457.643623,15971.953091,2609.253241,9151.653546,9869.993910,-200.080002,-883.768005,-328.424011,-19180.000000,-7000.000000,14840.000000
2223.305669,-4409.261573,1716.144588,-311.650373,2667.390128,1431.048087,4739.061563,-3607.482148,-5029.388372,9925.068608,5717.419769,10412.113120,15936.279707,2565.063842,9108.179403,9835.594575,-194.712006,-878.888000,-326.959991,-21420.000000,-7560.000000,15680.000000
2154.015261,-4478.887257,1656.331319,-373.922333,2605.967534,1375.280485,4682.019911,-3663.115640,-5098.947000,9851.441962,5550.049907,10340.855758,15876.064107,2509.475053,9056.837446,9800.770557,-199.104004,-880.840027,-323.056000,-24360.000000,-7140.000000,16800.000000
2088.547002,-4545.540159,1604.944659,-430.516950,2553.418583,1328.878263,4633.673088,-3704.980457,-5166.292806,9783.000920,5335.808436,10285.892819,15824.319819,2461.195285,9010.390521,9772.808525,-203.007996,-882.304016,-325.496002,-26320.000000,-6720.000000,17080.000000
2047.777420,-4591.696512,1569.047757,-475.421605,2511.196138,1290.835594,4593.283486,-3717.028048,-5208.314086,9751.931995,5413.726618,10248.006612,15788.713490,2421.587994,8970.917341,9739.392667,-210.816010,-879.864014,-336.231995,-27720.000000,-6300.000000,17640.000000
2071.760842,-4563.823886,1593.165290,-442.966872,2541.326289,1314.975478,4618.831529,-3693.558716,-5185.403548,9778.463516,5497.076273,10277.846191,15811.780490,2447.247797,8998.879373,9757.519931,-207.888000,-881.816040,-338.183990,-28420.000000,-6720.000000,18620.000000
2138.413744,-4497.819185,1644.686061,-375.218734,2607.845081,1373.157069,4678.533039,-3648.385840,-5121.142283,9840.377848,5617.105140,10356.278462,15861.714287,2506.189347,9059.139676,9797.954237,-209.839996,-884.744019,-345.503998,-28280.000000,-7000.000000,18900.000000
2217.605974,-4416.615297,1685.835622,-313.460864,2667.099555,1429.192892,4736.535816,-3597.356808,-5039.983099,9898.402977,5832.665364,10438.398771,15903.892029,2563.365109,9110.548688,9841.763656,-211.304001,-887.184021,-347.944000,-27020.000000,-7140.000000,19320.000000
2278.626237,-4339.457076,1720.927861,-258.095593,2717.480387,1477.405605,4788.257752,-3556.363709,-4968.703385,9931.572966,5831.257204,10472.932216,15941.398256,2612.449540,9162.069459,9884.477840,-211.792007,-891.575989,-348.920013,-25200.000000,-6720.000000,19600.000000
2243.645757,-4353.359861,1729.645041,-273.160669,2702.169442,1468.241390,4777.148935,-3570.020624,-4998.095929,9922.632268,5745.426505,10411.397864,15949.713105,2601.541889,9157.308538,9878.197000,-219.600006,-892.064026,-352.335999,-21560.000000,-6020.000000,19740.000000
2155.624587,-4458.547170,1693.904602,-351.391775,2631.314413,1409.076322,4704.751635,-3613.539471,-5093.940210,9877.660558,5631.678478,10333.747904,15912.475099,2540.834551,9083.816002,9833.158235,-222.040009,-896.455994,-354.287994,-18900.000000,-5460.000000,19600.000000
2062.574275,-4579.179535,1634.001927,-426.605395,2563.521572,1347.273749,4636.444704,-3661.707480,-5202.145005,9802.603400,5381.651864,10291.503107,15852.728886,2478.272018,9008.423568,9789.482926,-233.264008,-892.552002,-353.312012,-15680.000000,-5600.000000,19740.000000
2012.841643,-4638.255195,1579.329560,-486.351608,2505.898774,1289.338027,4585.192154,-3711.238946,-5254.939825,9748.959213,5347.856027,10252.700478,15798.123574,2419.643393,8952.186579,9743.326574,-236.680008,-895.968018,-344.528015,-13440.000000,-6300.000000,19880.000000
2028.286699,-4615.210547,1573.093423,-489.190279,2500.959039,1279.547963,4580.453584,-3718.995001,-5233.325688,9750.635594,5463.392194,10256.254406,15791.641568,2410.367419,8950.219625,9730.295507,-239.608002,-898.895996,-349.895996,-12040.000000,-7000.000000,19600.000000
2097.018313,-4545.875436,1622.446075,-434.830837,2553.820914,1327.380696,4622.363105,-3681.086443,-5160.034318,9809.331275,5559.035308,10313.608982,15840.971868,2458.870704,8991.749166,9758.145780,-249.367996,-901.335999,-343.552002,-11060.000000,-7560.000000,19460.000000
2153.098840,-4478.775499,1676.939628,-369.250818,2610.773159,1387.238668,4667.893609,-3623.933032,-5103.350294,9877.079413,5786.844288,10369.220122,15896.001863,2518.929841,9071.835467,9802.625752,-250.832001,-900.359985,-332.328003,-11340.000000,-8960.000000,19600.000000
2212.576832,-4417.643478,1729.935614,-312.633850,2669.111212,1440.882855,4733.875958,-3571.384081,-5042.307680,9934.992782,5878.240571,10422.260812,15948.483759,2573.535153,9125.054970,9838.410895,-251.807999,-897.432007,-325.984009,-12180.000000,-10220.000000,19460.000000
2239.980071,-4399.359751,1749.448687,-290.058588,2695.642733,1458.428974,4765.526028,-3569.819459,-5017.541947,9952.203626,5761.117430,10450.334603,15967.885073,2593.003523,9130.352334,9854.191226,-256.200012,-898.408020,-320.127991,-12600.000000,-12040.000000,19740.000000
2194.270753,-4438.542359,1707.360352,-323.295632,2664.663215,1428.902320,4733.719496,-3609.516157,-5065.665253,9901.621628,5674.057385,10419.086864,15925.684980,2563.968606,9099.149299,9843.060058,-265.959991,-899.384033,-316.712006,-12600.000000,-14000.000000,20160.000000
2127.170816,-4493.684112,1646.384793,-379.130289,2609.186186,1381.650732,4677.080176,-3649.481076,-5130.530015,9818.741360,5453.646833,10355.585558,15865.558787,2514.235975,9048.991984,9807.856060,-266.447998,-895.968018,-316.712006,-14280.000000,-15540.000000,20300.000000
2083.830784,-4548.423534,1593.701731,-442.765706,2544.321423,1323.245623,4615.165843,-3695.771539,-5172.327777,9764.985414,5322.307983,10287.680958,15813.322760,2453.439230,8999.326408,9760.559769,-264.007996,-901.335999,-306.463989,-16660.000000,-17080.000000,20580.000000
2044.469362,-4599.899602,1564.264484,-497.885108,2491.347789,1272.551867,4554.704375,-3733.970670,-5215.310182,9746.791094,5446.583682,10247.224301,15784.109030,2402.432549,8923.799863,9712.525870,-265.472015,-906.704041,-309.880005,-18340.000000,-17500.000000,20300.000000
2054.818220,-4565.768488,1594.975781,-444.442087,2540.365164,1317.054190,4612.953021,-3680.862925,-5203.642571,9766.304167,5508.989752,10285.468136,15815.379121,2447.359556,9012.379827,9748.288661,-263.032013,-907.192017,-311.832001,-20160.000000,-18340.000000,20300.000000
2121.404066,-4502.982438,1657.247741,-390.753197,2599.239659,1375.347540,4662.640949,-3624.871805,-5137.034373,9843.752962,5706.825043,10351.070506,15877.181694,2506.569327,9049.327260,9789.997016,-260.104004,-917.440002,-311.832001,-21280.000000,-18760.000000,20160.000000
2207.771207,-4435.189597,1721.061971,-331.431667,2661.489268,1432.880930,4725.069371,-3588.058482,-5048.409706,9927.527300,5903.453339,10417.052855,15940.258317,2566.092022,9084.263037,9838.187377,-262.056000,-917.440002,-316.712006,-20860.000000,-19040.000000,19880.000000
2266.936274,-4371.084794,1765.854867,-265.851649,2723.403600,1490.816652,4786.022578,-3552.742726,-4987.702368,9959.624405,5798.847175,10474.206266,15984.268902,2624.340668,9152.592320,9883.024977,-258.640015,-918.416016,-316.712006,-19880.000000,-18340.000000,19600.000000
2204.485500,-4414.380123,1727.432218,-297.546422,2692.066454,1462.765212,4760.541589,-3578.044901,-5055.115230,9902.828622,5702.801729,10434.442512,15945.734494,2594.970476,9137.929575,9864.115401,-255.223999,-918.416016,-325.007996,-16800.000000,-18060.000000,19180.000000
2151.265997,-4475.400385,1663.394471,-372.536525,2617.791607,1390.233802,4679.874144,-3644.161361,-5105.473710,9836.376886,5534.873072,10369.957730,15882.501409,2521.790865,9054.714031,9798.490679,-250.344009,-925.247986,-329.399994,-14280.000000,-16800.000000,18480.000000
2091.385673,-4537.806456,1604.207051,-433.601491,2557.240731,1331.471065,4625.268832,-3685.959123,-5167.410394,9770.036908,5321.592727,10310.256220,15824.073949,2462.357576,9011.776329,9757.385821,-250.832001,-926.223999,-337.208008,-11760.000000,-16520.000000,17920.000000
2032.354716,-4601.039541,1554.876751,-505.350590,2487.749158,1268.640312,4548.110610,-3730.707315,-5228.877691,9731.211928,5399.823832,10253.795714,15774.766001,2398.565697,8919.441273,9705.887402,-248.391998,-922.807983,-335.744019,-7980.000000,-16100.000000,17080.000000
2081.260333,-4553.653843,1585.118662,-463.932808,2525.478903,1298.278725,4588.030826,-3705.963934,-5175.926408,9770.908626,5498.596191,10290.877258,15804.538525,2429.858140,8974.851248,9731.703667,-242.535995,-919.880005,-352.335999,-6160.000000,-15680.000000,16520.000000
2141.788857,-4482.575295,1647.301215,-388.942705,2600.178432,1371.100708,4667.692443,-3645.658928,-5115.844919,9836.756866,5638.249891,10354.669136,15866.877540,2502.098978,9065.599330,9789.818202,-238.632004,-919.392029,-356.727997,-5880.000000,-14840.000000,15680.000000
2190.426253,-4439.145856,1702.845300,-345.088583,2646.558302,1420.028677,4706.360961,-3603.011799,-5069.599160,9906.203736,5872.295007,10406.659294,15922.220459,2550.959891,9089.426290,9820.417740,-236.680008,-921.832031,-356.727997,-6020.000000,-14000.000000,15260.000000
2232.738105,-4391.693102,1750.789791,-288.002227,2704.449320,1475.349245,4764.363738,-3553.748554,-5026.214424,9942.458265,5843.863588,10456.324870,15969.740268,2607.398046,9141.081171,9866.954072,-234.240005,-921.832031,-354.776001,-6440.000000,-13720.000000,14980.000000
2263.315292,-4373.185858,1751.885027,-282.861326,2706.572736,1474.186954,4764.721366,-3564.566799,-4992.239772,9947.509759,5751.506180,10464.505609,15970.790800,2606.056941,9151.430029,9867.669328,-227.895996,-924.760010,-358.679993,-5880.000000,-13300.000000,14840.000000
2201.177442,-4428.260556,1693.591677,-345.490914,2644.948977,1414.910128,4697.979057,-3619.060352,-5056.277520,9878.107593,5624.861196,10406.726349,15913.346817,2546.511894,9081.714938,9820.015409,-227.408005,-920.856018,-357.704010,-5460.000000,-12600.000000,14560.000000
2118.855967,-4521.288517,1627.005831,-429.466418,2566.203781,1344.122153,4622.966602,-3672.235152,-5142.197626,9798.200106,5382.702396,10329.568127,15847.587985,2474.427518,8997.538268,9767.488810,-229.360001,-919.392029,-358.679993,-5460.000000,-11060.000000,14140.000000
2052.203065,-4589.394282,1568.779536,-495.471119,2502.478957,1282.677207,4569.814154,-3716.849234,-5210.146929,9741.538434,5352.080506,10264.502199,15788.691138,2411.820282,8944.408172,9726.830986,-225.944000,-920.367981,-361.119995,-4340.000000,-10640.000000,13860.000000
2054.281778,-4580.453584,1571.081766,-493.168890,2505.049408,1283.861850,4570.551761,-3714.524652,-5207.129444,9748.020440,5470.902380,10268.413755,15790.434574,2413.384904,8943.759971,9724.819329,-224.968002,-915.488037,-357.704010,-4060.000000,-9940.000000,13720.000000
2100.438130,-4521.221461,1624.994174,-430.204026,2561.375804,1339.674156,4624.195948,-3664.479096,-5160.526056,9801.083481,5563.013919,10324.628392,15844.302278,2469.510134,9014.480891,9764.314862,-224.968002,-910.608032,-355.264008,-4200.000000,-9380.000000,13440.000000
2163.224180,-4450.142914,1681.320570,-363.417013,2628.095761,1400.135624,4685.082100,-3613.852395,-5094.744872,9866.909369,5786.933695,10388.263808,15900.941599,2530.351583,9076.529333,9807.118452,-219.600006,-910.608032,-354.287994,-3920.000000,-9380.000000,13580.000000
2259.180219,-4368.469640,1743.614881,-297.613477,2695.083939,1461.334701,4745.677679,-3568.880685,-4994.430243,9941.631251,5884.387301,10459.722335,15963.481780,2593.405854,9127.625421,9849.609119,-221.552002,-909.143982,-354.776001,-3640.000000,-7140.000000,12880.000000
2269.260856,-4352.152866,1757.651777,-277.295742,2715.915765,1482.904134,4769.191714,-3555.961377,-4985.981284,9944.559329,5754.903645,10472.932216,15976.803419,2615.109398,9152.212340,9870.172724,-223.016006,-905.728027,-351.360016,-4900.000000,-7560.000000,13020.000000
2212.442721,-4412.726094,1709.774340,-332.348088,2662.718613,1434.624366,4716.754522,-3600.933087,-5047.359174,9892.770337,5667.195400,10422.104349,15929.395369,2565.667339,9100.333941,9834.499339,-222.528000,-907.679993,-350.384003,-6020.000000,-7980.000000,13160.000000
2146.795648,-4475.199220,1652.710337,-389.680313,2605.788720,1378.342674,4663.020928,-3647.067088,-5113.162710,9820.484796,5451.679880,10365.934416,15872.264310,2508.715094,9045.035725,9795.584952,-219.600006,-910.608032,-350.872009,-7140.000000,-8400.000000,13020.000000
2096.548926,-4526.317659,1595.445167,-443.726831,2550.244635,1323.290327,4615.791692,-3691.815280,-5162.113030,9759.620995,5314.887204,10307.931639,15815.312066,2453.014547,9015.106739,9758.592815,-216.671997,-912.559998,-347.944000,-7980.000000,-8260.000000,12740.000000
2058.036871,-4561.208732,1564.532705,-482.596515,2512.805463,1289.203917,4580.364177,-3714.949335,-5201.608563,9735.995202,5438.984089,10271.967682,15784.712527,2418.682268,8981.936751,9728.552071,-221.063995,-912.072021,-342.575989,-8260.000000,-8820.000000,12740.000000
2095.252525,-4523.255470,1602.977705,-443.927997,2552.971548,1328.677097,4618.228032,-3677.577219,-5164.147039,9776.943597,5513.124825,10312.781967,15822.911659,2457.820172,9015.196146,9755.888254,-219.112000,-911.583984,-346.480011,-7840.000000,-8680.000000,12740.000000
2151.936549,-4458.636577,1664.377947,-379.689083,2616.294040,1389.697360,4672.498068,-3627.375201,-5108.513547,9846.837502,5705.796862,10377.534971,15884.334252,2518.929841,9062.783010,9798.177755,-221.063995,-917.440002,-343.552002,-8260.000000,-7980.000000,12880.000000
2197.690570,-4389.860259,1721.218434,-308.319963,2685.651503,1453.221018,4732.534854,-3579.318950,-5063.474782,9905.242611,5888.701187,10439.516358,15940.727704,2584.152232,9118.036523,9843.328278,-225.944000,-914.023987,-346.968018,-7980.000000,-7700.000000,12320.000000
2249.792486,-4357.137305,1759.216399,-275.641713,2722.643640,1492.604791,4772.678587,-3550.418145,-5008.400084,9938.524358,5786.151384,10482.521115,15978.613911,2623.446598,9154.112238,9874.687776,-223.016006,-917.440002,-345.015991,-7280.000000,-7140.000000,12180.000000
2244.875103,-4386.507498,1729.980317,-314.421989,2685.226820,1457.847829,4741.989641,-3583.006988,-5009.249450,9914.965619,5708.590830,10454.782600,15949.824864,2587.728511,9130.665258,9850.726706,-225.944000,-917.928040,-345.015991,-6160.000000,-5880.000000,11760.000000
2183.787785,-4445.180827,1666.590770,-376.939818,2621.434941,1393.586563,4677.013120,-3638.863997,-5072.594294,9843.104761,5534.537796,10388.219105,15886.457668,2523.288432,9072.595426,9800.927019,-227.408005,-920.856018,-345.503998,-5040.000000,-4340.000000,11340.000000
2116.620793,-4499.696732,1615.673496,-422.358563,2575.412700,1346.826714,4636.221187,-3680.438242,-5143.672841,9773.456725,5317.100026,10337.950032,15835.071008,2476.461527,9042.085295,9770.238074,-230.824005,-923.296021,-346.968018,-3780.000000,-2800.000000,10920.000000
2067.424603,-4547.194188,1571.729967,-471.398291,2527.490560,1301.855004,4593.417596,-3716.402199,-5191.572629,9735.749332,5391.106652,10291.838383,15791.798030,2430.774561,9001.561582,9737.045734,-229.360001,-921.832031,-345.503998,-1820.000000,-700.000000,10080.000000
2105.109645,-4521.556738,1591.824185,-462.189372,2537.906472,1313.790836,4598.334980,-3702.544117,-5149.417239,9766.281815,5485.006331,10312.290229,15811.601676,2442.576282,8995.258390,9740.398495,-232.776001,-920.856018,-343.552002,-280.000000,980.000000,9660.000000
2165.906389,-4462.414022,1651.726860,-403.627801,2596.579802,1371.950075,4653.253216,-3651.962120,-5089.514564,9833.672325,5628.593937,10372.684642,15871.392592,2500.802577,9045.639222,9781.928036,-235.216003,-918.903992,-340.623993,1680.000000,2380.000000,9100.000000
2218.097713,-4400.410283,1707.159186,-343.166333,2652.660328,1427.360049,4701.689446,-3602.140081,-5038.731401,9901.867497,5861.141486,10429.726294,15927.137843,2556.011385,9103.060854,9818.026104,-238.143997,-919.392029,-342.575989,3080.000000,3780.000000,8540.000000
2261.258931,-4329.287032,1759.171696,-273.741814,2721.056667,1486.167489,4758.887560,-3556.386060,-4997.179508,9941.363030,5832.374791,10492.758214,15978.435097,2616.852834,9159.499009,9857.499284,-242.535995,-915.000000,-337.696014,4900.000000,4340.000000,8260.000000
2232.313422,-4368.067308,1746.364146,-290.885602,2710.864271,1475.952742,4759.111078,-3578.626046,-5028.404895,9922.453454,5726.561633,10477.290806,15966.141637,2607.599212,9141.394096,9856.649918,-243.024002,-915.976013,-334.768005,6020.000000,5600.000000,8120.000000
2196.662390,-4426.606527,1694.016361,-352.352900,2652.794439,1423.381439,4708.149100,-3632.918433,-5059.965558,9869.993910,5611.383094,10421.992591,15914.240886,2553.552694,9087.794612,9823.010543,-247.904007,-918.416016,-332.328003,6720.000000,6160.000000,7980.000000
2154.238779,-4470.035967,1641.199188,-417.329421,2587.214421,1367.703243,4643.329041,-3675.252637,-5100.623381,9801.731682,5373.761698,10366.157933,15860.507293,2495.169937,9021.409931,9780.452821,-250.344009,-923.296021,-324.519989,7000.000000,6300.000000,7700.000000
2095.006656,-4525.624755,1584.090481,-483.937619,2518.728676,1302.167928,4578.307817,-3716.737475,-5163.141210,9745.874673,5343.475085,10306.679941,15803.800917,2428.271166,8962.490733,9736.799864,-251.320007,-925.736023,-325.984009,7560.000000,5880.000000,7560.000000
2075.828859,-4534.051363,1574.926266,-484.071730,2516.202929,1290.522670,4574.709186,-3717.855062,-5183.637760,9740.197330,5458.608920,10300.488508,15794.457888,2418.078770,8961.015518,9729.356733,-253.272003,-925.247986,-319.640015,7560.000000,5740.000000,7420.000000
2111.256374,-4477.255580,1629.442171,-414.982488,2585.426281,1353.912217,4639.171617,-3672.101041,-5150.803048,9791.002845,5550.362831,10361.195846,15849.130255,2483.457623,9020.001771,9768.271121,-255.712006,-929.152039,-317.200012,7280.000000,5460.000000,7000.000000
2165.951093,-4445.270234,1688.875459,-370.390757,2634.376602,1412.585546,4685.149155,-3614.791169,-5094.677817,9868.652805,5787.738358,10413.655390,15909.032930,2540.119295,9066.046365,9808.861889,-257.664001,-925.247986,-315.248016,7980.000000,6020.000000,6580.000000
2269.551429,-4349.716526,1752.734393,-299.066341,2702.862347,1474.499878,4745.342403,-3566.600807,-4980.639217,9942.480617,5887.024806,10485.717414,15971.841332,2603.911174,9127.848938,9857.812209,-262.056000,-926.712036,-319.640015,7840.000000,6720.000000,5880.000000
2297.222888,-4326.001325,1766.592475,-280.246172,2721.704867,1492.493033,4768.856438,-3558.285959,-4953.750068,9949.007326,5759.172828,10504.895211,15985.610007,2622.396066,9150.491256,9874.799535,-259.615997,-927.200012,-317.688019,7980.000000,7420.000000,5180.000000
2237.163751,-4382.685349,1714.691724,-329.934100,2671.681663,1443.565064,4725.404647,-3601.916564,-5017.497244,9893.060910,5670.950493,10451.452190,15934.424512,2572.484621,9117.053046,9841.607194,-263.519989,-928.176025,-319.640015,8960.000000,8400.000000,4620.000000
2157.591541,-4449.315900,1652.039784,-389.948534,2611.577822,1383.327113,4669.055899,-3654.241998,-5099.706960,9811.588801,5451.545769,10386.363910,15871.929034,2512.313725,9067.722746,9798.133051,-264.496002,-923.783997,-316.712006,9520.000000,9940.000000,4060.000000
2083.450804,-4518.271031,1593.142938,-451.728755,2549.238807,1324.184397,4611.477806,-3702.879393,-5177.312216,9744.466513,5308.718122,10322.549680,15812.495746,2451.874608,9014.458539,9754.278929,-264.007996,-924.760010,-319.640015,9660.000000,10920.000000,3500.000000
2084.434281,-4529.268089,1574.859211,-484.719930,2517.275812,1294.277763,4571.356424,-3726.438132,-5170.405527,9740.465550,5440.548711,10307.238735,15794.010853,2421.006849,8963.809486,9724.215832,-263.519989,-919.880005,-322.567993,10360.000000,12600.000000,3080.000000
2153.255302,-4459.418888,1624.815360,-428.997031,2572.417566,1345.597368,4621.692553,-3681.712291,-5097.829413,9792.053377,5517.394008,10366.314395,15843.743484,2473.131117,9009.831728,9762.325557,-262.056000,-920.367981,-324.519989,11060.000000,13720.000000,2800.000000
2193.801367,-4407.562841,1680.717073,-361.360653,2638.757543,1410.283316,4692.726397,-3623.485997,-5061.776049,9854.325337,5702.935839,10421.836128,15900.114584,2538.711135,9090.096842,9814.226307,-261.080017,-916.952026,-324.519989,11760.000000,14560.000000,2520.000000
2238.214283,-4360.065384,1733.511893,-303.134358,2696.559155,1466.565009,4748.717517,-3574.423918,-5017.609002,9915.658524,5886.980103,10473.893341,15952.887053,2595.238697,9147.630232,9855.621738,-258.640015,-914.023987,-326.472015,12600.000000,15540.000000,2100.000000
2276.055786,-4317.239442,1770.794603,-255.569846,2742.804914,1508.698047,4789.978837,-3544.226711,-4979.454575,9941.228919,5785.659645,10514.729978,15990.169762,2637.707011,9190.567933,9886.958884,-259.127991,-915.000000,-328.912018,12740.000000,16100.000000,1960.000000
2245.590358,-4361.205323,1739.546864,-298.529899,2703.085864,1475.036320,4753.724307,-3576.524982,-5009.472967,9907.500137,5706.020380,10482.163487,15959.033782,2602.860642,9152.055878,9859.712107,-255.712006,-913.536011,-326.472015,13160.000000,16380.000000,2100.000000
2187.140547,-4421.867957,1675.956151,-374.101147,2628.296927,1403.935421,4679.248295,-3633.700744,-5067.162820,9835.840444,5533.308450,10416.806986,15895.666587,2531.446818,9062.537141,9807.364322,-250.344009,-915.000000,-328.424011,13020.000000,16800.000000,1960.000000
2129.405991,-4471.734699,1620.881453,-426.493636,2574.406871,1350.157124,4625.626460,-3681.756995,-5125.947908,9767.242940,5317.010619,10362.179323,15841.150682,2476.662693,9008.490623,9768.181714,-246.440002,-916.463989,-328.424011,13300.000000,16940.000000,1820.000000
2085.685979,-4532.866720,1573.473403,-488.586782,2515.107693,1297.004676,4573.971578,-3718.346801,-5168.997368,9730.004934,5391.777204,10310.390331,15793.921446,2422.303250,8957.081611,9728.842643,-244.975998,-913.536011,-329.399994,13580.000000,16940.000000,1960.000000
2112.038685,-4494.220554,1597.725045,-454.679186,2545.282548,1320.988097,4599.027884,-3696.509146,-5141.392963,9756.379993,5481.318293,10337.659459,15817.256667,2446.733707,8984.127222,9743.326574,-245.464005,-916.463989,-328.424011,13860.000000,16660.000000,1960.000000
2176.031730,-4428.640536,1659.684081,-391.803729,2608.672095,1383.952961,4655.488390,-3645.390707,-5077.221105,9825.469235,5624.637678,10402.323056,15878.969834,2509.899737,9032.988135,9786.241923,-243.024002,-914.512024,-326.472015,13580.000000,16380.000000,1820.000000
2211.280431,-4406.802882,1705.236936,-353.291673,2650.268692,1426.287165,4703.209365,-3604.598773,-5044.520503,9885.014282,5853.318376,10443.226748,15923.963895,2553.217417,9076.350519,9819.456615,-243.512009,-914.512024,-328.424011,13720.000000,15960.000000,1680.000000
2240.225940,-4362.881704,1748.554617,-291.310285,2709.523166,1480.937181,4762.285025,-3560.297616,-5016.759636,9919.793596,5826.049248,10489.316045,15967.929777,2608.850909,9141.975241,9860.852046,-246.440002,-915.488037,-328.912018,13860.000000,15540.000000,1540.000000
2234.012155,-4367.530867,1745.425373,-300.385094,2703.510547,1480.087814,4754.283101,-3561.169334,-5025.990906,9907.813061,5723.253575,10486.767946,15964.487608,2607.219232,9132.587508,9867.468162,-242.535995,-915.976013,-325.984009,13580.000000,15260.000000,1400.000000
2193.108462,-4415.855338,1694.552802,-357.873780,2643.563168,1423.023811,4695.520365,-3613.315953,-5063.094802,9852.380735,5603.448224,10437.102370,15912.899782,2549.238807,9072.371909,9828.218499,-242.535995,-916.463989,-329.888000,13440.000000,15120.000000,980.000000
2165.951093,-4434.943728,1645.267206,-396.497595,2598.703217,1372.710034,4647.262948,-3663.316806,-5085.580657,9793.372130,5368.218466,10394.365835,15863.636537,2498.477995,9038.844292,9787.359510,-242.535995,-913.536011,-326.959991,13160.000000,14840.000000,700.000000
2107.881261,-4498.556793,1593.075883,-453.941578,2544.164961,1318.954089,4599.676084,-3708.020295,-5144.902187,9743.103056,5344.279748,10338.419418,15811.646379,2443.984442,8999.885201,9746.187597,-244.000000,-912.559998,-321.592010,13020.000000,14840.000000,420.000000
2111.971630,-4486.822127,1594.372284,-452.265197,2544.746106,1318.149426,4593.238782,-3709.294344,-5141.437667,9747.104019,5468.041357,10342.375677,15812.808670,2444.543236,8982.070861,9741.359620,-241.559998,-911.583984,-325.496002,12320.000000,14420.000000,420.000000
2159.849067,-4439.414077,1645.490723,-408.500482,2591.841232,1369.021996,4635.371820,-3663.540323,-5095.683646,9803.229249,5563.483305,10392.443584,15864.575310,2495.326399,9006.635428,9776.943597,-245.951996,-912.559998,-322.080017,11900.000000,13720.000000,280.000000
2196.505928,-4424.103132,1696.229183,-365.786298,2637.349384,1417.838206,4694.939219,-3609.739674,-5063.027747,9871.156200,5791.649913,10433.302573,15915.112605,2543.248539,9074.517676,9820.887127,-244.975998,-912.072021,-326.472015,11340.000000,13440.000000,140.000000
2251.781792,-4359.841866,1751.817972,-298.641658,2702.191794,1476.980922,4757.546456,-3559.157677,-5004.913211,9929.114274,5881.906257,10493.384062,15970.343765,2603.732360,9139.360087,9867.155238,-240.096008,-914.023987,-319.152008,10500.000000,13160.000000,-140.000000
2273.306522,-4320.011058,1770.101699,-267.818602,2730.198530,1500.003219,4775.316092,-3550.082868,-4982.315598,9933.964602,5753.964872,10521.502557,15988.560437,2627.805189,9154.849846,9880.946264,-251.807999,-912.072021,-315.735992,9940.000000,13580.000000,-420.000000
2224.982050,-4356.913788,1724.459436,-303.201414,2692.692303,1462.653454,4735.999374,-3590.383064,-5033.054058,9880.231009,5662.926216,10480.621216,15942.873471,2589.851927,9119.690552,9850.413781,-243.024002,-915.976013,-316.223999,9520.000000,12040.000000,-140.000000
2169.952055,-4434.720210,1663.528581,-379.733787,2619.915023,1397.565174,4668.832382,-3642.484980,-5086.519430,9811.342932,5446.293109,10416.203489,15882.121430,2523.377839,9046.510940,9802.044606,-244.488007,-919.392029,-315.248016,8540.000000,11340.000000,0.000000
2132.155255,-4482.061205,1607.492758,-441.223436,2557.240731,1336.097877,4611.567213,-3692.396425,-5120.807006,9751.462609,5307.421721,10360.905273,15826.242069,2460.904713,8999.013483,9758.078725,-246.440002,-917.928040,-313.295990,8260.000000,11200.000000,-140.000000
2104.953182,-4502.691865,1582.145880,-464.044567,2533.883158,1311.622716,4588.813137,-3710.054303,-5149.976033,9730.228452,5433.507911,10336.586575,15800.202286,2436.183683,8980.774460,9738.722114,-246.928009,-918.903992,-315.248016,7980.000000,10640.000000,0.000000
2143.174665,-4456.915493,1621.306136,-417.955270,2578.340778,1353.621644,4628.353373,-3672.033986,-5110.771073,9772.227379,5511.426093,10379.636035,15839.988391,2478.674350,9018.995943,9767.667623,-244.488007,-924.272034,-310.856018,7560.000000,10500.000000,0.000000
2186.514698,-4412.591983,1677.833698,-359.036071,2637.528197,1414.060761,4690.982961,-3616.668715,-5069.733270,9837.069790,5700.991237,10434.822492,15895.778346,2538.889949,9082.698415,9814.874508,-243.512009,-922.807983,-310.368011,7420.000000,10640.000000,-140.000000
2241.343527,-4362.747593,1736.238806,-305.749512,2693.161689,1469.358977,4745.342403,-3567.740746,-5016.066732,9907.433082,5891.383397,10496.468603,15953.803474,2594.746959,9124.965563,9856.873436,-247.904007,-923.783997,-313.295990,7280.000000,11060.000000,-420.000000
2283.521269,-4329.197625,1775.510821,-268.399747,2731.114952,1506.015838,4782.759223,-3538.147037,-4974.805412,9944.022887,5791.001712,10539.607470,15993.254303,2632.208482,9153.821666,9887.316512,-248.391998,-922.320007,-311.343994,7420.000000,11340.000000,-700.000000
2247.557312,-4347.168427,1740.485637,-290.438567,2703.599954,1474.835154,4760.273368,-3573.395738,-5009.830595,9906.091977,5709.283734,10503.487051,15958.787913,2601.363075,9147.384363,9866.596444,-245.464005,-921.832031,-317.688019,6860.000000,11480.000000,-560.000000
2181.507907,-4425.891271,1674.056253,-367.216810,2628.408686,1403.957773,4685.439728,-3643.647271,-5077.399919,9832.599441,5538.561110,10433.079056,15891.844439,2529.725734,9070.851990,9806.850232,-247.416000,-919.392029,-317.200012,6860.000000,11340.000000,-560.000000
2126.388505,-4475.735661,1617.439284,-431.254558,2563.968606,1345.440906,4612.014247,-3687.300228,-5131.759361,9763.733716,5321.570375,10376.775012,15835.406284,2469.554838,8994.476079,9758.503408,-244.975998,-921.343994,-318.175995,6440.000000,11060.000000,-420.000000
2068.206914,-4528.195206,1568.913647,-494.085311,2504.065931,1292.131995,4547.440058,-3717.676248,-5190.656208,9718.784358,5389.854954,10324.270764,15787.059461,2414.390733,8916.356732,9719.700780,-244.975998,-920.367981,-318.175995,6580.000000,10780.000000,-420.000000
2092.369150,-4515.298249,1590.348970,-470.750090,2528.630498,1313.254394,4577.257285,-3694.676303,-5165.935179,9742.633670,5477.294979,10348.209482,15807.846583,2435.960166,8939.848416,9737.001030,-243.512009,-921.832031,-319.152008,6580.000000,10500.000000,-280.000000
2153.121192,-4461.519952,1651.637453,-400.453854,2597.786796,1378.789708,4654.504914,-3638.372259,-5104.534936,9811.834671,5619.183853,10412.180175,15868.933900,2502.456606,9023.131016,9789.125298,-243.512009,-923.296021,-319.640015,6160.000000,9940.000000,-280.000000
2214.990820,-4393.391835,1709.930803,-338.718335,2657.376547,1435.674898,4713.111188,-3589.600753,-5043.537026,9886.243628,5855.911178,10472.731051,15927.271953,2559.945292,9083.592484,9831.928889,-242.535995,-923.783997,-315.248016,6020.000000,9520.000000,0.000000
2267.182144,-4338.473599,1762.077422,-275.731120,2719.067361,1492.202460,4766.733023,-3551.602787,-4991.077482,9936.646812,5835.906367,10532.141987,15979.373870,2617.903366,9145.149189,9871.357366,-242.535995,-922.807983,-319.640015,5740.000000,8680.000000,280.000000
2250.172466,-4368.939026,1750.834495,-293.701922,2702.728236,1479.506669,4753.009051,-3569.618293,-5012.401046,9919.458320,5730.629650,10520.764949,15968.399163,2604.380560,9127.513662,9861.768468,-238.143997,-925.736023,-320.615997,5180.000000,7420.000000,420.000000
2205.290163,-4403.092492,1696.407997,-341.869931,2649.776953,1425.348392,4696.034455,-3620.893195,-5054.109401,9857.812209,5607.024504,10471.367594,15913.302113,2549.775249,9072.885999,9819.747188,-238.632004,-925.736023,-325.496002,5040.000000,6720.000000,420.000000
2171.673140,-4429.087571,1646.317738,-383.377121,2607.509805,1382.365988,4651.621539,-3658.332367,-5085.714768,9792.053377,5368.374928,10431.581489,15863.390668,2506.591678,9036.854987,9791.539287,-239.119995,-925.247986,-322.567993,5040.000000,5880.000000,280.000000
2113.625659,-4512.750150,1590.661894,-456.914360,2539.091115,1322.798589,4592.188250,-3697.425568,-5148.053783,9741.091399,5348.459524,10369.890674,15808.673597,2445.213788,8970.649120,9753.206045,-237.656006,-923.783997,-327.936005,5180.000000,5180.000000,140.000000
2096.168947,-4507.676304,1590.617191,-452.108735,2540.745144,1321.233966,4593.730520,-3692.150556,-5161.107202,9740.152626,5468.264874,10361.598177,15807.645417,2444.096201,8970.559713,9753.697783,-235.216003,-927.687988,-327.936005,5040.000000,4340.000000,0.000000
2151.847142,-4437.089495,1646.697718,-394.418883,2596.490395,1375.526354,4645.877140,-3647.558826,-5103.037370,9801.888144,5564.936169,10412.470748,15863.703592,2498.500347,9016.604306,9788.454746,-232.776001,-927.687988,-330.864014,5180.000000,3500.000000,-280.000000
2210.095788,-4397.929239,1705.236936,-343.076926,2649.575788,1428.991727,4703.991676,-3601.961267,-5047.962671,9882.488535,5800.031817,10471.859333,15921.952238,2552.412755,9075.478801,9827.078560,-234.240005,-925.247986,-330.864014,4900.000000,2800.000000,-420.000000
2283.878897,-4337.601881,1766.279550,-283.777748,2711.110140,1488.804995,4761.122735,-3556.207246,-4973.419604,9948.716754,5892.612742,10546.312993,15983.151315,2612.315430,9124.339715,9872.318491,-234.240005,-925.247986,-333.791992,5320.000000,1260.000000,-560.000000
2298.072254,-4322.961488,1784.049187,-260.375471,2732.523111,1509.480358,4784.212087,-3542.460923,-4963.540132,9955.221111,5763.509067,10569.759973,16001.010358,2633.057849,9156.258006,9893.910276,-233.264008,-919.392029,-340.623993,5600.000000,140.000000,-560.000000
2243.355184,-4356.891436,1733.802466,-286.191736,2699.107253,1471.258875,4753.791362,-3579.207191,-5014.479758,9897.374797,5672.492763,10520.630839,15950.674230,2594.970476,9142.176407,9870.664462,-231.800003,-919.392029,-336.720001,5880.000000,-2380.000000,-140.000000
2218.164768,-4381.187782,1681.320570,-342.629891,2644.010203,1418.128779,4690.982961,-3627.822236,-5033.277575,9832.666496,5455.680842,10476.664958,15897.655892,2541.370993,9064.369984,9826.408008,-236.680008,-918.416016,-335.256012,5460.000000,-5740.000000,700.000000
2165.235837,-4439.190559,1627.385810,-405.393589,2583.258162,1360.349519,4634.254233,-3671.028158,-5090.252172,9773.032042,5315.982439,10425.859442,15844.212871,2482.608257,9000.958085,9788.074766,-234.240005,-915.000000,-329.888000,3780.000000,-8820.000000,1540.000000
2128.735438,-4467.532571,1598.328543,-448.018366,2542.645042,1325.659612,4589.059006,-3694.385731,-5128.697172,9752.982527,5444.952005,10393.695282,15816.496708,2446.040803,8936.696820,9756.424696,-236.192001,-910.608032,-322.080017,140.000000,-13580.000000,2660.000000
2139.531331,-4485.905705,1625.620022,-436.775438,2557.017214,1344.300967,4607.655657,-3665.172001,-5118.817701,9787.359510,5521.014991,10401.384282,15843.385857,2464.302178,8951.851303,9768.964025,-233.264008,-915.000000,-312.320007,-3920.000000,-16940.000000,3780.000000
2196.371817,-4432.954423,1686.394416,-359.281940,2629.928604,1410.462130,4692.636990,-3606.923354,-5059.317357,9857.633395,5711.653019,10458.113010,15903.780270,2531.625632,9068.572112,9826.698581,-230.824005,-917.440002,-303.536011,-10080.000000,-20580.000000,4340.000000
2252.228827,-4365.005119,1747.124105,-286.437605,2699.978971,1475.505707,4760.787459,-3560.789354,-5006.030799,9924.196890,5894.512641,10525.771740,15963.280614,2597.317409,9147.429067,9871.916160,-231.800003,-914.512024,-299.144012,-14700.000000,-23380.000000,4200.000000
2293.847775,-4315.473654,1784.563277,-243.768125,2742.737859,1517.415228,4793.108081,-3534.414295,-4964.344795,9950.616652,5784.832631,10576.152572,16000.920951,2639.673965,9170.205494,9898.335922,-230.824005,-908.168030,-300.608002,-20020.000000,-23940.000000,3640.000000
2258.643777,-4350.074154,1749.091059,-279.955599,2706.192756,1483.194707,4758.485229,-3565.662034,-4999.660552,9913.713922,5702.622915,10542.222624,15966.052230,2605.341685,9133.883909,9874.799535,-229.848007,-900.359985,-309.880005,-23940.000000,-22540.000000,1960.000000
2199.322247,-4417.330553,1685.455642,-355.035109,2631.672040,1413.054933,4683.919809,-3627.129331,-5056.031651,9842.680078,5533.464913,10468.752440,15902.394462,2534.307842,9055.496342,9816.349723,-230.335999,-889.135986,-318.664001,-25200.000000,-19460.000000,140.000000
2111.479892,-4509.352685,1617.953374,-432.260386,2556.726641,1343.831580,4620.574966,-3679.119489,-5147.316175,9758.570463,5312.182642,10383.234666,15835.406284,2463.117535,8997.001826,9766.393574,-231.800003,-874.007996,-337.696014,-23660.000000,-13160.000000,-3080.000000
2052.761859,-4560.024090,1572.355815,-487.580954,2499.774396,1289.136861,4561.365194,-3722.012487,-5207.308257,9720.125463,5388.759719,10333.367924,15790.009891,2407.707561,8930.795959,9720.639553,-239.119995,-863.760010,-348.920013,-20300.000000,-6580.000000,-5880.000000
2084.277819,-4516.929927,1600.049627,-452.265197,2531.625632,1315.534272,4582.956980,-3704.220498,-5173.624179,9749.629766,5479.932485,10369.175419,15817.413129,2435.021393,8953.594739,9732.374219,-235.704010,-851.559998,-370.391998,-13160.000000,-1960.000000,-7700.000000
2120.532348,-4454.814429,1658.141811,-379.219696,2603.374732,1383.997665,4650.459248,-3648.765820,-5143.605786,9805.106795,5615.451111,10432.788483,15875.617072,2503.797710,9024.606231,9780.251656,-233.264008,-848.143982,-382.104004,-4060.000000,3780.000000,-9660.000000
2186.961733,-4424.505463,1706.578041,-353.783411,2635.024802,1423.202625,4683.785699,-3606.230450,-5069.822677,9877.817020,5851.932568,10475.994405,15923.852137,2542.041545,9046.175664,9807.878412,-231.800003,-843.264038,-401.623993,3640.000000,7700.000000,-11060.000000
2268.500897,-4353.426916,1756.757707,-292.271410,2694.100463,1475.461003,4743.174284,-3561.124630,-4980.125127,9928.086093,5828.172663,10530.644420,15973.674175,2596.177470,9109.095825,9851.888997,-226.432007,-844.728027,-413.824005,14840.000000,12740.000000,-12600.000000
2252.586454,-4376.963303,1743.570178,-310.197510,2677.269599,1462.653454,4729.092685,-3572.971055,-5000.487566,9912.015189,5723.007706,10512.383045,15961.000736,2582.766424,9096.802365,9844.669383,-225.944000,-851.559998,-425.536011,23660.000000,16800.000000,-13720.000000
2183.988951,-4450.724059,1685.768567,-372.737691,2613.835348,1400.090921,4667.334815,-3630.169169,-5072.750756,9850.167912,5606.599820,10447.942966,15903.377939,2519.779208,9042.331164,9799.071824,-221.063995,-862.296021,-424.071991,35280.000000,21560.000000,-14840.000000
2127.260223,-4511.520804,1630.313889,-434.674374,2553.038603,1342.356365,4608.817948,-3678.761861,-5130.775884,9783.000920,5373.381719,10389.224933,15848.370296,2461.172934,8981.690881,9756.603510,-231.311996,-871.080017,-417.239990,46760.000000,27020.000000,-16100.000000
2055.153496,-4585.750948,1575.507411,-501.081407,2488.218545,1282.632504,4548.021203,-3721.833673,-5209.006990,9728.730885,5346.827846,10326.595345,15793.206190,2400.018561,8911.372293,9715.543355,-226.432007,-880.351990,-409.920013,54460.000000,27300.000000,-15820.000000
2048.716193,-4581.660578,1572.378167,-500.924945,2486.698626,1279.145632,4543.573206,-3719.889071,-5211.309220,9729.647306,5465.359147,10322.437921,15789.138173,2396.799910,8905.002046,9711.788262,-232.776001,-891.088013,-399.183990,64260.000000,28560.000000,-16380.000000
2112.508072,-4517.712238,1625.888243,-445.112639,2542.980318,1334.600310,4596.233916,-3668.971797,-5144.231635,9788.588856,5559.504695,10379.658387,15842.827063,2452.299291,8951.068992,9752.110809,-237.167999,-901.335999,-392.351990,70420.000000,29820.000000,-17220.000000
2170.890828,-4463.688071,1681.499384,-383.444176,2603.374732,1392.759549,4661.210437,-3614.321782,-5085.424195,9858.415706,5787.403081,10433.213166,15897.767651,2511.039676,9024.226251,9799.317694,-240.584000,-912.072021,-375.272003,76580.000000,28980.000000,-17500.000000
2231.329945,-4395.381140,1738.943367,-313.572623,2671.391090,1455.836172,4723.460045,-3564.969130,-5024.314526,9916.396131,5875.066623,10494.501650,15954.764599,2575.256237,9079.166839,9846.256357,-244.975998,-924.272034,-367.951996,80920.000000,26740.000000,-17500.000000
2260.342510,-4373.163506,1757.987053,-300.943887,2687.484346,1473.561105,4733.674792,-3555.894322,-4995.324313,9928.957811,5751.014441,10517.792167,15974.255320,2593.316447,9072.953054,9859.130962,-247.904007,-932.080017,-351.360016,81900.000000,24500.000000,-17220.000000
2191.722654,-4439.749353,1704.655791,-343.568664,2642.266767,1426.778904,4700.482452,-3593.355846,-5067.229875,9868.026956,5659.372289,10459.051783,15922.086349,2546.266025,9061.799534,9833.001773,-250.344009,-942.328003,-338.671997,79940.000000,21840.000000,-16940.000000
2139.643090,-4494.645237,1645.289558,-399.515080,2585.470985,1372.084185,4649.073440,-3640.227454,-5116.180195,9796.344912,5442.649775,10398.120928,15861.848397,2490.297257,9024.047437,9793.550944,-251.320007,-953.064026,-323.544006,77840.000000,19600.000000,-16240.000000
2087.228249,-4552.804476,1587.622057,-465.005692,2520.092132,1309.834577,4588.589619,-3689.647161,-5168.997368,9734.832911,5304.448939,10337.078313,15803.867972,2426.930061,8965.754088,9749.383897,-249.856003,-957.944031,-316.712006,73360.000000,16240.000000,-15540.000000
2048.962062,-4584.722767,1560.375280,-488.184451,2495.639324,1284.331236,4568.048366,-3708.087350,-5210.370446,9715.543355,5431.272737,10305.137671,15777.090583,2401.382017,8952.521855,9729.960231,-246.440002,-964.288025,-310.368011,66360.000000,13720.000000,-14560.000000
2096.593630,-4551.597482,1602.061284,-456.892008,2528.518740,1319.445827,4599.206698,-3674.135050,-5160.011966,9762.437315,5508.900345,10342.018049,15818.597772,2436.362497,8975.924131,9752.244920,-245.951996,-968.679993,-296.704010,59220.000000,11480.000000,-13580.000000
2173.237762,-4466.459688,1667.306026,-388.160394,2594.903421,1381.293104,4655.287225,-3623.910680,-5079.210410,9838.165025,5703.137005,10411.777843,15883.842514,2498.902678,9024.807397,9793.841516,-241.559998,-973.559998,-284.503998,49980.000000,8120.000000,-12460.000000
2215.840187,-4426.226548,1722.090152,-331.454019,2653.442640,1439.027660,4712.999429,-3575.362691,-5040.027802,9900.124061,5886.510716,10465.220864,15937.956087,2557.061917,9077.691624,9837.829749,-238.143997,-974.536011,-276.208008,44100.000000,6300.000000,-11620.000000
2264.678748,-4388.452099,1758.523495,-297.881698,2687.327884,1472.488221,4741.095572,-3550.887531,-4989.021121,9932.221166,5783.111546,10505.521060,15974.568245,2591.349493,9094.075453,9861.768468,-237.656006,-967.216003,-270.839996,38360.000000,4480.000000,-10640.000000
2227.619556,-4412.927260,1726.426390,-323.742667,2659.455259,1444.392078,4715.301659,-3578.871915,-5028.583709,9895.854878,5701.438272,10474.653301,15943.476968,2563.186295,9068.974444,9842.724781,-238.143997,-965.752014,-267.912018,34160.000000,3080.000000,-9800.000000
2145.543950,-4482.463537,1663.036843,-385.500537,2598.032665,1385.249363,4658.774097,-3629.163340,-5113.341524,9818.115511,5525.977078,10406.949867,15879.863904,2503.417731,9007.596553,9799.720025,-239.119995,-955.992004,-267.912018,31500.000000,2380.000000,-9520.000000
2103.589726,-4523.791912,1608.386828,-458.546038,2526.372972,1318.931737,4573.122212,-3686.763786,-5150.490123,9755.843551,5314.306058,10350.310546,15825.102130,2435.960166,8894.273209,9739.303260,-244.000000,-950.624023,-279.136017,28280.000000,1680.000000,-9100.000000
2040.356641,-4603.788805,1556.262559,-520.102742,2466.470297,1263.521762,4523.389581,-3722.660687,-5217.835929,9712.257649,5389.072643,10286.317502,15773.380193,2378.896162,8857.973976,9700.411224,-244.000000,-939.888000,-279.623993,25900.000000,980.000000,-8960.000000
2051.577217,-4611.366047,1570.835897,-508.949221,2478.964922,1277.715120,4555.218465,-3694.922172,-5205.296600,9733.044771,5476.467964,10292.196011,15787.260626,2392.597782,8908.354808,9719.678428,-244.975998,-930.616028,-290.360016,22400.000000,140.000000,-8820.000000
2094.716083,-4560.962863,1628.972784,-434.652023,2550.289339,1342.401068,4632.644908,-3637.545244,-5164.974053,9793.282723,5610.377265,10350.064677,15845.241051,2458.870704,9001.650989,9772.964987,-250.344009,-923.296021,-295.727997,18620.000000,-700.000000,-8680.000000
2165.638169,-4464.023347,1687.199078,-356.219751,2623.066619,1407.735218,4692.726397,-3591.344189,-5085.603009,9863.780125,5840.332012,10419.131567,15903.243828,2525.277737,9061.486609,9816.461482,-249.367996,-916.952026,-298.656006,15820.000000,-1820.000000,-8680.000000
2257.861466,-4364.133401,1744.196027,-289.946829,2687.886678,1468.509611,4739.039211,-3554.799086,-4987.478851,9919.167747,5818.561413,10489.517211,15959.905500,2587.348531,9090.968560,9852.827770,-246.440002,-913.048035,-302.071991,12600.000000,-2380.000000,-8820.000000
2245.366841,-4398.197460,1733.377783,-324.547329,2660.461087,1449.287110,4711.054827,-3570.981749,-5005.226136,9907.500137,5717.911508,10472.306367,15949.444884,2566.784926,9047.829693,9838.612060,-253.272003,-913.536011,-305.000000,10640.000000,-3360.000000,-9100.000000
2149.611968,-4499.517918,1668.267151,-383.779452,2600.357246,1389.250325,4670.911094,-3615.282907,-5106.837166,9833.761732,5592.093538,10395.148146,15884.669529,2506.479920,9033.524577,9806.470252,-250.832001,-915.000000,-313.783997,9800.000000,-4200.000000,-9520.000000
2110.541118,-4523.478988,1619.607403,-424.683145,2554.603226,1340.702336,4618.004515,-3664.680262,-5140.722411,9774.171981,5360.462411,10350.042325,15835.450987,2457.864876,8982.383786,9766.661795,-253.272003,-914.512024,-314.760010,9520.000000,-4760.000000,-10360.000000
2057.053394,-4593.261134,1566.007920,-509.150387,2476.327416,1273.736510,4537.895863,-3718.257394,-5200.088644,9725.668696,5335.070829,10289.424394,15783.192609,2388.663875,8877.129421,9709.933068,-250.344009,-914.023987,-312.808014,10220.000000,-5180.000000,-10920.000000
2012.640478,-4661.702175,1553.803868,-530.563358,2458.133096,1258.023233,4541.382735,-3711.373056,-5250.380069,9716.862108,5449.779981,10263.541074,15770.630928,2372.749433,8880.549238,9711.385931,-249.367996,-917.440002,-306.951996,11200.000000,-6020.000000,-11620.000000
2098.135900,-4527.099970,1614.511205,-427.767685,2549.305862,1334.667365,4620.574966,-3657.728870,-5149.193722,9774.998996,5541.980927,10340.386372,15831.025342,2451.762849,8983.031986,9764.404269,-243.512009,-914.512024,-308.903992,11760.000000,-6720.000000,-12180.000000
2168.990930,-4471.019443,1670.368215,-379.510269,2600.603116,1389.339732,4672.386309,-3611.863090,-5079.635093,9848.044497,5768.851133,10394.432890,15886.591779,2505.809367,9038.129036,9801.530516,-243.512009,-917.440002,-308.416016,13300.000000,-7560.000000,-12880.000000
2205.133701,-4425.488940,1723.699477,-317.327716,2661.377509,1446.493142,4724.979964,-3569.037148,-5048.946148,9902.560401,5854.659480,10445.394867,15939.543061,2563.655682,9086.095880,9838.321488,-242.535995,-917.440002,-310.368011,15540.000000,-8120.000000,-13300.000000
2194.360160,-4459.418888,1727.879253,-331.096391,2653.733212,1447.275453,4723.549452,-3562.175162,-5063.363023,9904.370893,5728.260366,10438.219957,15944.594555,2563.767441,9075.031766,9843.015354,-241.072006,-920.367981,-311.343994,16940.000000,-8400.000000,-13580.000000
2161.301930,-4493.795871,1687.601410,-376.582191,2607.353342,1399.330962,4675.247332,-3607.191575,-5094.454300,9862.282558,5648.866969,10401.808965,15903.735567,2515.912356,9018.392446,9807.900763,-238.632004,-921.343994,-310.368011,18340.000000,-8820.000000,-14000.000000
2139.151351,-4498.020351,1641.892092,-410.512139,2567.388423,1354.091031,4621.916070,-3660.098155,-5109.787596,9802.491641,5436.123065,10368.258997,15857.579214,2470.627722,8962.736602,9765.410097,-235.704010,-922.320007,-314.760010,19600.000000,-8820.000000,-14560.000000
2087.451766,-4545.428401,1580.871830,-477.433262,2501.339019,1294.098949,4557.744212,-3707.953239,-5160.324891,9736.710457,5292.736625,10302.276647,15797.587132,2408.892203,8897.894191,9719.454911,-236.192001,-921.832031,-314.272003,20860.000000,-8260.000000,-14840.000000
2039.820199,-4617.915108,1545.936054,-535.503094,2448.946530,1249.887198,4517.622831,-3726.393429,-5212.359752,9712.861146,5417.235841,10250.018269,15762.718411,2362.981720,8850.553197,9691.828155,-237.656006,-923.783997,-316.223999,22120.000000,-7420.000000,-15400.000000
2078.399310,-4573.502192,1586.437414,-493.571221,2490.163146,1287.438129,4550.882226,-3689.624809,-5172.484240,9757.207007,5491.957723,10292.285418,15803.152717,2402.052570,8868.993386,9716.616239,-240.096008,-929.152039,-311.832001,22540.000000,-7140.000000,-15820.000000
2104.260278,-4555.889017,1639.276938,-441.134029,2545.818990,1345.709127,4620.150282,-3632.292584,-5153.641719,9816.394426,5676.963112,10335.424284,15856.014592,2460.055346,8949.861997,9767.667623,-231.800003,-927.200012,-309.880005,23380.000000,-7980.000000,-16100.000000
2144.381660,-4513.264240,1689.076625,-375.755176,2608.068598,1403.466034,4693.329894,-3579.765985,-5110.480501,9873.458430,5858.414573,10381.088898,15905.411947,2518.907490,9047.136789,9817.802586,-227.408005,-927.200012,-307.928009,24080.000000,-8820.000000,-16520.000000
2212.733294,-4453.070993,1732.059030,-340.282958,2645.060735,1439.631157,4716.374542,-3556.989557,-5038.619642,9915.144433,5759.955139,10431.179158,15948.729628,2555.452592,9052.300042,9839.707296,-229.848007,-930.127991,-311.832001,25200.000000,-7980.000000,-16940.000000
2191.901468,-4460.447068,1710.087265,-348.731917,2631.649689,1419.916918,4699.118996,-3585.175107,-5059.049137,9887.271808,5682.953380,10412.895431,15926.489642,2536.721830,9049.394315,9825.782159,-227.408005,-929.640015,-309.391998,26180.000000,-8120.000000,-16940.000000
2130.501226,-4509.106816,1655.750174,-388.719188,2588.376711,1375.369892,4657.120068,-3632.493750,-5120.829358,9817.579069,5510.889651,10359.988852,15872.219607,2491.861879,9019.822957,9793.685054,-226.432007,-930.616028,-311.343994,25760.000000,-8540.000000,-16800.000000
2076.700577,-4564.606197,1602.329505,-450.611168,2527.937594,1319.267013,4597.910297,-3681.645236,-5174.764118,9752.133161,5296.558773,10302.746034,15819.201269,2434.507303,8957.528646,9751.619071,-224.968002,-930.616028,-313.783997,25200.000000,-10080.000000,-16800.000000
2023.436370,-4623.167768,1554.183847,-508.345724,2471.231219,1266.874524,4548.200017,-3718.369152,-5228.095380,9712.816443,5373.918161,10247.112542,15771.279129,2380.594895,8914.188613,9713.151719,-225.944000,-930.127991,-317.200012,24780.000000,-10920.000000,-16800.000000
2044.916397,-4600.436044,1571.998188,-485.837517,2492.130100,1284.755920,4564.807363,-3698.945486,-5204.961324,9737.828045,5461.894627,10264.725717,15788.668786,2399.459767,8929.141930,9721.623030,-225.456009,-925.247986,-318.175995,23520.000000,-12040.000000,-16660.000000
2117.872491,-4522.450807,1632.861988,-425.934842,2551.764554,1342.356365,4615.769340,-3647.111791,-5128.875986,9809.510089,5603.492928,10329.277555,15849.353772,2457.082564,8963.518913,9760.135086,-223.016006,-929.640015,-320.127991,22120.000000,-12880.000000,-16520.000000
2170.846125,-4472.271141,1687.310837,-375.196382,2604.559374,1396.693456,4670.933446,-3595.367503,-5076.572904,9876.699433,5831.123094,10381.692395,15903.512049,2511.553766,9009.719969,9804.279781,-222.040009,-927.200012,-320.127991,19880.000000,-13580.000000,-16520.000000
2216.220166,-4433.736734,1735.657660,-325.597861,2655.230779,1445.397907,4721.604850,-3553.457982,-5031.377677,9919.458320,5803.228116,10430.642716,15950.920099,2561.442859,9051.070696,9843.574148,-224.479996,-926.712036,-319.152008,18060.000000,-14700.000000,-16240.000000
2220.511701,-4418.694010,1731.790809,-314.869024,2661.511619,1446.291977,4724.957612,-3567.047842,-5025.052133,9910.718788,5699.605429,10433.034352,15947.612041,2562.962778,9067.678042,9842.501264,-223.503998,-927.687988,-320.127991,17080.000000,-14980.000000,-15820.000000
2147.935587,-4486.866830,1669.049462,-370.524868,2604.537023,1390.904354,4675.292036,-3619.239166,-5099.818718,9839.327316,5576.000282,10363.229854,15885.697709,2506.658734,9041.392391,9801.217592,-219.600006,-929.640015,-314.760010,16100.000000,-15260.000000,-15680.000000
2083.875487,-4568.450697,1607.112778,-457.204933,2522.796693,1319.781103,4595.071625,-3672.481021,-5164.482315,9767.980548,5339.898806,10290.944313,15823.202231,2433.345012,8942.865901,9747.774571,-223.992004,-935.984009,-313.295990,16380.000000,-15120.000000,-15400.000000
2027.884367,-4634.164826,1553.982682,-531.904463,2451.539332,1254.670472,4526.585880,-3718.704429,-5222.753313,9720.527794,5317.167081,10231.578080,15770.250949,2366.736813,8858.532770,9702.646399,-223.016006,-933.544006,-312.808014,17360.000000,-14700.000000,-14980.000000
2000.995219,-4657.812972,1544.416135,-532.396201,2448.991233,1249.037832,4531.816188,-3715.776350,-5251.028270,9714.336361,5432.099751,10217.183556,15761.243196,2361.774726,8877.352938,9702.936972,-222.040009,-935.496033,-312.320007,19180.000000,-13860.000000,-14420.000000
2043.642347,-4603.095901,1592.874717,-465.855058,2511.956097,1306.817091,4593.842279,-3668.345948,-5207.107092,9763.823123,5520.791473,10268.391403,15810.126461,2420.805683,8954.354698,9744.622975,-223.503998,-935.007996,-312.808014,20580.000000,-12460.000000,-14140.000000
2101.846290,-4545.406049,1651.056308,-413.328458,2565.600284,1361.064775,4644.424277,-3622.927204,-5147.517341,9837.762694,5751.953215,10324.360171,15867.726906,2475.299236,9005.383731,9781.279836,-223.992004,-935.496033,-316.712006,22960.000000,-10640.000000,-13720.000000
2169.393262,-4476.048586,1710.936631,-355.012757,2625.011221,1417.122950,4693.620466,-3576.212058,-5077.936361,9900.995779,5842.254262,10387.280332,15926.511994,2532.922033,9033.211652,9821.781197,-229.360001,-935.007996,-319.640015,24780.000000,-8400.000000,-13440.000000
2183.787785,-4459.105964,1729.577986,-325.039068,2653.263826,1442.000442,4719.995525,-3562.465735,-5064.167686,9910.070587,5714.648153,10408.089806,15945.443922,2558.134801,9062.760659,9842.680078,-233.264008,-934.031982,-322.567993,26740.000000,-7140.000000,-13160.000000
2164.565285,-4488.230287,1687.646113,-384.628819,2595.998656,1390.099691,4654.951949,-3611.594869,-5080.238590,9872.497305,5637.177007,10366.761430,15903.243828,2504.825891,8980.461536,9797.864830,-227.408005,-929.152039,-322.080017,28000.000000,-5460.000000,-12740.000000
2074.487755,-4575.491497,1626.670554,-436.507217,2543.874388,1338.824789,4622.050181,-3648.005861,-5176.418147,9786.934827,5414.620687,10296.644008,15842.715304,2453.327471,8961.797829,9771.847400,-231.311996,-922.807983,-317.200012,28000.000000,-4480.000000,-12600.000000
2017.937841,-4628.062800,1570.858249,-490.821956,2487.793861,1284.174774,4572.250494,-3694.095158,-5229.548243,9725.109902,5273.938808,10237.747161,15787.461792,2397.202241,8925.163320,9733.044771,-231.800003,-920.367981,-316.712006,27300.000000,-3780.000000,-11900.000000
2015.233280,-4637.003498,1546.159571,-528.708163,2449.259454,1247.450858,4526.362363,-3723.375943,-5228.453008,9717.934992,5407.803405,10211.528565,15762.740763,2359.807773,8874.648377,9698.108995,-233.264008,-925.247986,-308.416016,26180.000000,-4200.000000,-11060.000000
2041.518932,-4606.985105,1583.486984,-475.376901,2499.886155,1292.668437,4584.834526,-3679.857097,-5203.508461,9753.094286,5478.367863,10245.257347,15800.179935,2406.701732,8947.738582,9736.621050,-231.800003,-919.880005,-305.000000,24920.000000,-5320.000000,-10780.000000
2099.409950,-4542.232101,1645.021337,-411.294450,2564.393290,1357.510848,4644.066649,-3627.665773,-5145.997422,9825.737456,5668.804725,10309.272743,15861.870749,2471.499440,9000.622809,9781.145725,-228.384003,-922.807983,-303.536011,22540.000000,-6720.000000,-10360.000000
2167.202791,-4471.153554,1704.253459,-352.956397,2623.312488,1413.613726,4689.641856,-3582.381139,-5075.567076,9896.100747,5855.486495,10374.964520,15920.544078,2528.205815,9029.635373,9818.495490,-230.824005,-926.223999,-296.704010,21000.000000,-7840.000000,-9940.000000
2209.224070,-4428.260556,1740.552692,-309.526957,2666.697224,1455.009157,4727.751580,-3553.010947,-5032.629375,9923.325172,5746.342927,10414.929439,15956.508035,2570.741185,9064.660557,9850.525540,-229.848007,-929.152039,-299.631989,18900.000000,-9800.000000,-10220.000000
2152.271825,-4501.037836,1695.044541,-359.617217,2618.573918,1413.099636,4698.090815,-3580.458889,-5092.532050,9876.431212,5660.109897,10355.697317,15911.625732,2527.848187,9053.641147,9831.727723,-232.776001,-928.664001,-304.024017,17500.000000,-10920.000000,-10780.000000
2085.037778,-4561.052270,1632.549063,-421.263328,2555.810220,1350.201827,4637.852864,-3633.611337,-5159.497876,9804.190374,5489.789604,10289.804374,15849.152607,2464.570399,8995.884239,9788.074766,-225.456009,-934.520020,-303.048004,16240.000000,-11620.000000,-11060.000000
2041.228359,-4605.286372,1582.481156,-472.448823,2503.931821,1299.329257,4585.125099,-3681.891105,-5201.563859,9743.304222,5278.722081,10239.870577,15798.838830,2413.273145,8943.983489,9748.042792,-228.872009,-923.296021,-308.903992,15540.000000,-13440.000000,-11900.000000
1994.423806,-4658.930559,1537.844722,-527.657631,2449.348861,1248.926073,4537.270014,-3717.139806,-5249.150723,9707.966114,5356.819076,10189.154469,15754.694135,2361.528857,8902.453947,9712.861146,-231.311996,-924.760010,-314.272003,14980.000000,-13440.000000,-12180.000000
2014.316859,-4634.813027,1561.895199,-497.996866,2477.333245,1273.736510,4564.472087,-3692.731701,-5228.117732,9734.452931,5446.114295,10212.154414,15777.872894,2386.965142,8933.634631,9731.860129,-229.360001,-926.223999,-315.735992,13580.000000,-14140.000000,-12320.000000
2076.164135,-4567.422517,1621.261432,-435.657851,2539.068763,1333.303909,4617.401018,-3644.697803,-5164.974053,9802.446938,5585.209201,10273.331138,15837.373237,2447.158390,8978.762803,9770.461592,-229.360001,-923.296021,-319.640015,12600.000000,-14840.000000,-12600.000000
2139.687793,-4498.534441,1676.514945,-377.588019,2596.177470,1387.909220,4663.400908,-3602.229488,-5100.131643,9873.905465,5817.443826,10334.016124,15893.029081,2502.478957,9007.574202,9805.553830,-228.872009,-925.736023,-318.175995,11200.000000,-15820.000000,-12600.000000
2188.347541,-4454.568559,1726.426390,-320.009925,2654.493172,1444.056802,4728.086856,-3553.882665,-5051.918930,9917.558422,5789.638256,10385.268675,15942.582898,2559.319444,9074.450621,9854.370040,-230.335999,-927.200012,-318.175995,10080.000000,-17220.000000,-12460.000000
2183.072529,-4454.747373,1721.509006,-317.528882,2655.878980,1443.274491,4734.099476,-3560.767002,-5056.791610,9906.829584,5685.412071,10382.519410,15937.687866,2559.006519,9091.661464,9858.192189,-226.919998,-925.247986,-320.127991,9100.000000,-18340.000000,-12180.000000
2119.079485,-4521.556738,1663.662692,-381.678388,2592.332970,1384.042368,4671.156963,-3615.260555,-5122.550443,9843.797665,5567.171343,10320.113339,15880.377994,2498.589754,9026.595536,9811.946429,-225.944000,-924.272034,-320.615997,7840.000000,-19740.000000,-11900.000000
2048.000937,-4596.658599,1602.977705,-445.894950,2529.301051,1324.653783,4614.294125,-3663.696785,-5195.595943,9769.031080,5330.019335,10253.549844,15820.251801,2437.927119,8974.091288,9768.964025,-228.384003,-926.223999,-317.200012,7140.000000,-20440.000000,-11760.000000
1985.326646,-4661.053975,1547.634786,-510.893823,2464.570399,1264.304073,4554.100878,-3710.501338,-5258.963139,9715.990390,5305.208898,10191.948437,15764.148922,2376.683340,8919.485977,9723.455873,-228.384003,-923.296021,-317.200012,7000.000000,-21280.000000,-11760.000000
1982.197402,-4665.121992,1541.063373,-518.649878,2456.970806,1254.737527,4544.646090,-3713.563527,-5260.505409,9718.180861,5424.723676,10182.739518,15757.376344,2367.943808,8910.612334,9713.755216,-232.288010,-925.247986,-324.032013,6860.000000,-21420.000000,-11620.000000
2041.161304,-4602.157128,1597.993266,-458.233113,2516.985240,1311.935641,4600.726616,-3666.490753,-5200.267458,9777.301225,5518.198671,10243.603318,15814.395644,2425.901881,8960.456724,9755.441219,-233.264008,-925.247986,-325.007996,6720.000000,-21140.000000,-11340.000000
2100.527537,-4542.142694,1657.404203,-399.090397,2576.060900,1370.810136,4656.963606,-3618.188634,-5139.805989,9849.519712,5745.471209,10304.109490,15873.717174,2484.485803,9010.770501,9798.960066,-236.192001,-928.176025,-322.080017,6580.000000,-20580.000000,-11060.000000
2164.498230,-4473.567542,1713.350619,-338.830094,2635.784761,1427.270642,4709.445501,-3573.194572,-5074.874172,9909.176518,5830.899576,10364.570959,15929.529480,2542.510932,9055.652804,9839.260261,-235.704010,-926.223999,-321.104004,6580.000000,-20580.000000,-10640.000000
2150.573093,-4483.536420,1720.369067,-316.321888,2656.527180,1446.090811,4736.334650,-3562.041052,-5093.560230,9902.582753,5695.716226,10369.242474,15936.749093,2561.465211,9095.662426,9859.533293,-233.264008,-926.712036,-322.080017,6300.000000,-20580.000000,-10360.000000
2118.833616,-4511.721970,1674.547991,-357.359690,2612.963630,1402.504909,4693.441652,-3607.504500,-5120.203509,9856.359345,5612.478329,10326.595345,15890.793907,2517.544033,9067.454525,9825.625697,-230.335999,-927.200012,-319.640015,5880.000000,-20860.000000,-9940.000000
2054.617054,-4580.900619,1614.086522,-428.728810,2543.829685,1338.198941,4624.710038,-3660.344024,-5187.325798,9783.939693,5398.125100,10260.724754,15830.086569,2452.276939,8994.386672,9773.970815,-230.824005,-928.176025,-315.248016,5460.000000,-20440.000000,-9380.000000
1998.424768,-4645.519512,1559.570618,-496.074616,2477.802632,1275.435242,4564.248570,-3704.935754,-5243.361621,9724.484053,5261.734755,10200.464451,15775.727126,2389.155613,8930.170110,9730.004934,-232.288010,-926.223999,-315.735992,5740.000000,-19320.000000,-8540.000000
1972.764966,-4664.250274,1538.895254,-511.832596,2459.675367,1253.910512,4547.417706,-3722.303059,-5270.429584,9710.715379,5388.938533,10179.744384,15755.409390,2368.144973,8917.429616,9714.403416,-224.968002,-926.223999,-310.856018,4760.000000,-19040.000000,-7700.000000
2018.720152,-4623.346582,1579.776595,-472.270009,2500.713170,1293.517803,4586.332093,-3692.530536,-5221.613374,9756.357641,5463.928636,10221.542146,15795.955455,2407.238174,8953.304166,9738.610356,-223.992004,-926.712036,-309.391998,3920.000000,-19040.000000,-6580.000000
2084.188412,-4551.195151,1641.869741,-405.281830,2564.952083,1358.382566,4642.747896,-3632.247881,-5155.653376,9829.693714,5656.064231,10287.546848,15858.227415,2472.147640,9014.525594,9785.616074,-220.576004,-923.783997,-309.391998,3220.000000,-18480.000000,-5320.000000
2111.569299,-4505.821110,1698.084378,-332.348088,2636.812942,1426.242462,4712.373580,-3574.848601,-5134.240405,9885.014282,5834.051172,10344.879072,15914.576163,2541.505103,9088.643979,9842.277746,-218.624008,-925.247986,-318.664001,2940.000000,-17360.000000,-4340.000000
2150.953072,-4482.955275,1731.321422,-303.112007,2669.826468,1461.044128,4751.198560,-3547.534769,-5089.335750,9914.138605,5726.494578,10378.719613,15947.366172,2576.619694,9115.689589,9871.737346,-216.671997,-922.807983,-314.272003,2380.000000,-15540.000000,-2940.000000
2177.976331,-4461.832876,1708.589698,-337.064306,2632.968442,1423.582604,4704.058731,-3587.052654,-5053.595311,9900.526393,5658.008833,10363.073392,15924.232116,2538.778190,9059.206731,9836.823921,-213.744003,-924.272034,-317.200012,2660.000000,-14560.000000,-1680.000000
2104.841424,-4539.907520,1644.283729,-404.834796,2565.466173,1359.164877,4637.338774,-3643.602567,-5132.586376,9826.139787,5487.867354,10293.023025,15860.194368,2473.779318,8993.961989,9784.945522,-213.255997,-916.463989,-320.127991,2940.000000,-13580.000000,-560.000000
2025.671545,-4626.185253,1578.279028,-477.701482,2493.918239,1291.260277,4574.038634,-3695.056283,-5212.739731,9748.623937,5270.630750,10217.675295,15794.882571,2404.846538,8942.150646,9736.464588,-211.304001,-920.856018,-324.519989,3220.000000,-11760.000000,700.000000
1982.912658,-4665.054937,1534.357850,-528.194073,2442.442172,1241.147666,4519.992115,-3733.501283,-5254.828066,9713.308181,5351.186437,10171.675405,15750.424951,2354.264540,8888.014720,9696.142041,-209.839996,-914.023987,-321.104004,3360.000000,-10780.000000,1540.000000
1994.468509,-4643.530207,1554.586179,-497.505128,2471.655902,1267.947408,4553.050346,-3702.991152,-5244.635671,9732.575385,5435.094885,10192.060195,15770.563873,2381.600723,8923.688105,9720.147815,-215.208008,-914.023987,-324.519989,4340.000000,-9520.000000,2380.000000
2038.344984,-4595.004570,1612.164272,-431.880406,2537.057106,1331.024031,4621.178463,-3645.547169,-5204.000199,9795.495545,5573.608646,10249.414772,15828.298429,2445.504361,8993.805527,9769.791039,-217.160004,-912.072021,-319.152008,4760.000000,-8820.000000,3080.000000
2109.803511,-4527.547005,1673.922142,-374.235257,2596.289229,1388.959752,4672.788641,-3597.803843,-5128.652469,9873.614892,5809.754826,10316.268839,15890.101002,2504.155338,9032.742266,9809.912421,-220.087997,-913.048035,-317.688019,4620.000000,-8260.000000,3640.000000
2177.261076,-4446.633690,1728.818027,-300.787425,2664.998491,1450.583512,4735.909967,-3554.061479,-5056.858666,9921.045294,5783.044491,10381.223009,15944.706314,2567.567237,9099.730444,9857.298119,-222.040009,-913.536011,-318.664001,4480.000000,-8820.000000,4060.000000
2170.443794,-4443.571501,1722.000745,-296.250021,2667.658349,1452.706927,4737.899272,-3562.376328,-5065.307625,9905.220259,5673.610350,10378.384337,15938.067846,2570.025929,9109.744025,9860.896750,-223.016006,-911.583984,-314.760010,4340.000000,-9240.000000,4200.000000
2102.986229,-4528.597537,1660.913427,-372.916504,2595.886898,1388.445662,4675.001463,-3610.633744,-5135.223882,9840.288441,5552.977985,10308.713950,15876.712308,2504.356504,9040.967708,9817.579069,-226.919998,-910.119995,-311.343994,4200.000000,-10220.000000,4060.000000
2049.342042,-4588.142584,1604.117644,-433.757953,2534.777228,1328.565339,4617.132797,-3658.064146,-5188.488089,9772.987339,5319.893994,10249.571234,15819.625952,2443.805628,8981.020329,9773.389670,-229.848007,-911.096008,-304.511993,3780.000000,-10920.000000,4060.000000
2000.861108,-4640.579777,1550.808734,-497.125148,2472.460565,1269.869658,4554.346747,-3704.891050,-5237.192540,9725.333419,5298.346913,10196.105861,15767.680498,2383.657084,8917.206099,9726.607469,-237.656006,-911.583984,-308.416016,2660.000000,-11480.000000,3640.000000
1994.647323,-4639.372783,1547.098344,-497.035741,2470.895943,1266.539248,4551.061040,-3704.376960,-5243.518084,9727.523890,5418.219318,10193.825983,15763.120742,2380.997226,8917.608430,9721.198347,-240.096008,-909.632019,-297.679993,1260.000000,-13300.000000,3220.000000
2044.692879,-4577.614913,1601.547194,-435.546092,2531.469170,1324.586728,4604.414654,-3657.214780,-5193.070196,9783.000920,5509.705008,10251.381725,15817.122557,2439.737611,8966.581102,9761.520894,-246.440002,-913.048035,-300.608002,0.000000,-14140.000000,2940.000000
2085.909496,-4538.924043,1651.995081,-386.327551,2582.207630,1375.459299,4653.767306,-3613.718285,-5153.284091,9846.234005,5735.167055,10297.113394,15867.950424,2490.029036,9015.821995,9797.954237,-245.951996,-911.096008,-295.727997,-1260.000000,-16240.000000,2660.000000
2136.692659,-4488.051473,1705.639268,-325.195530,2642.669099,1431.383363,4713.960554,-3570.512363,-5103.015018,9902.783919,5821.981230,10353.797418,15921.460500,2548.300034,9080.999682,9840.042572,-247.416000,-907.192017,-294.752014,-1820.000000,-17500.000000,2100.000000
2169.057985,-4460.961158,1725.062934,-308.029390,2659.991701,1448.460096,4729.427961,-3560.811706,-5066.715785,9918.228974,5700.141871,10376.663253,15941.554718,2565.779098,9097.919953,9856.515808,-251.320007,-907.679993,-301.096008,-2380.000000,-19040.000000,1540.000000
2141.274767,-4499.383807,1681.924067,-359.058423,2607.912136,1398.727465,4677.706024,-3606.386913,-5093.761396,9877.526447,5625.241175,10333.636145,15897.857058,2514.772417,9047.986156,9818.070807,-251.320007,-906.216003,-292.312012,-2800.000000,-19880.000000,980.000000
2082.199106,-4557.118363,1625.128284,-416.368296,2549.954063,1341.506999,4620.597317,-3657.058317,-5154.804010,9808.504261,5412.452568,10277.197990,15840.882461,2457.574303,8992.732643,9775.781307,-252.296005,-907.192017,-292.800018,-3360.000000,-20580.000000,560.000000
2022.631708,-4615.277602,1569.763013,-474.616942,2492.018341,1286.633466,4566.595503,-3702.834690,-5215.041961,9746.388763,5273.715290,10220.268097,15785.383080,2401.784349,8941.301279,9737.939803,-251.320007,-905.728027,-291.824005,-4340.000000,-21000.000000,0.000000
1994.870841,-4638.925748,1542.739754,-501.640201,2463.743384,1256.480963,4541.181569,-3724.046495,-5242.199331,9727.993277,5400.807309,10192.596637,15758.516283,2371.654197,8918.010762,9713.643457,-247.904007,-906.216003,-297.679993,-4760.000000,-21840.000000,0.000000
2031.393591,-4595.786881,1579.709539,-452.376956,2511.240841,1299.888051,4588.343750,-3686.473213,-5205.855394,9764.672490,5469.091889,10233.232109,15795.709586,2415.016581,8970.470306,9740.912585,-243.024002,-903.288025,-292.800018,-5320.000000,-22960.000000,-420.000000
2096.459519,-4526.697639,1647.904712,-378.146813,2583.727549,1372.888848,4655.667204,-3618.278041,-5141.370611,9839.550834,5660.646339,10305.137671,15863.770647,2489.000856,9044.834560,9799.831784,-242.535995,-903.288025,-293.776001,-5880.000000,-24080.000000,-280.000000
2139.821904,-4478.663740,1708.343829,-314.801969,2648.748773,1436.367802,4715.838100,-3567.472526,-5101.942134,9903.812099,5844.064754,10365.576788,15924.008599,2553.150362,9101.697397,9849.564415,-240.096008,-901.824036,-302.559998,-6580.000000,-24640.000000,-420.000000
2180.144451,-4445.292586,1744.084268,-287.242268,2680.152974,1468.755480,4744.269519,-3544.584339,-5057.886846,9934.076361,5737.022249,10401.630151,15959.346707,2585.739206,9114.169671,9870.530351,-241.072006,-901.335999,-299.631989,-7560.000000,-25060.000000,-560.000000
2173.461279,-4456.021423,1712.881233,-322.870949,2643.496113,1431.830398,4705.578650,-3578.357825,-5060.367889,9906.449605,5661.182780,10374.875113,15928.568355,2548.568255,9072.103688,9842.769485,-237.167999,-901.824036,-303.048004,-8120.000000,-24920.000000,-420.000000
2114.340915,-4512.526633,1652.844447,-376.649246,2588.354360,1376.062796,4652.090925,-3628.693954,-5120.963469,9833.739380,5489.119052,10316.671171,15868.486866,2492.085396,9025.209728,9800.882316,-235.704010,-899.384033,-304.024017,-9240.000000,-24920.000000,-280.000000
2054.818220,-4576.966712,1597.680342,-439.502351,2524.696591,1316.942432,4591.852974,-3681.980512,-5182.453118,9768.516990,5277.559790,10255.382687,15813.546278,2431.735686,8970.425602,9752.982527,-235.704010,-898.895996,-306.951996,-9520.000000,-24640.000000,140.000000
2003.140986,-4622.832492,1552.775687,-488.542079,2474.919257,1269.087347,4545.428401,-3717.586841,-5235.314993,9730.675486,5358.115477,10207.952286,15768.663975,2382.695959,8928.270212,9716.839757,-236.192001,-900.359985,-303.536011,-10500.000000,-24780.000000,280.000000
2022.363487,-4601.196003,1572.512278,-464.558657,2498.612106,1290.880298,4567.556628,-3693.402254,-5215.086665,9750.568539,5443.029755,10231.220452,15788.199399,2404.980648,8946.196311,9733.357696,-236.192001,-899.872009,-303.048004,-12040.000000,-25200.000000,840.000000
2082.556734,-4537.784104,1628.861025,-396.542298,2564.706214,1352.437002,4633.449570,-3637.455837,-5152.166504,9811.946429,5577.319035,10292.285418,15844.659906,2467.766698,9020.582917,9780.765746,-238.632004,-902.799988,-304.024017,-13300.000000,-25620.000000,980.000000
2139.129000,-4473.522839,1683.421634,-333.398620,2626.665250,1411.870290,4692.368769,-3587.276171,-5096.153032,9876.833543,5801.819957,10351.741058,15899.019349,2528.116408,9083.905409,9823.412874,-240.584000,-901.824036,-300.119995,-15120.000000,-26460.000000,1400.000000
2180.658541,-4439.458780,1729.779152,-293.858384,2670.049986,1457.423145,4733.473627,-3546.595996,-5055.830485,9918.050160,5771.510991,10397.450375,15944.795721,2574.384519,9111.442758,9859.689755,-242.535995,-903.288025,-300.608002,-16520.000000,-27020.000000,1820.000000
2168.141564,-4454.903836,1721.509006,-307.917632,2657.063622,1446.604901,4722.051885,-3557.794220,-5069.330939,9903.901506,5666.457792,10386.833297,15936.302058,2562.783964,9094.455432,9856.515808,-242.535995,-905.239990,-297.679993,-17920.000000,-27720.000000,1960.000000
2113.022162,-4507.028104,1668.513020,-361.360653,2602.100683,1391.820775,4668.698271,-3608.219756,-5125.210300,9844.624680,5550.943977,10333.367924,15883.060203,2508.044542,9045.549815,9816.305019,-241.072006,-902.312012,-292.800018,-20160.000000,-28420.000000,2240.000000
2072.163173,-4546.434229,1619.003906,-407.494653,2554.312653,1343.049269,4620.038524,-3655.516047,-5165.018757,9782.084499,5319.335201,10288.262104,15833.707551,2459.474201,9004.400254,9779.290531,-242.535995,-910.608032,-295.239990,-21420.000000,-29400.000000,2380.000000
2016.932013,-4599.564326,1567.952522,-464.223381,2498.455643,1290.321504,4565.433212,-3702.767635,-5221.993354,9731.234280,5296.111738,10237.300126,15783.036147,2404.824186,8958.936806,9737.626879,-241.072006,-906.216003,-295.239990,-23660.000000,-30100.000000,2660.000000
2012.752236,-4601.799500,1564.376243,-467.240866,2495.438158,1286.901687,4561.901636,-3698.498452,-5225.189653,9733.000068,5418.018152,10235.489635,15779.191646,2401.024389,8953.237111,9735.101132,-242.535995,-906.216003,-296.216003,-25340.000000,-31500.000000,3080.000000
2070.084461,-4547.864741,1614.935889,-414.960136,2546.824818,1336.142580,4612.796558,-3653.482038,-5166.851600,9788.633560,5510.241450,10287.166868,15829.326609,2450.712317,9001.271010,9772.137972,-243.512009,-910.608032,-295.727997,-27300.000000,-32340.000000,3360.000000
2123.750999,-4493.751168,1671.083471,-360.019548,2601.586592,1388.445662,4665.658434,-3611.326648,-5112.983896,9857.722802,5735.770552,10344.454389,15885.138915,2503.618896,9052.970595,9805.777348,-243.024002,-908.168030,-295.239990,-28840.000000,-33460.000000,3780.000000
2182.826660,-4422.538510,1730.472056,-286.929344,2672.329864,1456.819648,4726.142255,-3551.513380,-5053.103573,9915.099730,5819.254317,10413.431873,15944.751018,2573.378691,9117.187156,9856.471104,-241.072006,-906.704041,-296.704010,-30520.000000,-33880.000000,3920.000000
2208.665277,-4400.276172,1750.320405,-267.013939,2693.139338,1478.769061,4744.336575,-3537.856464,-5027.063790,9926.432064,5692.005836,10438.085847,15964.688774,2595.350456,9133.012191,9877.369985,-241.559998,-908.168030,-299.631989,-32760.000000,-34440.000000,4760.000000
2154.439945,-4458.927150,1697.860861,-322.558024,2638.243453,1426.577738,4700.281286,-3582.135270,-5083.367834,9870.619758,5604.722274,10383.927570,15912.072767,2542.130952,9090.745043,9842.747133,-243.512009,-907.679993,-297.679993,-34020.000000,-35280.000000,5040.000000
2093.486737,-4520.416799,1639.366345,-376.135156,2582.364092,1371.368929,4648.358184,-3629.297451,-5145.840960,9799.407101,5391.017245,10328.428188,15854.338211,2486.162184,9055.652804,9804.615057,-242.535995,-907.679993,-299.144012,-36540.000000,-35980.000000,5460.000000
2039.596682,-4577.793727,1581.788252,-444.956177,2512.201966,1306.705333,4572.049328,-3680.214725,-5199.686313,9739.549129,5256.035060,10271.610054,15797.229504,2419.933965,8993.649065,9747.349888,-243.512009,-910.608032,-302.071991,-38080.000000,-36820.000000,6160.000000
2007.477225,-4614.763512,1551.322824,-489.950238,2472.013530,1266.248675,4534.364287,-3709.607269,-5232.677487,9719.790187,5383.618818,10240.474074,15766.160579,2379.119680,8940.228395,9711.743559,-247.416000,-914.512024,-293.287994,-39480.000000,-37380.000000,6580.000000
2046.928054,-4576.229105,1587.309132,-454.433317,2509.050370,1300.603306,4568.920084,-3689.222478,-5191.259705,9757.631690,5457.692499,10282.227133,15801.766908,2414.591898,8955.427582,9737.403361,-248.391998,-912.072021,-294.752014,-39760.000000,-37940.000000,7000.000000
2097.711217,-4516.885223,1643.859046,-390.306162,2571.411737,1362.808211,4624.195948,-3636.785285,-5140.610652,9822.272935,5647.481161,10341.436904,15858.227415,2476.550934,9014.190318,9782.978568,-244.488007,-913.536011,-300.119995,-40320.000000,-38780.000000,7420.000000
2154.194075,-4460.804696,1700.632477,-328.078905,2633.013145,1423.046162,4682.556353,-3579.967151,-5084.843050,9891.988026,5833.470027,10402.032483,15915.090253,2537.235920,9072.684833,9826.475063,-245.951996,-917.440002,-299.144012,-41160.000000,-39760.000000,7700.000000
2188.995741,-4421.376219,1737.378745,-280.603800,2679.951808,1465.581532,4730.456141,-3544.807857,-5050.175494,9915.859689,5718.224432,10444.411390,15951.434189,2581.268857,9121.232822,9861.790819,-245.951996,-917.440002,-300.608002,-41720.000000,-40460.000000,7980.000000
2157.949168,-4456.893141,1708.254422,-314.421989,2647.094744,1435.473732,4702.225888,-3573.641607,-5083.144317,9880.767450,5637.400524,10416.538765,15922.063997,2549.931711,9100.333941,9841.830712,-248.880005,-921.832031,-299.631989,-42000.000000,-40740.000000,7980.000000
2112.284555,-4498.780310,1655.191380,-364.691063,2594.568145,1381.695435,4648.358184,-3625.251785,-5127.289012,9819.546022,5476.311502,10370.158895,15869.582101,2496.846318,9056.502170,9802.111662,-246.928009,-926.223999,-303.536011,-41440.000000,-41160.000000,7980.000000
2050.280815,-4559.062965,1598.954391,-421.151569,2537.884121,1325.369039,4594.825756,-3677.443108,-5191.505574,9751.909644,5264.461668,10315.240659,15812.629856,2440.117590,9006.322504,9759.844513,-250.832001,-926.712036,-307.928009,-40600.000000,-42280.000000,7980.000000
1989.662884,-4620.865538,1547.612434,-481.322465,2477.981446,1271.188411,4538.477008,-3717.743304,-5254.246921,9709.843661,5345.374983,10258.735449,15761.801989,2383.947657,8956.075782,9714.425768,-247.904007,-930.127991,-305.488007,-39900.000000,-42560.000000,8120.000000
2012.506367,-4598.536146,1572.802850,-460.892971,2499.126196,1294.456577,4550.099915,-3688.775443,-5230.397610,9738.073914,5436.346583,10285.892819,15786.679481,2407.081712,8968.548056,9734.743504,-246.440002,-933.056030,-307.440002,-38640.000000,-42700.000000,7840.000000
2087.541173,-4528.597537,1636.952357,-398.777473,2562.113412,1355.141563,4608.683837,-3639.847474,-5152.680594,9812.751092,5576.782593,10357.172532,15850.694877,2468.213733,9017.654838,9780.028138,-242.048004,-935.496033,-314.272003,-37240.000000,-42420.000000,7560.000000
2153.612930,-4458.256597,1694.396340,-332.683364,2627.358154,1416.184177,4672.542771,-3591.858279,-5085.334788,9882.510886,5804.882146,10423.981896,15907.244790,2530.418638,9079.591522,9823.859909,-242.048004,-934.520020,-321.592010,-33740.000000,-40600.000000,6720.000000
2212.621535,-4396.811652,1747.146457,-267.259808,2690.680646,1475.550410,4730.925528,-3549.054688,-5025.700334,9929.293088,5775.713119,10487.237333,15959.436114,2590.634238,9140.097694,9867.915197,-242.048004,-936.960022,-326.959991,-30800.000000,-38220.000000,5880.000000
2205.558384,-4408.591021,1735.635309,-280.201468,2677.649579,1464.173372,4720.889595,-3562.353976,-5034.059886,9915.300896,5668.782374,10478.184876,15948.707276,2578.564296,9136.633174,9862.282558,-238.143997,-931.591980,-341.112000,-25620.000000,-36260.000000,5740.000000
2143.576997,-4472.718176,1677.610180,-347.659033,2611.086084,1401.521433,4654.393155,-3614.746465,-5097.136509,9850.167912,5550.899273,10418.416312,15890.704500,2514.772417,9067.275711,9814.807453,-239.119995,-927.687988,-345.015991,-21560.000000,-34160.000000,5600.000000
2083.048473,-4529.558662,1621.864929,-403.471339,2554.580874,1345.709127,4597.485614,-3662.065108,-5156.860370,9776.384804,5314.775445,10365.196808,15834.825138,2459.340091,9011.798681,9773.434374,-234.727997,-922.320007,-354.287994,-19320.000000,-33040.000000,5740.000000
2033.137027,-4580.006549,1571.729967,-457.853133,2499.215603,1292.556678,4544.310813,-3707.953239,-5206.883574,9728.887347,5296.290552,10315.821805,15785.450135,2405.137110,8969.598588,9732.709495,-233.264008,-921.343994,-355.264008,-17920.000000,-31920.000000,5880.000000
2028.286699,-4585.818003,1568.667778,-464.558657,2493.202984,1286.767577,4536.845331,-3707.617963,-5212.717380,9732.374219,5419.225147,10310.725607,15782.164428,2398.610401,8963.138934,9724.551108,-232.288010,-917.928040,-352.335999,-16800.000000,-31360.000000,6160.000000
2081.237981,-4530.855063,1623.250738,-406.511176,2550.781077,1341.685813,4589.930724,-3659.226437,-5160.146077,9788.968836,5509.436787,10368.728384,15836.121540,2454.020375,9015.240850,9763.554903,-228.872009,-915.976013,-353.312012,-15540.000000,-31220.000000,6300.000000
2133.742229,-4478.596685,1677.677235,-353.626949,2604.626430,1395.754683,4643.038469,-3610.052599,-5107.530070,9857.365174,5734.183578,10422.998419,15890.682148,2508.402170,9064.906426,9806.470252,-226.919998,-918.416016,-348.432007,-15120.000000,-30240.000000,6160.000000
2190.515660,-4419.453969,1731.120256,-293.120777,2665.467878,1453.042204,4701.532984,-3563.471563,-5048.297947,9911.635210,5813.420512,10481.828211,15944.080465,2566.784926,9118.192985,9850.972575,-227.895996,-914.023987,-351.360016,-14420.000000,-29960.000000,6020.000000
2207.502986,-4399.695027,1747.861713,-269.942018,2688.020788,1475.036320,4722.901252,-3551.289863,-5031.198863,9917.021980,5681.522868,10503.330589,15961.000736,2588.957857,9143.919843,9868.496343,-230.335999,-911.583984,-347.944000,-13720.000000,-29540.000000,5740.000000
2154.149372,-4452.199275,1699.134910,-323.921481,2634.153084,1423.940232,4670.754632,-3596.596849,-5086.832355,9865.232988,5599.827242,10453.530902,15912.251581,2537.057106,9094.835412,9830.967764,-225.944000,-909.143982,-351.847992,-13440.000000,-29540.000000,5600.000000
2096.839499,-4510.805549,1640.618043,-382.527755,2575.926790,1366.697415,4614.092960,-3644.384878,-5143.672841,9794.445013,5386.569248,10399.394977,15852.997107,2479.322550,9038.687830,9790.689920,-223.992004,-905.239990,-343.552002,-12880.000000,-30100.000000,5180.000000
2041.518932,-4564.226218,1582.682321,-438.943558,2518.728676,1310.952164,4557.923026,-3691.927039,-5200.379217,9729.379085,5245.797961,10349.572939,15795.039033,2422.683230,8985.982416,9749.808580,-226.432007,-904.752014,-343.063995,-12740.000000,-30100.000000,4900.000000
2021.111789,-4585.706244,1553.960330,-467.062052,2489.045559,1279.883239,4531.391505,-3717.676248,-5218.059447,9712.145890,5379.014358,10320.158043,15766.898187,2391.591953,8963.205989,9724.148777,-227.895996,-898.895996,-345.992004,-12880.000000,-30240.000000,4620.000000
2062.596627,-4539.684002,1599.401426,-422.872653,2533.369068,1325.994888,4570.015320,-3670.648178,-5174.428841,9757.631690,5454.742069,10356.546683,15812.607504,2437.144808,9004.020274,9756.625862,-230.335999,-897.919983,-345.992004,-13580.000000,-30240.000000,4480.000000
2117.246642,-4482.061205,1664.512058,-362.008853,2594.612848,1386.948095,4625.671163,-3615.707590,-5120.561137,9832.398275,5643.167274,10416.047027,15876.734659,2498.433292,9058.402068,9803.698636,-231.311996,-895.479980,-342.088013,-14280.000000,-30800.000000,4480.000000
2165.973445,-4438.072972,1721.732524,-304.654277,2653.643805,1443.185084,4684.590362,-3569.953569,-5076.259980,9897.263038,5821.713009,10477.581379,15933.664552,2555.765516,9108.380569,9844.267052,-235.704010,-895.479980,-338.183990,-15260.000000,-31640.000000,4480.000000
2195.254230,-4412.368466,1755.751879,-271.014902,2688.423120,1476.265666,4717.000391,-3549.188799,-5048.297947,9921.224108,5707.830871,10516.138138,15968.063887,2589.583706,9137.795465,9866.395279,-234.240005,-896.455994,-343.063995,-15400.000000,-32200.000000,4620.000000
2177.305779,-4433.222644,1727.767495,-302.709675,2655.566055,1443.900340,4683.159850,-3580.436537,-5064.614721,9896.190154,5636.238234,10492.937028,15940.392427,2556.883103,9108.648790,9840.713124,-235.216003,-901.335999,-343.552002,-14980.000000,-31920.000000,4480.000000
2127.237872,-4479.446051,1669.205924,-358.901961,2598.524403,1387.886868,4627.682820,-3628.224567,-5113.207413,9829.358438,5472.534057,10439.024620,15881.607340,2499.997914,9056.010432,9799.965894,-235.704010,-899.872009,-347.944000,-13440.000000,-30940.000000,4200.000000
2075.538287,-4533.738438,1614.667668,-414.200177,2542.913263,1333.259205,4574.798593,-3674.403271,-5165.197571,9763.823123,5263.835819,10384.374605,15827.002028,2444.923215,9007.909478,9760.984452,-236.192001,-903.776001,-351.360016,-11480.000000,-29540.000000,3780.000000
2033.449952,-4571.691700,1573.518106,-454.343910,2501.406074,1292.467271,4535.459523,-3706.053341,-5206.995333,9725.936917,5346.693736,10343.023878,15785.763059,2403.505433,8980.483887,9730.429617,-240.584000,-904.264038,-354.776001,-7980.000000,-27580.000000,3360.000000
2052.247769,-4548.691755,1593.567621,-432.774476,2522.930804,1314.036705,4552.558607,-3682.606361,-5187.549315,9745.114713,5429.126969,10365.353270,15805.723167,2424.739590,8991.346835,9743.505388,-245.951996,-907.679993,-349.895996,-3920.000000,-25760.000000,2940.000000
2108.685924,-4491.784214,1648.128229,-377.789185,2578.184316,1368.686720,4607.119215,-3631.979660,-5129.658297,9807.878412,5562.209256,10420.539727,15860.529645,2479.791937,9042.755847,9784.699653,-251.320007,-911.096008,-348.432007,-1120.000000,-24360.000000,2800.000000
2162.553628,-4445.337289,1697.458529,-330.671707,2625.279442,1414.865424,4652.470905,-3591.746520,-5077.042291,9875.380680,5791.471099,10468.305405,15910.284628,2526.618841,9088.241647,9815.008618,-251.807999,-914.023987,-342.088013,1960.000000,-23240.000000,2800.000000
2204.574907,-4399.672675,1746.140629,-281.252000,2676.241419,1464.151021,4696.615600,-3551.267511,-5035.713915,9916.820814,5756.177694,10516.696932,15958.206768,2576.664397,9124.116197,9850.257319,-255.223999,-921.343994,-330.864014,4340.000000,-22960.000000,2660.000000
2190.493308,-4408.836890,1740.150361,-287.130509,2671.793422,1459.993596,4691.497051,-3557.324834,-5051.136619,9901.867497,5649.872798,10510.527850,15952.082390,2573.222229,9120.182290,9851.866645,-253.760010,-923.296021,-317.200012,6720.000000,-22960.000000,2520.000000
2137.027936,-4458.502467,1687.132023,-334.359745,2623.133674,1411.467959,4644.960719,-3600.620163,-5105.540765,9840.579014,5537.734096,10460.102315,15899.600494,2523.489597,9083.257208,9819.478967,-251.320007,-925.736023,-307.440002,8540.000000,-23520.000000,2380.000000
2098.180604,-4498.668551,1638.762848,-379.018531,2576.396176,1365.266903,4600.301933,-3643.066125,-5141.728239,9778.105888,5310.238041,10417.052855,15850.806636,2476.975617,9049.707240,9785.280798,-253.760010,-922.807983,-301.096008,8960.000000,-23800.000000,2380.000000
2045.519894,-4553.698546,1583.978723,-436.909549,2515.107693,1305.766559,4540.779238,-3691.971742,-5195.104205,9727.143911,5292.915439,10359.564168,15796.894228,2415.843596,9009.988190,9735.391704,-254.248001,-916.952026,-299.631989,8540.000000,-24080.000000,2240.000000
2030.611280,-4568.853029,1576.602647,-452.578122,2502.970696,1293.763673,4525.468293,-3696.598553,-5210.772778,9724.394646,5412.564327,10348.209482,15789.138173,2403.348971,8983.546076,9716.638591,-255.712006,-912.559998,-303.048004,7980.000000,-24360.000000,1960.000000
2070.755013,-4533.425514,1625.284746,-411.517967,2550.088173,1342.915159,4569.836506,-3654.085535,-5172.551295,9776.161286,5500.540793,10394.656407,15837.574403,2453.394527,9002.120376,9759.799809,-258.640015,-903.288025,-303.048004,6300.000000,-24500.000000,2240.000000
2125.695601,-4479.870734,1680.024168,-357.091469,2604.604078,1398.191023,4621.692553,-3609.046770,-5117.208376,9846.368116,5726.338115,10450.893396,15892.380880,2508.737446,9052.098876,9804.235077,-260.592010,-902.799988,-303.048004,3920.000000,-24220.000000,2380.000000
2195.097768,-4409.596850,1735.970585,-290.997361,2667.926570,1457.870180,4681.706987,-3556.207246,-5044.609910,9905.488480,5806.670285,10512.561859,15947.433227,2569.556543,9117.276563,9845.965784,-266.447998,-905.728027,-304.511993,1960.000000,-23660.000000,2800.000000
2217.404809,-4382.059500,1751.437992,-262.990625,2693.742835,1479.551372,4707.411493,-3543.042069,-5022.302869,9911.121119,5671.732804,10534.332458,15963.392373,2592.087101,9147.250253,9864.115401,-267.424011,-908.656006,-310.856018,-840.000000,-22960.000000,3080.000000
2167.515715,-4432.216815,1701.928878,-313.438512,2643.250244,1431.226901,4660.696347,-3587.052654,-5072.974273,9860.114439,5593.524050,10483.370481,15914.866735,2542.399173,9105.921877,9829.894880,-262.056000,-914.023987,-321.592010,-2800.000000,-23240.000000,3360.000000
2100.482833,-4504.547060,1640.640395,-384.025321,2575.345644,1365.937455,4593.641113,-3644.206064,-5141.996460,9789.728795,5389.631437,10419.489195,15853.533549,2476.148603,9034.418647,9779.938731,-263.032013,-921.343994,-324.519989,-5600.000000,-24780.000000,3500.000000
2041.921263,-4564.785011,1586.258601,-448.554808,2511.576117,1303.643144,4528.105799,-3708.646144,-5202.077949,9728.686181,5260.460706,10363.855703,15798.235333,2413.541366,8966.670509,9731.681315,-265.959991,-924.272034,-321.592010,-6440.000000,-27580.000000,3360.000000
2010.695876,-4600.681913,1562.230475,-483.401177,2477.199134,1273.222419,4495.360493,-3726.058152,-5235.158531,9714.179899,5400.047350,10333.077351,15774.296614,2382.204221,8936.070971,9702.869916,-262.544006,-930.616028,-321.104004,-6720.000000,-29680.000000,2660.000000
2049.856132,-4545.003718,1603.223575,-422.023287,2534.710173,1325.413743,4557.833619,-3667.451878,-5193.405472,9750.792056,5466.387327,10378.451392,15814.730920,2435.356669,9011.798681,9745.941728,-262.056000,-928.176025,-321.104004,-6160.000000,-32060.000000,1820.000000
2129.227177,-4468.605455,1665.763756,-352.799934,2602.525366,1390.524374,4619.993820,-3614.746465,-5112.626268,9829.358438,5652.264434,10448.390001,15877.762840,2502.076626,9082.609008,9796.836650,-260.104004,-931.591980,-323.056000,-5460.000000,-33600.000000,980.000000
2192.884945,-4415.117731,1720.905509,-304.609573,2652.615625,1440.636985,4660.115201,-3577.016720,-5048.744982,9898.738253,5832.598309,10506.079853,15933.061055,2552.926845,9105.385435,9826.855043,-263.032013,-926.712036,-316.712006,-4060.000000,-34440.000000,-420.000000
2231.464056,-4374.839887,1756.355376,-260.688396,2695.933306,1480.490146,4704.997504,-3548.898226,-5009.830595,9924.509814,5717.576232,10544.122522,15968.309756,2593.025874,9144.880968,9856.851084,-265.959991,-922.320007,-321.592010,-2100.000000,-35420.000000,-1680.000000
2177.350483,-4418.649306,1719.318535,-298.529899,2658.695299,1446.850770,4676.901362,-3576.815555,-5066.291102,9877.660558,5636.372344,10503.151775,15931.407026,2558.559484,9122.775092,9836.801569,-264.007996,-925.736023,-324.032013,-980.000000,-35980.000000,-2380.000000
2127.439037,-4469.052490,1663.416822,-358.276112,2598.814976,1387.082206,4614.517643,-3630.482093,-5113.609745,9813.220479,5479.776022,10449.418181,15875.751183,2498.701513,9059.519656,9792.679226,-260.592010,-925.736023,-323.544006,420.000000,-36680.000000,-3220.000000
2090.290438,-4519.858005,1614.421799,-418.625822,2539.515798,1330.912272,4553.296215,-3679.186544,-5150.981861,9758.793981,5281.627808,10398.523259,15826.711455,2442.263358,8997.828841,9749.674469,-258.152008,-925.247986,-324.032013,1400.000000,-37100.000000,-3640.000000
2037.026231,-4569.858857,1567.393728,-470.012482,2487.726806,1281.179640,4504.234136,-3716.737475,-5205.698932,9718.963172,5368.330225,10346.711915,15779.839847,2391.323732,8954.198236,9713.442291,-257.175995,-926.712036,-324.032013,2100.000000,-37100.000000,-4340.000000
2040.021365,-4548.714107,1583.911667,-436.775438,2518.527510,1306.213594,4537.538235,-3691.591762,-5204.201365,9731.502501,5447.924787,10365.017994,15796.000158,2418.190529,8999.840498,9734.005896,-256.200012,-925.247986,-325.984009,3360.000000,-37100.000000,-4620.000000
2091.877412,-4487.045644,1640.640395,-374.883458,2580.307732,1367.680891,4594.177555,-3640.070992,-5152.054745,9790.958141,5573.362776,10424.093655,15852.594775,2479.300198,9047.673231,9776.116583,-251.807999,-926.223999,-319.640015,4060.000000,-36960.000000,-4620.000000
2154.574055,-4438.117676,1693.770491,-327.676574,2629.101590,1416.944136,4640.624480,-3597.870898,-5087.793480,9860.561473,5797.327256,10476.106164,15905.680168,2528.742257,9089.515697,9810.627676,-249.367996,-922.320007,-317.688019,5040.000000,-35980.000000,-4620.000000
2211.347486,-4381.098375,1745.537131,-267.818602,2688.311361,1471.750614,4696.973228,-3556.430764,-5030.125979,9908.729483,5764.045508,10532.678429,15957.200939,2585.672150,9144.948023,9852.157218,-249.856003,-925.247986,-313.295990,5880.000000,-35420.000000,-4480.000000
2213.001515,-4381.903038,1741.156190,-277.318093,2679.303608,1464.665111,4684.657417,-3570.713528,-5028.159026,9901.353407,5663.417955,10530.800883,15952.417666,2578.094909,9127.513662,9843.998831,-251.320007,-923.296021,-310.856018,6440.000000,-34860.000000,-4060.000000
2163.604160,-4434.988431,1688.070796,-332.437495,2623.848930,1408.964563,4631.974355,-3619.797959,-5077.578733,9843.171816,5558.029480,10475.837943,15900.002825,2521.857920,9081.357310,9804.637409,-246.440002,-922.320007,-309.880005,7140.000000,-34020.000000,-3640.000000
2096.303057,-4481.211839,1636.259453,-373.296484,2581.581781,1365.110441,4592.143547,-3661.886294,-5146.869140,9767.958196,5326.063076,10424.384227,15848.280889,2477.556762,9050.511903,9775.490734,-250.832001,-921.832031,-306.951996,7560.000000,-33460.000000,-3500.000000
2032.310013,-4551.329261,1577.943752,-443.212741,2513.565423,1301.475024,4531.659726,-3715.888109,-5211.309220,9711.967076,5310.148634,10360.502942,15790.032243,2412.490834,8989.290475,9727.523890,-255.223999,-919.392029,-305.976013,8540.000000,-32200.000000,-3360.000000
2057.232208,-4549.362308,1578.547249,-449.940616,2505.697609,1294.523632,4523.836616,-3715.262260,-5183.391891,9732.642440,5447.075420,10359.050078,15790.501629,2404.757131,8985.356568,9715.968039,-257.175995,-920.856018,-306.463989,8680.000000,-30940.000000,-3500.000000
2109.982325,-4490.264295,1633.510188,-393.770682,2561.934598,1351.565284,4570.104727,-3658.175905,-5130.105332,9788.700615,5531.900290,10416.024675,15845.151644,2462.134059,9029.948298,9759.844513,-259.615997,-916.952026,-312.320007,8680.000000,-29120.000000,-3920.000000
2153.724689,-4426.897100,1687.310837,-328.436533,2627.022878,1412.540843,4637.182312,-3605.917526,-5086.608837,9848.268014,5743.236034,10473.848638,15898.862886,2524.093094,9093.159031,9808.012522,-259.615997,-918.903992,-314.272003,8680.000000,-27860.000000,-4620.000000
2203.412617,-4387.267457,1740.485637,-277.251038,2680.734120,1466.855582,4692.927562,-3562.219866,-5039.021973,9902.560401,5818.136730,10526.889327,15951.568300,2578.854868,9137.080209,9847.262185,-260.592010,-919.880005,-311.343994,8400.000000,-26740.000000,-5180.000000
2224.065629,-4376.136288,1753.673166,-265.046986,2692.737006,1478.299675,4704.014028,-3554.866142,-5016.089084,9910.361160,5687.267266,10539.719229,15965.493437,2590.857755,9147.898453,9858.527465,-261.567993,-918.416016,-311.343994,7980.000000,-25900.000000,-6020.000000
2190.895640,-4406.802882,1712.724771,-309.862233,2646.379488,1431.830398,4651.375669,-3601.827157,-5048.700279,9868.697508,5617.798044,10499.284923,15924.567392,2543.896740,9097.718787,9818.406083,-264.007996,-918.903992,-311.343994,8260.000000,-24920.000000,-6720.000000
2122.946337,-4467.823144,1652.822095,-365.652188,2591.751825,1377.672121,4605.666352,-3641.993242,-5117.878928,9791.405176,5409.971524,10439.717524,15864.396496,2489.872574,9052.411801,9786.577199,-264.496002,-915.000000,-308.416016,8120.000000,-24080.000000,-7700.000000
2076.946447,-4510.738493,1599.714351,-422.604432,2534.084324,1323.178568,4547.373002,-3690.340065,-5164.079984,9735.324649,5286.165212,10387.749718,15811.244048,2434.127323,8992.531478,9745.449989,-261.567993,-913.536011,-307.928009,7840.000000,-23940.000000,-8540.000000
2050.660795,-4544.489627,1572.646388,-454.790944,2501.674295,1291.774367,4517.779293,-3713.451769,-5192.064368,9721.175995,5425.908318,10355.831427,15784.332548,2402.030218,8973.241922,9718.851414,-264.984009,-914.023987,-304.024017,7700.000000,-24780.000000,-9100.000000
2081.595609,-4510.023237,1607.671572,-410.981525,2545.461362,1333.326260,4564.337976,-3673.129222,-5158.380289,9754.189522,5486.638008,10390.789555,15819.178917,2444.185608,9023.399237,9750.412077,-261.567993,-914.512024,-307.928009,7420.000000,-25900.000000,-9660.000000
2130.657688,-4450.433487,1664.512058,-349.715394,2606.638087,1393.430101,4621.312573,-3622.033134,-5111.419274,9817.199089,5663.306196,10448.322946,15875.907645,2504.088283,9077.736327,9793.886220,-261.567993,-911.583984,-305.000000,6720.000000,-27160.000000,-10080.000000
2184.726558,-4402.667809,1719.609108,-300.876832,2656.817753,1443.922692,4661.545713,-3582.448194,-5057.238645,9883.516715,5841.136675,10502.391815,15930.647067,2555.273778,9100.579810,9824.441054,-261.080017,-910.119995,-303.536011,5880.000000,-28840.000000,-10500.000000
2237.499027,-4353.605730,1758.367033,-254.675776,2702.057684,1484.178184,4704.952801,-3556.922502,-5001.560450,9916.373779,5727.545110,10546.312993,15969.717916,2597.518575,9140.500026,9855.688793,-260.104004,-914.023987,-302.071991,4760.000000,-30520.000000,-10640.000000
2211.056913,-4372.783527,1728.549806,-280.424986,2675.190887,1456.886704,4684.366844,-3590.785395,-5028.270784,9882.376776,5652.555007,10517.568650,15940.437131,2569.288322,9130.821720,9835.996906,-259.615997,-915.000000,-302.559998,4060.000000,-31500.000000,-10920.000000
2156.898636,-4420.616260,1673.788032,-335.007946,2618.640973,1399.621534,4627.213434,-3644.027250,-5082.473765,9819.098987,5499.400854,10463.253911,15885.407136,2511.844338,9075.948188,9787.493621,-253.272003,-913.536011,-306.463989,3640.000000,-32200.000000,-11340.000000
2107.322467,-4474.886295,1624.770656,-393.413054,2561.264045,1346.670252,4567.556628,-3688.417815,-5133.189873,9760.962100,5301.789081,10413.007189,15836.345057,2457.820172,9010.546984,9742.477207,-255.712006,-914.023987,-303.048004,3500.000000,-32340.000000,-11340.000000
2066.843458,-4528.485778,1581.363568,-451.773459,2503.440082,1297.652876,4514.180662,-3713.004734,-5173.154792,9729.915527,5399.153280,10361.732288,15793.005025,2407.037009,8966.268178,9714.693989,-251.807999,-915.976013,-309.880005,3640.000000,-32340.000000,-11760.000000
2075.270066,-4511.498453,1600.586069,-423.140874,2532.407943,1322.351554,4546.300119,-3686.584972,-5166.136344,9746.567577,5479.932485,10379.613683,15812.786318,2432.786218,9001.673341,9738.945632,-249.856003,-918.416016,-305.000000,3780.000000,-32480.000000,-12180.000000
2123.281613,-4463.173981,1655.884284,-366.255685,2591.148328,1378.789708,4606.471015,-3638.841646,-5118.862405,9806.492604,5600.743663,10434.330754,15868.352755,2489.760815,9057.664461,9779.178772,-249.367996,-917.928040,-305.976013,4340.000000,-31780.000000,-12460.000000
2175.584695,-4416.414132,1705.929840,-317.305364,2640.299814,1427.337697,4654.773135,-3595.412206,-5065.754660,9870.083317,5819.410779,10482.722280,15917.459538,2538.577025,9103.105557,9813.600458,-248.391998,-919.392029,-305.000000,4480.000000,-31220.000000,-12600.000000
2231.441704,-4352.041108,1758.322329,-253.580541,2701.990628,1485.139309,4712.395932,-3552.943892,-5008.444787,9914.362122,5778.775308,10540.523892,15968.935605,2597.228002,9159.141381,9855.509979,-245.464005,-917.928040,-311.343994,5040.000000,-30380.000000,-12600.000000
2240.851789,-4344.709735,1752.220303,-267.416271,2685.986779,1473.270532,4688.099586,-3569.394776,-4996.263086,9907.075454,5676.538429,10536.902909,15963.302966,2584.666322,9133.816854,9840.579014,-244.975998,-920.367981,-309.391998,6020.000000,-29260.000000,-12740.000000
2174.131831,-4413.888385,1692.451738,-338.226597,2617.121055,1408.182252,4618.004515,-3619.350924,-5065.955826,9839.819055,5569.227704,10474.161562,15903.959084,2518.728676,9062.201865,9789.013539,-240.584000,-920.367981,-312.808014,6440.000000,-28140.000000,-12740.000000
2109.937621,-4479.870734,1635.879473,-387.601601,2570.540019,1356.169743,4586.645017,-3668.904742,-5130.909995,9769.344004,5344.235044,10414.951791,15847.766798,2468.280788,9026.729647,9760.313900,-242.535995,-918.903992,-314.272003,7000.000000,-27440.000000,-12460.000000
2064.429470,-4520.819130,1585.431586,-439.859979,2518.348696,1307.197071,4538.588767,-3719.196167,-5176.619312,9724.707571,5337.283652,10362.648709,15796.782469,2418.279936,8976.639387,9727.278021,-239.608002,-920.367981,-309.880005,7560.000000,-26600.000000,-12320.000000
2062.797792,-4520.617964,1583.978723,-441.648119,2515.107693,1306.146539,4529.603366,-3711.887146,-5178.765080,9731.346039,5464.353319,10359.608872,15794.994330,2415.798892,8970.336195,9723.053542,-236.192001,-921.343994,-310.856018,7700.000000,-26180.000000,-12040.000000
2096.928906,-4485.570429,1631.207959,-384.919391,2571.098813,1358.427269,4586.890887,-3662.579198,-5147.182065,9780.855153,5543.657308,10405.385245,15842.380028,2469.152506,9036.787932,9763.174923,-237.167999,-919.392029,-311.343994,7420.000000,-25900.000000,-11620.000000
2155.445773,-4419.722190,1685.723863,-319.317021,2633.504883,1415.603032,4646.793562,-3617.361619,-5085.535954,9849.407953,5760.648043,10464.349146,15897.074747,2527.401153,9101.205659,9804.235077,-238.632004,-918.416016,-307.928009,7420.000000,-25760.000000,-11480.000000
2230.681745,-4338.384192,1747.682899,-248.752564,2703.421140,1480.981884,4709.199632,-3570.266494,-5005.919040,9910.607029,5833.894710,10535.181825,15958.251471,2593.942296,9156.928558,9849.251491,-239.119995,-918.903992,-309.391998,7420.000000,-25760.000000,-11200.000000
2254.888684,-4328.795293,1763.910265,-237.733154,2716.876890,1497.365713,4728.623298,-3558.889456,-4981.577990,9920.911183,5701.281810,10550.246900,15975.372908,2609.923793,9179.593227,9865.121229,-240.584000,-921.832031,-309.880005,7280.000000,-25760.000000,-11060.000000
2211.213375,-4374.884590,1718.312707,-285.320018,2668.217143,1449.980015,4684.992693,-3600.441349,-5025.298002,9872.452601,5628.996268,10500.827193,15929.618887,2562.024005,9140.701192,9831.280688,-242.535995,-919.880005,-309.880005,7280.000000,-25760.000000,-11060.000000
2154.998738,-4428.931109,1662.500401,-345.133286,2609.074427,1393.072473,4620.194986,-3650.062221,-5082.607875,9803.720987,5428.903452,10444.836073,15873.828933,2504.311801,9072.573074,9784.722004,-242.535995,-918.903992,-310.856018,6440.000000,-26040.000000,-10920.000000
2090.536307,-4490.152537,1604.765845,-408.008743,2546.623653,1334.577958,4560.381718,-3696.464443,-5147.472638,9739.146798,5302.191413,10383.815811,15816.295542,2444.476181,9013.810338,9742.723077,-239.119995,-916.952026,-309.880005,6160.000000,-26460.000000,-10780.000000
2046.726888,-4537.828808,1572.311112,-450.544113,2506.055237,1298.479891,4524.998906,-3716.804530,-5193.159603,9713.643457,5435.765438,10343.739133,15783.349071,2406.925250,8974.851248,9716.884460,-240.584000,-917.440002,-312.320007,6020.000000,-26880.000000,-10640.000000
2083.249638,-4505.977572,1610.286726,-413.976659,2543.472057,1334.689717,4561.544008,-3679.678283,-5157.061536,9753.921301,5501.613677,10379.904256,15820.989409,2443.895035,9006.076635,9743.863016,-242.535995,-918.416016,-312.808014,5880.000000,-27020.000000,-10640.000000
2138.905482,-4451.774591,1667.462488,-357.158525,2600.424302,1390.077339,4618.563309,-3629.163340,-5102.188003,9822.965839,5681.075833,10435.716562,15878.098116,2500.176728,9059.653766,9786.130164,-244.975998,-916.463989,-309.391998,5460.000000,-27160.000000,-10500.000000
2208.106483,-4370.973035,1727.476922,-283.129547,2670.765241,1453.824515,4681.818745,-3581.844697,-5029.164854,9890.915142,5856.447620,10505.185784,15937.933736,2565.130897,9122.663334,9831.280688,-247.416000,-918.903992,-308.903992,5320.000000,-27440.000000,-10360.000000
2258.464963,-4307.762302,1770.749899,-221.952822,2729.326812,1505.434693,4732.892481,-3552.295691,-4977.889952,9922.118178,5738.653927,10558.606453,15981.743155,2618.305697,9177.022776,9870.373889,-246.928009,-916.463989,-306.951996,5040.000000,-28000.000000,-10220.000000
2225.742009,-4341.647546,1740.642099,-257.179172,2695.106291,1473.270532,4701.912964,-3590.785395,-5012.356342,9890.915142,5666.413089,10525.369409,15951.769465,2585.158060,9148.926633,9842.724781,-247.904007,-915.488037,-309.880005,5040.000000,-28560.000000,-10220.000000
2166.956921,-4410.155643,1681.611142,-332.102219,2622.485473,1409.299840,4626.900509,-3637.411134,-5071.119079,9825.558642,5515.292944,10462.024565,15892.492639,2519.958022,9067.789801,9792.992150,-250.832001,-915.976013,-306.951996,4480.000000,-29120.000000,-10220.000000
2113.782121,-4468.270179,1627.586976,-394.843566,2560.749955,1350.961787,4563.980349,-3684.059225,-5124.830320,9759.665699,5312.361456,10405.362893,15838.401418,2460.860009,9003.014446,9753.027231,-251.320007,-914.023987,-304.511993,4340.000000,-29960.000000,-10500.000000
2056.852228,-4523.970726,1580.693016,-445.827895,2509.497405,1301.005638,4522.897842,-3722.437170,-5184.017740,9720.304277,5403.176594,10351.942224,15791.440402,2410.322715,8962.624843,9717.376198,-252.783997,-914.512024,-308.416016,3920.000000,-30380.000000,-10780.000000
2074.174830,-4505.396426,1602.910650,-424.034944,2531.066839,1321.301022,4541.785066,-3701.985324,-5166.695138,9745.986431,5491.108357,10371.969387,15813.322760,2430.931023,8977.332291,9728.417960,-252.783997,-912.072021,-305.488007,3360.000000,-30520.000000,-10920.000000
2136.379735,-4448.846513,1664.802631,-362.031205,2593.830537,1381.918953,4597.105634,-3651.671547,-5104.758454,9813.555755,5619.921460,10437.057666,15874.499485,2491.861879,9030.350629,9769.276949,-253.272003,-909.632019,-307.928009,2940.000000,-30800.000000,-11620.000000
2186.335884,-4401.661980,1718.133893,-301.390922,2654.113192,1440.346413,4660.808106,-3599.681389,-5055.450506,9878.219352,5839.147370,10490.947722,15928.076616,2551.049298,9101.071549,9816.997923,-253.272003,-909.632019,-310.368011,2240.000000,-31080.000000,-12180.000000
2244.137495,-4333.019773,1766.368957,-240.571826,2713.412370,1496.158719,4720.040228,-3552.340395,-4992.128014,9921.782901,5795.382654,10544.971889,15975.886998,2607.532156,9158.381421,9861.902578,-251.807999,-910.119995,-308.903992,1960.000000,-31080.000000,-12460.000000
2230.994669,-4344.307404,1749.761611,-259.771974,2694.480442,1480.132518,4700.325990,-3567.249008,-5006.410778,9902.783919,5687.960170,10527.425769,15959.391410,2590.857755,9137.236671,9849.698526,-253.760010,-908.656006,-308.903992,1680.000000,-31080.000000,-13020.000000
2166.800459,-4422.516158,1690.618895,-332.191626,2623.781875,1413.926651,4635.483579,-3620.490863,-5074.248323,9838.857930,5586.326788,10461.376364,15900.427508,2524.316612,9071.589598,9802.066958,-252.783997,-906.704041,-308.903992,1540.000000,-31220.000000,-13300.000000
2109.132959,-4470.617112,1638.986366,-378.236220,2575.591514,1363.635226,4590.221297,-3667.138954,-5131.312326,9768.695804,5360.440059,10410.950829,15849.242014,2474.338111,9030.127112,9764.448972,-254.736008,-908.168030,-307.928009,1120.000000,-31080.000000,-13580.000000
2059.914417,-4516.438188,1589.320789,-431.790999,2522.372010,1311.756827,4536.666517,-3711.775388,-5179.748557,9720.527794,5350.247663,10361.240549,15799.643493,2421.655050,8979.455707,9721.757140,-252.296005,-907.679993,-309.391998,1120.000000,-31080.000000,-14000.000000
2066.932865,-4515.745284,1587.018560,-436.283700,2517.454626,1305.990077,4531.883244,-3712.870623,-5170.539638,9727.434483,5476.825592,10358.558340,15797.184801,2415.843596,8972.593721,9716.258611,-249.367996,-911.583984,-307.440002,980.000000,-31360.000000,-14140.000000
2120.062962,-4460.737641,1641.579168,-375.665769,2577.469060,1364.618702,4592.635285,-3660.992224,-5118.281259,9783.224438,5557.940073,10413.387169,15851.834816,2474.360463,9034.306888,9761.833818,-249.367996,-913.048035,-310.368011,980.000000,-31080.000000,-14140.000000
2166.711052,-4414.849510,1695.871555,-320.993402,2632.253186,1419.089904,4647.441762,-3612.265421,-5073.086032,9849.519712,5772.025081,10466.092582,15905.635465,2529.502217,9089.538048,9802.513993,-248.391998,-914.512024,-308.416016,1400.000000,-30800.000000,-14140.000000
2219.438817,-4361.585303,1748.152286,-261.828335,2691.060625,1475.170431,4704.528118,-3565.706738,-5019.821825,9903.677988,5843.617719,10520.496728,15957.536215,2586.387406,9142.824607,9844.445866,-247.904007,-913.536011,-311.832001,980.000000,-31080.000000,-14140.000000
2232.469884,-4351.147038,1761.272760,-248.976081,2704.851652,1488.760291,4719.079103,-3561.169334,-5008.511842,9909.064759,5708.814348,10535.047714,15971.126076,2600.491357,9150.245386,9855.554683,-244.975998,-913.048035,-309.880005,980.000000,-30800.000000,-13860.000000
2196.997666,-4383.199439,1716.233995,-290.438567,2660.751660,1442.916863,4675.850830,-3609.672619,-5040.474837,9861.679061,5638.898091,10493.853449,15925.796738,2554.245598,9109.855784,9817.601421,-242.048004,-916.463989,-306.463989,840.000000,-30800.000000,-13580.000000
2148.248511,-4429.199330,1664.400299,-339.768867,2609.566165,1395.777034,4622.608974,-3645.815390,-5089.156936,9795.719063,5439.766400,10442.019754,15874.186560,2506.144644,9067.231007,9784.900818,-242.535995,-918.416016,-310.368011,840.000000,-30800.000000,-13300.000000
2072.230228,-4514.337124,1604.832900,-419.072857,2535.783057,1330.264071,4554.056174,-3692.552888,-5168.751498,9732.307164,5313.791968,10371.298834,15815.110900,2438.664727,8994.699597,9741.270213,-242.048004,-916.952026,-306.951996,980.000000,-31080.000000,-12880.000000
2044.335251,-4549.339956,1576.110909,-462.502296,2494.365274,1289.539193,4514.404179,-3718.011524,-5196.288847,9717.823233,5455.747897,10338.486473,15786.500667,2397.962200,8945.637518,9706.692065,-241.072006,-920.367981,-304.024017,840.000000,-31220.000000,-12460.000000
2076.722929,-4516.840520,1614.421799,-417.351772,2537.951176,1329.146484,4557.364232,-3682.405196,-5166.628083,9756.379993,5519.293907,10379.323110,15824.453929,2438.798838,8990.162193,9732.620088,-239.608002,-920.856018,-303.536011,420.000000,-31360.000000,-11760.000000
2134.792761,-4446.052545,1673.966846,-348.061365,2604.402912,1392.357217,4619.032695,-3632.381991,-5105.496062,9822.339990,5694.643342,10442.600899,15883.686052,2502.478957,9052.680022,9777.010653,-238.143997,-918.903992,-305.976013,560.000000,-31500.000000,-11200.000000
2208.687628,-4369.229599,1731.723753,-292.047893,2660.662253,1446.180218,4663.423260,-3593.311142,-5029.477779,9893.195020,5870.864495,10507.689179,15941.353553,2557.464249,9082.229028,9810.068883,-240.096008,-919.880005,-300.119995,280.000000,-31920.000000,-10500.000000
2244.875103,-4327.275375,1772.091004,-234.715669,2716.295745,1497.030437,4720.308449,-3557.034261,-4994.474947,9917.893698,5749.338061,10553.465552,15981.251416,2609.923793,9148.054915,9852.738363,-242.048004,-919.392029,-302.071991,0.000000,-32060.000000,-9940.000000
2227.083114,-4359.551294,1744.061916,-265.672835,2685.830317,1469.649550,4696.973228,-3581.911752,-5011.752845,9890.132831,5678.907714,10523.961249,15952.328259,2581.022987,9135.895566,9837.919156,-241.559998,-920.856018,-304.024017,-140.000000,-32060.000000,-9240.000000
2156.362195,-4428.796998,1683.198116,-330.403487,2621.859625,1409.255136,4636.936442,-3631.286756,-5086.675893,9818.249621,5522.959593,10458.805914,15892.514991,2519.667449,9075.702319,9795.428490,-241.072006,-920.856018,-300.608002,-560.000000,-32480.000000,-8540.000000
2085.596572,-4506.469310,1623.831883,-398.777473,2555.094964,1347.273749,4573.904523,-3679.566524,-5157.843847,9747.685164,5319.849291,10392.242419,15833.640496,2456.747288,9012.022199,9748.847455,-246.440002,-920.856018,-297.192017,-1120.000000,-32620.000000,-7980.000000
2052.873618,-4544.132000,1577.787289,-453.673357,2499.394417,1293.964838,4517.578127,-3721.051362,-5186.677597,9712.302352,5414.374818,10346.175473,15787.528847,2402.432549,8955.293471,9705.686236,-245.951996,-922.320007,-297.192017,-2100.000000,-32620.000000,-7700.000000
2074.778327,-4519.880357,1597.926211,-432.886235,2520.203891,1312.382676,4537.001793,-3700.375998,-5164.214094,9734.698800,5499.602020,10367.946073,15807.064272,2421.252718,8967.698689,9718.739655,-247.904007,-921.832031,-298.167999,-2240.000000,-32900.000000,-7280.000000
2137.430267,-4454.143876,1659.438212,-366.501554,2585.940371,1374.766394,4598.245573,-3648.609358,-5101.539803,9805.062092,5629.488007,10432.766131,15868.978604,2484.396396,9025.634411,9764.940711,-250.832001,-925.736023,-295.239990,-2940.000000,-32760.000000,-7140.000000
2186.894678,-4407.518137,1713.305916,-307.358838,2644.144314,1431.606881,4659.511704,-3601.782453,-5054.489381,9874.531314,5850.569111,10484.711586,15923.159233,2542.220359,9091.996740,9811.655857,-249.367996,-923.296021,-295.727997,-3360.000000,-32900.000000,-7140.000000
2245.322138,-4352.130515,1766.480716,-250.764221,2701.163614,1485.988675,4714.139368,-3560.521133,-4994.363188,9922.811082,5809.777178,10541.417961,15975.663480,2597.809148,9141.170578,9853.118343,-256.687988,-924.272034,-294.752014,-3640.000000,-33180.000000,-6860.000000
2237.007289,-4362.702890,1757.316501,-263.392957,2689.384245,1475.885686,4701.935315,-3572.322854,-5004.309714,9909.556497,5705.148662,10531.762008,15966.879245,2587.460290,9123.155072,9846.681040,-251.320007,-923.296021,-295.239990,-4060.000000,-33880.000000,-6860.000000
2186.358236,-4406.780530,1704.409922,-312.410332,2639.204578,1424.253157,4652.873236,-3619.038000,-5053.707070,9850.190264,5602.621210,10481.425879,15913.413872,2535.291318,9078.183362,9810.672380,-255.712006,-921.832031,-293.287994,-4340.000000,-34300.000000,-7000.000000
2136.022107,-4459.485943,1652.553875,-360.578342,2590.120147,1375.772223,4609.130872,-3662.534495,-5104.601992,9783.894990,5380.757794,10430.486254,15861.647232,2487.033902,9041.258280,9774.507257,-259.127991,-924.272034,-290.847992,-4900.000000,-35280.000000,-6860.000000
2062.462516,-4531.346802,1593.545269,-426.493636,2524.942461,1316.383638,4551.575130,-3707.886184,-5180.910847,9726.361600,5369.380757,10364.503904,15803.309179,2425.946584,8987.390576,9729.312030,-258.640015,-925.247986,-290.847992,-5740.000000,-36540.000000,-6860.000000
2051.666624,-4531.503264,1586.325656,-434.137933,2515.957059,1306.414760,4535.526578,-3707.774425,-5190.633856,9725.445178,5491.667150,10357.328994,15796.268379,2416.312983,8971.498486,9717.063274,-262.544006,-923.296021,-289.872009,-6300.000000,-37660.000000,-6580.000000
2114.653839,-4473.321673,1640.372174,-383.555935,2568.148383,1358.449621,4583.068738,-3661.863942,-5125.053838,9784.453784,5573.854515,10414.080073,15849.912566,2468.258437,9012.625696,9755.128295,-261.080017,-923.296021,-284.992004,-7140.000000,-39060.000000,-6580.000000
2175.472936,-4418.582251,1698.263192,-330.068210,2622.284308,1411.758532,4637.003498,-3620.960250,-5064.502962,9855.889959,5792.007541,10472.865161,15907.781232,2521.768513,9061.464257,9795.808470,-261.567993,-926.712036,-284.992004,-7840.000000,-40180.000000,-6580.000000
2233.810989,-4355.527980,1755.595416,-261.984797,2688.758396,1473.024663,4701.287115,-3578.491936,-5005.293191,9914.138605,5864.628358,10536.120598,15964.487608,2585.001598,9121.836319,9838.142674,-264.007996,-928.664001,-284.503998,-8820.000000,-41440.000000,-6720.000000
2253.972263,-4332.215110,1774.147364,-240.817695,2710.193719,1491.733073,4719.906118,-3575.452098,-4987.300037,9924.487463,5729.713229,10558.651156,15983.240722,2604.872299,9136.275546,9851.553720,-263.032013,-930.127991,-284.015991,-9380.000000,-42700.000000,-6860.000000
2189.800404,-4405.014742,1726.180521,-290.863251,2660.662253,1447.364860,4680.410585,-3603.347075,-5055.830485,9874.307796,5660.825152,10503.040016,15936.123244,2559.252388,9107.642961,9821.825900,-261.567993,-931.104004,-286.455994,-9380.000000,-43680.000000,-6860.000000
2158.239741,-4434.675507,1674.682102,-338.673632,2610.013200,1397.587526,4626.900509,-3641.479151,-5078.919837,9814.114548,5465.336795,10453.821475,15884.244845,2508.178652,9059.854932,9784.029100,-265.472015,-930.127991,-287.432007,-9240.000000,-44940.000000,-6860.000000
2098.091197,-4505.843461,1617.975726,-413.373162,2538.934653,1333.907406,4557.788915,-3692.955219,-5143.561082,9751.976699,5344.123285,10390.856611,15827.493766,2443.313890,8987.368225,9740.532606,-265.472015,-932.080017,-299.631989,-9240.000000,-45920.000000,-7000.000000
2043.619996,-4565.701433,1581.788252,-464.178677,2491.973638,1291.215574,4519.098046,-3717.899766,-5200.468624,9724.484053,5481.362996,10344.834369,15792.110955,2399.705636,8942.374163,9711.587097,-263.519989,-931.104004,-299.631989,-8400.000000,-47320.000000,-7280.000000
2083.271990,-4516.080560,1621.976688,-411.093284,2541.236882,1334.823827,4566.774317,-3679.588876,-5159.363766,9764.717193,5542.651480,10388.487326,15832.053522,2444.744402,8990.788041,9743.594795,-258.152008,-925.247986,-292.800018,-7700.000000,-49140.000000,-7140.000000
2135.396258,-4455.619091,1679.018340,-345.870894,2602.055979,1395.106482,4624.195948,-3625.967041,-5107.172442,9827.816168,5711.921240,10448.479408,15888.603436,2505.138815,9057.530350,9787.448917,-256.687988,-921.832031,-292.800018,-7840.000000,-50820.000000,-7140.000000
2199.277544,-4385.278152,1733.221320,-283.844803,2660.729308,1447.141343,4674.152097,-3577.866087,-5040.407782,9889.775203,5880.363987,10509.700836,15942.694657,2558.537133,9117.567136,9821.647086,-251.807999,-914.512024,-284.992004,-10080.000000,-53340.000000,-6440.000000
2263.225885,-4322.089770,1774.370882,-231.966404,2715.200509,1490.995466,4726.455179,-3557.458944,-4972.279665,9927.549652,5761.340947,10562.674470,15983.419536,2605.587555,9152.949947,9858.035726,-251.320007,-907.679993,-284.992004,-12600.000000,-54880.000000,-6300.000000
2237.208454,-4357.204361,1746.744126,-267.706843,2682.745777,1463.055785,4699.633086,-3602.162433,-5001.001656,9899.744081,5693.525755,10533.974830,15955.882186,2576.776156,9114.951982,9841.875415,-249.367996,-904.752014,-278.160004,-19180.000000,-56840.000000,-6020.000000
2157.546837,-4443.862074,1686.237953,-334.426801,2617.210462,1410.104502,4644.692498,-3630.213872,-5085.513602,9826.340953,5541.310375,10461.756344,15895.845401,2520.650926,9068.460353,9806.604362,-246.928009,-906.704041,-284.015991,-24360.000000,-58660.000000,-6160.000000
2093.129110,-4506.938697,1630.537406,-393.234240,2557.955987,1355.163915,4583.314608,-3664.613207,-5149.238425,9757.162304,5336.300175,10402.412463,15840.748351,2464.928027,9014.033856,9769.165190,-246.928009,-904.264038,-294.752014,-26320.000000,-58800.000000,-6720.000000
2044.469362,-4555.240817,1580.894182,-452.153439,2500.064969,1297.429359,4526.071790,-3711.149539,-5196.691179,9717.845585,5429.886929,10349.729401,15791.350995,2406.679381,8951.001936,9719.857242,-245.464005,-906.216003,-305.488007,-25340.000000,-57260.000000,-7700.000000
