-31887.244509,-22016.624751,-33906.724621,22464.397247,-37726.973024,-11367.471381,-18115.552439,-30972.767588,-12427.212289,-27211.460735,-9288.602685,-28441.991322,50926.773361,-5850.971443,-13999.411642,-10691.264056,-44.896000,-912.072021,-411.872009,6720.000000,-3080.000000,-9800.000000
-31688.626908,-23023.280266,-33983.324049,22752.019495,-36576.014647,-11980.982063,-16130.918697,-29974.225756,-12475.335595,-26981.260119,-8535.818283,-28774.115893,50352.132362,-5699.404263,-12568.788239,-10636.323468,-124.928001,-946.231995,-285.968018,-4760.000000,5600.000000,-8540.000000
-31684.536539,-23018.921676,-33983.860491,22753.673524,-36576.439330,-11992.292046,-16128.303543,-29978.807864,-12468.205389,-26980.276642,-8541.070943,-28771.009001,50343.571644,-5700.723016,-12559.400506,-10638.066904,-127.856003,-944.280029,-288.895996,-5180.000000,6020.000000,-8260.000000
-31659.502585,-22993.016004,-33964.459177,22772.694859,-36549.371368,-11967.481609,-16103.850735,-29950.488204,-12439.617507,-26962.842281,-8523.837748,-28747.226745,50362.078889,-5693.883383,-12546.838826,-10614.642276,-123.952003,-947.208008,-290.847992,-5460.000000,6300.000000,-7980.000000
-31654.205221,-22988.478600,-33955.809051,22780.629728,-36536.429708,-11951.053077,-16094.910037,-29934.149079,-12435.169510,-26957.455511,-8516.841652,-28741.571753,50373.455927,-5689.725958,-12546.615308,-10602.393520,-122.975998,-948.184021,-291.335999,-5320.000000,6860.000000,-7140.000000
-31686.659954,-23019.793394,-33978.384313,22765.676411,-36561.217792,-11976.712880,-16115.294828,-29955.383236,-12468.831237,-26984.456418,-8541.026240,-28771.433684,50349.316043,-5702.019418,-12552.762038,-10622.353628,-125.416000,-950.624023,-292.800018,-5460.000000,7140.000000,-6580.000000
-31712.945606,-23042.368655,-33998.120904,22748.242050,-36587.346981,-11999.355197,-16139.680581,-29977.086780,-12496.100366,-27006.964625,-8559.444077,-28793.561911,50327.254871,-5717.553880,-12563.490875,-10645.554739,-124.440002,-950.135986,-289.384003,-5320.000000,7280.000000,-6300.000000
-31704.429591,-23032.936219,-33987.883805,22754.031152,-36577.378103,-11980.423269,-16132.416264,-29958.803053,-12490.177153,-26999.610901,-8546.413010,-28782.766018,50341.202359,-5718.492653,-12565.457829,-10641.352611,-125.416000,-949.648010,-290.847992,-4900.000000,7140.000000,-6020.000000
-31691.219710,-23028.354112,-33977.534947,22757.518024,-36567.342170,-11960.239644,-16127.610639,-29937.904172,-12479.515371,-26990.044354,-8530.587975,-28775.546405,50358.547313,-5717.419769,-12574.286768,-10640.637355,-122.975998,-949.648010,-292.312012,-4620.000000,7000.000000,-6020.000000
-31705.614234,-23046.906060,-33993.114113,22743.391722,-36586.654077,-11978.635130,-16148.084837,-29952.812785,-12494.312226,-27005.668224,-8543.551987,-28793.137228,50342.029374,-5728.640345,-12585.976730,-10663.994928,-127.368004,-951.112000,-288.407990,-4200.000000,6720.000000,-5880.000000
-31727.384833,-23068.520196,-34010.213197,22728.125480,-36610.525740,-12004.741967,-16168.424924,-29973.041114,-12518.228593,-27027.058843,-8561.187513,-28812.650301,50319.655278,-5738.788037,-12594.224524,-10682.815097,-131.759995,-954.528015,-287.920013,-3640.000000,6580.000000,-5740.000000
-31718.108859,-23058.104284,-34000.937224,22735.032169,-36601.897967,-11993.476688,-16160.557110,-29959.026570,-12508.751453,-27018.654587,-8550.950414,-28803.351975,50328.551272,-5738.408057,-12591.475259,-10674.790820,-126.391998,-954.040039,-286.455994,-2240.000000,6020.000000,-5460.000000
-31696.874702,-23033.763234,-33981.491206,22752.801806,-36575.746426,-11965.760525,-16141.178148,-29934.909038,-12487.561999,-27000.102639,-8535.058324,-28782.274280,50351.439458,-5730.182616,-12586.848448,-10658.719916,-128.832001,-958.432007,-287.920013,-840.000000,5460.000000,-5460.000000
-31709.391678,-23050.348228,-33992.957651,22745.269268,-36587.190519,-11977.316377,-16150.856453,-29946.822518,-12501.107156,-27011.054994,-8545.004850,-28797.115838,50341.291766,-5734.764723,-12590.447079,-10669.582864,-129.807999,-953.064026,-294.752014,1260.000000,4480.000000,-5320.000000
-31724.546161,-23071.157702,-34010.704936,22728.348998,-36617.097153,-12008.899392,-16177.790305,-29979.858396,-12513.154747,-27027.930561,-8561.031051,-28817.433574,50315.587260,-5748.019308,-12600.840640,-10695.935571,-128.832001,-949.160034,-294.264008,2380.000000,3500.000000,-4900.000000
-31723.093298,-23068.676659,-34006.547511,22732.394663,-36612.917377,-12006.105424,-16172.180017,-29976.237413,-12513.020636,-27026.812974,-8557.968862,-28813.074984,50318.202414,-5748.287529,-12597.532582,-10692.605161,-129.320007,-948.184021,-293.776001,3220.000000,3220.000000,-5040.000000
-31703.356707,-23047.196632,-33988.934337,22750.209004,-36587.928127,-11980.020938,-16149.291831,-29949.325913,-12495.966255,-27009.311558,-8541.249757,-28793.383097,50339.682441,-5740.777342,-12592.771660,-10675.126097,-126.391998,-948.671997,-291.824005,2940.000000,3500.000000,-4900.000000
-31701.345050,-23052.628106,-33990.901290,22744.062274,-36597.159397,-11984.826563,-16156.824369,-29951.315218,-12495.720386,-27009.222151,-8544.043725,-28798.345184,50336.754362,-5741.961985,-12604.528678,-10683.932684,-123.952003,-948.671997,-288.895996,2100.000000,4060.000000,-5600.000000
-31724.613216,-23075.963327,-34012.269558,22727.566687,-36624.339119,-12015.649619,-16180.852494,-29977.399704,-12518.675628,-27030.456308,-8566.462525,-28817.746498,50311.966278,-5749.896854,-12612.575306,-10710.397149,-122.000000,-954.040039,-284.503998,1960.000000,4060.000000,-5880.000000
-31727.049557,-23075.918624,-34013.185980,22727.700797,-36622.618034,-12018.510642,-16180.919550,-29978.785512,-12524.777654,-27033.943180,-8568.608292,-28815.868952,50310.468711,-5750.478000,-12607.747329,-10714.286353,-119.071999,-954.040039,-281.088013,1960.000000,3780.000000,-6440.000000
-31700.182760,-23050.303525,-33990.789532,22746.096283,-36594.231319,-11990.749775,-16157.137293,-29949.012989,-12498.402595,-27012.016119,-8544.334298,-28791.662013,50334.407429,-5739.391534,-12595.766794,-10692.471050,-119.559998,-955.015991,-277.671997,2240.000000,3640.000000,-6860.000000
-31693.298422,-23043.352132,-33984.486340,22751.974792,-36587.123464,-11982.703147,-16151.683468,-29940.116994,-12490.534781,-27008.775116,-8538.254623,-28783.056591,50342.699926,-5728.997973,-12594.962131,-10687.888943,-115.655998,-948.184021,-278.648010,2520.000000,3360.000000,-7560.000000
-31724.479106,-23073.728153,-34008.827389,22734.875707,-36614.526703,-12009.502889,-16172.671756,-29965.575631,-12526.610497,-27036.200707,-8564.763792,-28809.923388,50317.755379,-5734.809427,-12602.740538,-10705.233896,-116.632004,-951.600037,-279.623993,1820.000000,2800.000000,-7980.000000
-31727.138964,-23078.801999,-34014.705898,22730.181841,-36622.193351,-12017.728331,-16179.958425,-29970.917698,-12527.526918,-27036.871259,-8570.843467,-28816.517152,50310.267545,-5739.458589,-12605.623913,-10707.871402,-114.192001,-952.575989,-278.160004,700.000000,2660.000000,-7980.000000
-31693.879568,-23050.527042,-33989.403723,22747.102111,-36597.315859,-11989.185153,-16162.859340,-29948.096567,-12491.518258,-27005.131782,-8544.379001,-28788.644527,50337.715487,-5730.741409,-12605.065120,-10688.045405,-111.264000,-954.528015,-282.552002,0.000000,2240.000000,-8400.000000
-31681.787274,-23045.520251,-33981.468854,22751.013667,-36589.671563,-11977.495191,-16156.667907,-29936.004273,-12481.705842,-26995.520532,-8533.784274,-28783.727143,50348.824304,-5725.175825,-12607.210887,-10682.345710,-107.360001,-951.600037,-283.040009,-700.000000,1260.000000,-8540.000000
-31701.747382,-23067.871996,-34000.825465,22735.546259,-36610.279871,-12003.356159,-16175.197503,-29957.774873,-12503.767014,-27014.407756,-8551.710373,-28804.603673,50328.283051,-5729.243842,-12614.251687,-10702.261114,-103.456001,-950.135986,-289.384003,-1400.000000,0.000000,-8820.000000
-31721.506324,-23078.220854,-34014.080049,22729.891268,-36619.555845,-12022.623363,-16180.070183,-29972.147044,-12524.956468,-27031.596247,-8566.507228,-28816.472449,50312.010981,-5736.239938,-12608.753158,-10712.766434,-104.431999,-951.112000,-294.752014,-1680.000000,-840.000000,-8540.000000
-31697.567606,-23054.304487,-33995.684564,22745.783358,-36596.600604,-11998.841107,-16161.853512,-29949.214154,-12499.743700,-27012.127878,-8546.748286,-28795.059478,50331.077019,-5727.880386,-12600.930047,-10698.483670,-101.992004,-952.575989,-295.239990,-1120.000000,-1260.000000,-8820.000000
-31674.522957,-23033.495013,-33979.211328,22757.294507,-36579.345057,-11979.350386,-16152.465779,-29934.238486,-12474.419174,-26991.184293,-8528.285745,-28775.121722,50349.293691,-5719.207909,-12598.247838,-10688.358329,-103.944000,-955.504028,-290.847992,280.000000,-1260.000000,-7840.000000
-31697.299385,-23055.265612,-33996.936261,22741.581230,-36601.629746,-12001.031578,-16171.643576,-29953.438634,-12496.837973,-27007.970453,-8543.574338,-28794.388925,50332.082848,-5726.159302,-12606.585038,-10703.445757,-105.408005,-954.040039,-288.895996,1820.000000,-140.000000,-7280.000000
-31717.460658,-23073.392877,-34012.694241,22728.058425,-36620.002880,-12020.522299,-16185.613416,-29970.649477,-12517.133357,-27021.269741,-8557.432420,-28810.057498,50316.391923,-5735.636441,-12611.457719,-10718.332019,-108.335999,-949.160034,-287.920013,2520.000000,1820.000000,-6860.000000
-31696.919405,-23056.047923,-33995.304584,22736.037998,-36605.206025,-11999.288142,-16175.152800,-29953.505689,-12494.759261,-27002.851904,-8542.143827,-28792.734896,50334.899167,-5734.027116,-12612.687065,-10707.178498,-115.167999,-944.280029,-289.384003,3220.000000,4200.000000,-6300.000000
-31678.635678,-23036.512498,-33978.317258,22750.119597,-36583.301316,-11975.930569,-16157.763142,-29928.561143,-12477.101383,-26986.758648,-8527.123454,-28775.591108,50355.373365,-5727.388647,-12604.506326,-10691.219353,-121.024002,-943.304016,-289.872009,3780.000000,5320.000000,-5460.000000
-31686.302326,-23044.782644,-33988.397895,22742.698818,-36595.974755,-11992.314397,-16169.386049,-29939.468794,-12482.823429,-26994.425296,-8535.840635,-28786.834036,50343.482237,-5729.735581,-12605.936838,-10705.278600,-122.975998,-936.471985,-290.360016,3500.000000,5880.000000,-5180.000000
-31708.922292,-23064.295717,-34006.189883,22729.064253,-36617.298319,-12018.130662,-16189.122640,-29962.178166,-12504.146994,-27014.474811,-8555.756039,-28806.056536,50319.901147,-5736.441104,-12610.563649,-10722.981182,-128.343994,-934.031982,-293.287994,2380.000000,6020.000000,-5180.000000
-31705.636585,-23062.015839,-34000.244319,22734.205155,-36607.865883,-12005.144299,-16182.975910,-29954.600925,-12502.694130,-27011.770250,-8547.128266,-28801.250911,50328.193644,-5738.162188,-12606.406225,-10715.023960,-133.712006,-934.031982,-295.239990,1400.000000,6300.000000,-5740.000000
-31676.780483,-23038.859432,-33980.686543,22751.460701,-36582.809577,-11977.584598,-16162.859340,-29931.221000,-12472.832200,-26991.318404,-8525.648239,-28780.061457,50350.657147,-5731.344906,-12597.197306,-10696.069681,-135.175995,-935.007996,-296.216003,1400.000000,6020.000000,-6580.000000
-31681.139074,-23044.603830,-33988.643764,22748.107940,-36588.665734,-11987.553476,-16167.709669,-29936.875991,-12480.476496,-26996.861636,-8534.767751,-28788.353954,50344.353955,-5731.255499,-12597.465527,-10701.478803,-138.104004,-937.936035,-294.752014,1400.000000,4620.000000,-7980.000000
-31704.675460,-23069.615432,-34009.453238,22726.762024,-36614.169075,-12015.649619,-16193.794154,-29962.558146,-12511.634828,-27018.386366,-8554.750211,-28811.443306,50321.756342,-5740.464418,-12611.211850,-10724.992839,-125.903999,-939.400024,-290.847992,1260.000000,3500.000000,-9380.000000
-31693.276071,-23064.787455,-34003.731192,22723.364559,-36610.838665,-12011.402787,-16196.297550,-29958.467777,-12503.163517,-27011.680843,-8546.882397,-28806.190646,50325.734952,-5745.448857,-12620.174899,-10727.630344,-126.391998,-940.376038,-288.407990,1260.000000,2100.000000,-11760.000000
-31661.447187,-23036.937182,-33982.429979,22740.620105,-36579.054484,-11980.758545,-16171.688279,-29929.388157,-12474.821505,-26986.244558,-8522.764864,-28781.536672,50351.350051,-5739.190369,-12609.535469,-10707.334960,-117.608002,-940.864014,-290.360016,980.000000,700.000000,-13580.000000
-31667.057475,-23039.328818,-33987.414418,22744.643419,-36576.640496,-11981.496153,-16168.089648,-29930.081061,-12483.829258,-26992.324232,-8528.665725,-28785.068248,50348.287862,-5735.658793,-12601.913524,-10709.436024,-116.632004,-941.351990,-289.872009,560.000000,420.000000,-15400.000000
-31689.006888,-23060.115941,-34009.117962,22729.108957,-36603.261423,-12009.525241,-16189.234399,-29956.567878,-12504.504622,-27011.524381,-8548.670536,-28806.414164,50323.857406,-5742.073744,-12609.826041,-10735.408751,-111.264000,-943.304016,-291.335999,420.000000,280.000000,-16800.000000
-31687.934004,-23057.836063,-34005.944014,22726.024416,-36606.256557,-12012.878002,-16197.057509,-29960.859413,-12504.884601,-27008.037508,-8546.189492,-28803.776658,50323.477426,-5742.230206,-12617.358579,-10746.852845,-110.776001,-943.791992,-292.800018,420.000000,140.000000,-17640.000000
-31659.949620,-23042.212193,-33984.329877,22737.490861,-36584.865938,-11983.418403,-16179.042003,-29930.885724,-12475.290892,-26986.445723,-8520.797911,-28784.576510,50350.120705,-5732.887177,-12613.268210,-10730.893699,-107.848000,-948.671997,-293.776001,1400.000000,-140.000000,-18060.000000
-31649.980742,-23035.909001,-33979.859529,22742.184727,-36576.886365,-11976.869342,-16173.610529,-29922.302654,-12465.344365,-26983.964680,-8518.450978,-28778.899166,50355.149848,-5727.858034,-12608.708454,-10727.429179,-112.239998,-947.695984,-294.752014,2380.000000,0.000000,-18060.000000
-31677.875719,-23061.993487,-34001.317203,22724.795070,-36601.383877,-12004.361988,-16190.620207,-29942.910962,-12494.356930,-27008.998634,-8540.310984,-28803.553141,50330.138246,-5737.245767,-12609.267248,-10747.299879,-111.751999,-946.720032,-300.119995,1680.000000,700.000000,-17920.000000
-31687.017582,-23069.324859,-34009.207369,22718.827154,-36611.509217,-12016.566040,-16196.677529,-29953.550393,-12503.208220,-27016.933503,-8545.451885,-28809.923388,50322.471597,-5743.526607,-12610.720111,-10754.452438,-107.360001,-944.768005,-300.119995,2380.000000,980.000000,-17360.000000
-31662.162442,-23045.341437,-33989.068447,22735.769777,-36588.688086,-11993.141412,-16174.102268,-29927.622369,-12478.353081,-26995.341718,-8522.742513,-28786.699925,50348.019641,-5734.541206,-12604.819251,-10731.541900,-103.456001,-943.304016,-298.656006,5600.000000,2520.000000,-16520.000000
-31652.104157,-23039.306466,-33982.899366,22742.698818,-36579.702685,-11981.540857,-16163.261671,-29910.612692,-12470.351156,-26987.742125,-8515.053512,-28779.882643,50358.748479,-5725.712267,-12600.952399,-10717.259135,-104.919998,-939.888000,-299.631989,7000.000000,2800.000000,-15680.000000
-31670.901975,-23060.317106,-34003.306508,22726.560858,-36602.300298,-12006.440700,-16181.523047,-29934.640817,-12486.824392,-27005.958796,-8537.338202,-28799.596882,50335.234444,-5731.635479,-12606.428576,-10735.006420,-101.503998,-936.960022,-299.144012,7840.000000,3500.000000,-14420.000000
-31675.573489,-23067.760237,-34012.046041,22717.396643,-36615.063145,-12021.706941,-16193.905913,-29952.835137,-12488.724290,-27012.194933,-8546.502417,-28806.972957,50323.253909,-5735.345869,-12613.961114,-10750.138551,-101.503998,-935.007996,-298.656006,7980.000000,4760.000000,-13440.000000
-31655.814547,-23047.576612,-33992.890596,22731.210021,-36595.058333,-12000.025749,-16177.835009,-29932.718567,-12468.071278,-26993.844151,-8524.910632,-28784.777675,50342.789333,-5732.127217,-12610.831870,-10737.465112,-101.015999,-934.031982,-298.167999,5880.000000,6300.000000,-12320.000000
-31641.174154,-23034.031455,-33977.691409,22743.838757,-36576.193461,-11979.506848,-16161.741753,-29911.037375,-12453.028554,-26980.142531,-8510.069073,-28770.941945,50359.217865,-5726.651040,-12600.415957,-10723.562327,-102.968002,-937.936035,-298.656006,3360.000000,7840.000000,-11340.000000
-31656.932134,-23051.063484,-33991.258918,22733.132271,-36594.477188,-11997.678816,-16177.589140,-29926.080099,-12471.625205,-26993.575930,-8524.508300,-28787.057553,50343.437534,-5729.109732,-12603.545201,-10741.622536,-106.872002,-939.400024,-299.631989,280.000000,8680.000000,-10080.000000
-31675.573489,-23072.431752,-34007.933320,22718.067195,-36615.264310,-12020.142319,-16195.336425,-29943.961494,-12495.921552,-27012.664320,-8542.479103,-28805.341280,50325.869063,-5739.927976,-12606.808556,-10759.369821,-104.919998,-942.328003,-297.679993,-1400.000000,9240.000000,-9520.000000
-31653.713483,-23051.756388,-33992.980003,22730.181841,-36596.488845,-12004.473746,-16180.070183,-29929.678730,-12476.564941,-26998.672128,-8528.665725,-28787.549292,50342.632871,-5738.497464,-12597.264361,-10748.417467,-105.896004,-943.304016,-302.559998,-3080.000000,9940.000000,-8960.000000
-31629.886523,-23031.282190,-33974.740979,22742.743521,-36574.539432,-11979.506848,-16160.914738,-29906.544674,-12457.230682,-26979.382572,-8509.063245,-28768.840881,50366.929217,-5727.768627,-12593.509268,-10735.252289,-106.384003,-942.328003,-301.584015,-4620.000000,9940.000000,-8960.000000
-31634.423928,-23043.776815,-33985.849796,22730.181841,-36592.242013,-11993.789613,-16175.063393,-29920.134535,-12461.231644,-26986.915110,-8515.165271,-28780.240271,50356.222732,-5730.584947,-12605.802727,-10749.758571,-110.288002,-948.671997,-301.584015,-5320.000000,10080.000000,-9240.000000
-31659.949620,-23064.966269,-34008.760334,22714.803840,-36617.231264,-12021.841052,-16194.665872,-29941.703968,-12485.393880,-27011.680843,-8535.035972,-28801.206207,50331.702868,-5739.145665,-12613.134100,-10765.628310,-105.408005,-945.744019,-304.024017,-6580.000000,10640.000000,-9520.000000
-31651.008922,-23054.237432,-33998.299718,22720.548239,-36608.178807,-12011.156918,-16186.708651,-29930.796317,-12477.481363,-27003.857732,-8521.848443,-28789.873873,50343.705755,-5737.446932,-12610.541297,-10757.380516,-107.360001,-945.744019,-301.584015,-7140.000000,10640.000000,-10360.000000
-31626.176134,-23032.355074,-33975.210366,22735.613315,-36582.630763,-11980.110345,-16162.345250,-29902.387250,-12456.247205,-26981.908319,-8499.586105,-28767.589184,50370.594903,-5726.136950,-12598.761928,-10735.341696,-106.384003,-946.231995,-301.584015,-7560.000000,10360.000000,-11480.000000
-31630.355910,-23037.987714,-33981.446502,22734.428672,-36588.173996,-11989.051043,-16165.899177,-29910.545636,-12459.845836,-26988.949119,-8509.085597,-28775.211129,50363.911732,-5726.740447,-12597.174954,-10740.773170,-106.384003,-948.184021,-300.608002,-8120.000000,9800.000000,-11900.000000
-31656.440396,-23062.686391,-34003.462971,22717.396643,-36615.197255,-12020.075264,-16188.273274,-29939.066462,-12484.320996,-27013.580741,-8532.823149,-28798.412239,50337.715487,-5739.838569,-12604.931009,-10763.080211,-108.823997,-944.768005,-300.119995,-8680.000000,9800.000000,-12460.000000
-31651.992399,-23057.187862,-33998.076200,22716.167297,-36612.760915,-12016.789558,-16188.250922,-29935.914866,-12479.805944,-27010.138572,-8526.430550,-28792.533731,50342.319947,-5743.079572,-12606.965018,-10763.035508,-107.360001,-944.768005,-298.167999,-8540.000000,9660.000000,-12740.000000
-31631.406442,-23036.713664,-33979.144273,22729.801861,-36590.409170,-11987.128793,-16167.664965,-29907.215227,-12460.158761,-26990.647851,-8506.090463,-28773.780617,50366.705700,-5734.585909,-12598.247838,-10743.902414,-105.896004,-948.184021,-299.631989,-8680.000000,10080.000000,-13440.000000
-31633.283989,-23036.512498,-33981.670020,22731.858222,-36590.230356,-11989.721595,-16164.602776,-29907.148171,-12461.701031,-26992.972433,-8511.521937,-28778.452132,50365.766926,-5729.690877,-12590.424727,-10741.935461,-101.015999,-946.231995,-299.144012,-8540.000000,9660.000000,-14000.000000
-31656.328637,-23061.367638,-34000.289023,22714.133288,-36617.231264,-12021.863404,-16187.893294,-29937.680654,-12484.253941,-27015.681805,-8534.611289,-28800.870931,50341.962319,-5740.285604,-12599.566591,-10762.834342,-100.040001,-944.280029,-299.631989,-8400.000000,8540.000000,-14000.000000
-31663.212974,-23069.101342,-34004.155875,22709.126497,-36623.221531,-12026.512566,-16193.391823,-29946.286076,-12492.859363,-27022.230866,-8538.791065,-28804.581321,50337.961356,-5746.477037,-12606.652094,-10767.237636,-101.503998,-946.231995,-302.559998,-9380.000000,8680.000000,-13580.000000
-31642.738777,-23048.202461,-33985.201595,22724.035111,-36600.936842,-11997.812927,-16177.320919,-29923.353186,-12471.893426,-27004.237712,-8521.088483,-28783.615385,50362.481220,-5741.067915,-12603.612256,-10749.825627,-101.503998,-946.720032,-305.976013,-10500.000000,8960.000000,-14000.000000
-31636.256771,-23044.246202,-33984.106360,22725.935009,-36597.338211,-11992.202639,-16176.337442,-29916.111221,-12462.997432,-27002.337814,-8520.596745,-28781.491969,50366.437479,-5739.324479,-12600.773585,-10746.986955,-95.160004,-951.600037,-302.559998,-10920.000000,8960.000000,-13160.000000
-31659.770806,-23069.414266,-34006.771029,22707.785393,-36620.315805,-12022.131624,-16197.146916,-29943.268590,-12484.477459,-27024.354282,-8541.115646,-28804.178989,50342.230540,-5747.952252,-12607.926143,-10765.985938,-95.160004,-946.231995,-304.024017,-10780.000000,9520.000000,-12740.000000
-31667.392751,-23080.612490,-34017.209294,22697.771811,-36632.184581,-12033.642773,-16211.139108,-29956.679637,-12490.870057,-27031.685654,-8546.681231,-28813.030280,50334.586243,-5755.462439,-12619.660809,-10775.284264,-93.695999,-948.671997,-305.976013,-9940.000000,9660.000000,-12180.000000
-31641.688245,-23056.651420,-33998.836160,22716.323759,-36605.653060,-12003.110290,-16188.340329,-29932.740919,-12466.260787,-27010.406793,-8525.335315,-28790.566777,50357.340319,-5742.856055,-12608.216716,-10756.352336,-93.695999,-946.231995,-305.000000,-9380.000000,9660.000000,-11480.000000
-31627.360776,-23045.632010,-33989.828407,22724.482146,-36592.465531,-11986.614703,-16177.432677,-29922.257951,-12455.442542,-26999.633253,-8514.807643,-28779.860291,50369.857296,-5732.551900,-12603.545201,-10751.300842,-94.672005,-947.695984,-307.440002,-9100.000000,9380.000000,-11340.000000
-31658.362646,-23073.392877,-34010.548474,22707.271303,-36616.940691,-12008.519412,-16197.839820,-29940.698140,-12491.630017,-27026.768270,-8539.729838,-28804.648376,50345.963281,-5736.709325,-12610.474242,-10770.456287,-96.136002,-948.671997,-304.511993,-8120.000000,9520.000000,-10920.000000
-31684.871815,-23100.594950,-34027.356985,22688.562893,-36637.459593,-12025.931421,-16214.223649,-29954.176242,-12524.800006,-27048.091835,-8558.080621,-28825.726071,50326.874891,-5746.566444,-12618.163242,-10786.437784,-94.183998,-951.600037,-303.536011,-7420.000000,9380.000000,-11060.000000
-31651.992399,-23074.622223,-34007.218064,22701.817477,-36616.426601,-12004.920781,-16198.353910,-29933.053843,-12487.092613,-27024.443689,-8538.947527,-28800.379193,50346.611482,-5742.051392,-12612.329437,-10774.725470,-91.256004,-953.064026,-299.144012,-7140.000000,8960.000000,-11340.000000
-31623.113945,-23050.124711,-33986.341534,22716.279056,-36595.818293,-11983.284293,-16182.797096,-29914.658357,-12455.196673,-27003.008366,-8521.177890,-28776.149902,50366.862162,-5731.747238,-12605.221582,-10760.889740,-92.720001,-954.528015,-298.167999,-6580.000000,9100.000000,-11340.000000
-31641.956465,-23073.437580,-34001.451314,22701.012814,-36617.790057,-12003.825546,-16200.164402,-29937.457137,-12477.660176,-27021.605017,-8537.002926,-28791.885530,50349.919540,-5735.837607,-12612.463547,-10776.714775,-89.792000,-951.600037,-298.167999,-6160.000000,9100.000000,-12460.000000
-31669.538518,-23097.376299,-34021.165552,22688.764058,-36638.688938,-12030.915860,-16213.508393,-29962.200518,-12508.282066,-27047.309524,-8559.019394,-28812.806763,50328.260699,-5742.878406,-12614.743425,-10790.103470,-88.328003,-948.184021,-302.559998,-4480.000000,8960.000000,-13020.000000
-31653.646428,-23075.672755,-34007.665099,22703.717375,-36616.784229,-12013.526203,-16195.984625,-29943.894439,-12489.171325,-27035.820727,-8546.837693,-28795.394754,50345.180970,-5736.508159,-12599.790108,-10772.937330,-83.936005,-946.231995,-306.951996,-4480.000000,8680.000000,-13440.000000
-31627.584294,-23052.225775,-33988.666116,22717.061367,-36592.599641,-11988.179325,-16182.104192,-29922.190895,-12462.103362,-27013.178410,-8526.385847,-28773.154768,50369.566723,-5728.103903,-12591.207038,-10757.156999,-79.543999,-946.720032,-309.880005,-4900.000000,8400.000000,-14840.000000
-31636.413233,-23065.659173,-33997.919738,22705.192590,-36609.206988,-12004.496098,-16199.695015,-29940.362864,-12471.871075,-27018.878105,-8534.812455,-28785.336469,50360.670729,-5728.997973,-12598.918390,-10771.216246,-80.031998,-944.768005,-310.368011,-4620.000000,8540.000000,-15260.000000
-31664.464672,-23090.424906,-34018.840971,22688.652299,-36634.687976,-12033.039276,-16221.979704,-29968.771931,-12502.716482,-27042.213326,-8556.851275,-28808.291710,50338.207226,-5730.853168,-12603.902829,-10789.388214,-83.447998,-940.864014,-314.272003,-3220.000000,8960.000000,-14980.000000
-31659.346123,-23085.641633,-34013.118924,22694.128477,-36626.440182,-12019.449415,-16211.586143,-29958.579535,-12494.245171,-27039.441709,-8549.519902,-28803.933120,50344.711583,-5727.768627,-12594.470393,-10779.151115,-81.496002,-946.231995,-305.000000,-1540.000000,10220.000000,-14840.000000
-31635.183887,-23062.395819,-33993.248223,22710.579361,-36600.333345,-11990.369796,-16189.837896,-29936.004273,-12466.372546,-27020.666244,-8530.006830,-28783.615385,50365.297540,-5721.420732,-12582.959245,-10761.627348,-77.592003,-946.231995,-304.024017,-560.000000,11340.000000,-14980.000000
-31642.761128,-23073.795208,-33999.841988,22699.917579,-36611.419810,-11998.282313,-16203.405404,-29949.460024,-12475.872037,-27027.975265,-8536.779408,-28790.410315,50359.687252,-5724.192348,-12598.225486,-10776.871237,-79.056000,-945.255981,-301.096008,-1120.000000,10920.000000,-14700.000000
-31672.801873,-23102.651310,-34024.741831,22679.845712,-36641.147630,-12030.982915,-16226.204184,-29976.572690,-12508.594991,-27055.356152,-8562.528618,-28816.517152,50333.960394,-5734.362392,-12610.451890,-10800.541735,-78.080002,-943.304016,-302.559998,-1820.000000,10780.000000,-14700.000000
-31668.935021,-23093.911778,-34022.953692,22685.523055,-36632.698671,-12031.586412,-16217.442300,-29972.705838,-12503.655255,-27055.467910,-8566.551932,-28810.213960,50334.787409,-5733.155398,-12603.947533,-10794.976150,-76.615997,-942.816040,-303.048004,-2660.000000,11340.000000,-14700.000000
-31638.469593,-23066.352077,-34000.825465,22701.415146,-36605.697764,-12004.920781,-16197.258675,-29946.688407,-12469.233569,-27031.216267,-8546.837693,-28783.123646,50359.754307,-5719.990220,-12600.997102,-10775.418374,-78.568001,-938.911987,-301.584015,-3360.000000,11900.000000,-14560.000000
-31635.899143,-23069.034287,-34001.786590,22699.224675,-36609.788133,-12007.334770,-16199.717367,-29945.123785,-12468.473610,-27030.724529,-8548.022336,-28783.369515,50360.715432,-5714.916374,-12605.221582,-10776.982996,-82.959999,-939.888000,-303.536011,-3780.000000,12740.000000,-13580.000000
-31659.994323,-23093.129467,-34023.691299,22681.946776,-36637.213723,-12036.436741,-16219.185736,-29970.984753,-12494.647502,-27050.818747,-8569.681176,-28805.385984,50336.396734,-5723.410037,-12611.100091,-10799.066520,-83.936005,-937.447998,-302.559998,-2660.000000,13160.000000,-12320.000000
-31661.670704,-23097.666871,-34025.412384,22675.285956,-36645.662683,-12039.543633,-16224.773672,-29979.098437,-12498.290837,-27051.958686,-8568.518885,-28809.208132,50332.865159,-5730.629650,-12619.772568,-10808.409549,-86.863998,-937.447998,-302.559998,-1260.000000,11620.000000,-11060.000000
-31637.396710,-23072.856435,-34002.144218,22691.625081,-36618.080630,-12009.927572,-16202.623093,-29955.383236,-12476.900217,-27033.049111,-8548.067039,-28786.789332,50358.457906,-5722.806540,-12613.268210,-10787.600075,-77.104004,-944.280029,-303.536011,-1260.000000,11760.000000,-11340.000000
-31631.719367,-23068.654307,-33998.500883,22697.704756,-36610.279871,-12000.293970,-16194.889390,-29947.224849,-12472.116944,-27030.009273,-8547.955280,-28783.704792,50364.515229,-5714.603450,-12606.920315,-10778.882894,-76.615997,-951.600037,-300.608002,-1120.000000,11760.000000,-11620.000000
-31657.580335,-23095.096421,-34021.612587,22682.639680,-36635.157363,-12026.959601,-16214.871849,-29974.404570,-12496.480345,-27052.562183,-8571.938702,-28808.157600,50339.436572,-5721.174863,-12612.955286,-10798.015988,-73.688004,-955.992004,-299.631989,560.000000,11760.000000,-12040.000000
-31664.039989,-23104.014767,-34028.675738,22673.698982,-36645.953255,-12035.743837,-16225.108948,-29987.457989,-12501.107156,-27057.524271,-8573.011586,-28813.432612,50331.680516,-5729.981450,-12621.068969,-10804.743863,-72.223999,-957.455994,-296.216003,1680.000000,11760.000000,-13020.000000
-31633.619265,-23078.444371,-34005.698145,22689.613424,-36619.399383,-12007.759453,-16205.148841,-29963.809844,-12469.859418,-27031.708006,-8543.708449,-28786.789332,50355.887455,-5722.538319,-12613.581135,-10787.465964,-76.615997,-955.015991,-300.608002,3500.000000,11340.000000,-13020.000000
-31622.175172,-23070.397743,-33994.902253,22697.883570,-36605.474246,-11994.057833,-16192.251884,-29950.152928,-12462.684508,-27023.795488,-8532.465521,-28776.395771,50369.231447,-5717.620935,-12608.999027,-10777.362976,-75.152000,-953.552002,-301.096008,3780.000000,12180.000000,-14000.000000
-31646.627980,-23095.230531,-34013.074221,22680.449209,-36629.055337,-12020.522299,-16210.982646,-29976.975021,-12486.913799,-27044.873183,-8554.861969,-28798.345184,50345.985633,-5727.880386,-12616.106882,-10798.083043,-84.912003,-942.328003,-298.167999,2520.000000,13020.000000,-14280.000000
-31663.570602,-23110.228552,-34022.998395,22666.434665,-36646.489697,-12037.733142,-16225.220707,-29992.755353,-12499.654293,-27056.943125,-8568.742403,-28810.593940,50329.847673,-5736.105828,-12623.192385,-10812.879898,-88.816002,-940.864014,-298.656006,140.000000,14000.000000,-12740.000000
-31645.733910,-23093.375336,-34004.982889,22677.901110,-36627.580121,-12013.928534,-16206.378187,-29971.051809,-12482.868133,-27039.374654,-8550.145751,-28791.460847,50350.679499,-5727.478054,-12620.510175,-10798.507726,-81.008003,-944.768005,-298.656006,-1120.000000,16380.000000,-12740.000000
-31632.501678,-23083.317051,-33995.416343,22690.440439,-36609.855188,-11996.337711,-16187.200390,-29954.109186,-12474.933264,-27027.081195,-8537.293498,-28780.262623,50369.454964,-5717.531528,-12611.547126,-10785.521362,-88.328003,-939.400024,-305.976013,-2240.000000,16940.000000,-12740.000000
-31648.013788,-23102.964235,-34014.370622,22676.649413,-36631.469325,-12018.778863,-16209.306265,-29978.316126,-12490.803002,-27041.565125,-8553.140885,-28798.993385,50353.607578,-5724.393514,-12621.493652,-10807.224906,-86.375999,-937.447998,-308.416016,-3080.000000,16240.000000,-11760.000000
-31668.845614,-23119.884505,-34033.257846,22663.975974,-36653.172869,-12045.824474,-16227.902916,-30001.606643,-12508.997322,-27061.793454,-8574.285635,-28815.936007,50332.798103,-5736.597566,-12626.679257,-10826.201537,-84.912003,-935.984009,-311.343994,-2800.000000,15820.000000,-12320.000000
-31651.835937,-23104.350043,-34017.164590,22672.849616,-36635.783212,-12029.351238,-16211.474384,-29985.781608,-12491.048871,-27050.505823,-8561.634548,-28797.696984,50348.489028,-5731.814293,-12618.342056,-10809.214212,-86.375999,-934.031982,-307.928009,-2380.000000,15540.000000,-13580.000000
-31620.901122,-23079.249034,-33992.421209,22689.032279,-36608.312918,-11999.981046,-16188.407384,-29957.059617,-12458.124752,-27026.477698,-8539.305155,-28770.472559,50374.439403,-5717.777397,-12604.729844,-10785.968397,-80.520004,-933.056030,-306.951996,-2100.000000,13860.000000,-13860.000000
-31633.663968,-23090.871941,-34001.294851,22685.657166,-36617.119505,-12014.755549,-16194.934093,-29967.184957,-12467.892464,-27036.535983,-8551.755077,-28782.274280,50361.609502,-5716.324534,-12601.622951,-10794.439709,-80.520004,-927.687988,-306.951996,-2100.000000,12600.000000,-14000.000000
-31659.212012,-23113.737776,-34019.600930,22672.134360,-36640.901761,-12044.662183,-16216.168251,-29993.850588,-12491.607665,-27057.904250,-8573.436269,-28805.698908,50337.424915,-5720.437255,-12608.976675,-10816.143252,-74.176003,-931.591980,-306.463989,-1960.000000,11480.000000,-14560.000000
-31643.319922,-23099.030328,-34009.408535,22680.091581,-36627.781287,-12031.094674,-16206.221724,-29983.345268,-12475.089726,-27045.253163,-8559.958167,-28792.332565,50350.187761,-5715.743389,-12604.595733,-10807.984866,-74.664001,-933.544006,-306.951996,-1260.000000,10920.000000,-15120.000000
-31618.017747,-23075.024554,-33988.487302,22698.665881,-36602.032078,-12000.741005,-16186.328672,-29958.199556,-12451.866263,-27022.052052,-8536.734705,-28768.572661,50374.551162,-5704.858089,-12598.650169,-10788.829421,-73.688004,-934.520020,-307.440002,280.000000,9800.000000,-15680.000000
-31629.037157,-23085.865150,-33996.444523,22696.341300,-36611.755086,-12007.938267,-16193.525933,-29967.006143,-12463.846798,-27028.377596,-8541.316812,-28778.452132,50366.504534,-5705.930973,-12604.059291,-10800.184107,-57.096001,-941.351990,-308.416016,700.000000,4480.000000,-14700.000000
-31658.362646,-23118.588104,-34018.460991,22676.895282,-36643.047529,-12034.872119,-16220.325675,-29997.672736,-12491.942941,-27050.036436,-8564.294405,-28805.162466,50340.889435,-5717.956211,-12621.605411,-10828.280250,-68.807999,-952.088013,-311.832001,-280.000000,11620.000000,-17360.000000
-31663.861175,-23125.271276,-34018.550398,22674.905977,-36643.606322,-12030.871157,-16223.052588,-29997.628033,-12498.112023,-27055.110282,-8566.708394,-28805.274225,50340.822380,-5720.861938,-12626.165167,-10827.609697,-67.344002,-943.791992,-317.200012,980.000000,12040.000000,-17780.000000
-31640.235381,-23103.768898,-33998.478532,22694.642567,-36618.505313,-12002.529145,-16199.449146,-29976.751504,-12475.425002,-27034.367863,-8543.216710,-28782.363687,50365.744575,-5711.295391,-12611.792995,-10804.699159,-73.200005,-941.840027,-308.903992,-840.000000,15540.000000,-17500.000000
-31638.514297,-23112.977816,-34000.221968,22688.719355,-36629.725889,-12004.429043,-16209.082748,-29983.166454,-12475.648519,-27032.199744,-8541.920309,-28787.839864,50367.711528,-5711.988296,-12623.170033,-10810.421206,-76.127998,-941.840027,-305.000000,-700.000000,16100.000000,-17500.000000
-31667.750379,-23148.785311,-34027.200523,22665.115913,-36665.086349,-12036.280279,-16239.525824,-30012.916626,-12511.210145,-27058.775968,-8566.529580,-28818.484106,50342.990499,-5724.214700,-12646.102923,-10837.131540,-78.080002,-942.816040,-302.071991,-280.000000,13440.000000,-16520.000000
-31671.393713,-23150.059360,-34033.548419,22669.295689,-36665.913363,-12042.427008,-16237.201242,-30018.213990,-12514.361741,-27063.022800,-8572.698661,-28819.154658,50338.207226,-5725.198177,-12637.363391,-10841.266613,-72.711998,-952.088013,-301.096008,-420.000000,12040.000000,-16240.000000
-31640.257733,-23119.638636,-34008.492113,22691.446268,-36637.504296,-12013.392092,-16213.798966,-29992.263614,-12478.017804,-27035.261933,-8550.302213,-28789.024507,50364.358767,-5713.239993,-12625.494614,-10823.094645,-80.520004,-946.720032,-302.559998,2940.000000,14700.000000,-16800.000000
-31639.475422,-23119.459822,-34002.077163,22696.877741,-36630.687014,-12006.083072,-16205.148841,-29986.608623,-12482.465802,-27031.260971,-8549.229330,-28786.968146,50371.243104,-5706.489766,-12619.303181,-10819.116034,-98.087997,-933.056030,-289.872009,3080.000000,12600.000000,-14140.000000
-31660.217841,-23144.314962,-34021.389070,22683.310233,-36654.491622,-12034.313325,-16223.611381,-30011.039080,-12506.426872,-27050.103492,-8570.932874,-28811.309196,50348.623139,-5713.374104,-12626.209870,-10839.143197,-84.424004,-946.231995,-292.800018,4200.000000,11340.000000,-13860.000000
-31662.408312,-23150.171119,-34027.446392,22674.816570,-36663.387616,-12044.729238,-16234.563736,-30019.197466,-12508.974970,-27054.752654,-8578.800688,-28817.031242,50342.342298,-5716.816272,-12633.563594,-10848.553282,-82.959999,-954.040039,-291.824005,1820.000000,10360.000000,-13580.000000
-31642.291742,-23127.752319,-34011.800171,22690.731012,-36641.326444,-12023.964468,-16218.783405,-30000.667870,-12488.232552,-27042.660361,-8566.306062,-28798.009908,50363.442345,-5711.362447,-12631.797806,-10833.868186,-71.248001,-962.824036,-295.239990,5600.000000,5460.000000,-12460.000000
-31640.369492,-23126.075938,-34008.469761,22691.580378,-36636.498468,-12013.034464,-16213.262524,-29992.263614,-12487.450241,-27043.017989,-8563.534446,-28798.300481,50373.299464,-5706.199194,-12637.519853,-10828.101436,-70.272003,-962.824036,-301.584015,8120.000000,10080.000000,-12880.000000
-31671.326658,-23158.240099,-34031.223837,22668.446322,-36667.679151,-12044.058686,-16234.720198,-30019.197466,-12521.134319,-27072.097608,-8587.473164,-28830.732862,50348.489028,-5714.446987,-12648.271042,-10847.838026,-57.096001,-962.335999,-306.951996,12320.000000,15540.000000,-13580.000000
-31683.754228,-23171.494683,-34044.590180,22653.269488,-36689.986192,-12064.868160,-16254.345030,-30041.124528,-12533.450131,-27090.671908,-8598.716092,-28846.334379,50333.803932,-5724.214700,-12660.676260,-10863.260730,-88.328003,-923.783997,-316.223999,11620.000000,29120.000000,-19880.000000
-31667.772730,-23146.348971,-34027.669910,22672.380230,-36666.069825,-12037.241404,-16232.462672,-30020.046833,-12515.971066,-27078.601966,-8583.695720,-28823.625007,50355.172200,-5718.604412,-12649.299222,-10843.859416,-76.615997,-929.640015,-318.175995,14980.000000,22540.000000,-18900.000000
-31657.401521,-23131.686226,-34012.604834,22683.310233,-36649.596590,-12016.119005,-16219.364550,-30002.590120,-12501.822412,-27059.670038,-8569.882342,-28809.655167,50373.813555,-5709.350790,-12648.874539,-10830.135444,-73.688004,-941.840027,-315.248016,0.000000,13580.000000,-14560.000000
-31680.334411,-23150.126416,-34026.887599,22670.927366,-36668.461462,-12034.603898,-16230.965105,-30017.945769,-12522.229555,-27070.890614,-8582.980464,-28828.296522,50357.340319,-5706.020380,-12651.579100,-10838.226776,-57.096001,-940.864014,-310.856018,2240.000000,7420.000000,-14280.000000
-31693.767809,-23164.655049,-34041.907971,22654.051799,-36690.209709,-12057.246215,-16247.617155,-30039.269333,-12526.677552,-27081.530044,-8594.849240,-28843.629818,50341.872912,-5709.149624,-12662.263234,-10849.603814,-43.920002,-944.280029,-310.856018,3360.000000,4900.000000,-14980.000000
-31666.319867,-23140.291648,-34024.138334,22663.663049,-36673.065921,-12036.280279,-16234.273164,-30025.366548,-12494.669854,-27057.077236,-8574.710318,-28819.713452,50365.364595,-5700.343037,-12662.352641,-10831.521253,-39.528000,-942.328003,-312.808014,5740.000000,3500.000000,-15540.000000
-31644.482213,-23116.107060,-34003.641785,22683.869026,-36644.768613,-12005.189002,-16205.819393,-30001.249015,-12474.508581,-27034.256105,-8554.079658,-28797.831094,50394.220697,-5682.796917,-12649.947423,-10805.257953,-51.240002,-942.328003,-317.200012,3080.000000,8400.000000,-17360.000000
-31660.061378,-23129.294590,-34011.911930,22677.051744,-36654.648084,-12018.018903,-16212.547268,-30015.889408,-12493.105232,-27044.694369,-8567.133077,-28809.766926,50387.090491,-5678.706548,-12652.093190,-10810.242392,-62.952000,-930.127991,-314.272003,3640.000000,8540.000000,-15540.000000
-31679.216823,-23146.863061,-34029.458049,22661.383171,-36679.033837,-12049.668974,-16235.010771,-30049.305266,-12509.869040,-27061.614640,-8586.914371,-28826.463679,50365.543409,-5685.143850,-12661.190350,-10828.324953,-55.144001,-930.127991,-319.640015,4620.000000,3080.000000,-14140.000000
-31668.264469,-23136.849479,-34021.523180,22664.288898,-36671.635410,-12041.018849,-16229.132262,-30048.701769,-12502.582372,-27051.668114,-8580.410013,-28813.343205,50373.791203,-5682.349882,-12662.218530,-10822.580555,-61.976002,-936.960022,-322.567993,-560.000000,4200.000000,-13580.000000
-31651.545364,-23119.973912,-34004.804075,22675.196549,-36651.585895,-12013.056816,-16208.881582,-30022.729042,-12492.524087,-27035.999541,-8562.193342,-28796.624100,50394.690084,-5672.895095,-12659.335155,-10800.251162,-52.704002,-944.768005,-328.424011,5180.000000,1120.000000,-11760.000000
-31661.223669,-23131.418005,-34009.967328,22663.595994,-36664.549907,-12019.315305,-16217.889335,-30024.338368,-12501.800060,-27041.721587,-8568.831810,-28807.777620,50392.119633,-5666.994234,-12670.846304,-10799.580610,-51.728001,-946.720032,-320.127991,7840.000000,5460.000000,-12320.000000
-31689.968013,-23154.552061,-34029.994491,22645.871061,-36694.925928,-12047.634965,-16240.084617,-30050.489909,-12529.471520,-27062.016971,-8590.691816,-28831.716339,50369.812592,-5671.330472,-12683.162115,-10815.651514,-53.192001,-950.624023,-313.783997,9800.000000,7280.000000,-12600.000000
-31684.849463,-23144.091445,-34024.093631,22650.162596,-36692.802512,-12043.678706,-16230.249850,-30051.383978,-12519.681456,-27054.819710,-8586.400281,-28823.937932,50375.556991,-5670.682272,-12680.904589,-10807.426072,-51.728001,-954.528015,-305.488007,9380.000000,5320.000000,-11760.000000
-31661.335428,-23115.615322,-33999.998450,22671.530863,-36666.270991,-12013.302685,-16198.175096,-30027.378205,-12494.446337,-27033.294980,-8565.501400,-28800.803876,50404.435444,-5654.901940,-12669.326385,-10779.709909,-56.608002,-952.575989,-308.903992,5320.000000,7840.000000,-12320.000000
-31660.910745,-23114.855363,-33998.836160,22671.866139,-36665.689846,-12010.486366,-16193.414175,-30023.176077,-12492.300569,-27036.468927,-8567.468353,-28803.173161,50408.637572,-5646.073001,-12670.220455,-10772.020909,-59.535999,-946.720032,-303.048004,3920.000000,6720.000000,-10640.000000
-31688.984536,-23144.314962,-34023.110154,22650.944907,-36695.998811,-12037.621383,-16220.236268,-30052.814490,-12524.285915,-27066.107341,-8592.234086,-28832.386891,50388.141023,-5655.438382,-12687.006615,-10790.282284,-56.119999,-949.648010,-298.167999,2100.000000,6860.000000,-10640.000000
-31696.382963,-23150.215822,-34027.669910,22641.646581,-36707.375849,-12043.544596,-16230.875698,-30063.856252,-12531.438474,-27073.125788,-8598.403168,-28840.254705,50388.945685,-5663.060327,-12704.038644,-10793.433880,-61.487999,-950.624023,-299.144012,1120.000000,8120.000000,-10920.000000
-31670.924326,-23119.616284,-34004.915834,22662.970145,-36679.838500,-12017.348351,-16206.042910,-30041.951542,-12502.671779,-27050.170547,-8579.135964,-28815.354862,50418.204119,-5651.996213,-12694.583856,-10768.556388,-64.416000,-952.575989,-303.048004,980.000000,9520.000000,-10220.000000
-31671.617230,-23115.168287,-34001.920700,22668.535729,-36675.770483,-12007.446528,-16198.286855,-30032.921437,-12503.878773,-27047.063654,-8574.129173,-28814.594902,50432.419828,-5644.262510,-12694.695615,-10754.810066,-60.512001,-948.671997,-305.000000,1820.000000,10080.000000,-8820.000000
-31697.478199,-23134.994285,-34024.920645,22648.821491,-36707.577015,-12034.313325,-16222.806719,-30056.413121,-12525.738779,-27069.840082,-8597.576153,-28841.260533,50413.040866,-5651.504475,-12713.046397,-10769.472810,-58.072002,-946.720032,-302.559998,2240.000000,9940.000000,-7560.000000
-31714.242007,-23144.046741,-34037.795250,22640.931325,-36722.485628,-12047.299689,-16232.686190,-30068.214842,-12538.792198,-27082.155893,-8611.389531,-28854.381007,50400.233316,-5655.147809,-12724.334028,-10773.786697,-60.024002,-943.791992,-301.584015,2800.000000,9240.000000,-5740.000000
-31697.008812,-23118.476345,-34017.544570,22659.215052,-36698.412800,-12020.544651,-16210.893239,-30046.176022,-12513.914706,-27063.201614,-8593.485784,-28832.208077,50420.908680,-5641.066210,-12721.607115,-10749.199778,-53.680000,-941.840027,-297.192017,2100.000000,6860.000000,-3780.000000
-31694.371306,-23108.730985,-34007.821561,22666.457017,-36691.886090,-12006.485403,-16202.220762,-30035.581295,-12508.818508,-27058.574803,-8585.327397,-28824.764946,50434.006802,-5635.008888,-12725.988057,-10738.493292,-50.751999,-941.840027,-302.071991,280.000000,10640.000000,-4340.000000
-31722.288635,-23130.233363,-34027.289930,22647.815662,-36723.245588,-12034.603898,-16226.181832,-30058.894164,-12532.511357,-27076.679716,-8607.030941,-28847.876650,50415.410151,-5645.067173,-12745.679944,-10761.403830,-55.632000,-941.840027,-304.024017,-2660.000000,11200.000000,-4200.000000
-31740.974693,-23140.962200,-34040.611570,22634.114043,-36745.865553,-12055.614538,-16245.739608,-30075.367400,-12544.223671,-27088.235568,-8621.358409,-28862.159415,50403.720189,-5654.611368,-12764.433058,-10777.474734,-52.216000,-946.720032,-294.264008,-4900.000000,11900.000000,-3920.000000
-31728.077737,-23119.638636,-34023.847762,22648.150939,-36726.017204,-12033.821587,-16225.623038,-30055.250830,-12529.583279,-27071.270594,-8602.091205,-28843.607467,50426.831892,-5648.017603,-12759.403915,-10758.855731,-44.408001,-944.280029,-298.656006,-4060.000000,12180.000000,-4760.000000
-31715.091373,-23098.717403,-34006.815732,22661.606689,-36705.498303,-12009.838165,-16203.964198,-30034.240190,-12517.334523,-27048.650628,-8584.567438,-28825.457850,50448.982471,-5633.712486,-12752.027840,-10740.236728,-37.576000,-956.968018,-300.119995,-7280.000000,10360.000000,-6160.000000
-31730.916408,-23110.295607,-34020.226779,22649.872023,-36722.955015,-12027.518395,-16215.877678,-30049.215859,-12526.096407,-27054.976172,-8597.620856,-28838.220696,50435.660831,-5633.556024,-12760.901482,-10749.982089,-39.040001,-961.359985,-301.584015,-11760.000000,7560.000000,-7280.000000
-31754.765720,-23131.552116,-34039.784555,22633.354084,-36749.240667,-12053.267605,-16237.692980,-30072.282859,-12542.122607,-27070.465931,-8614.742293,-28858.359618,50415.633668,-5643.659013,-12778.961692,-10765.605958,-46.360001,-954.040039,-289.872009,-13580.000000,7420.000000,-6860.000000
-31758.476109,-23131.149784,-34032.050852,22634.784595,-36742.401033,-12034.827415,-16227.858213,-30050.780481,-12548.649317,-27059.647686,-8600.705397,-28853.486938,50432.218663,-5644.083696,-12786.605988,-10748.372763,-45.383999,-958.432007,-291.335999,-15260.000000,6580.000000,-6300.000000
-31729.798821,-23097.041022,-34010.928453,22656.398732,-36716.696527,-12013.190927,-16204.478288,-30028.652254,-12508.572639,-27031.953875,-8578.018377,-28824.295559,50456.962044,-5636.148827,-12776.033613,-10727.518586,-50.751999,-963.312012,-289.872009,-18060.000000,6580.000000,-6160.000000
-31747.076720,-23114.318921,-34021.970215,22645.379322,-36734.890847,-12029.731218,-16216.816451,-30042.309170,-12520.396712,-27040.738111,-8584.008644,-28837.550144,50447.909587,-5639.546292,-12786.695395,-10737.241594,-44.896000,-966.728027,-289.384003,-17220.000000,5040.000000,-5040.000000
-31780.626688,-23143.934982,-34042.287951,22624.391034,-36765.468033,-12053.535825,-16240.151672,-30064.683266,-12554.706640,-27063.402780,-8608.372046,-28863.277002,50427.860073,-5643.614309,-12804.330922,-10754.027755,-49.776001,-972.096008,-291.824005,-19180.000000,2380.000000,-4060.000000
-31776.826892,-23128.288761,-34033.570770,22636.304514,-36752.235800,-12043.097561,-16228.037027,-30057.754225,-12547.531730,-27057.501919,-8608.953191,-28851.140005,50435.079686,-5637.959318,-12800.285256,-10741.443722,-47.336002,-968.679993,-298.167999,-23240.000000,2660.000000,-3640.000000
-31757.984371,-23105.333520,-34012.783648,22652.129549,-36726.397184,-12014.084996,-16204.947675,-30028.294626,-12524.621192,-27035.686616,-8586.869667,-28829.659978,50463.153477,-5624.861196,-12793.177401,-10715.359237,-42.944000,-970.632019,-299.144012,-27580.000000,5460.000000,-3920.000000
-31765.874537,-23112.240209,-34014.035346,22647.167462,-36734.220294,-12018.845918,-16213.039006,-30032.563809,-12527.862195,-27037.474756,-8586.020301,-28835.292618,50466.238018,-5619.206204,-12797.535991,-10717.974391,-44.408001,-971.608032,-298.167999,-29260.000000,8680.000000,-4480.000000
-31792.696630,-23138.615267,-34034.151916,22626.603857,-36765.177460,-12046.964413,-16239.592879,-30061.509319,-12551.242119,-27054.283268,-8602.962923,-28858.829005,50445.875579,-5627.990440,-12812.064625,-10738.672106,-45.383999,-963.799988,-306.463989,-28840.000000,10500.000000,-4760.000000
-31799.759781,-23141.208069,-34033.123736,22621.485307,-36769.558402,-12044.930404,-16241.448074,-30061.799891,-12554.728991,-27050.125843,-8597.129118,-28859.834833,50450.033003,-5630.873815,-12823.732236,-10738.381533,-43.431999,-956.479980,-311.832001,-27020.000000,10780.000000,-4900.000000
-31785.499368,-23122.320845,-34013.364793,22632.907049,-36748.704225,-12014.867308,-16220.459786,-30032.966141,-12533.450131,-27026.544753,-8575.336167,-28839.204173,50478.486774,-5621.217861,-12822.659352,-10713.548745,-45.383999,-949.160034,-315.248016,-24500.000000,9240.000000,-3920.000000
-31790.014421,-23125.383034,-34012.895407,22627.073244,-36754.828603,-12011.156918,-16225.064245,-30032.675568,-12534.008924,-27019.906285,-8572.676310,-28841.238182,50482.599495,-5621.351972,-12830.951849,-10709.614838,-48.799999,-936.960022,-323.056000,-22120.000000,8820.000000,-3360.000000
-31810.846247,-23142.593878,-34029.569808,22610.801174,-36781.226013,-12040.348296,-16243.951469,-30061.710484,-12548.872834,-27035.798375,-8594.223391,-28859.365446,50458.951349,-5628.705696,-12835.735123,-10725.864557,-50.751999,-929.152039,-323.056000,-21560.000000,8680.000000,-2940.000000
-31819.317558,-23143.912631,-34029.234532,22609.817697,-36787.775074,-12048.774904,-16245.046704,-30071.634659,-12554.125494,-27039.329951,-8594.491612,-28861.444159,50454.279835,-5634.450094,-12835.533957,-10730.424312,-49.288002,-928.176025,-326.472015,-21980.000000,8260.000000,-2800.000000
-31794.685935,-23108.798040,-34003.082991,22634.583430,-36756.080300,-12020.075264,-16218.403425,-30046.980685,-12525.895241,-27015.637102,-8571.469315,-28832.610408,50478.933809,-5626.068190,-12824.849823,-10708.229030,-52.216000,-924.760010,-325.984009,-21420.000000,7980.000000,-2520.000000
-31771.417769,-23083.831141,-33983.793436,22648.307401,-36736.567227,-12005.948961,-16202.019596,-30033.837859,-12498.670816,-26992.011308,-8556.113667,-28812.426783,50493.529498,-5610.667838,-12817.764320,-10691.644036,-53.192001,-928.664001,-331.351990,-20160.000000,7840.000000,-1960.000000
-31785.521720,-23090.201389,-33995.125770,22640.439587,-36751.319379,-12028.323058,-16211.988474,-30054.826147,-12509.198488,-26999.946177,-8568.965920,-28824.228504,50474.619922,-5607.717408,-12816.177346,-10702.059949,-54.167999,-926.223999,-331.839996,-19460.000000,7980.000000,-1680.000000
-31798.418677,-23088.882636,-34003.842950,22636.349217,-36758.650751,-12037.330811,-16214.246001,-30063.498624,-12515.658142,-27007.143439,-8579.918275,-28830.598751,50459.934826,-5608.522070,-12816.959657,-10706.351484,-56.119999,-929.640015,-334.279999,-18760.000000,7560.000000,-1400.000000
-31782.593642,-23063.580461,-33983.167587,22655.459959,-36733.169762,-12007.535935,-16189.457916,-30037.972932,-12495.809793,-26985.305784,-8561.522789,-28810.102202,50480.431376,-5594.082844,-12809.382416,-10684.871457,-53.680000,-935.984009,-332.328003,-17920.000000,7700.000000,-1400.000000
-31783.241842,-23061.322935,-33975.478587,22656.935174,-36727.604178,-11989.721595,-16182.797096,-30022.214952,-12494.647502,-26978.689668,-8553.185589,-28807.799972,50495.921134,-5583.510468,-12817.049064,-10676.824829,-51.728001,-944.280029,-332.328003,-16520.000000,7700.000000,-1540.000000
-31820.166924,-23094.515275,-34002.077163,22629.822508,-36762.674065,-12014.174403,-16209.418024,-30043.471461,-12529.315058,-27008.909227,-8579.985330,-28838.645379,50472.384748,-5592.384111,-12842.351239,-10697.790765,-52.704002,-944.280029,-329.399994,-15120.000000,7560.000000,-1260.000000
-31844.977360,-23116.375281,-34022.797230,22608.655406,-36790.971373,-12038.046067,-16230.115739,-30065.085598,-12551.778561,-27030.880991,-8596.905601,-28860.795958,50450.815314,-5607.382132,-12860.098524,-10718.913164,-56.119999,-947.208008,-327.447998,-12880.000000,7560.000000,-1120.000000
-31837.936561,-23102.696014,-34008.827389,22616.545572,-36772.911164,-12013.034464,-16212.591971,-30043.091481,-12545.609480,-27021.381500,-8580.231199,-28847.541374,50472.272989,-5600.430739,-12857.505722,-10701.948190,-51.728001,-947.208008,-328.424011,-11760.000000,7420.000000,-840.000000
-31823.542037,-23088.212083,-33989.113151,22622.558191,-36755.700321,-11985.854743,-16200.633788,-30022.013786,-12531.371418,-27001.577854,-8559.108801,-28831.671635,50497.642219,-5587.690245,-12859.360917,-10685.296140,-49.776001,-943.791992,-324.032013,-11200.000000,7000.000000,-280.000000
-31849.850041,-23112.575485,-34001.674831,22605.704976,-36777.761492,-12002.707959,-16220.035102,-30038.822298,-12556.360669,-27015.413584,-8571.983406,-28850.245935,50484.588800,-5591.579448,-12869.620367,-10696.337902,-46.360001,-946.720032,-323.056000,-12320.000000,7980.000000,0.000000
-31874.392256,-23130.792157,-34017.946901,22589.097630,-36802.750743,-12028.188947,-16242.811530,-30061.263449,-12572.520980,-27031.283323,-8591.027092,-28868.194386,50464.092250,-5601.928306,-12881.891475,-10712.274696,-47.824001,-949.160034,-324.032013,-14000.000000,7560.000000,560.000000
-31868.960782,-23118.811622,-34008.425058,22597.188961,-36789.049123,-12013.660313,-16230.406312,-30046.667760,-12564.720221,-27019.101622,-8583.181630,-28857.599659,50473.770556,-5599.536669,-12878.896341,-10698.953056,-51.728001,-954.528015,-325.984009,-15120.000000,8400.000000,840.000000
-31854.968590,-23104.014767,-33991.258918,22608.722461,-36769.044312,-11985.430060,-16212.323751,-30021.075013,-12549.632794,-26999.588549,-8565.501400,-28842.266362,50494.803547,-5588.651370,-12878.315196,-10680.825791,-51.240002,-950.135986,-330.864014,-14560.000000,8820.000000,1260.000000
-31867.440864,-23115.145935,-33998.567939,22601.949883,-36781.337772,-11996.270656,-16220.482137,-30032.049719,-12562.619157,-27006.696404,-8576.699624,-28852.346999,50486.019312,-5586.237381,-12882.293806,-10686.279617,-52.216000,-949.160034,-333.304016,-13720.000000,8680.000000,1680.000000
-31893.033611,-23137.788253,-34017.164590,22580.045173,-36811.534978,-12025.149110,-16247.505396,-30063.409217,-12586.580227,-27029.115204,-8597.397339,-28874.475226,50463.667567,-5596.519184,-12903.840888,-10711.402978,-53.192001,-943.791992,-339.160004,-11900.000000,7700.000000,2380.000000
-31888.272689,-23128.333465,-34011.353136,22584.336708,-36807.556368,-12017.236592,-16241.090446,-30057.486005,-12579.382965,-27023.549619,-8589.954208,-28868.149682,50471.222457,-5596.407425,-12909.317065,-10707.536126,-55.632000,-937.936035,-344.040009,-10640.000000,7000.000000,2660.000000
-31868.089064,-23106.719328,-33992.220043,22599.580598,-36785.942231,-11988.648711,-16218.246963,-30030.820373,-12559.244044,-27001.801372,-8568.809458,-28847.317856,50495.965838,-5586.729120,-12908.445347,-10686.637245,-55.144001,-938.424011,-342.088013,-10360.000000,6300.000000,2660.000000
-31880.762503,-23119.213953,-33998.366773,22590.304624,-36798.369801,-11993.387281,-16227.657047,-30040.565734,-12573.750326,-27006.048203,-8572.072813,-28856.236202,50492.993056,-5586.863230,-12922.012856,-10690.973483,-52.704002,-937.936035,-342.575989,-9940.000000,6300.000000,2520.000000
-31912.323166,-23149.411160,-34022.283140,22567.885824,-36830.221037,-12023.338619,-16253.473312,-30071.835824,-12604.908658,-27027.997616,-8590.133022,-28881.605432,50469.031986,-5598.150861,-12938.016705,-10710.799481,-59.048000,-942.816040,-341.600006,-9800.000000,6440.000000,1540.000000
-31918.201675,-23153.300363,-34024.965349,22566.075333,-36831.673900,-12023.830357,-16251.998097,-30069.935926,-12610.004855,-27029.159907,-8590.356540,-28881.113694,50467.087384,-5601.280105,-12940.475397,-10708.720769,-57.584000,-941.351990,-341.112000,-8540.000000,5880.000000,560.000000
-31893.145370,-23125.025406,-34002.948881,22586.862455,-36803.108371,-11993.409633,-16224.393693,-30041.213935,-12581.618140,-27007.881046,-8576.096127,-28854.068083,50490.042626,-5589.321922,-12929.433635,-10683.083318,-58.072002,-942.816040,-335.256012,-7280.000000,5040.000000,-420.000000
-31896.341669,-23128.467575,-34000.601947,22586.974214,-36803.644813,-11989.341615,-16220.437434,-30037.347083,-12584.948550,-27007.434011,-8583.427499,-28855.029208,50490.221440,-5585.745643,-12928.673676,-10680.132887,-57.096001,-941.840027,-339.648010,-5880.000000,4060.000000,-1400.000000
-31922.806135,-23154.149730,-34018.617453,22567.282327,-36835.563104,-12020.902279,-16244.085579,-30068.550118,-12612.910582,-27023.259046,-8600.928915,-28878.677354,50467.467364,-5595.178079,-12942.822330,-10707.089091,-59.535999,-936.960022,-338.671997,-4760.000000,3640.000000,-1680.000000
-31927.812925,-23160.899956,-34019.958558,22558.386333,-36844.772022,-12026.825491,-16252.579242,-30077.200243,-12616.732730,-27022.767308,-8595.720958,-28882.164226,50464.047547,-5595.580410,-12953.260595,-10712.989952,-62.464001,-936.471985,-337.208008,-4060.000000,3080.000000,-1120.000000
-31909.819771,-23136.827128,-33999.394953,22576.401839,-36818.173446,-11999.243438,-16234.653143,-30053.820318,-12598.627817,-27005.802334,-8572.676310,-28860.773606,50484.991131,-5586.192678,-12947.292679,-10692.091071,-55.632000,-936.471985,-336.231995,-4620.000000,2240.000000,-1400.000000
-31909.037460,-23132.446186,-33994.410514,22579.262862,-36812.272586,-11990.347444,-16228.059379,-30043.516164,-12599.276018,-27006.003500,-8566.864856,-28857.376141,50491.160213,-5589.254867,-12948.253804,-10684.714995,-55.144001,-938.424011,-335.256012,-2940.000000,700.000000,-840.000000
-31936.463050,-23158.463616,-34015.689375,22559.794493,-36841.083985,-12015.582563,-16246.678382,-30065.934964,-12626.321629,-27029.472831,-8585.796784,-28882.074819,50464.628692,-5601.816547,-12959.362621,-10704.585696,-46.360001,-940.864014,-340.623993,-4060.000000,-980.000000,-840.000000
-31956.691379,-23170.645317,-34026.351157,22550.563222,-36853.019816,-12023.718598,-16252.735705,-30076.641450,-12642.504292,-27042.079215,-8596.726787,-28891.551959,50450.569445,-5604.029370,-12966.112848,-10710.441853,-37.576000,-947.695984,-334.768005,-3920.000000,-1960.000000,-1820.000000
-31941.626303,-23151.758093,-34008.693279,22564.644821,-36830.980996,-11997.902333,-16229.668704,-30053.596801,-12627.483920,-27024.398985,-8578.800688,-28871.413037,50470.686015,-5598.754358,-12961.128409,-10688.715957,-36.112000,-944.280029,-336.720001,-3640.000000,-1960.000000,-1960.000000
-31927.589408,-23139.889317,-33991.907119,22575.977156,-36815.066554,-11982.501982,-16213.329579,-30036.989455,-12613.469376,-27009.825648,-8565.791972,-28856.817348,50490.467309,-5589.634846,-12954.713458,-10674.097916,-28.304001,-944.280029,-339.160004,-3360.000000,-2660.000000,-1680.000000
-31949.628228,-23162.196358,-34008.760334,22560.934432,-36840.122859,-12008.340598,-16235.077826,-30062.783368,-12635.977582,-27025.315407,-8581.080566,-28877.492711,50470.373091,-5597.480309,-12964.436467,-10695.689702,-37.576000,-940.376038,-335.744019,-3920.000000,560.000000,-1120.000000
-31968.917783,-23180.882416,-34022.864285,22546.897536,-36860.597057,-12029.910032,-16248.935908,-30086.029182,-12658.999879,-27040.179317,-8592.569362,-28893.943595,50452.223474,-5605.638695,-12972.550150,-10711.313571,-37.576000,-938.424011,-337.208008,-5320.000000,2940.000000,0.000000
-31951.863402,-23159.067113,-34004.312337,22557.134635,-36841.061633,-12007.558287,-16230.808643,-30069.243022,-12644.068914,-27022.901419,-8571.022281,-28874.519929,50473.368224,-5601.458919,-12974.628863,-10697.343731,-43.431999,-930.616028,-335.744019,-6860.000000,5740.000000,840.000000
-31941.492193,-23147.712427,-33991.929471,22563.907214,-36826.309481,-11987.128793,-16218.179908,-30052.568621,-12638.615088,-27011.054994,-8556.963033,-28864.193423,50491.450786,-5596.474480,-12980.708537,-10687.486611,-49.776001,-932.567993,-336.231995,-8260.000000,7420.000000,2660.000000
-31959.462995,-23164.811512,-34007.106305,22549.535042,-36844.839078,-12004.965485,-16233.580260,-30068.058380,-12658.374030,-27026.209477,-8574.665615,-28881.694839,50473.971721,-5599.536669,-12991.526782,-10702.149356,-53.680000,-936.960022,-333.791992,-10220.000000,8540.000000,4200.000000
-31974.863347,-23176.322660,-34020.338538,22536.928658,-36864.218040,-12025.909069,-16249.584109,-30089.896034,-12673.684975,-27041.095739,-8590.714167,-28895.351755,50457.140858,-5606.197489,-13001.786232,-10716.007437,-56.608002,-940.376038,-331.839996,-12040.000000,8680.000000,5740.000000
-31954.925591,-23154.283840,-34002.725363,22549.356228,-36845.822554,-12007.290066,-16230.406312,-30071.992287,-12654.417772,-27026.500049,-8576.207885,-28875.816330,50473.234114,-5600.095463,-12995.728909,-10696.114385,-63.440002,-941.840027,-335.256012,-14140.000000,8680.000000,6020.000000
-31934.630207,-23136.223630,-33983.256994,22562.990792,-36821.034470,-11979.596255,-16207.898105,-30046.086615,-12640.894966,-27009.557427,-8559.734650,-28857.174976,50495.742321,-5591.534745,-12988.285779,-10675.237855,-72.223999,-939.888000,-331.839996,-15120.000000,7840.000000,6300.000000
-31950.723463,-23151.378113,-33991.683601,22555.771179,-36832.389156,-11989.945112,-16216.592934,-30057.284839,-12662.799676,-27025.471869,-8573.525676,-28870.764836,50486.846326,-5596.340370,-12991.146802,-10684.022091,-68.807999,-937.936035,-327.936005,-15960.000000,6300.000000,6440.000000
-31976.830301,-23177.127323,-34009.520293,22537.576859,-36860.753520,-12016.789558,-16240.755169,-30088.174950,-12693.153345,-27048.002428,-8592.055272,-28892.222511,50464.360471,-5605.683399,-13000.914514,-10704.831565,-64.416000,-941.351990,-335.744019,-17220.000000,5180.000000,4900.000000
-31970.974144,-23170.131227,-34002.121866,22541.555469,-36854.070348,-12007.401825,-16235.658972,-30083.771656,-12689.040624,-27041.028683,-8584.902714,-28884.667621,50471.803602,-5604.811681,-13002.434433,-10701.456452,-61.487999,-939.400024,-335.256012,-18340.000000,4200.000000,2800.000000
-31941.805117,-23139.934020,-33979.010162,22560.979135,-36825.974205,-11976.556418,-16210.625018,-30055.206127,-12659.581025,-27019.258084,-8565.121420,-28857.331438,50495.921134,-5593.211126,-12996.399462,-10680.401108,-53.192001,-942.816040,-338.671997,-19180.000000,3640.000000,700.000000
-31947.482460,-23140.895145,-33982.407627,22560.956783,-36825.750688,-11978.948054,-16208.233381,-30054.066188,-12668.991109,-27024.913076,-8568.585940,-28859.834833,50489.550887,-5587.757300,-12995.103061,-10683.239780,-41.480000,-946.720032,-337.208008,-19880.000000,1960.000000,-1820.000000
-31971.108254,-23163.671573,-34006.525160,22540.080254,-36854.293865,-12008.809985,-16233.624963,-30084.822188,-12691.588723,-27046.951896,-8586.623798,-28881.761894,50461.141820,-5594.328713,-13007.061244,-10711.090053,-39.528000,-949.648010,-335.744019,-20720.000000,1540.000000,-3920.000000
-31970.549461,-23162.576337,-34008.045078,22536.682789,-36856.216116,-12008.832337,-16234.943716,-30089.270185,-12690.784060,-27048.203593,-8582.064042,-28879.392610,50458.414907,-5594.820451,-13013.364436,-10714.420463,-40.992001,-946.720032,-345.992004,-20440.000000,560.000000,-5320.000000
-31948.510641,-23144.158500,-33983.815787,22548.260993,-36830.936293,-11978.612778,-16215.274181,-30064.951487,-12673.617920,-27027.081195,-8557.231254,-28857.711417,50484.074710,-5585.075091,-13013.207974,-10695.689702,-37.088001,-948.671997,-347.944000,-19180.000000,420.000000,-5600.000000
-31948.622399,-23145.365494,-33985.469816,22545.489376,-36830.735127,-11974.969444,-16212.100233,-30060.168214,-12675.696632,-27030.791584,-8557.007737,-28859.030170,50484.342931,-5579.733024,-13011.799814,-10690.638207,-34.160000,-946.231995,-354.776001,-15820.000000,420.000000,-5040.000000
-31973.365781,-23172.858140,-34001.227796,22524.478736,-36855.411453,-11999.086976,-16230.607477,-30083.883415,-12705.759729,-27049.902326,-8580.320606,-28879.057333,50461.342986,-5578.861306,-13017.901840,-10702.976370,-27.328001,-946.231995,-362.584015,-14840.000000,1540.000000,-6160.000000
-31981.211243,-23184.995137,-34005.854607,22511.626483,-36868.688389,-12008.318246,-16248.555928,-30098.434400,-12721.741226,-27054.126806,-8581.572304,-28884.131179,50456.805582,-5584.493945,-13033.860986,-10716.454472,-24.888000,-941.840027,-360.632019,-12320.000000,1960.000000,-7140.000000
-31957.920725,-23165.817340,-33988.934337,22523.361149,-36847.454232,-11982.859609,-16234.451978,-30083.078752,-12701.579952,-27036.267762,-8556.337184,-28864.595755,50477.302131,-5579.598913,-13030.575279,-10703.713978,-28.792000,-937.936035,-359.167999,-10220.000000,2800.000000,-6720.000000
-31947.996551,-23157.748360,-33984.843968,22529.194955,-36835.563104,-11970.342633,-16223.834899,-30077.759037,-12693.600380,-27031.417433,-8547.351783,-28858.270211,50483.113585,-5572.133430,-13024.339142,-10691.889905,-28.304001,-927.200012,-357.704010,-7700.000000,1680.000000,-5040.000000
-31976.226804,-23181.016526,-34014.772953,22514.599265,-36861.021741,-12001.188040,-16241.828053,-30098.792028,-12721.070674,-27064.520367,-8572.341033,-28884.935842,50450.435334,-5579.576561,-13025.501433,-10705.345655,-30.256001,-924.760010,-356.239990,-5040.000000,560.000000,-2520.000000
-31989.302574,-23197.333300,-34024.428907,22502.462268,-36875.080988,-12017.460110,-16254.009754,-30110.951377,-12740.561395,-27078.356097,-8579.247723,-28898.726868,50436.353735,-5589.299570,-13033.302192,-10711.984123,-30.743999,-922.320007,-351.847992,-3080.000000,140.000000,-840.000000
-31963.128682,-23176.076791,-34003.686488,22512.162925,-36853.355092,-11992.336749,-16236.731855,-30092.242967,-12719.126072,-27060.631163,-8552.805609,-28877.917394,50460.404213,-5587.064396,-13035.470311,-10695.779108,-31.232000,-920.856018,-351.847992,-1400.000000,-980.000000,700.000000
-31947.974199,-23159.223575,-33996.019840,22524.411681,-36835.026662,-11977.986929,-16220.817413,-30080.485950,-12703.993941,-27055.602021,-8547.441190,-28864.059313,50465.723928,-5583.219896,-13027.066055,-10685.944341,-28.792000,-919.880005,-346.480011,-980.000000,-1960.000000,2520.000000
-31968.940135,-23177.127323,-34015.734078,22514.219286,-36850.739938,-12000.092804,-16230.607477,-30096.489799,-12725.272802,-27080.233643,-8573.637435,-28881.136046,50438.633613,-5586.192678,-13024.227384,-10698.975408,-31.232000,-919.880005,-338.671997,-2100.000000,-2940.000000,4340.000000
-31993.415295,-23192.661785,-34049.932247,22501.657605,-36878.880784,-12039.342468,-16249.092370,-30124.474183,-12743.154197,-27114.029481,-8598.023188,-28903.398383,50402.379084,-5614.691152,-13025.903764,-10725.350466,-32.695999,-927.200012,-335.744019,-3080.000000,-2800.000000,6160.000000
-31946.677798,-23162.375171,-33999.998450,22519.248428,-36849.354130,-12007.670046,-16219.342198,-30099.172008,-12707.659627,-27061.592288,-8548.536426,-28863.634630,50446.367317,-5593.591105,-13006.971837,-10699.087167,-35.136002,-932.080017,-331.351990,-3640.000000,-1820.000000,7420.000000
-31902.130771,-23137.430625,-33935.960702,22538.739149,-36798.660374,-11948.862606,-16186.216913,-30059.542365,-12683.765612,-27010.630311,-8502.044797,-28814.460792,50506.180585,-5538.248186,-13002.613247,-10658.809323,-41.968002,-935.496033,-327.936005,-5180.000000,-700.000000,8960.000000
-31932.395033,-23159.961183,-33962.268706,22525.641027,-36814.798333,-11974.120077,-16206.445242,-30077.312002,-12717.427339,-27046.124881,-8534.611289,-28835.002045,50475.111660,-5545.691317,-13020.114663,-10677.428326,-48.312000,-943.304016,-322.567993,-6160.000000,700.000000,10360.000000
-31976.517376,-23200.194323,-34003.686488,22495.063841,-36862.429900,-12015.224935,-16245.605498,-30110.638453,-12760.320337,-27089.554321,-8562.372155,-28879.638479,50440.332346,-5582.169364,-13046.892053,-10714.040484,-53.680000,-948.184021,-322.567993,-6160.000000,1680.000000,11760.000000
-31968.068417,-23194.449925,-33993.829369,22497.455477,-36857.445461,-11999.444604,-16240.218728,-30099.037897,-12753.659517,-27080.881844,-8549.810475,-28874.341115,50455.397422,-5580.828259,-13049.261337,-10707.156146,-58.072002,-947.208008,-320.615997,-6440.000000,3220.000000,13440.000000
-31946.588391,-23172.701677,-33978.272555,22511.693539,-36835.071365,-11973.963615,-16221.242097,-30078.787217,-12731.888918,-27065.302678,-8536.287670,-28855.543298,50472.004768,-5570.032367,-13042.287593,-10691.576981,-61.487999,-944.280029,-319.640015,-7420.000000,4200.000000,14420.000000
-31968.426045,-23185.442172,-33999.596119,22502.238751,-36848.683578,-11987.776993,-16231.970934,-30090.030144,-12748.742133,-27092.035364,-8558.192379,-28875.324592,50453.452820,-5572.446355,-13047.652012,-10701.411748,-62.464001,-935.984009,-324.032013,-9100.000000,5180.000000,15120.000000
-31983.960507,-23200.663710,-34009.900273,22488.514780,-36871.303543,-12012.341560,-16252.691001,-30118.416860,-12764.991851,-27104.418231,-8573.056289,-28888.579176,50437.672488,-5580.694149,-13057.129151,-10722.243574,-63.928001,-927.200012,-309.880005,-12320.000000,6020.000000,15120.000000
-31956.981952,-23172.545215,-33986.408590,22503.713966,-36848.527115,-11997.924685,-16233.155576,-30103.955281,-12739.287345,-27082.513521,-8557.231254,-28859.991295,50451.575273,-5570.702919,-13043.807512,-10703.781033,-63.440002,-928.176025,-325.496002,-17500.000000,7280.000000,14420.000000
-31927.723518,-23131.708578,-33981.580613,22536.392216,-36814.239539,-11981.630264,-16193.704747,-30070.762941,-12699.233019,-27078.199634,-8555.800743,-28835.024397,50449.027175,-5568.825372,-13014.392616,-10668.889960,-62.464001,-936.960022,-326.472015,-22260.000000,7700.000000,13860.000000
-31934.764318,-23143.979686,-33987.325011,22529.217306,-36834.445516,-11997.164726,-16210.021521,-30089.404296,-12707.749034,-27076.657364,-8550.279862,-28850.581211,50447.909587,-5586.192678,-13022.685113,-10687.866591,-59.048000,-937.936035,-334.768005,-25620.000000,7700.000000,13440.000000
-31944.174402,-23172.634622,-33977.579651,22504.630387,-36859.635932,-12003.982008,-16238.140015,-30112.828924,-12729.251412,-27068.320163,-8547.888225,-28862.740560,50454.168076,-5573.988625,-13043.092256,-10706.038559,-58.560001,-937.447998,-331.839996,-28420.000000,6580.000000,12740.000000
-31943.928533,-23177.306137,-33955.697293,22503.825725,-36840.949874,-11979.618607,-16233.088521,-30105.050517,-12738.057999,-27063.738056,-8550.972766,-28846.244972,50470.149573,-5544.551378,-13053.575224,-10692.426347,-62.464001,-943.791992,-326.472015,-32200.000000,5460.000000,12320.000000
-31933.311454,-23157.726009,-33949.841136,22517.102661,-36819.201627,-11971.482572,-16222.292629,-30094.366383,-12725.541022,-27059.223003,-8540.065115,-28831.090490,50478.911457,-5552.419192,-13054.916329,-10688.984178,-64.416000,-944.280029,-322.567993,-36400.000000,4340.000000,11480.000000
-31933.400861,-23154.172081,-33959.921772,22516.923847,-36826.778868,-11977.226970,-16229.355780,-30093.360554,-12716.399159,-27067.649611,-8547.932929,-28838.913600,50473.122355,-5563.483305,-13053.441114,-10698.461318,-62.464001,-943.791992,-325.984009,-41860.000000,2800.000000,10080.000000
-31961.519356,-23179.451904,-33981.379447,22500.003576,-36849.510592,-11995.421290,-16246.030181,-30102.390659,-12740.047305,-27093.331765,-8576.364348,-28863.455816,50447.060221,-5563.751526,-13059.945471,-10709.056045,-61.487999,-943.304016,-333.304016,-46760.000000,1260.000000,8960.000000
-31973.566946,-23186.380945,-33978.652534,22496.784925,-36848.325950,-11995.510697,-16244.689077,-30103.128267,-12758.465142,-27090.537797,-8575.224409,-28864.238127,50445.383840,-5560.063488,-13061.644204,-10709.503080,-58.560001,-939.888000,-339.160004,-51380.000000,-140.000000,7980.000000
-31951.304609,-23157.323677,-33965.241488,22513.794603,-36824.789563,-11974.880037,-16226.293591,-30083.548139,-12732.000677,-27074.042210,-8563.601501,-28842.556935,50460.963006,-5561.091669,-13054.312832,-10695.443832,-55.632000,-934.031982,-342.575989,-54880.000000,-1260.000000,7000.000000
-31953.293914,-23145.790177,-33974.025723,22525.305751,-36814.150132,-11965.447601,-16208.836878,-30066.985496,-12722.322371,-27084.391068,-8581.438193,-28845.529717,50453.676337,-5563.684471,-13035.872643,-10682.815097,-47.824001,-930.616028,-347.455994,-58100.000000,-2380.000000,6440.000000
-31971.152958,-23169.103047,-33980.798302,22509.637178,-36837.150077,-11995.644807,-16229.020504,-30096.959185,-12749.256223,-27085.531007,-8584.500382,-28861.824138,50442.008727,-5573.072204,-13041.035895,-10702.529335,-45.383999,-926.712036,-356.239990,-61740.000000,-3360.000000,6020.000000
-31952.086920,-23161.145826,-33965.174432,22507.737280,-36838.826458,-12008.005322,-16239.414065,-30114.684119,-12739.957898,-27057.591326,-8567.624815,-28844.210964,50450.837666,-5573.206314,-13043.248718,-10711.604144,-38.063999,-921.343994,-357.704010,-64400.000000,-4620.000000,6720.000000
-31925.957731,-23137.274162,-33945.080214,22519.807222,-36816.877045,-11980.915008,-16227.388826,-30096.869778,-12716.197993,-27034.010236,-8545.451885,-28817.478277,50474.195239,-5566.612550,-13042.734628,-10696.226143,-38.063999,-917.440002,-364.536011,-66500.000000,-6020.000000,7140.000000
-31926.225951,-23124.667779,-33952.791566,22531.184260,-36803.622461,-11960.194941,-16218.626942,-30082.050572,-12708.061958,-27047.086006,-8557.410068,-28816.070117,50470.551905,-5563.393898,-13035.850291,-10684.446774,-35.624001,-914.023987,-368.440002,-67760.000000,-7700.000000,8260.000000
-31948.063606,-23143.309133,-33964.235659,22519.606056,-36818.441667,-11977.003452,-16232.775597,-30102.770639,-12732.827691,-27064.319201,-8577.191362,-28835.516135,50453.385765,-5562.164552,-13031.446997,-10698.796594,-36.112000,-913.048035,-373.808014,-68460.000000,-9660.000000,9940.000000
-31961.564059,-23157.658953,-33966.426130,22506.932617,-36829.684595,-11985.988854,-16245.292574,-30113.611235,-12754.598290,-27071.002373,-8583.449850,-28843.406301,50444.601529,-5560.130544,-13032.944564,-10703.356350,-36.112000,-916.463989,-383.080017,-67060.000000,-11900.000000,11200.000000
-31944.643789,-23141.297476,-33947.628313,22516.745033,-36808.673955,-11964.978214,-16235.278992,-30101.697755,-12743.735342,-27053.813881,-8564.540275,-28823.133269,50463.645215,-5558.945901,-13030.575279,-10691.264056,-38.063999,-919.392029,-392.839996,-63000.000000,-14420.000000,12040.000000
-31925.376585,-23120.488002,-33939.916961,22523.785832,-36796.089923,-11952.327127,-16234.586088,-30094.254624,-12723.819938,-27041.632180,-8553.856141,-28807.978786,50473.658797,-5565.472611,-13039.672439,-10689.073585,-40.504002,-919.392029,-404.063995,-56840.000000,-16940.000000,12740.000000
-31947.325998,-23136.536555,-33960.346456,22516.968550,-36807.086981,-11971.840199,-16243.303268,-30107.799781,-12749.613851,-27067.381390,-8585.595618,-28824.206152,50448.267215,-5567.014881,-13039.717143,-10696.583771,-43.431999,-922.807983,-413.335999,-48580.000000,-19880.000000,13440.000000
-31957.116062,-23137.542383,-33985.805093,22515.783908,-36818.776944,-12006.373645,-16255.663783,-30135.851221,-12753.167779,-27094.784629,-8624.487653,-28833.012740,50410.984506,-5578.749547,-13034.285669,-10714.576926,-41.968002,-931.104004,-411.384003,-39060.000000,-21980.000000,13440.000000
-31917.397012,-23084.032307,-33973.601040,22552.373714,-36786.433969,-12005.032540,-16222.985533,-30124.161258,-12701.647008,-27081.954727,-8618.765607,-28800.021565,50410.381008,-5577.050814,-12993.896066,-10696.360254,-45.383999,-937.936035,-413.335999,-26600.000000,-24500.000000,12600.000000
-31888.518559,-23060.093589,-33929.210476,22576.200673,-36750.849992,-11947.275632,-16183.087669,-30073.668668,-12683.922074,-27040.581648,-8574.375042,-28774.428818,50463.756974,-5543.724363,-12964.771743,-10648.751038,-58.560001,-933.544006,-397.720001,-18200.000000,-25760.000000,12320.000000
-31897.883939,-23090.268444,-33904.601205,22557.939298,-36755.521507,-11932.121150,-16198.108041,-30082.698772,-12721.852985,-27025.449517,-8560.181685,-28774.764094,50485.237001,-5519.048037,-12991.705595,-10653.266091,-61.000000,-925.736023,-384.056000,-13440.000000,-26460.000000,9520.000000
-31937.088899,-23117.604627,-33954.356188,22530.424300,-36800.850844,-11982.479630,-16245.337277,-30133.750157,-12755.157084,-27083.899329,-8614.161147,-28810.325719,50431.190483,-5554.609663,-13030.150596,-10704.898620,-58.560001,-919.392029,-367.463989,-10640.000000,-28420.000000,6440.000000
-31960.737045,-23130.613343,-33981.222985,22521.461251,-36822.085002,-11986.771165,-16256.736667,-30132.252590,-12772.725555,-27110.810829,-8622.721866,-28839.651208,50417.757084,-5584.561000,-13043.606346,-10722.780016,-60.512001,-914.512024,-358.679993,-12460.000000,-29120.000000,3080.000000
-31914.714803,-23079.047868,-33956.569011,22557.179339,-36789.093827,-11978.590426,-16224.505451,-30120.182648,-12728.066770,-27071.739980,-8582.846353,-28808.068193,50441.159361,-5593.099367,-13010.637523,-10712.431158,-59.048000,-919.880005,-360.144012,-12320.000000,-32060.000000,420.000000
-31906.936396,-23071.783551,-33940.386348,22563.571938,-36780.533109,-11954.405839,-16214.737739,-30103.865874,-12726.323334,-27061.614640,-8584.723900,-28802.927292,50454.302186,-5567.484268,-13003.552020,-10692.761623,-67.832001,-913.048035,-365.511993,-13440.000000,-33740.000000,-1820.000000
-31963.709827,-23106.384052,-33989.448427,22547.590440,-36800.739086,-11978.053984,-16223.633733,-30111.465467,-12779.654596,-27129.273370,-8663.513799,-28841.506403,50399.853337,-5566.903122,-13010.436357,-10691.487574,-64.903999,-913.048035,-363.071991,-11620.000000,-37800.000000,-3360.000000
-31954.210336,-23103.478325,-33971.723494,22543.053036,-36809.970356,-11979.171572,-16234.116701,-30124.161258,-12779.565189,-27100.841951,-8633.249537,-28837.237219,50428.620032,-5577.006111,-13020.941677,-10702.484632,-63.440002,-895.479980,-367.463989,-10640.000000,-37940.000000,-4620.000000
-31903.114248,-23065.592118,-33916.805257,22557.894594,-36777.582679,-11930.511824,-16222.136166,-30098.434400,-12744.763523,-27042.906230,-8579.493592,-28789.203321,50488.634466,-5554.475552,-13038.353686,-10682.233951,-58.072002,-884.255981,-377.712006,-14280.000000,-36680.000000,-5600.000000
-31907.137562,-23052.315182,-33923.711946,22569.159874,-36763.344617,-11923.135748,-16213.664855,-30086.275051,-12748.697430,-27056.809015,-8606.293333,-28785.269414,50478.978512,-5548.664099,-13041.326468,-10673.203847,-60.512001,-881.328003,-370.880005,-19880.000000,-33880.000000,-5180.000000
-31944.710844,-23078.399668,-33969.600078,22551.881975,-36802.460170,-11964.821752,-16239.794044,-30120.473220,-12782.090936,-27100.126696,-8650.393325,-28827.693025,50432.755105,-5574.502715,-13048.590785,-10701.322341,-61.487999,-878.888000,-362.584015,-24500.000000,-30800.000000,-3920.000000
-31947.594219,-23069.146045,-33986.989735,22555.301792,-36815.245368,-11988.827525,-16252.266318,-30144.769567,-12776.637110,-27106.049908,-8646.347659,-28837.080757,50417.958250,-5596.675646,-13045.618003,-10718.533184,-64.903999,-899.872009,-367.463989,-29400.000000,-29260.000000,-1540.000000
-31920.235684,-23055.578536,-33940.788679,22569.159874,-36790.546690,-11937.753789,-16235.793082,-30112.001909,-12768.299910,-27050.684637,-8578.308949,-28811.644472,50482.644198,-5575.061509,-13044.947451,-10693.029844,-75.639999,-917.440002,-361.608002,-27440.000000,-26180.000000,2660.000000
-31895.380544,-23024.129632,-33928.539923,22595.110249,-36760.394187,-11914.843251,-16210.379149,-30080.128322,-12744.070619,-27036.468927,-8583.539257,-28786.319946,50493.283629,-5547.412401,-13033.324544,-10664.106687,-77.104004,-924.760010,-373.320007,-21840.000000,-26600.000000,7840.000000
-31890.954899,-22991.987823,-33978.049037,22619.719520,-36764.350446,-11980.065641,-16210.736777,-30114.795877,-12718.209650,-27069.862434,-8644.067781,-28787.683402,50429.178826,-5570.188829,-13005.586029,-10684.916161,-73.200005,-932.080017,-383.080017,-24220.000000,-26040.000000,13580.000000
-31889.278518,-22990.087925,-33990.677773,22627.073244,-36783.394132,-11989.162801,-16209.596838,-30112.404241,-12710.677112,-27057.993657,-8625.761703,-28805.609501,50434.275023,-5586.907934,-12981.222627,-10683.887980,-84.912003,-926.223999,-386.984009,-23100.000000,-24920.000000,17500.000000
-31876.515672,-23002.269626,-33938.598208,22621.865287,-36768.843146,-11923.560431,-16200.209105,-30071.388790,-12724.937525,-27003.276587,-8566.306062,-28790.119742,50511.388542,-5559.012957,-13004.289628,-10647.253471,-89.792000,-926.223999,-399.671997,-30800.000000,-21140.000000,17220.000000
-31896.274614,-23012.618484,-33929.881028,22618.400767,-36761.377664,-11897.833574,-16208.591009,-30058.782406,-12755.112380,-27008.529247,-8570.239970,-28788.555120,50538.165931,-5548.686451,-13032.095198,-10644.213634,-95.648003,-918.903992,-395.279999,-37100.000000,-22820.000000,17220.000000
-31911.585559,-23013.154925,-33971.142348,22614.645674,-36786.679839,-11930.109493,-16228.014675,-30073.087522,-12756.498189,-27044.604962,-8625.582889,-28807.419992,50495.362341,-5566.679605,-13035.760884,-10665.805419,-96.624001,-921.832031,-399.671997,-40320.000000,-20580.000000,15680.000000
-31921.442678,-23015.859487,-33992.443561,22613.371624,-36797.408676,-11937.418513,-16226.606515,-30062.716313,-12758.934529,-27062.978096,-8651.265043,-28822.529772,50479.336140,-5562.589236,-13031.938735,-10659.412820,-90.767998,-917.440002,-400.648010,-39340.000000,-20020.000000,13720.000000
-31901.817847,-23003.051937,-33950.154060,22626.492098,-36772.195908,-11896.738338,-16210.982646,-30039.448147,-12753.681869,-27021.828535,-8602.314723,-28796.758210,50539.708202,-5537.197654,-13036.006753,-10632.881300,-88.816002,-910.119995,-403.576019,-39900.000000,-19180.000000,11200.000000
-31871.821805,-22977.481541,-33916.559388,22641.177194,-36751.364082,-11865.445896,-16205.461765,-30020.136240,-12737.879185,-26981.036601,-8565.791972,-28764.147015,50577.952037,-5525.686506,-13048.657840,-10616.206898,-85.400002,-895.968018,-409.920013,-39900.000000,-15400.000000,9100.000000
-31899.023878,-22989.596187,-33956.479604,22635.633962,-36776.308629,-11889.295207,-16225.734797,-30036.654179,-12758.062811,-27020.554485,-8611.970676,-28789.963280,50538.769429,-5540.081029,-13063.789971,-10632.054285,-78.080002,-881.816040,-413.335999,-43260.000000,-11060.000000,7420.000000
-31919.095745,-23000.034451,-33982.519386,22632.996456,-36804.874158,-11927.673152,-16240.822225,-30078.317830,-12774.603102,-27039.307599,-8624.957040,-28817.008891,50517.758789,-5559.795268,-13052.479989,-10645.577090,-74.176003,-882.791992,-424.071991,-45360.000000,-8540.000000,7280.000000
-31874.124035,-22959.622498,-33953.193897,22660.377343,-36778.812024,-11910.842289,-16214.201297,-30064.482101,-12735.956935,-26997.353375,-8597.509098,-28780.799065,50541.630452,-5547.524160,-13028.407160,-10615.379884,-87.840004,-883.768005,-428.464020,-45220.000000,-8400.000000,10220.000000
-31848.955971,-22929.626456,-33930.596284,22687.288843,-36744.949132,-11869.715079,-16180.628977,-30028.451088,-12713.269915,-26972.833511,-8577.370176,-28754.178137,50573.772260,-5523.205462,-13006.994189,-10576.420793,-66.368004,-880.840027,-429.440002,-36960.000000,-13720.000000,14420.000000
-31870.503053,-22946.613782,-33941.235714,22677.476427,-36762.942286,-11879.683957,-16203.941846,-30045.103138,-12740.136712,-26983.227072,-8588.546048,-28772.841844,50570.240685,-5526.580575,-13030.664686,-10585.026215,-65.391998,-884.744019,-436.760010,-33600.000000,-15960.000000,15400.000000
-31906.712879,-22979.224977,-33975.120959,22653.582412,-36808.606900,-11918.017199,-16240.397542,-30083.637546,-12774.536046,-27015.100660,-8619.905546,-28811.510362,50539.484684,-5553.827352,-13050.490683,-10612.988247,-59.048000,-892.064026,-437.248016,-35560.000000,-14980.000000,17360.000000
-31893.212425,-22966.395076,-33974.696276,22660.198529,-36812.049068,-11923.359266,-16241.895108,-30094.165217,-12757.839293,-27005.645872,-8608.930839,-28807.732917,50544.983214,-5569.361814,-13045.461541,-10615.134015,-68.807999,-897.919983,-429.440002,-33040.000000,-10360.000000,18340.000000
-31857.092006,-22921.915105,-33949.774080,22687.713526,-36771.659466,-11889.049338,-16217.218783,-30055.720217,-12721.629467,-26981.282470,-8602.918220,-28768.952640,50565.658577,-5549.580520,-13045.305079,-10577.985415,-68.807999,-897.919983,-436.760010,-32060.000000,-6300.000000,20720.000000
-31835.567276,-22887.739287,-33958.535964,22706.466640,-36768.105539,-11928.835443,-16227.254716,-30103.083563,-12690.694653,-26976.856825,-8604.996932,-28754.111082,50550.057060,-5568.355986,-13037.504320,-10604.025198,-61.487999,-904.752014,-435.783997,-27160.000000,-6300.000000,24500.000000
-31874.839291,-22939.125948,-33964.302714,22670.010945,-36822.129705,-11927.248469,-16268.247815,-30119.981482,-12739.577918,-26988.300918,-8599.207830,-28797.138190,50569.301912,-5571.932265,-13053.284651,-10619.514956,-65.391998,-913.536011,-438.712006,-24920.000000,-6160.000000,27020.000000
-31903.181303,-22950.458282,-33961.307581,22683.377288,-36798.101580,-11895.173716,-16231.769768,-30063.677438,-12773.954901,-27004.751802,-8615.792825,-28800.558007,50572.922894,-5533.487264,-13022.215727,-10557.891197,-71.736000,-916.952026,-435.783997,-19320.000000,-7700.000000,29820.000000
-31911.116172,-22957.364971,-33975.970325,22676.537654,-36803.644813,-11891.418623,-16250.187606,-30066.024371,-12783.901427,-27012.798430,-8609.199060,-28808.314062,50574.018130,-5553.603834,-13059.498436,-10565.759011,-71.248001,-923.783997,-422.608002,-12600.000000,-11480.000000,32480.000000
-31931.120983,-22975.738105,-33989.157854,22659.550328,-36824.342528,-11890.345739,-16280.988310,-30083.011697,-12806.119061,-27028.981093,-8618.475034,-28824.094394,50577.616760,-5563.617416,-13098.390472,-10582.634578,-61.487999,-928.176025,-421.144012,-5180.000000,-16800.000000,35140.000000
-31951.796347,-22980.744896,-34010.280253,22657.896299,-36844.056767,-11920.118263,-16291.717147,-30109.163238,-12825.967410,-27050.729340,-8650.661546,-28835.471432,50549.453562,-5570.568808,-13085.471163,-10590.524744,-62.464001,-921.832031,-429.440002,700.000000,-19180.000000,38780.000000
-31931.568018,-22952.581698,-34002.010107,22678.258738,-36827.427069,-11918.888917,-16277.367327,-30105.698717,-12801.201677,-27039.486413,-8655.131895,-28814.058460,50551.420516,-5558.230645,-13062.024184,-10569.335290,-66.856003,-924.760010,-427.000000,5180.000000,-18620.000000,42560.000000
-31891.558396,-22915.634264,-33977.244374,22698.777640,-36805.432952,-11896.023082,-16258.547158,-30090.454828,-12762.108476,-27002.270758,-8619.704380,-28781.156693,50583.808194,-5551.435715,-13054.893977,-10548.972851,-59.535999,-923.296021,-432.856018,9660.000000,-18760.000000,46480.000000
-31889.390277,-22901.016224,-33983.838139,22719.229486,-36802.482522,-11885.853039,-16235.748379,-30069.913574,-12750.865549,-27000.952005,-8610.026075,-28786.141132,50592.078339,-5554.252035,-13018.974724,-10530.376200,-59.535999,-931.104004,-436.272003,14840.000000,-18760.000000,50540.000000
-31918.805172,-22942.076378,-33987.347363,22685.590110,-36840.055804,-11883.550809,-16269.544216,-30082.609365,-12787.857686,-27008.462192,-8611.255421,-28816.584208,50608.193947,-5546.965366,-13056.905634,-10543.899005,-68.320000,-921.832031,-439.688019,21140.000000,-18060.000000,54180.000000
-31939.502888,-22954.705114,-33992.510616,22676.604709,-36852.885706,-11894.301998,-16283.558760,-30099.328470,-12814.277448,-27019.280436,-8621.336057,-28821.456888,50599.096787,-5552.419192,-13073.892960,-10552.727944,-74.176003,-918.903992,-435.783997,26460.000000,-14840.000000,58660.000000
-31923.364928,-22917.712977,-33984.799264,22709.238256,-36824.744859,-11873.671338,-16246.968954,-30064.079769,-12789.534067,-27007.813991,-8615.926935,-28798.434591,50605.936421,-5552.419192,-13040.655916,-10518.485071,-82.472000,-915.000000,-426.511993,30380.000000,-10220.000000,61320.000000
-31926.672986,-22900.055099,-33979.814825,22723.811594,-36803.443647,-11849.263233,-16225.511280,-30033.904914,-12791.948055,-27011.971416,-8620.553746,-28786.521111,50617.514624,-5537.555282,-13037.906651,-10487.751423,-98.087997,-912.072021,-422.119995,33320.000000,-7280.000000,63280.000000
-31952.511603,-22934.722654,-33994.812846,22704.365576,-36830.399851,-11865.065916,-16251.908690,-30052.166289,-12831.778864,-27025.427166,-8634.031848,-28811.957397,50605.981124,-5537.287061,-13061.599500,-10501.721263,-116.144005,-909.143982,-424.071991,36120.000000,-4760.000000,64400.000000
-31947.638923,-22948.737198,-34005.474628,22681.142113,-36863.323970,-11882.276759,-16284.184609,-30076.462636,-12819.597163,-27019.436898,-8640.491502,-28824.116745,50592.883002,-5549.088782,-13089.338015,-10518.865051,-123.952003,-901.335999,-422.119995,40460.000000,-2800.000000,64680.000000
-31911.317338,-22902.066756,-33995.304584,22708.947683,-36845.889610,-11878.052280,-16259.754152,-30104.089392,-12770.155104,-26993.195950,-8623.168900,-28800.982690,50601.264906,-5558.543570,-13052.256471,-10502.525926,-128.343994,-896.944031,-425.536011,48720.000000,560.000000,63140.000000
-31915.050079,-22888.678061,-33977.467892,22721.017625,-36825.080135,-11841.149550,-16238.318829,-30086.431514,-12783.923779,-26987.831532,-8613.132967,-28788.309251,50624.331906,-5540.796285,-13054.223425,-10465.354975,-141.520004,-883.280029,-434.320007,51520.000000,2100.000000,60340.000000
-31963.240440,-22915.075471,-33994.231700,22715.921428,-36830.936293,-11842.043619,-16243.124454,-30084.263394,-12840.943079,-27028.757576,-8652.717907,-28808.068193,50607.881022,-5525.328878,-13064.706393,-10449.485236,-151.768005,-886.695984,-436.272003,51520.000000,-420.000000,57820.000000
-32006.714583,-22966.775056,-34030.955616,22687.288843,-36879.998372,-11880.309806,-16268.113705,-30109.118534,-12891.323911,-27058.954782,-8672.722718,-28856.638534,50580.321322,-5553.827352,-13065.354593,-10469.847676,-153.231995,-887.184021,-431.880005,55440.000000,-2800.000000,53200.000000
-31963.799234,-22936.510794,-34008.112134,22692.228579,-36876.422092,-11860.796733,-16265.856179,-30089.605461,-12839.020829,-27026.544753,-8648.918110,-28835.024397,50601.421368,-5553.805000,-13077.692756,-10460.817571,-170.800003,-894.504028,-432.856018,60900.000000,-3920.000000,46480.000000
-31910.691489,-22885.548816,-33976.193842,22718.000140,-36843.453269,-11828.878442,-16243.593841,-30057.709522,-12765.707107,-26988.837360,-8624.577060,-28792.421972,50634.591357,-5537.488227,-13071.702489,-10435.157768,-185.440002,-908.168030,-437.735992,65380.000000,-5740.000000,39480.000000
-31914.021899,-22883.246587,-33981.625316,22720.369425,-36848.124784,-11839.249651,-16254.389734,-30062.224574,-12767.741116,-26989.954947,-8635.238842,-28793.114876,50630.232767,-5533.733134,-13077.938626,-10438.957565,-190.320007,-910.608032,-428.951996,71260.000000,-4900.000000,31920.000000
-31956.892545,-22919.299951,-34008.536817,22700.230503,-36880.221889,-11867.077573,-16278.015527,-30075.345048,-12819.641867,-27015.078308,-8663.893779,-28826.195458,50607.724560,-5538.382296,-13090.768527,-10449.015850,-182.512009,-913.536011,-420.167999,77000.000000,-4620.000000,24220.000000
-31948.309475,-22921.848049,-34021.612587,22701.392794,-36894.817578,-11869.513913,-16260.670574,-30057.754225,-12798.608875,-27006.964625,-8657.188255,-28841.148775,50605.779958,-5551.860398,-13057.240910,-10430.575661,-181.048004,-915.488037,-411.384003,82460.000000,-5460.000000,16800.000000
-31937.155954,-22897.484648,-33995.818674,22718.357768,-36864.598020,-11824.005762,-16233.759073,-30012.782516,-12789.042328,-26993.106543,-8646.571177,-28816.383042,50639.195816,-5524.725381,-13061.890073,-10390.968369,-174.703995,-917.440002,-400.648010,87220.000000,-9240.000000,10080.000000
-31936.127774,-22883.827732,-34001.853645,22725.309160,-36869.783624,-11838.444989,-16233.692018,-30022.483173,-12784.929608,-26997.420430,-8656.540055,-28813.030280,50630.657450,-5525.105360,-13060.191340,-10394.924628,-164.944000,-917.928040,-386.496002,91280.000000,-12180.000000,2520.000000
-31988.274394,-22944.311553,-34022.126677,22685.277186,-36919.538608,-11862.763687,-16274.752173,-30053.797967,-12851.224882,-27019.705119,-8663.625558,-28856.236202,50622.543767,-5537.242357,-13101.497364,-10421.053817,-155.671997,-920.367981,-376.735992,91560.000000,-12040.000000,-2520.000000
-31994.175255,-22946.010285,-34013.945939,22676.314137,-36916.387012,-11847.028058,-16278.797839,-30038.375263,-12858.265681,-27019.146325,-8668.744107,-28849.776548,50632.870273,-5522.311392,-13134.645001,-10399.439681,-147.376007,-924.272034,-374.295990,90020.000000,-10220.000000,-4340.000000
-31939.905219,-22899.429250,-33988.241433,22697.682404,-36895.286965,-11823.446968,-16248.399466,-30013.654234,-12783.230875,-26976.588604,-8633.607165,-28817.433574,50665.660282,-5515.538814,-13115.824832,-10366.895541,-132.736008,-922.807983,-377.223999,88760.000000,-6580.000000,-3220.000000
-31951.394016,-22898.781049,-33995.796322,22708.053614,-36901.523102,-11835.472207,-16234.943716,-30027.288798,-12796.843087,-26977.370915,-8634.143607,-28824.630836,50663.827439,-5526.781741,-13088.600408,-10361.799343,-118.584000,-917.928040,-385.520020,86520.000000,-3220.000000,280.000000
-31990.978955,-22939.684741,-34024.339500,22686.819456,-36944.997244,-11869.066878,-16260.603519,-30058.603592,-12840.004306,-27000.572026,-8649.029869,-28863.299354,50641.788619,-5546.630090,-13098.435175,-10380.887733,-101.992004,-915.488037,-392.351990,86100.000000,-700.000000,4620.000000
-31976.271507,-22933.314494,-34021.612587,22681.857369,-36951.143974,-11854.605300,-16259.485931,-30040.275161,-12809.941210,-26995.431125,-8655.288357,-28857.934935,50641.565101,-5532.101456,-13111.890925,-10355.652613,-111.751999,-902.312012,-388.447998,80780.000000,6160.000000,7560.000000
-31982.038257,-22915.053119,-34001.898349,22696.900093,-36920.611491,-11818.171956,-16242.520957,-30019.309225,-12819.686570,-26996.347546,-8654.416639,-28832.208077,50665.615578,-5507.849813,-13125.369027,-10324.449578,-91.744003,-892.552002,-373.808014,81060.000000,-6580.000000,15120.000000
-31978.909013,-22913.108517,-34005.295814,22699.269378,-36931.340329,-11819.535413,-16241.872757,-30024.070147,-12811.215259,-26988.278566,-8643.576043,-28837.773661,50672.812840,-5517.394008,-13118.507042,-10326.170662,-85.888000,-902.799988,-366.000000,72800.000000,-9380.000000,17500.000000
-31984.362839,-22916.841259,-34029.368642,22690.708660,-36958.631809,-11851.297242,-16258.301289,-30048.634714,-12798.586523,-26999.968529,-8670.308729,-28854.224545,50644.783753,-5528.212253,-13120.384588,-10340.967517,-81.008003,-912.559998,-366.000000,67900.000000,-11760.000000,19320.000000
-32017.286958,-22942.702227,-34038.801079,22672.067305,-36976.915536,-11858.472152,-16276.517961,-30061.755188,-12832.874099,-27016.374709,-8688.771270,-28867.546185,50636.714773,-5528.726343,-13149.017173,-10346.376639,-81.496002,-916.952026,-358.679993,61320.000000,-10220.000000,19880.000000
-32002.110124,-22928.240648,-34023.758355,22683.511398,-36964.286800,-11840.322535,-16259.485931,-30047.762996,-12814.612724,-26996.772229,-8668.922921,-28851.452929,50654.707927,-5529.687468,-13139.629440,-10329.143444,-77.104004,-916.463989,-351.360016,55580.000000,-6720.000000,20440.000000
-31980.831263,-22896.612930,-34000.490189,22704.477335,-36941.197448,-11833.102922,-16242.632716,-30044.901972,-12791.433965,-26970.911261,-8646.705287,-28824.943760,50672.924599,-5526.267651,-13126.128987,-10317.766406,-73.688004,-915.000000,-348.920013,49560.000000,-5180.000000,22680.000000
-32000.098467,-22923.770299,-33999.886692,22676.470599,-36963.035102,-11833.237032,-16270.907673,-30060.235269,-12819.530108,-26973.727581,-8654.081363,-28839.897077,50670.644721,-5515.985848,-13160.751839,-10325.857738,-74.176003,-920.367981,-335.744019,44520.000000,-1260.000000,24780.000000
-32033.648435,-22949.050122,-34027.267579,22659.907956,-36987.644373,-11849.039715,-16278.484914,-30066.583165,-12846.061629,-27001.242578,-8687.251352,-28870.496615,50641.118066,-5521.797302,-13152.459342,-10325.857738,-63.440002,-924.760010,-336.720001,39060.000000,-3220.000000,28700.000000
-32027.233485,-22931.436948,-34022.037270,22670.614442,-36966.477271,-11831.426541,-16260.089428,-30046.466595,-12836.204509,-26994.939386,-8693.979227,-28854.515118,50641.363936,-5513.884784,-13149.218339,-10304.511822,-63.440002,-930.127991,-340.136017,35840.000000,-6860.000000,32340.000000
-32009.106220,-22900.859761,-34007.754506,22686.864160,-36948.372358,-11816.607334,-16245.873719,-30043.069129,-12809.248305,-26971.559462,-8667.648872,-28834.912638,50662.441631,-5511.537851,-13134.779112,-10298.342740,-64.903999,-939.400024,-345.503998,29120.000000,-9520.000000,34720.000000
-32021.354976,-22914.136698,-34009.185017,22670.592090,-36967.281934,-11828.409055,-16269.991251,-30070.137092,-12822.145262,-26966.865595,-8662.798543,-28842.780452,50658.395965,-5512.253107,-13144.099789,-10319.263973,-65.879997,-937.936035,-351.847992,29400.000000,-13720.000000,35840.000000
-32053.787357,-22933.023922,-34026.731137,22651.950735,-36988.985478,-11847.273928,-16294.622874,-30094.254624,-12851.850730,-26989.485561,-8693.331026,-28857.264383,50632.132665,-5514.510633,-13158.784885,-10337.100665,-85.888000,-940.376038,-350.872009,28980.000000,-13720.000000,34440.000000
-32047.461813,-22924.083224,-34012.560131,22652.822453,-36976.133225,-11830.755988,-16289.884304,-30088.912557,-12843.804102,-26975.314555,-8681.641064,-28841.998141,50640.156941,-5505.972267,-13166.116257,-10324.896613,-107.360001,-930.127991,-346.968018,28140.000000,-13160.000000,32480.000000
-32023.701909,-22907.319415,-33997.383296,22656.421084,-36960.889335,-11807.957209,-16281.345937,-30076.976726,-12816.065588,-26952.135796,-8658.238787,-28826.016644,50653.947968,-5503.804148,-13170.810124,-10311.351456,-125.903999,-935.984009,-333.791992,22400.000000,-13160.000000,29680.000000
-32049.808747,-22935.996704,-34011.330785,22637.578563,-36979.620097,-11815.288581,-16297.416842,-30091.460656,-12845.011097,-26969.614860,-8672.678014,-28848.904830,50640.335755,-5506.151081,-13180.734298,-10322.728494,-151.768005,-932.567993,-321.104004,14420.000000,-13720.000000,26040.000000
-32079.156587,-22953.520471,-34033.391956,22620.814755,-37003.737629,-11845.105808,-16320.528545,-30125.703529,-12868.502780,-26993.263005,-8702.025855,-28869.267269,50609.311534,-5515.717627,-13184.154115,-10346.980136,-160.063995,-939.400024,-310.856018,2380.000000,-17920.000000,22540.000000
-32081.436465,-22944.222146,-34025.300625,22623.407557,-36989.097236,-11836.813311,-16316.013493,-30126.552895,-12873.688385,-26991.743087,-8707.144404,-28856.794996,50609.982086,-5507.693351,-13180.756650,-10338.240604,-165.432007,-956.968018,-311.343994,-8260.000000,-19600.000000,17640.000000
-32054.726130,-22927.547744,-33999.819636,22625.173345,-36971.528765,-11808.024264,-16310.559667,-30111.197246,-12848.252100,-26962.864633,-8678.377709,-28835.627894,50635.239558,-5500.697255,-13190.926694,-10329.635183,-170.800003,-969.168030,-300.119995,-17360.000000,-20860.000000,12180.000000
-32065.097340,-22926.653674,-33994.186997,22625.329807,-36964.107986,-11810.818232,-16312.370159,-30116.718127,-12864.725335,-26965.725656,-8680.277607,-28831.425766,50634.971337,-5492.069482,-13183.371804,-10337.771218,-169.824005,-974.536011,-290.360016,-26320.000000,-19180.000000,7420.000000
-32089.527796,-22947.932535,-34013.074221,22608.029557,-36984.336315,-11847.072762,-16336.644153,-30150.089282,-12887.457059,-26981.081305,-8699.209535,-28852.101130,50605.399979,-5499.378502,-13171.681842,-10371.589407,-160.063995,-978.440002,-292.312012,-40600.000000,-20160.000000,3360.000000
-32047.238296,-22913.197924,-34002.613604,22616.366758,-36970.455881,-11848.190349,-16335.906546,-30154.380817,-12825.118044,-26952.649886,-8685.709081,-28832.699815,50600.013208,-5498.104453,-13149.665374,-10377.110288,-153.231995,-1002.351990,-289.872009,-49000.000000,-21560.000000,560.000000
-31999.137342,-22863.264127,-33965.196784,22641.646581,-36921.125581,-11815.221526,-16305.865801,-30126.776412,-12774.848971,-26914.137830,-8656.070668,-28786.543463,50622.990802,-5476.423261,-13124.385551,-10353.149218,-147.863998,-1000.888000,-290.847992,-56420.000000,-22960.000000,-2100.000000
-31997.796237,-22865.052267,-33959.050054,22636.930363,-36911.626090,-11817.143776,-16303.161240,-30126.441136,-12783.432041,-26912.595560,-8652.226168,-28779.972050,50614.698304,-5475.417432,-13113.053216,-10359.027727,-134.688004,-996.984009,-297.192017,-62580.000000,-25620.000000,-3780.000000
-32026.808802,-22910.292198,-33977.534947,22591.489266,-36948.417061,-11845.709305,-16349.541110,-30162.025113,-12822.793463,-26932.756833,-8670.822820,-28806.123591,50580.187211,-5489.722549,-13145.999687,-10401.406634,-122.487999,-987.712036,-310.368011,-69860.000000,-25340.000000,-4900.000000
-32047.282999,-22935.035579,-33985.514520,22566.857644,-36958.341236,-11858.293338,-16371.892854,-30177.939555,-12851.582509,-26948.425406,-8688.011311,-28817.143001,50558.930702,-5498.126805,-13160.282452,-10423.646620,-122.487999,-979.903992,-324.519989,-76440.000000,-27020.000000,-3640.000000
-32036.464755,-22914.941360,-33968.437787,22575.910100,-36923.450163,-11838.467340,-16356.090171,-30162.919183,-12842.820626,-26944.022112,-8687.497221,-28790.410315,50562.752850,-5489.342569,-13151.229996,-10416.248192,-121.512001,-964.776001,-352.335999,-80920.000000,-26320.000000,-2380.000000
-32040.264552,-22921.713939,-33971.723494,22569.361039,-36913.548340,-11837.237994,-16353.653831,-30166.406055,-12850.151998,-26952.783996,-8696.594381,-28790.455018,50544.983214,-5490.326046,-13140.814083,-10427.066437,-115.167999,-947.695984,-376.248016,-84000.000000,-26460.000000,-700.000000
-32056.335456,-22952.961678,-33997.807979,22538.135652,-36944.684320,-11877.538190,-16392.747032,-30212.048317,-12866.871103,-26972.498235,-8720.734265,-28817.232408,50495.898783,-5512.566032,-13151.878196,-10472.775754,-119.559998,-933.544006,-395.768005,-81620.000000,-24360.000000,-700.000000
-32072.048732,-22975.246367,-34011.241378,22520.745995,-36955.636675,-11904.114414,-16417.266895,-30250.113338,-12890.765117,-26987.160979,-8734.368829,-28827.245990,50461.722965,-5531.766180,-13159.790714,-10505.923391,-115.655998,-913.048035,-422.119995,-74760.000000,-24500.000000,0.000000
-32047.282999,-22970.954832,-34000.669003,22525.261048,-36933.061413,-11894.436108,-16403.587628,-30238.378672,-12870.492085,-26968.318459,-8713.514651,-28813.611426,50457.096154,-5541.489189,-13145.686763,-10504.917563,-127.368004,-890.600037,-435.783997,-57680.000000,-20580.000000,1260.000000
-32039.482241,-22980.700193,-33994.209348,22522.422376,-36915.001203,-11886.076556,-16392.232942,-30225.906399,-12873.107239,-26961.210604,-8702.964628,-28811.689176,50449.228340,-5539.902215,-13140.277641,-10503.844679,-133.223999,-863.760010,-460.671997,-46060.000000,-22960.000000,2100.000000
-32056.022532,-22998.022794,-34010.347308,22511.313559,-36924.746564,-11916.139652,-16413.377692,-30256.014199,-12895.213115,-26980.768380,-8726.009277,-28824.832001,50414.337267,-5546.808904,-13145.932632,-10534.578327,-143.472000,-837.408020,-458.720001,-38220.000000,-19320.000000,2940.000000
-32065.924354,-22995.586454,-34024.875942,22514.018120,-36924.478343,-11948.527330,-16425.335875,-30283.640955,-12905.450214,-26995.408773,-8745.209425,-28825.904885,50377.658055,-5561.426945,-13133.817987,-10562.942691,-149.815994,-835.944031,-464.576019,-29260.000000,-15400.000000,2800.000000
-32042.276209,-22966.618594,-34006.145180,22536.660437,-36882.300601,-11934.535138,-16395.652759,-30251.946181,-12884.461926,-26983.048258,-8738.570957,-28797.674632,50378.328607,-5559.504695,-13108.739329,-10547.899967,-163.479996,-839.359985,-465.063995,-22680.000000,-17920.000000,2380.000000
-32002.870083,-22941.517585,-33981.938241,22549.870318,-36848.549467,-11918.330123,-16376.810238,-30216.451611,-12849.727315,-26957.611973,-8717.873242,-28771.612498,50390.107976,-5555.213160,-13102.838469,-10539.339249,-170.311996,-834.479980,-459.696014,-14560.000000,-14980.000000,-140.000000
-32011.363746,-22958.124931,-33988.196729,22536.682789,-36855.858488,-11944.526368,-16392.031776,-30236.232905,-12870.849713,-26963.713999,-8721.829500,-28784.531806,50370.863124,-5561.717518,-13110.192193,-10567.703613,-180.072006,-846.679993,-453.352020,-2800.000000,-10220.000000,-2940.000000
-32021.578493,-22975.469884,-34002.121866,22520.589533,-36869.224831,-11981.876133,-16408.393253,-30270.162853,-12892.799126,-26978.466151,-8736.492245,-28800.379193,50340.397697,-5572.602817,-13118.730559,-10599.219572,-193.248001,-851.559998,-437.735992,8680.000000,-6020.000000,-4340.000000
-32013.040127,-22975.648698,-33995.237529,22524.277571,-36852.013988,-11973.561284,-16392.322349,-30265.312524,-12894.363748,-26973.124084,-8721.404817,-28799.194550,50342.342298,-5578.838954,-13106.928838,-10600.672436,-201.544006,-854.000000,-421.632019,19880.000000,-2380.000000,-5040.000000
-31994.331717,-22968.697306,-33977.467892,22535.319333,-36827.158848,-11955.255205,-16377.056107,-30238.982170,-12887.993501,-26955.533261,-8697.600209,-28788.868044,50357.340319,-5583.421061,-13099.709225,-10598.951352,-199.104004,-848.143982,-406.015991,29260.000000,2800.000000,-7980.000000
-32006.692231,-22978.956756,-33989.806055,22532.480661,-36827.181199,-11977.025804,-16385.549770,-30238.490431,-12905.047882,-26973.660526,-8713.067617,-28802.390850,50333.870987,-5593.904030,-13102.726710,-10620.721951,-193.736008,-870.104004,-386.984009,34440.000000,6860.000000,-10920.000000
-32020.416203,-22998.022794,-34016.762259,22521.930638,-36844.168525,-12021.930459,-16401.486564,-30260.484548,-12918.548336,-27001.041412,-8744.427114,-28826.486030,50290.329789,-5619.742646,-13102.614951,-10653.422553,-191.296005,-901.824036,-368.440002,40740.000000,9660.000000,-13580.000000
-32000.031412,-22985.841094,-34009.229721,22533.553545,-36828.119973,-12027.451340,-16391.808259,-30247.587591,-12900.890458,-26994.738221,-8742.862492,-28817.701795,50288.675760,-5631.432609,-13092.087280,-10657.468219,-185.928009,-913.536011,-336.720001,40600.000000,12740.000000,-15960.000000
-31979.378400,-22981.706021,-33976.462063,22548.819786,-36795.642888,-11998.282313,-16366.707249,-30202.481771,-12899.169373,-26969.368991,-8713.715817,-28799.909806,50322.248080,-5626.224652,-13082.923065,-10644.615965,-173.727997,-934.031982,-314.272003,33600.000000,16520.000000,-20020.000000
-31969.610687,-22974.732277,-33972.349342,22562.543757,-36778.096769,-12003.154993,-16356.581909,-30186.455570,-12892.553257,-26973.146435,-8720.331934,-28792.936062,50317.442455,-5630.560891,-13076.083431,-10653.221387,-167.384003,-964.776001,-297.192017,24360.000000,20720.000000,-23800.000000
-31985.949813,-22995.117068,-33983.972250,22557.492263,-36794.234728,-12037.464921,-16374.530360,-30209.433163,-12909.182955,-26990.223168,-8735.329954,-28811.890341,50300.052798,-5649.738687,-13079.659710,-10693.208658,-163.479996,-971.119995,-300.119995,13860.000000,24920.000000,-26880.000000
-31981.345353,-23005.756498,-33986.699162,22561.135597,-36794.257080,-12046.964413,-16373.971566,-30207.823838,-12910.121728,-26992.726564,-8734.100608,-28817.143001,50293.436681,-5668.402394,-13079.033861,-10714.018132,-159.576004,-968.679993,-319.640015,5600.000000,29540.000000,-29680.000000
-31952.690417,-23002.448440,-33965.420302,22581.073353,-36765.915068,-12023.137453,-16349.898738,-30172.016343,-12899.102318,-26969.927784,-8704.708064,-28802.592016,50314.357914,-5668.558856,-13074.205884,-10705.278600,-156.160004,-951.600037,-333.304016,3080.000000,31360.000000,-31080.000000
-31947.996551,-23027.102414,-33957.999522,22578.815827,-36764.372798,-12020.075264,-16354.011459,-30155.900735,-12917.788377,-26967.916127,-8697.153175,-28805.631853,50320.839920,-5667.843600,-13094.165992,-10713.101710,-152.255997,-925.247986,-356.727997,840.000000,30800.000000,-32200.000000
-31961.608763,-23044.425016,-33977.870223,22579.195807,-36778.655562,-12051.501817,-16367.646023,-30173.402151,-12932.272307,-26994.738221,-8722.969439,-28819.422879,50288.966333,-5679.064176,-13093.361329,-10735.051124,-136.639999,-895.968018,-368.928009,980.000000,28980.000000,-33460.000000
-31962.189908,-23040.871089,-33985.067485,22597.568941,-36769.938382,-12066.969224,-16350.189310,-30168.797692,-12926.572612,-27008.529247,-8737.676887,-28816.561856,50272.202524,-5688.049577,-13064.326413,-10737.643926,-126.391998,-924.760010,-394.304016,2380.000000,26180.000000,-35140.000000
-31937.491231,-23036.467795,-33969.443616,22609.661235,-36752.056986,-12048.216110,-16338.633458,-30135.247723,-12906.836022,-26987.652718,-8714.475776,-28797.786391,50295.135414,-5691.290580,-13073.445925,-10734.805254,-131.272003,-894.992004,-355.264008,4620.000000,21280.000000,-33740.000000
-31920.369794,-23046.280211,-33957.932467,22615.360929,-36743.228047,-12034.112160,-16331.480900,-30104.603482,-12905.584324,-26970.933613,-8700.617695,-28790.097390,50307.920612,-5689.100109,-13073.892960,-10734.782903,-110.776001,-859.856018,-344.528015,-9100.000000,19180.000000,-34160.000000
-31939.234667,-23083.585272,-33973.802206,22598.708880,-36765.244516,-12054.586357,-16351.798636,-30105.519903,-12937.256746,-26987.987994,-8719.080236,-28811.108030,50286.865269,-5696.811461,-13083.504210,-10753.871292,-95.648003,-908.656006,-332.328003,-21980.000000,23660.000000,-34720.000000
-31954.187984,-23102.807772,-33985.961555,22594.976138,-36775.123987,-12069.964358,-16359.375877,-30100.267243,-12955.696935,-27008.439840,-8733.363001,-28823.043862,50271.733138,-5707.540298,-13082.051347,-10767.394098,-93.695999,-985.272034,-302.071991,-36820.000000,32480.000000,-30240.000000
-31913.194884,-23070.822426,-33968.750712,22625.799194,-36743.563323,-12049.311346,-16325.065950,-30050.713426,-12909.048844,-26995.095848,-8715.034570,-28796.512341,50282.014940,-5707.830871,-13055.698640,-10754.139513,-85.888000,-997.471985,-297.192017,-57960.000000,41300.000000,-23520.000000
-31884.584652,-23056.830234,-33959.094758,22649.447340,-36719.468143,-12025.976125,-16291.761850,-29985.871015,-12878.449306,-26993.039488,-8706.473852,-28783.727143,50291.983818,-5701.102996,-13033.615116,-10737.107484,-77.592003,-987.712036,-294.264008,-77420.000000,49000.000000,-15960.000000
-31880.315468,-23078.824351,-33969.600078,22643.635886,-36735.740213,-12039.521282,-16300.188458,-29953.617448,-12887.725280,-27003.678918,-8711.480643,-28798.076963,50282.573734,-5707.182670,-13035.962049,-10755.882949,-61.000000,-998.936035,-300.119995,-90160.000000,52780.000000,-7840.000000
-31875.800416,-23097.264540,-33980.597136,22637.153880,-36753.532201,-12059.079058,-16313.711263,-29920.067480,-12906.031359,-27013.334872,-8717.090931,-28813.007928,50272.426042,-5719.498482,-13039.046590,-10775.463077,-49.776001,-990.152039,-354.776001,-92260.000000,54320.000000,1260.000000
-31845.357340,-23093.688261,-33970.091816,22641.892450,-36743.339806,-12035.945003,-16308.391548,-29851.335865,-12907.126594,-26998.202741,-8696.214401,-28805.922425,50295.560097,-5725.309935,-13053.061134,-10765.874179,-44.408001,-918.416016,-412.847992,-74480.000000,52500.000000,8960.000000
-31813.371994,-23073.214063,-33961.508746,22669.608613,-36714.327242,-12002.797366,-16275.534484,-29796.015298,-12897.001254,-26984.098790,-8683.853887,-28793.874835,50319.275298,-5724.661735,-13030.932907,-10743.790656,-45.872002,-829.112000,-446.032013,-53340.000000,44380.000000,11620.000000
-31804.230130,-23078.869054,-33979.971287,22677.454076,-36720.652785,-12012.430967,-16265.677365,-29795.367097,-12896.531868,-26991.899549,-8700.751805,-28804.782487,50308.121778,-5735.301165,-13007.105947,-10746.159941,-48.799999,-787.632019,-457.256012,-37380.000000,33180.000000,10920.000000
-31803.157246,-23089.217912,-33995.975136,22674.794218,-36737.416594,-12030.759398,-16274.506304,-29820.065775,-12902.097452,-26999.320328,-8714.319314,-28812.695004,50296.498870,-5750.746220,-13002.881468,-10755.011231,-53.192001,-776.895996,-466.528015,-29400.000000,28000.000000,8400.000000
-31774.703476,-23072.051772,-33988.152026,22688.473486,-36722.284463,-12014.196755,-16258.144827,-29820.401051,-12876.974091,-26984.188197,-8703.568125,-28795.148885,50314.939060,-5758.412869,-12997.897029,-10736.571042,-53.680000,-798.367981,-460.671997,-25060.000000,24780.000000,5740.000000
-31743.701606,-23049.342400,-33971.052941,22710.266436,-36695.149445,-11983.731328,-16230.763940,-29811.885036,-12850.666088,-26965.122159,-8674.332043,-28774.428818,50346.745592,-5755.685956,-12984.754203,-10715.493347,-63.440002,-843.264038,-451.888000,-23520.000000,21140.000000,3640.000000
-31741.779356,-23059.557147,-33977.266726,22707.070137,-36704.358364,-11991.599142,-16235.524861,-29837.276618,-12858.936233,-26970.799502,-8669.057032,-28782.631908,50347.773772,-5760.983319,-12989.470421,-10727.563289,-67.344002,-882.791992,-448.959991,-22680.000000,16100.000000,2940.000000
-31758.051426,-23079.003165,-34003.641785,22696.207189,-36729.504076,-12022.846880,-16249.807626,-29881.242499,-12878.717527,-26998.962700,-8688.145422,-28807.062364,50321.197548,-5774.103793,-12986.967026,-10749.713868,-79.056000,-919.880005,-467.015991,-11200.000000,11900.000000,2100.000000
-31748.216659,-23075.963327,-34002.412439,22700.811648,-36726.598349,-12021.125796,-16242.252736,-29892.507779,-12875.096545,-26998.314500,-8685.262046,-28808.314062,50324.818531,-5775.690767,-12979.188619,-10749.602109,-83.447998,-922.807983,-460.183990,6580.000000,7280.000000,980.000000
-31725.909618,-23064.921566,-33985.246299,22714.669730,-36705.252433,-11988.693415,-16218.962219,-29871.854767,-12865.574701,-26980.969546,-8669.146439,-28794.746553,50348.623139,-5771.376881,-12970.069107,-10731.094865,-103.456001,-951.112000,-453.839996,23100.000000,7840.000000,-840.000000
-31717.170086,-23066.933223,-33983.279345,22720.078852,-36701.251471,-11980.222104,-16213.128413,-29865.886851,-12865.239425,-26976.812121,-8667.425354,-28795.014774,50352.691156,-5766.817125,-12963.251825,-10725.663391,-119.559998,-981.856018,-427.976013,34580.000000,6860.000000,-980.000000
-31719.829943,-23076.142141,-33993.807017,22717.821326,-36713.813152,-12002.640903,-16222.784367,-29887.478636,-12871.877893,-26984.657584,-8679.830573,-28805.073059,50333.736877,-5768.784078,-12956.501598,-10739.499121,-130.783997,-967.216003,-402.112000,35140.000000,5320.000000,-1260.000000
-31706.865931,-23069.123694,-33988.308488,22723.588076,-36709.923948,-11997.142374,-16217.509355,-29875.207528,-12862.512513,-26974.845168,-8671.113392,-28798.278129,50334.921519,-5768.761726,-12952.947671,-10733.419446,-125.903999,-929.152039,-387.472015,28560.000000,7980.000000,-4900.000000
-31677.205166,-23047.241336,-33967.834290,22744.486957,-36682.610116,-11958.786781,-16190.664910,-29829.565266,-12833.499948,-26948.559516,-8642.480808,-28776.351068,50361.833019,-5762.011500,-12941.704743,-10707.714940,-120.048004,-911.096008,-380.152008,24780.000000,13440.000000,-10640.000000
-31666.230460,-23042.614525,-33960.726435,22755.081684,-36675.077578,-11944.347554,-16182.707689,-29815.036632,-12826.414445,-26937.383644,-8629.449741,-28771.076056,50373.031243,-5753.473133,-12936.541490,-10701.389396,-112.728004,-901.824036,-385.520020,24640.000000,16380.000000,-16800.000000
-31684.849463,-23061.032362,-33975.523290,22749.449044,-36692.333125,-11961.245473,-16190.508448,-29830.101708,-12849.660259,-26950.884098,-8642.167883,-28785.336469,50355.999214,-5753.070802,-12925.723246,-10712.922896,-115.167999,-891.575989,-397.720001,26600.000000,15540.000000,-22120.000000
-31687.486969,-23066.977926,-33977.870223,22744.039922,-36700.826788,-11963.346537,-16198.689186,-29836.315493,-12852.543634,-26951.822871,-8638.949232,-28784.531806,50355.641586,-5758.748145,-12932.361714,-10721.058931,-121.512001,-875.471985,-392.351990,26460.000000,11340.000000,-25900.000000
-31671.281954,-23048.023647,-33963.006313,22764.938803,-36674.183509,-11935.518615,-16167.732020,-29807.951129,-12833.343486,-26943.262153,-8625.448778,-28766.851576,50375.534639,-5755.015404,-12910.099376,-10694.303893,-117.120003,-864.247986,-378.688019,19180.000000,4900.000000,-28280.000000
-31655.322809,-23040.334647,-33952.277476,22771.264347,-36663.879354,-11921.928754,-16164.267500,-29800.686812,-12818.546631,-26932.175688,-8614.339961,-28756.770939,50386.755215,-5749.539226,-12909.540583,-10687.307797,-108.823997,-871.567993,-377.712006,8400.000000,3220.000000,-30520.000000
-31668.778559,-23052.561051,-33965.643819,22762.144835,-36679.033837,-11946.113342,-16178.505561,-29825.318435,-12830.840091,-26948.134833,-8630.880252,-28770.517262,50364.939912,-5751.305014,-12903.572667,-10703.557516,-102.480003,-885.720032,-386.496002,1540.000000,4760.000000,-31780.000000
-31680.781446,-23062.351115,-33974.428055,22758.836777,-36687.460445,-11960.530217,-16180.293701,-29835.913162,-12843.424123,-26962.283488,-8641.273813,-28780.284975,50351.484162,-5757.675261,-12891.636836,-10711.492385,-96.136002,-904.752014,-395.279999,-3500.000000,6160.000000,-30940.000000
-31660.486062,-23050.571746,-33956.948990,22769.029173,-36671.367189,-11936.233871,-16165.407439,-29815.014281,-12825.363913,-26944.938534,-8616.955115,-28763.476463,50371.399566,-5757.630558,-12892.173277,-10699.377739,-91.256004,-915.976013,-394.304016,-2800.000000,6020.000000,-29680.000000
-31645.868021,-23041.876917,-33940.408700,22779.422734,-36654.245753,-11912.004580,-16151.683468,-29793.869530,-12813.293971,-26931.996874,-8603.387607,-28751.473576,50388.029264,-5750.522703,-12887.881742,-10686.950169,-87.840004,-924.272034,-391.376007,560.000000,6160.000000,-27860.000000
-31650.159556,-23052.628106,-33943.761461,22773.723039,-36665.712198,-11923.247507,-16162.568767,-29804.017222,-12819.820681,-26937.897734,-8615.278735,-28761.129530,50378.909752,-5748.511046,-12886.183010,-10699.757719,-83.936005,-916.463989,-385.520020,2240.000000,4620.000000,-25480.000000
-31644.169288,-23051.801092,-33943.962627,22776.360545,-36668.550869,-11931.897632,-16165.675660,-29813.717880,-12811.550535,-26935.282580,-8619.503214,-28760.727198,50374.640569,-5743.526607,-12876.482353,-10702.372873,-75.639999,-910.119995,-378.200012,-280.000000,3080.000000,-22960.000000
-31609.479381,-23021.872106,-33915.732374,22800.813353,-36636.721985,-11899.912286,-16137.087779,-29784.325336,-12780.101631,-26906.113554,-8590.423595,-28730.597047,50406.290639,-5725.958136,-12853.303594,-10674.947283,-68.807999,-899.872009,-381.615997,-3080.000000,2100.000000,-21280.000000
-31584.356020,-23001.420260,-33890.988993,22822.338083,-36605.496598,-11865.043564,-16108.455194,-29750.708312,-12761.169703,-26883.985327,-8563.199170,-28706.546570,50436.778419,-5711.898889,-12836.338620,-10649.041611,-64.416000,-895.968018,-384.056000,-5460.000000,1680.000000,-20720.000000
-31587.664078,-23014.652492,-33897.895682,22817.532458,-36613.252653,-11872.129067,-16110.220982,-29753.882260,-12768.389317,-26888.589786,-8567.468353,-28715.733137,50432.084552,-5710.401322,-12834.572832,-10653.199035,-63.440002,-896.455994,-388.447998,-7140.000000,980.000000,-20020.000000
-31598.638785,-23036.937182,-33913.944234,22798.131144,-36640.432375,-11895.911324,-16132.125691,-29779.407952,-12782.493267,-26898.044574,-8577.861914,-28734.642712,50413.599660,-5722.337153,-12852.118951,-10678.031823,-61.487999,-890.112000,-384.544006,-8400.000000,280.000000,-19460.000000
-31576.756427,-23019.949856,-33898.275661,22809.731699,-36621.455743,-11880.868600,-16113.216116,-29764.611097,-12766.377660,-26880.431399,-8560.516961,-28716.314282,50428.620032,-5716.995086,-12842.507701,-10669.091126,-65.391998,-887.184021,-388.936005,-9240.000000,-1260.000000,-19040.000000
