-31720.008757,-22434.289448,-34160.685141,22176.529131,-37902.054239,-14436.969392,-18401.453602,-31974.483368,-12379.267797,-28232.019035,-6253.593415,-29507.811905,49333.898644,-5999.677598,-14026.881936,-12106.665922,-66.368004,-956.479980,-300.608002,11620.000000,-3220.000000,280.000000
-175868.912145,122913.427402,-4307.918764,-137843.386870,52677.965483,-14720.322456,43820.416191,21606.447888,-161243.115216,38061.511584,40900.361943,51462.231751,-102562.521704,181585.840176,-139207.469130,78735.360948,-64.903999,-957.455994,-300.119995,11760.000000,-3500.000000,560.000000
-32255.824775,-22155.049104,-33969.175395,22317.725100,-37934.911303,-14428.207508,-19106.181753,-31793.836569,-12910.389949,-28193.574034,-6047.197407,-29503.565073,49305.780149,-5875.938341,-14988.722204,-11985.295950,-96.136002,-937.936035,-330.376007,1820.000000,-1820.000000,-560.000000
-32233.025996,-22135.804252,-33954.110319,22330.286781,-37914.012422,-14405.229915,-19090.647291,-31776.446912,-12888.395833,-28173.613927,-6030.657116,-29487.628280,49326.455513,-5868.271693,-14985.302387,-11969.336804,-96.624001,-935.496033,-332.816010,2240.000000,-1680.000000,-2100.000000
-32247.241705,-22150.109369,-33966.895517,22319.267371,-37927.334062,-14417.858650,-19101.934922,-31790.416752,-12904.153812,-28185.259185,-6046.280986,-29503.654480,49311.993934,-5867.578789,-14990.487992,-11982.367871,-94.672005,-935.496033,-332.328003,2660.000000,-1680.000000,-2940.000000
-32270.353409,-22173.958680,-33988.911985,22303.598798,-37948.545867,-14444.457226,-19118.944600,-31811.963834,-12929.210118,-28206.985081,-6066.576370,-29525.402728,49289.731597,-5871.870324,-14994.868934,-12001.009226,-92.720001,-935.496033,-331.839996,3500.000000,-1680.000000,-3360.000000
-32262.954982,-22168.795427,-33985.179244,22309.142030,-37939.560466,-14440.053933,-19114.049567,-31805.504180,-12922.504595,-28204.593444,-6062.038965,-29518.451335,49292.614972,-5872.742042,-14989.951550,-11997.209429,-89.304001,-935.984009,-330.376007,4620.000000,-1820.000000,-2800.000000
-32241.966694,-22151.606935,-33968.773063,22325.212935,-37915.979375,-14417.568078,-19096.436393,-31782.928918,-12905.181993,-28190.154217,-6044.045811,-29501.665175,49310.474016,-5867.601140,-14980.250893,-11982.479630,-87.351997,-939.400024,-329.888000,5460.000000,-1960.000000,-2100.000000
-32246.213525,-22159.340639,-33974.025723,22322.351911,-37920.337966,-14422.038427,-19099.319768,-31786.348735,-12910.233487,-28195.384526,-6047.309166,-29508.415402,49303.813196,-5866.863533,-14981.435535,-11986.055909,-87.351997,-940.376038,-327.447998,5880.000000,-2100.000000,-840.000000
-32263.759644,-22178.987822,-33992.644726,22307.689167,-37942.622655,-14447.228843,-19118.229344,-31811.494447,-12928.338400,-28213.489439,-6067.336329,-29528.174344,49278.511021,-5872.585579,-14989.705681,-12002.305627,-86.375999,-938.911987,-331.351990,6440.000000,-2240.000000,560.000000
-32255.198926,-22171.008250,-33988.129674,22312.718309,-37935.738317,-14444.412523,-19112.172021,-31810.868598,-12920.381179,-28208.862628,-6063.938864,-29520.507696,49278.846297,-5869.143411,-14984.207151,-11996.516525,-84.912003,-940.376038,-327.936005,6160.000000,-2520.000000,1540.000000
-32233.204810,-22150.265831,-33969.533023,22328.051606,-37909.989108,-14416.785767,-19091.630768,-31787.488674,-12899.661112,-28188.991927,-6042.391782,-29500.368774,49300.013399,-5861.499114,-14977.546332,-11976.981101,-84.912003,-938.911987,-328.424011,6020.000000,-2800.000000,2520.000000
-32231.595484,-22153.618592,-33971.544680,22325.123528,-37911.330213,-14415.556421,-19094.335329,-31789.008592,-12898.275304,-28188.723706,-6040.514236,-29504.481495,49300.371027,-5862.326129,-14982.798992,-11976.869342,-89.304001,-939.400024,-327.936005,5460.000000,-2660.000000,2940.000000
-32252.136737,-22172.349354,-33990.789532,22310.304321,-37933.413736,-14443.339639,-19112.462594,-31813.394345,-12916.559031,-28208.549703,-6060.139067,-29525.738004,49273.884210,-5868.763431,-14985.011814,-11995.309531,-83.936005,-940.864014,-329.399994,5040.000000,-2800.000000,3360.000000
-32258.752854,-22173.824569,-33993.359982,22310.460783,-37935.313634,-14449.978107,-19113.557829,-31817.752936,-12923.957458,-28214.137639,-6063.022442,-29527.481440,49265.614064,-5872.362062,-14980.988500,-11996.538877,-83.936005,-940.864014,-327.936005,4620.000000,-2800.000000,3360.000000
-32238.524525,-22155.026752,-33977.892575,22325.011769,-37914.861788,-14427.022866,-19093.105983,-31795.512950,-12905.316103,-28199.273729,-6046.012765,-29510.985853,49282.310818,-5868.584617,-14974.037108,-11977.428136,-86.863998,-940.376038,-327.936005,4620.000000,-2520.000000,3080.000000
-32228.354481,-22146.823662,-33971.678790,22331.627885,-37908.625651,-14421.926668,-19086.623977,-31788.270985,-12894.095527,-28194.669270,-6043.934052,-29504.235626,49284.814213,-5863.510771,-14967.912730,-11971.102592,-87.351997,-943.304016,-327.936005,4620.000000,-2240.000000,2800.000000
-32247.822851,-22167.208453,-33988.330840,22317.389824,-37932.072631,-14449.553424,-19106.964064,-31810.890950,-12912.356903,-28214.361157,-6063.447125,-29524.262789,49261.478992,-5871.780917,-14974.774715,-11991.532086,-85.888000,-943.304016,-326.472015,5180.000000,-2520.000000,2520.000000
-32258.484633,-22177.758476,-33997.383296,22311.108984,-37941.795640,-14461.601014,-19113.200201,-31821.619787,-12923.018685,-28226.341692,-6071.672567,-29534.075205,49250.303119,-5877.435908,-14976.764021,-12000.472784,-85.400002,-942.328003,-330.376007,6020.000000,-2100.000000,2100.000000
-32239.619760,-22161.151130,-33982.340572,22325.838783,-37919.734468,-14437.818758,-19091.340195,-31800.407982,-12902.365673,-28212.505962,-6057.032175,-29517.356100,49268.899771,-5872.563228,-14969.007965,-11982.971368,-87.840004,-942.816040,-331.351990,6580.000000,-2240.000000,1680.000000
-32227.192191,-22152.009267,-33972.684619,22334.243039,-37907.150436,-14424.430063,-19080.477247,-31789.388572,-12890.228676,-28202.894712,-6046.750372,-29509.376527,49280.321512,-5866.528257,-14963.040049,-11975.461182,-90.279999,-939.400024,-328.424011,7700.000000,-2380.000000,1400.000000
-32240.871458,-22165.196796,-33984.486340,22322.776594,-37925.054184,-14443.250232,-19094.916474,-31807.739354,-12903.326798,-28213.981177,-6057.926244,-29523.905161,49263.669463,-5867.690547,-14967.912730,-11990.593313,-89.792000,-943.304016,-329.888000,8680.000000,-2240.000000,700.000000
-32246.504098,-22171.455285,-33989.694296,22315.400519,-37937.526457,-14455.543692,-19103.320730,-31823.363223,-12907.886554,-28220.060852,-6063.894160,-29529.716614,49251.532465,-5870.775088,-14968.046840,-11997.678816,-88.328003,-941.351990,-322.567993,8960.000000,-2520.000000,0.000000
-32226.543990,-22153.640944,-33975.702104,22328.520993,-37918.214550,-14434.622459,-19082.891236,-31806.554712,-12888.909923,-28206.023956,-6045.051640,-29513.846876,49268.430384,-5867.243513,-14953.562910,-11980.937359,-87.351997,-944.280029,-319.152008,8260.000000,-2380.000000,-1120.000000
-32211.635376,-22140.162842,-33966.984924,22340.143900,-37900.400209,-14417.232802,-19067.557939,-31789.545034,-12876.683518,-28196.993851,-6032.713477,-29503.118039,49282.221411,-5864.248379,-14944.689267,-11971.683737,-89.792000,-941.840027,-318.175995,7000.000000,-2240.000000,-2240.000000
-32227.661577,-22160.234709,-33982.854662,22327.157536,-37918.214550,-14433.907203,-19083.271215,-31806.666470,-12895.213115,-28212.505962,-6047.398573,-29519.993606,49266.999873,-5866.505905,-14950.388962,-11988.604008,-84.912003,-941.351990,-322.567993,5320.000000,-1820.000000,-3080.000000
-32243.687778,-22178.339622,-33998.232662,22316.406347,-37935.850076,-14454.336697,-19097.352814,-31825.084308,-12914.413263,-28227.436927,-6061.368413,-29534.209315,49248.403221,-5870.395109,-14954.099352,-12000.271618,-86.863998,-940.376038,-323.544006,4060.000000,-1680.000000,-3640.000000
-32227.795688,-22165.263851,-33987.593232,22327.604571,-37923.109582,-14440.590375,-19083.382974,-31809.683956,-12900.890458,-28214.875247,-6049.544340,-29520.261827,49259.355576,-5869.903370,-14950.634831,-11983.239589,-83.936005,-937.447998,-328.424011,3220.000000,-1400.000000,-4060.000000
-32208.103801,-22149.416464,-33972.751674,22340.188603,-37905.786980,-14419.937363,-19066.619166,-31789.902662,-12883.500801,-28199.161971,-6034.725134,-29504.168571,49276.186440,-5866.997643,-14945.695096,-11965.559359,-81.008003,-938.911987,-331.351990,2800.000000,-1680.000000,-4200.000000
-32215.211656,-22161.397000,-33983.592270,22330.979685,-37919.935634,-14433.013133,-19080.812523,-31802.263177,-12892.597961,-28207.141543,-6043.554073,-29516.462030,49264.943512,-5870.708033,-14952.333564,-11977.226970,-78.568001,-934.031982,-330.376007,2660.000000,-1820.000000,-4060.000000
-32229.226199,-22178.898415,-33997.807979,22315.400519,-37942.443841,-14457.398886,-19102.270198,-31826.134840,-12907.461871,-28221.223142,-6054.394669,-29534.052853,49245.788067,-5878.888771,-14965.208169,-11998.327017,-76.615997,-940.376038,-332.816010,1960.000000,-1400.000000,-4200.000000
-32224.197057,-22169.510683,-33991.348325,22324.274161,-37932.765535,-14448.838168,-19091.943692,-31814.735450,-12903.036225,-28216.328110,-6045.163398,-29524.933341,49253.432364,-5879.425213,-14957.943852,-11990.973293,-74.664001,-940.376038,-328.424011,1680.000000,-1120.000000,-4480.000000
-32212.596501,-22153.730351,-33978.876052,22340.322714,-37909.363259,-14423.245421,-19068.072029,-31788.047467,-12894.520211,-28203.006471,-6030.523006,-29508.527161,49271.537277,-5873.390242,-14942.968183,-11967.682775,-74.176003,-947.695984,-328.912018,1680.000000,-420.000000,-4760.000000
-32215.278711,-22159.698267,-33984.598098,22335.450034,-37913.900663,-14428.922764,-19072.520026,-31794.395363,-12897.671807,-28202.045346,-6036.535625,-29515.679719,49267.156335,-5873.502001,-14944.309288,-11970.856723,-71.248001,-944.280029,-326.959991,1820.000000,0.000000,-5180.000000
-32231.327263,-22179.613671,-34001.674831,22320.116737,-37936.386518,-14457.890625,-19093.798887,-31819.719889,-12913.407435,-28216.082241,-6055.780477,-29534.812812,49246.436268,-5881.548629,-14953.451151,-11994.303703,-74.664001,-941.351990,-326.472015,2660.000000,0.000000,-4900.000000
-32228.108612,-22178.496084,-34001.630128,22320.988455,-37933.279626,-14459.388192,-19092.614245,-31819.831648,-12912.870993,-28215.970482,-6053.902930,-29532.354120,49245.631605,-5885.326074,-14952.512378,-11995.980083,-76.615997,-942.328003,-330.864014,2800.000000,700.000000,-4340.000000
-32207.835580,-22156.189043,-33984.307526,22338.288705,-37906.122256,-14433.884851,-19071.715363,-31794.462418,-12889.893399,-28200.234854,-6035.283927,-29510.941149,49265.994044,-5877.055928,-14942.610555,-11979.864476,-79.056000,-933.056030,-331.351990,2380.000000,1540.000000,-3220.000000
-32211.434211,-22159.452398,-33986.095665,22336.411159,-37906.368125,-14432.096712,-19072.631785,-31790.930842,-12891.703891,-28205.733383,-6036.625032,-29513.824524,49264.384718,-5875.044271,-14943.862253,-11980.244455,-82.959999,-931.104004,-328.912018,980.000000,2520.000000,-2240.000000
-32235.819964,-22184.128724,-34005.206407,22316.607513,-37932.162038,-14459.410543,-19094.581198,-31815.674223,-12915.933182,-28225.581732,-6054.059393,-29538.053815,49238.859026,-5884.186135,-14955.686326,-11999.064624,-83.447998,-931.104004,-330.376007,-420.000000,3780.000000,-1260.000000
-32238.323359,-22184.575759,-34007.598043,22312.852420,-37935.514800,-14465.311404,-19097.352814,-31820.412793,-12917.162528,-28226.274637,-6054.484076,-29541.272466,49234.992175,-5886.421309,-14956.379230,-12002.707959,-87.351997,-929.640015,-334.279999,-1540.000000,4760.000000,-140.000000
-32214.876379,-22160.748799,-33989.090799,22328.342179,-37913.185407,-14440.366857,-19076.789209,-31795.177674,-12893.246161,-28209.756697,-6035.619204,-29522.228780,49256.762774,-5879.492269,-14944.510453,-11985.608874,-89.304001,-931.591980,-334.279999,-2240.000000,5320.000000,560.000000
-32208.103801,-22153.015095,-33985.201595,22334.600667,-37905.563462,-14434.108369,-19070.798942,-31788.963889,-12888.172315,-28207.096840,-6033.652250,-29516.551437,49262.529524,-5873.144373,-14940.911822,-11982.144354,-90.767998,-932.567993,-334.768005,-2940.000000,5460.000000,700.000000
-32229.695586,-22174.986860,-34004.982889,22320.407310,-37927.982262,-14460.505779,-19089.060317,-31811.248578,-12913.474490,-28228.174535,-6055.780477,-29537.517373,49241.854160,-5877.100632,-14945.963317,-12001.232743,-92.232002,-936.471985,-335.256012,-3360.000000,5040.000000,560.000000
-32237.161069,-22182.966433,-34011.777820,22318.127432,-37935.112469,-14470.765230,-19091.720175,-31821.262159,-12923.443368,-28233.851878,-6063.000090,-29545.564001,49233.606366,-5881.369815,-14942.722314,-12007.379473,-88.328003,-934.031982,-336.231995,-3640.000000,4620.000000,-140.000000
-32212.149467,-22162.693401,-33996.645689,22331.650237,-37915.308823,-14448.212319,-19073.615262,-31803.045488,-12899.012911,-28213.757660,-6044.671660,-29526.140335,49253.477067,-5880.632207,-14937.983744,-11993.141412,-85.888000,-935.984009,-335.744019,-3360.000000,3500.000000,-1400.000000
-32200.124228,-22152.255136,-33989.157854,22338.981609,-37904.244710,-14436.276488,-19064.831026,-31794.015383,-12886.741803,-28204.951072,-6035.686259,-29516.484382,49265.412899,-5878.754661,-14935.256831,-11988.939284,-86.863998,-934.520020,-333.791992,-2380.000000,2940.000000,-2800.000000
-32218.765583,-22168.370744,-34005.184055,22328.520993,-37922.796657,-14457.801218,-19077.906797,-31810.533322,-12905.047882,-28224.195924,-6054.260558,-29533.114080,49247.553855,-5885.303722,-14938.587241,-12006.865383,-82.959999,-934.520020,-338.671997,-1960.000000,2240.000000,-4060.000000
-32227.750984,-22176.193854,-34016.918721,22321.994283,-37937.191181,-14475.392041,-19087.763916,-31823.452630,-12913.429786,-28235.550610,-6064.855285,-29543.597048,49233.159331,-5890.578734,-14941.157692,-12020.544651,-83.936005,-933.056030,-333.791992,-1260.000000,1820.000000,-4900.000000
-32209.735478,-22159.005363,-34005.184055,22337.171118,-37920.449724,-14457.600052,-19073.436448,-31807.337023,-12896.777737,-28222.452488,-6047.443276,-29526.788536,49249.789029,-5887.047158,-14936.352067,-12003.959656,-81.496002,-935.984009,-335.744019,-1120.000000,1260.000000,-5740.000000
-32193.821036,-22145.951944,-33993.628203,22344.815415,-37907.619823,-14437.572889,-19066.529759,-31791.377877,-12879.410431,-28208.505000,-6033.451084,-29513.198675,49265.256436,-5883.940266,-14939.682476,-11991.397976,-80.031998,-935.007996,-338.183990,-700.000000,1400.000000,-6300.000000
-32207.343841,-22158.983011,-34005.854607,22337.461691,-37921.053221,-14452.168578,-19077.415058,-31803.648985,-12892.106222,-28222.519543,-6049.410230,-29525.290969,49249.811381,-5887.829469,-14941.403561,-12002.260924,-85.400002,-934.520020,-333.791992,-140.000000,1540.000000,-6580.000000
-32223.705318,-22173.690459,-34019.824448,22327.448109,-37940.007501,-14475.570855,-19087.383936,-31823.452630,-12905.852545,-28239.350407,-6065.056451,-29539.037292,49231.594709,-5895.384359,-14939.660125,-12016.409578,-87.351997,-934.031982,-334.279999,-280.000000,1820.000000,-6580.000000
-32204.683984,-22159.497101,-34008.469761,22334.555964,-37927.043489,-14461.913939,-19076.453933,-31812.992014,-12883.791373,-28224.598256,-6050.438410,-29523.905161,49246.682137,-5894.713806,-14938.721351,-12007.178307,-82.959999,-932.567993,-333.791992,140.000000,2240.000000,-6300.000000
-32188.166045,-22144.566136,-33993.583500,22347.944659,-37901.361334,-14437.371723,-19056.896157,-31790.997898,-12867.899283,-28209.846104,-6036.692087,-29508.750678,49266.731652,-5888.880001,-14929.959468,-11985.877095,-85.888000,-935.007996,-336.231995,140.000000,2380.000000,-6160.000000
-32202.247644,-22154.959697,-34002.099514,22345.016580,-37905.854035,-14448.234671,-19060.740657,-31799.960947,-12881.802068,-28220.440831,-6046.638614,-29519.948902,49256.606311,-5888.544725,-14926.003209,-11989.386319,-85.888000,-935.007996,-332.816010,700.000000,2520.000000,-5180.000000
-32220.084336,-22171.075305,-34017.030480,22334.310095,-37923.087230,-14468.999442,-19076.677451,-31820.859828,-12898.096490,-28232.801346,-6060.921378,-29533.717577,49239.686041,-5894.445586,-14927.120796,-12003.490270,-88.328003,-934.520020,-333.791992,420.000000,2240.000000,-4340.000000
-32207.790876,-22159.787674,-34007.866264,22341.887336,-37912.023117,-14459.656413,-19070.351907,-31811.829723,-12884.685443,-28220.284369,-6052.450067,-29521.200600,49248.850256,-5890.712844,-14923.902145,-11998.036444,-83.936005,-936.471985,-335.256012,840.000000,2100.000000,-3360.000000
-32187.651955,-22140.945153,-33988.710819,22357.131226,-37891.235994,-14437.639944,-19053.498692,-31789.589738,-12866.848751,-28203.229988,-6037.384991,-29503.989757,49268.989178,-5883.292065,-14922.449282,-11981.674967,-86.375999,-934.031982,-336.720001,560.000000,1820.000000,-2660.000000
-32196.436190,-22150.958735,-33996.958613,22352.303249,-37899.304974,-14445.686572,-19060.539491,-31796.563482,-12879.790411,-28214.987006,-6048.560864,-29515.187981,49261.523695,-5884.901391,-14927.634886,-11985.318301,-85.400002,-936.471985,-334.768005,840.000000,1680.000000,-1820.000000
-32213.021185,-22172.885796,-34017.142238,22335.226516,-37927.311710,-14474.520323,-19082.220683,-31822.625616,-12898.342359,-28231.013206,-6069.146820,-29535.840992,49238.657861,-5890.198754,-14935.413293,-12004.496098,-87.840004,-933.056030,-331.839996,980.000000,1400.000000,-1260.000000
-32201.130057,-22166.806122,-34014.460029,22337.528746,-37928.049317,-14474.185046,-19080.656061,-31819.630482,-12887.635873,-28222.318378,-6063.491829,-29529.984835,49241.183608,-5887.918876,-14936.888508,-12002.775014,-86.863998,-935.984009,-335.256012,1120.000000,1120.000000,-1120.000000
-32176.096103,-22140.788691,-33996.019840,22360.238118,-37899.930823,-14447.966450,-19054.996259,-31793.322479,-12863.697155,-28202.559436,-6043.889349,-29507.454277,49264.451774,-5879.894600,-14922.114005,-11982.166705,-87.840004,-933.056030,-334.279999,980.000000,700.000000,-980.000000
-32173.883280,-22139.648752,-33993.851721,22363.657935,-37896.958041,-14447.497064,-19052.895195,-31791.824912,-12863.428934,-28200.905407,-6042.704707,-29506.806076,49268.162163,-5877.994702,-14922.315171,-11983.843086,-87.351997,-935.984009,-331.839996,980.000000,840.000000,-1120.000000
-32195.922100,-22163.900395,-34014.258863,22346.760016,-37921.924939,-14475.459096,-19072.788247,-31816.165962,-12889.021681,-28221.223142,-6064.654120,-29529.560152,49247.218579,-5885.840164,-14931.434683,-12004.630209,-87.351997,-935.984009,-334.768005,1120.000000,560.000000,-980.000000
-32197.799647,-22168.504854,-34018.326881,22343.742531,-37923.668375,-14481.471715,-19074.889311,-31822.379747,-12892.463850,-28226.386395,-6069.347986,-29532.152955,49244.156390,-5888.745891,-14933.513395,-12008.966447,-88.328003,-936.960022,-330.864014,1400.000000,420.000000,-1540.000000
-32175.045571,-22148.477691,-33999.886692,22360.104008,-37896.466302,-14455.163712,-19053.230471,-31800.050354,-12869.799181,-28208.370889,-6049.410230,-29509.421230,49267.469259,-5882.733271,-14923.455110,-11990.973293,-86.375999,-937.447998,-333.304016,1400.000000,420.000000,-2240.000000
-32169.547042,-22144.253212,-33995.617508,22366.362496,-37886.765645,-14446.670049,-19047.307259,-31791.176711,-12864.278300,-28203.006471,-6043.755239,-29503.140390,49274.532410,-5874.843106,-14916.079034,-11982.770202,-86.863998,-937.936035,-327.447998,1260.000000,840.000000,-2940.000000
-32186.534367,-22161.776979,-34010.950805,22353.644354,-37906.412829,-14467.971261,-19064.518102,-31811.673261,-12880.684481,-28218.786802,-6060.809620,-29518.719556,49256.606311,-5874.083146,-14918.895354,-11999.534011,-90.279999,-938.424011,-327.447998,1260.000000,700.000000,-3640.000000
-32189.484798,-22163.676877,-34015.018823,22351.878566,-37911.397268,-14475.459096,-19065.769799,-31818.490543,-12882.673786,-28221.625474,-6064.676471,-29520.887675,49252.359480,-5875.848934,-14914.357950,-12003.669084,-88.328003,-935.984009,-330.376007,1260.000000,560.000000,-4060.000000
-32164.942582,-22140.833395,-33997.651517,22369.134112,-37886.989163,-14450.983936,-19044.178014,-31795.401191,-12858.042164,-28201.263034,-6042.995279,-29498.893559,49275.895867,-5872.116193,-14900.477517,-11984.267769,-87.351997,-936.471985,-330.376007,1680.000000,420.000000,-4480.000000
-32154.861945,-22131.490365,-33989.873110,22378.387735,-37873.689875,-14436.142377,-19031.303409,-31783.331249,-12850.062591,-28193.998718,-6033.384029,-29490.668117,49289.239858,-5864.717765,-14892.252075,-11972.935435,-85.400002,-935.007996,-330.864014,1400.000000,280.000000,-4620.000000
-32170.307001,-22148.231822,-34005.452276,22367.323621,-37892.442988,-14456.169540,-19046.904927,-31803.425467,-12866.982861,-28207.163895,-6047.957366,-29507.633091,49275.001797,-5865.611835,-14893.816697,-11986.212371,-85.888000,-933.056030,-335.256012,1400.000000,280.000000,-4620.000000
-32181.549928,-22157.910127,-34015.845837,22358.315868,-37907.597471,-14474.140343,-19061.746485,-31820.435145,-12875.700042,-28214.472915,-6056.451029,-29516.976120,49264.585884,-5871.490344,-14898.957598,-11998.103499,-82.959999,-933.056030,-331.839996,1120.000000,0.000000,-4480.000000
-32167.915364,-22143.694418,-34003.239453,22370.363458,-37890.788959,-14457.443590,-19046.904927,-31807.515837,-12864.121838,-28200.033689,-6040.760105,-29500.793457,49279.583905,-5868.964597,-14897.392976,-11986.167668,-82.959999,-932.080017,-330.864014,560.000000,280.000000,-4480.000000
-32155.331332,-22133.032636,-33992.018878,22380.533502,-37873.399302,-14439.808063,-19032.532755,-31793.791866,-12851.895434,-28189.438962,-6029.047791,-29490.824579,49294.134890,-5862.728460,-14894.263732,-11973.874208,-82.959999,-935.984009,-334.279999,280.000000,560.000000,-3780.000000
-32162.685056,-22145.259040,-34002.971232,22369.022354,-37888.687895,-14459.209378,-19049.162453,-31811.092116,-12855.628175,-28199.273729,-6042.660003,-29505.353213,49280.075643,-5863.555475,-14897.750604,-11987.955807,-81.496002,-935.496033,-334.768005,280.000000,420.000000,-3640.000000
-32179.180643,-22162.358125,-34020.003262,22356.550080,-37909.966756,-14481.941102,-19064.786323,-31829.979340,-12872.682556,-28217.043366,-6061.323710,-29522.698167,49261.657806,-5870.775088,-14900.611627,-12002.618552,-82.472000,-933.544006,-333.791992,0.000000,560.000000,-3500.000000
-32166.328390,-22149.103540,-34011.911930,22368.575319,-37898.053276,-14469.044145,-19050.771779,-31818.311729,-12859.584434,-28208.706165,-6052.271253,-29509.935321,49272.587809,-5870.998606,-14893.548476,-11994.527220,-79.543999,-936.960022,-331.351990,-420.000000,700.000000,-3360.000000
-32150.905687,-22129.612819,-33999.059677,22384.445057,-37877.020285,-14449.173444,-19031.437520,-31798.083400,-12842.775922,-28194.803380,-6039.240186,-29492.165684,49288.457547,-5868.226989,-14884.786592,-11979.998586,-79.543999,-939.400024,-335.744019,-840.000000,980.000000,-3360.000000
-32169.748207,-22145.102578,-34011.688413,22377.605424,-37886.519776,-14462.182160,-19037.494843,-31809.393383,-12867.362841,-28211.008395,-6053.612358,-29504.548550,49274.688873,-5868.584617,-14884.831296,-11988.581656,-78.080002,-938.424011,-334.279999,-1120.000000,1260.000000,-3500.000000
-32188.210748,-22167.409619,-34028.161648,22361.869796,-37907.128085,-14485.629140,-19053.722209,-31831.231038,-12887.769984,-28229.962674,-6071.471402,-29522.854629,49253.812343,-5872.876152,-14889.838086,-12003.646732,-78.568001,-939.888000,-336.720001,-840.000000,1400.000000,-3640.000000
-32171.782216,-22155.429084,-34018.081012,22368.709429,-37898.008573,-14477.180180,-19047.240203,-31824.234942,-12868.078097,-28215.814020,-6058.127410,-29512.841047,49263.222428,-5870.819792,-14887.044118,-11997.879982,-80.031998,-939.888000,-339.160004,-700.000000,1820.000000,-3780.000000
-32143.686073,-22130.015150,-33997.807979,22386.412011,-37874.829814,-14452.056819,-19027.123633,-31801.771438,-12839.512567,-28192.948186,-6036.937956,-29490.936338,49286.021207,-5861.275597,-14881.657348,-11980.311511,-78.568001,-940.376038,-331.839996,-140.000000,1820.000000,-3780.000000
-32149.229306,-22133.882002,-34001.674831,22385.607348,-37879.590735,-14458.650584,-19027.503613,-31808.365203,-12845.569890,-28199.877226,-6044.314032,-29495.183169,49279.986236,-5861.320300,-14879.869208,-11983.239589,-76.615997,-935.496033,-330.376007,-700.000000,2100.000000,-3780.000000
-32173.503300,-22155.831415,-34021.120849,22368.977650,-37905.474055,-14486.210285,-19047.463721,-31833.935599,-12868.323966,-28220.463183,-6064.631768,-29516.506733,49257.232160,-5869.121059,-14889.368700,-12003.937304,-74.664001,-938.911987,-333.304016,-700.000000,2100.000000,-4060.000000
-32171.961030,-22150.534052,-34017.097535,22371.391639,-37901.093114,-14485.360919,-19044.937974,-31832.773308,-12864.613576,-28217.825677,-6064.698823,-29513.176324,49258.394451,-5866.640015,-14888.117002,-12003.736139,-77.104004,-938.911987,-332.328003,-560.000000,2240.000000,-4480.000000
-32153.029102,-22131.669179,-33999.126732,22387.976633,-37876.081512,-14460.617538,-19025.402549,-31812.544979,-12846.575719,-28201.553607,-6050.058430,-29495.630204,49277.728710,-5861.566169,-14878.952787,-11986.435889,-74.664001,-938.911987,-330.864014,-840.000000,2380.000000,-4480.000000
-32155.912477,-22132.898525,-34001.183093,22388.825999,-37875.567421,-14461.288090,-19026.408377,-31812.343813,-12849.481445,-28204.369927,-6052.338308,-29498.424172,49276.521716,-5861.208542,-14881.769107,-11986.167668,-78.080002,-936.471985,-335.744019,-700.000000,2660.000000,-4620.000000
-32181.415818,-22158.401866,-34022.573712,22371.168121,-37903.797675,-14488.758384,-19049.631840,-31835.723738,-12874.671861,-28226.989892,-6073.728928,-29522.005263,49249.520808,-5866.930588,-14893.235552,-12008.385302,-74.664001,-935.007996,-335.256012,-420.000000,2660.000000,-4620.000000
-32183.494530,-22165.330907,-34028.899256,22364.127322,-37914.682974,-14494.458079,-19054.951555,-31838.070671,-12874.627158,-28231.929628,-6078.176925,-29530.431870,49242.547064,-5870.596274,-14894.956636,-12015.739026,-75.639999,-937.936035,-335.256012,-280.000000,2520.000000,-4480.000000
-32165.099044,-22147.248345,-34015.287043,22377.873645,-37893.091189,-14470.161732,-19035.885517,-31814.958968,-12854.622347,-28219.055023,-6061.994262,-29514.673890,49262.149544,-5866.997643,-14885.859476,-11997.678816,-73.688004,-935.984009,-333.304016,140.000000,2520.000000,-4340.000000
-32158.617039,-22141.615706,-34009.989680,22382.433400,-37883.859919,-14460.662241,-19029.783491,-31811.047412,-12851.560158,-28213.936474,-6055.579311,-29510.583521,49270.643207,-5864.829524,-14882.841990,-11990.615665,-71.248001,-936.471985,-335.744019,0.000000,2940.000000,-4060.000000
-32180.521748,-22161.776979,-34025.926474,22369.447037,-37900.221396,-14480.890570,-19042.456930,-31833.086232,-12878.136382,-28233.337788,-6073.795983,-29531.616513,49250.526637,-5870.395109,-14886.619435,-12001.746834,-71.248001,-936.471985,-331.351990,-140.000000,3080.000000,-3780.000000
-32184.030972,-22167.342564,-34030.307416,22363.590880,-37908.290375,-14492.558180,-19046.726113,-31842.652779,-12878.359899,-28235.394148,-6077.975759,-29538.366740,49243.843465,-5872.674986,-14887.491153,-12005.121947,-69.295998,-938.911987,-335.744019,-280.000000,3640.000000,-3500.000000
-32159.153480,-22145.303744,-34010.660232,22376.487836,-37885.670410,-14470.340546,-19027.861241,-31821.329215,-12848.319155,-28212.863590,-6059.982605,-29516.909065,49267.648073,-5866.349443,-14879.131601,-11988.022862,-74.664001,-937.447998,-333.304016,-560.000000,3780.000000,-2940.000000
-32153.565544,-22135.357217,-34003.865302,22384.825037,-37872.527584,-14459.321136,-19017.892363,-31809.751011,-12841.345411,-28206.023956,-6057.523913,-29509.354175,49281.103823,-5863.533123,-14872.739002,-11983.284293,-72.711998,-940.376038,-329.399994,0.000000,3920.000000,-2660.000000
-32174.598536,-22154.825587,-34019.444468,22370.810493,-37891.772436,-14483.125744,-19036.623125,-31830.001692,-12864.457114,-28221.625474,-6075.427660,-29527.034405,49266.508134,-5868.048175,-14884.071336,-12004.384339,-73.200005,-940.864014,-331.839996,140.000000,4060.000000,-2520.000000
-32184.187434,-22168.616613,-34028.698090,22359.545214,-37906.368125,-14499.062538,-19049.028343,-31849.246544,-12873.084888,-28228.330997,-6082.893143,-29536.891524,49256.226332,-5873.502001,-14890.486287,-12015.627267,-72.711998,-943.304016,-329.399994,560.000000,4060.000000,-2100.000000
-32167.736550,-22151.606935,-34014.951767,22374.543235,-37886.832701,-14479.594169,-19030.878726,-31834.695558,-12854.644698,-28214.361157,-6069.035061,-29519.926550,49273.817155,-5867.645844,-14874.303624,-12000.517488,-72.711998,-943.304016,-331.839996,1120.000000,4060.000000,-1540.000000
-32151.464480,-22133.233802,-34000.557244,22389.921235,-37867.677256,-14459.544654,-19012.974979,-31818.289377,-12837.880890,-28202.715898,-6058.261521,-29504.883826,49295.274829,-5858.034594,-14862.121923,-11986.167668,-76.127998,-940.864014,-330.864014,1260.000000,3640.000000,-1400.000000
-32165.814300,-22148.276526,-34012.671889,22380.645261,-37882.876442,-14475.190875,-19024.374369,-31834.270875,-12853.415353,-28218.138602,-6073.684224,-29520.351234,49284.344826,-5856.268806,-14864.267691,-11995.443642,-74.664001,-940.376038,-328.912018,1820.000000,3640.000000,-980.000000
-32178.666553,-22166.582604,-34028.698090,22366.116627,-37905.027021,-14496.805012,-19042.099302,-31857.181413,-12865.597053,-28231.594352,-6084.658931,-29536.265676,49268.273922,-5861.409707,-14872.224912,-12012.028636,-77.104004,-942.328003,-330.376007,1680.000000,3500.000000,-840.000000
-32163.824995,-22151.092845,-34019.019785,22378.946528,-37887.123273,-14478.923616,-19027.973000,-31843.859773,-12850.800198,-28216.886904,-6072.186657,-29521.334710,49280.187402,-5859.308643,-14864.245339,-11999.288142,-74.664001,-936.471985,-334.279999,1820.000000,3500.000000,-1120.000000
-32148.715216,-22133.814947,-34003.440619,22393.877494,-37863.497479,-14455.722506,-19009.130479,-31820.323386,-12834.975163,-28199.944282,-6059.602625,-29505.733193,49298.940515,-5852.200789,-14858.925624,-11979.238627,-77.104004,-939.400024,-330.864014,1820.000000,3080.000000,-1120.000000
-32162.841518,-22149.617630,-34013.320090,22383.550988,-37874.874517,-14466.585453,-19018.361749,-31827.811221,-12848.520320,-28209.846104,-6070.867905,-29519.747736,49290.491556,-5853.631300,-14863.485380,-11988.447546,-78.080002,-937.936035,-333.304016,2100.000000,2800.000000,-1260.000000
-32181.974612,-22171.030601,-34032.900218,22365.848406,-37897.360372,-14489.965378,-19037.852471,-31847.793680,-12864.054783,-28226.542857,-6088.592838,-29540.534859,49270.442041,-5862.303777,-14869.989737,-12009.346427,-77.592003,-935.984009,-333.791992,2240.000000,2380.000000,-1260.000000
-32170.754036,-22161.844034,-34024.317148,22368.798836,-37890.565442,-14482.723413,-19031.728093,-31842.116337,-12852.297765,-28216.998663,-6082.759033,-29529.493097,49277.505192,-5863.331957,-14872.426077,-12004.272581,-77.104004,-935.496033,-332.328003,1820.000000,1960.000000,-1260.000000
-32147.418815,-22139.022903,-34004.714668,22383.349822,-37868.996009,-14456.080133,-19013.980808,-31821.016290,-12831.555346,-28198.111439,-6061.904855,-29507.253111,49299.789882,-5855.173571,-14868.246301,-11988.045214,-77.104004,-934.031982,-334.768005,1540.000000,1960.000000,-1540.000000
-32154.571373,-22147.091883,-34010.459067,22379.840598,-37875.522718,-14460.058744,-19016.886534,-31828.258256,-12840.227823,-28206.068660,-6066.621073,-29514.293911,49293.352579,-5855.955882,-14868.358060,-11996.203601,-74.664001,-936.960022,-331.839996,1400.000000,2100.000000,-1820.000000
-32175.649068,-22169.980069,-34029.033366,22365.691944,-37898.053276,-14486.143230,-19035.460834,-31853.783948,-12861.841960,-28225.000587,-6080.769727,-29535.148088,49272.274884,-5864.069565,-14873.566016,-12019.248249,-77.592003,-936.960022,-334.768005,1540.000000,2100.000000,-1540.000000
-32169.100007,-22164.593299,-34025.702956,22370.050534,-37894.298183,-14487.193762,-19034.209136,-31857.337875,-12853.907091,-28222.072509,-6074.041852,-29530.230705,49273.504230,-5867.869361,-14871.040269,-12019.248249,-78.080002,-935.007996,-332.328003,1400.000000,1820.000000,-1540.000000
-32143.171983,-22138.106482,-34003.462971,22390.010642,-37867.230221,-14462.405677,-19009.756328,-31836.148421,-12829.141358,-28203.587616,-6054.215855,-29503.833294,49295.565402,-5861.342652,-14860.020859,-11994.169592,-76.127998,-936.960022,-336.231995,1540.000000,1820.000000,-1260.000000
-32130.431489,-22132.876174,-33998.210311,22395.643281,-37862.469299,-14461.489256,-18999.563932,-31833.801488,-12816.087939,-28196.345651,-6050.416058,-29497.038364,49299.991047,-5857.766373,-14849.292022,-11988.134621,-76.127998,-935.496033,-334.768005,1960.000000,1960.000000,-980.000000
-32131.102041,-22132.831470,-34005.206407,22397.118497,-37870.828852,-14484.600959,-19001.352072,-31852.711064,-12812.846936,-28202.559436,-6063.424774,-29501.039326,49283.115480,-5856.715841,-14834.137539,-11999.846935,-78.080002,-938.911987,-330.864014,1960.000000,1820.000000,-420.000000
-32124.351814,-22123.756662,-34001.518369,22406.305064,-37860.435290,-14486.523209,-18992.411374,-31851.995808,-12804.174459,-28199.810171,-6064.676471,-29492.366849,49280.276809,-5855.464143,-14824.302772,-11997.768223,-76.615997,-938.424011,-331.351990,1820.000000,1820.000000,0.000000
-32101.307166,-22099.214446,-33980.954764,22426.756910,-37833.523790,-14460.058744,-18969.545540,-31824.547866,-12780.280445,-28182.174645,-6049.633747,-29467.310544,49302.829719,-5848.132771,-14811.763443,-11975.461182,-76.127998,-942.328003,-331.351990,1400.000000,1400.000000,700.000000
-32099.854302,-22098.476839,-33976.082084,22428.030959,-37831.243912,-14450.268680,-18967.846807,-31816.076555,-12781.196866,-28182.487569,-6050.259596,-29465.544756,49310.652829,-5843.707126,-14813.931562,-11972.175476,-74.176003,-946.231995,-331.351990,1260.000000,1120.000000,840.000000
-32129.403309,-22131.289200,-33999.685526,22404.583979,-37863.452776,-14476.755497,-18992.701947,-31838.741224,-12811.148204,-28207.521523,-6075.114736,-29495.339631,49289.217507,-5852.603120,-14829.242507,-11993.722557,-74.176003,-943.791992,-334.279999,1400.000000,980.000000,1120.000000
-32148.044663,-22148.500043,-34015.957596,22390.725898,-37881.624744,-14492.111146,-19006.872953,-31850.922924,-12827.532032,-28221.580770,-6089.151631,-29511.544646,49276.253495,-5861.476762,-14840.932469,-12007.625342,-80.031998,-944.280029,-337.696014,2240.000000,280.000000,1400.000000
-32141.629713,-22140.788691,-34008.335651,22395.062136,-37869.644209,-14469.759401,-18998.289883,-31835.857849,-12820.223012,-28214.763488,-6077.126393,-29504.325033,49291.653847,-5860.225065,-14845.760446,-11998.259961,-76.127998,-939.400024,-333.304016,3220.000000,-140.000000,1680.000000
-32140.623884,-22139.089959,-34004.938186,22395.687985,-37863.385721,-14457.868273,-18993.417203,-31828.682939,-12821.921745,-28212.796535,-6071.784326,-29504.325033,49296.303010,-5856.849951,-14845.581632,-11990.190982,-78.568001,-939.400024,-338.183990,3780.000000,-840.000000,1960.000000
-32159.131129,-22157.418389,-34020.003262,22379.281804,-37884.999858,-14483.684538,-19014.070215,-31857.539041,-12841.993611,-28225.648788,-6087.587009,-29523.525181,49275.515887,-5861.722632,-14855.684621,-12009.502889,-78.568001,-938.424011,-334.279999,4060.000000,-560.000000,1820.000000
-32168.228289,-22163.386305,-34028.318111,22371.257528,-37894.611108,-14502.102375,-19022.720340,-31875.688657,-12849.302632,-28230.186192,-6097.913515,-29530.856553,49260.853143,-5865.745946,-14856.489284,-12022.109273,-77.592003,-936.471985,-331.839996,4900.000000,-560.000000,1680.000000
-32150.391597,-22144.700246,-34014.035346,22386.434363,-37871.879384,-14480.331776,-19002.089679,-31856.935544,-12831.398884,-28215.545799,-6083.541344,-29512.416364,49276.499364,-5862.437887,-14845.492225,-12003.356159,-80.031998,-939.400024,-334.279999,5180.000000,-560.000000,1680.000000
-32136.757032,-22130.484537,-34004.066468,22400.113630,-37854.109747,-14463.567968,-18985.214112,-31840.976398,-12819.284239,-28207.052136,-6073.907742,-29499.809980,49289.999818,-5860.493286,-14838.518481,-11986.882923,-77.592003,-936.471985,-335.744019,5320.000000,-840.000000,1960.000000
-32151.375073,-22148.075360,-34018.818619,22387.864874,-37870.359465,-14481.427012,-18998.379290,-31857.337875,-12836.897413,-28223.234799,-6087.966989,-29517.311396,49274.107727,-5865.075393,-14844.687563,-12000.137508,-75.152000,-936.471985,-334.279999,5320.000000,-980.000000,2380.000000
-32164.406140,-22165.286203,-34034.889523,22372.777447,-37890.543090,-14503.354073,-19015.612485,-31877.163872,-12850.241405,-28236.847012,-6100.662780,-29532.532934,49257.053346,-5871.847972,-14852.287156,-12015.783729,-74.176003,-933.056030,-336.231995,5040.000000,-1120.000000,2800.000000
-32152.023274,-22154.982049,-34025.010052,22379.438267,-37879.926012,-14490.680634,-19004.056633,-31868.379637,-12838.417332,-28224.352387,-6087.542306,-29519.166591,49266.821059,-5871.669158,-14852.264804,-12002.886772,-75.639999,-932.567993,-339.160004,4340.000000,-840.000000,2940.000000
-32134.365396,-22137.078302,-34010.190846,22392.782258,-37860.234125,-14469.222959,-18984.007118,-31851.101738,-12822.458186,-28211.187209,-6073.572466,-29503.833294,49281.014416,-5868.472858,-14846.341592,-11986.927627,-76.127998,-933.056030,-339.648010,4060.000000,-280.000000,2940.000000
-32142.121451,-22145.504909,-34017.701032,22387.306081,-37869.823023,-14481.382308,-18992.076098,-31860.310657,-12831.823567,-28222.094860,-6084.837745,-29515.120925,49266.977521,-5869.411632,-14847.950917,-12000.115156,-78.080002,-934.520020,-332.328003,4060.000000,140.000000,3360.000000
-32162.908573,-22166.917880,-34036.230628,22376.241967,-37890.788959,-14506.528021,-19009.823383,-31883.489416,-12854.756457,-28241.563230,-6105.848385,-29537.427966,49240.289538,-5876.854763,-14846.833330,-12021.863404,-75.152000,-939.888000,-336.720001,3920.000000,420.000000,3360.000000
-32155.353684,-22160.502930,-34030.933265,22382.835732,-37883.099959,-14499.956608,-19002.559066,-31880.673096,-12847.313326,-28234.097747,-6102.182699,-29530.811850,49243.038803,-5877.167687,-14839.613717,-12016.856613,-78.080002,-942.816040,-335.256012,3640.000000,420.000000,3220.000000
-32134.924189,-22144.029694,-34013.923587,22397.029090,-37861.239953,-14474.565026,-18983.873008,-31859.215422,-12826.995591,-28217.736270,-6087.542306,-29510.047079,49261.657806,-5869.992777,-14833.556394,-11999.869287,-79.543999,-938.911987,-332.816010,3360.000000,420.000000,2940.000000
-32139.171021,-22151.584584,-34017.321052,22393.318700,-37866.962000,-14479.370651,-18988.633929,-31863.574012,-12833.052913,-28223.726538,-6095.387768,-29515.053870,49256.494553,-5867.802306,-14836.283307,-12005.770148,-79.543999,-935.007996,-332.816010,2520.000000,420.000000,2380.000000
-32159.958143,-22170.650622,-34032.341425,22381.695793,-37886.296259,-14503.287018,-19003.095508,-31887.758599,-12854.354126,-28239.395111,-6111.995114,-29532.264713,49236.109762,-5871.155068,-14837.691467,-12024.143281,-81.008003,-935.496033,-325.984009,1680.000000,560.000000,1540.000000
-32155.353684,-22172.125837,-34030.732099,22379.080639,-37888.039695,-14505.008102,-19000.122726,-31888.943242,-12847.849768,-28237.048177,-6108.128263,-29532.063548,49237.070887,-5877.301798,-14840.083103,-12026.378456,-78.568001,-934.520020,-327.936005,700.000000,280.000000,840.000000
-32131.280855,-22150.824624,-34013.454200,22393.721031,-37864.726825,-14480.063555,-18977.279243,-31867.910250,-12824.022809,-28219.233837,-6090.000998,-29512.617530,49256.092221,-5874.016091,-14835.322182,-12007.491232,-79.056000,-940.864014,-329.888000,-140.000000,280.000000,-140.000000
-32131.772593,-22150.735217,-34014.817657,22394.816267,-37863.028093,-14477.873084,-18976.049897,-31871.039494,-12826.772073,-28222.631302,-6093.443166,-29514.673890,49252.605349,-5871.199771,-14835.165719,-12005.591334,-75.639999,-942.328003,-331.351990,-1120.000000,-140.000000,-560.000000
-32152.626771,-22170.561215,-34034.040157,22381.494627,-37886.385666,-14504.672826,-18995.652377,-31899.269748,-12850.956661,-28243.798404,-6117.694809,-29535.081033,49228.912500,-5875.983045,-14837.535004,-12025.327924,-77.592003,-938.911987,-327.447998,-1260.000000,-280.000000,-560.000000
-32152.626771,-22169.890662,-34035.023634,22381.047592,-37890.274869,-14509.053768,-18996.904075,-31904.611815,-12853.460056,-28244.200736,-6119.460597,-29534.097556,49225.649145,-5875.647768,-14834.271650,-12028.390113,-77.104004,-939.888000,-329.888000,-1260.000000,-840.000000,-840.000000
-32134.074823,-22149.662334,-34018.282177,22397.543180,-37866.425558,-14485.517381,-18976.876912,-31884.294079,-12836.942117,-28228.532163,-6106.183661,-29514.383318,49246.324509,-5868.204638,-14829.421321,-12008.631171,-76.127998,-939.888000,-336.720001,-980.000000,-1400.000000,-700.000000
-32131.750242,-22151.226956,-34015.197637,22399.510133,-37862.446947,-14478.811858,-18972.339508,-31880.114303,-12837.076227,-28227.660445,-6103.568507,-29514.495076,49254.237026,-5864.136620,-14833.131711,-12004.540802,-73.688004,-940.864014,-333.791992,140.000000,-1820.000000,-140.000000
-32148.491698,-22170.717677,-34030.240361,22386.568473,-37881.490634,-14504.695178,-18990.645586,-31901.996660,-12853.907091,-28242.926686,-6115.996077,-29533.181135,49234.746305,-5868.383452,-14836.775045,-12023.070398,-73.688004,-939.400024,-338.183990,840.000000,-1960.000000,140.000000
-32151.687998,-22173.288128,-34035.045986,22384.914444,-37886.184500,-14514.664056,-18995.674729,-31911.920835,-12856.790466,-28245.251268,-6121.986344,-29535.148088,49227.325526,-5869.858667,-14829.756597,-12024.769130,-76.127998,-940.864014,-334.768005,1680.000000,-1680.000000,280.000000
-32129.157439,-22154.199738,-34019.064488,22401.588845,-37863.251610,-14490.323006,-18977.435705,-31892.497169,-12832.516471,-28223.391262,-6105.155481,-29513.221027,49247.978538,-5861.230893,-14816.613772,-12004.294932,-74.664001,-936.471985,-332.816010,2240.000000,-1120.000000,840.000000
-32116.349890,-22144.633191,-34009.497942,22410.171915,-37850.466412,-14475.257930,-18968.517359,-31879.756675,-12817.764320,-28213.444735,-6095.365416,-29502.313376,49256.740422,-5857.207579,-14809.617675,-11991.219162,-75.152000,-936.471985,-338.183990,2520.000000,-560.000000,1120.000000
-32134.231285,-22161.397000,-34024.875942,22398.861933,-37869.308933,-14496.357977,-18983.247159,-31900.879073,-12835.735123,-28231.437890,-6112.576260,-29518.294873,49236.445038,-5860.493286,-14808.902420,-12004.160822,-80.031998,-931.591980,-333.304016,2240.000000,140.000000,1680.000000
-32142.836707,-22172.304651,-34034.241323,22390.100049,-37885.402189,-14510.506631,-18996.077060,-31914.781858,-12842.395942,-28241.518526,-6121.427550,-29529.135469,49223.637488,-5861.320300,-14811.808146,-12015.515508,-81.984001,-931.591980,-334.279999,1960.000000,1260.000000,2380.000000
-32122.094288,-22151.159901,-34018.908026,22403.399337,-37864.995046,-14488.244294,-18980.117915,-31894.397067,-12820.223012,-28225.894657,-6105.177832,-29511.097611,49241.541236,-5855.397088,-14803.962684,-12004.183174,-84.912003,-929.152039,-334.279999,1260.000000,2100.000000,3220.000000
-32107.096268,-22135.200755,-34006.323994,22415.692796,-37846.063119,-14469.692346,-18967.824455,-31879.756675,-12807.482518,-28214.987006,-6096.170079,-29496.725440,49257.053346,-5851.373774,-14802.599228,-11992.850839,-81.496002,-928.176025,-339.160004,280.000000,2660.000000,3780.000000
-32129.760936,-22156.792540,-34021.746698,22405.232180,-37861.530526,-14489.272474,-18981.414316,-31898.286271,-12837.858538,-28232.734291,-6116.040780,-29514.673890,49241.451829,-5854.860646,-14807.740129,-12000.249267,-83.936005,-929.152039,-340.136017,-700.000000,3220.000000,4060.000000
-32148.670512,-22180.686555,-34041.080957,22391.597616,-37882.898794,-14515.178146,-18997.060537,-31920.392146,-12859.137399,-28250.861555,-6135.039763,-29537.942056,49220.508244,-5865.120097,-14811.361112,-12013.347389,-87.840004,-925.736023,-336.720001,-1540.000000,3500.000000,4060.000000
-32127.101079,-22164.682706,-34029.547456,22399.934816,-37871.253535,-14501.945913,-18989.326833,-31911.116172,-12833.276431,-28235.841183,-6124.534443,-29525.805059,49232.868759,-5864.382489,-14813.551583,-12007.290066,-88.816002,-933.056030,-337.696014,-1820.000000,3360.000000,3640.000000
-32109.711422,-22148.276526,-34014.907064,22413.524677,-37849.639398,-14476.755497,-18968.673822,-31889.814960,-12815.998532,-28220.999625,-6112.352742,-29510.583521,49251.465410,-5854.860646,-14806.108452,-11991.129755,-85.888000,-935.496033,-337.696014,-1260.000000,2940.000000,2800.000000
-32122.183695,-22159.117122,-34023.087802,22408.093203,-37858.960075,-14487.618445,-18975.468752,-31902.890730,-12830.013076,-28230.186192,-6123.908594,-29520.664158,49241.429477,-5851.619643,-14805.057920,-11997.991740,-87.840004,-937.447998,-337.696014,-560.000000,2380.000000,1540.000000
-32136.712329,-22171.902319,-34034.218971,22397.677290,-37878.316686,-14511.445404,-18991.182028,-31923.700204,-12841.635983,-28243.194907,-6138.660745,-29533.605818,49225.984421,-5854.301853,-14807.941295,-12012.207450,-83.936005,-938.424011,-338.183990,420.000000,1680.000000,280.000000
-32122.563675,-22154.870290,-34023.333671,22407.199133,-37864.011570,-14503.331721,-18981.011984,-31917.039384,-12823.307553,-28232.577828,-6128.781274,-29520.820620,49236.288576,-5854.100687,-14801.973379,-12005.501927,-78.080002,-939.400024,-340.623993,1540.000000,700.000000,-1260.000000
-32099.787247,-22130.708054,-34003.954709,22423.784128,-37836.854200,-14476.241407,-18960.470731,-31897.727477,-12801.291084,-28213.265921,-6108.262373,-29497.932434,49259.534390,-5846.791666,-14794.351434,-11987.888752,-75.639999,-939.400024,-339.160004,2660.000000,-420.000000,-2380.000000
-32107.744468,-22137.815909,-34012.560131,22422.085395,-37841.592770,-14481.672881,-18963.376458,-31904.656518,-12813.271619,-28221.960750,-6118.097141,-29504.950882,49252.605349,-5847.261053,-14792.540943,-11989.498078,-73.200005,-940.864014,-340.623993,3080.000000,-1260.000000,-3220.000000
-32131.705538,-22164.079209,-34035.716538,22405.589808,-37869.241878,-14512.518288,-18984.297691,-31933.199696,-12839.110236,-28244.312494,-6140.225368,-29530.141298,49228.286651,-5857.319338,-14798.687672,-12008.117081,-69.295998,-937.936035,-346.968018,3640.000000,-1400.000000,-3780.000000
-32123.189524,-22161.620517,-34031.603817,22406.685043,-37868.951305,-14511.020721,-18986.443458,-31933.937303,-12828.806082,-28237.003474,-6134.592728,-29525.738004,49234.031049,-5858.816905,-14801.682806,-12007.558287,-71.736000,-933.544006,-343.063995,3780.000000,-2100.000000,-3780.000000
-32101.798904,-22141.012209,-34012.716593,22425.125232,-37843.492668,-14486.456154,-18964.426990,-31910.870303,-12807.706035,-28218.607988,-6114.967896,-29506.023765,49255.555779,-5849.384469,-14790.953969,-11989.699243,-68.807999,-932.567993,-339.160004,3780.000000,-2100.000000,-3220.000000
-32106.425715,-22142.956810,-34017.052831,22428.857974,-37840.966921,-14488.132535,-18959.129627,-31910.892655,-12811.192907,-28222.586599,-6115.236117,-29511.254074,49252.270073,-5847.573977,-14783.041451,-11988.604008,-67.344002,-935.007996,-344.528015,4340.000000,-2100.000000,-1960.000000
-32125.961140,-22161.218186,-34034.241323,22417.771508,-37861.843450,-14516.385140,-18977.122781,-31937.915914,-12829.633096,-28241.384416,-6132.514016,-29530.498926,49229.672459,-5854.301853,-14785.924826,-12008.631171,-69.295998,-933.056030,-341.112000,5180.000000,-2240.000000,-840.000000
-32126.207009,-22162.112255,-34035.649483,22418.196192,-37864.123328,-14523.157719,-18980.609653,-31947.303646,-12827.822605,-28245.050102,-6134.928004,-29530.364815,49226.140884,-5858.079297,-14785.611902,-12013.146223,-70.272003,-935.496033,-339.160004,5600.000000,-2100.000000,700.000000
-32097.485017,-22137.547688,-34015.309395,22437.105767,-37837.010662,-14497.408509,-18956.939156,-31927.768222,-12798.608875,-28222.251323,-6114.409103,-29505.554379,49249.789029,-5850.636166,-14776.112411,-11993.387281,-68.320000,-931.104004,-340.623993,6020.000000,-1400.000000,2240.000000
-32091.204177,-22132.786767,-34011.084916,22445.018285,-37827.421764,-14488.579570,-18948.266679,-31920.705071,-12793.512677,-28216.752793,-6111.391617,-29501.620472,49257.634492,-5842.991870,-14770.524474,-11990.056871,-70.760002,-932.567993,-341.112000,5880.000000,-1120.000000,3640.000000
-32115.299358,-22153.797406,-34029.458049,22433.305971,-37845.504325,-14512.071253,-18966.438647,-31942.006283,-12818.278410,-28231.482593,-6131.977574,-29521.200600,49238.143770,-5846.746963,-14772.357317,-12013.302685,-69.295998,-932.567993,-337.696014,5040.000000,-560.000000,5180.000000
-32123.033061,-22161.486407,-34037.102346,22427.494517,-37853.550953,-14523.113015,-18973.658261,-31952.109272,-12824.402788,-28230.499116,-6138.101952,-29528.107289,49229.806570,-5853.899521,-14775.419506,-12024.657372,-75.639999,-934.520020,-341.112000,3920.000000,-140.000000,6860.000000
-32103.475285,-22141.638057,-34022.484305,22441.553765,-37833.613197,-14502.974093,-18955.083961,-31934.004359,-12803.883887,-28211.254264,-6119.192376,-29510.851742,49250.370175,-5849.362117,-14771.396192,-12006.552459,-76.127998,-931.104004,-338.671997,2800.000000,140.000000,7700.000000
-32097.037983,-22133.390264,-34017.030480,22449.332172,-37821.632662,-14493.966340,-18943.081074,-31925.130716,-12798.251247,-28203.721726,-6114.230289,-29503.833294,49262.104841,-5842.231910,-14770.300957,-11997.388243,-78.568001,-934.031982,-336.231995,2240.000000,560.000000,8400.000000
-32114.248826,-22152.009267,-34034.375433,22436.412863,-37843.962055,-14519.000294,-18959.017868,-31948.801213,-12814.970352,-28216.194000,-6134.413914,-29523.614588,49243.329375,-5845.383506,-14779.532227,-12016.454281,-80.520004,-935.007996,-336.720001,1680.000000,700.000000,8820.000000
-32126.519934,-22164.213319,-34046.490079,22427.986256,-37858.825965,-14537.351076,-18969.590243,-31968.738969,-12825.095692,-28226.878134,-6148.942548,-29535.438661,49228.130189,-5852.156085,-14784.427259,-12029.597107,-83.447998,-938.911987,-337.696014,1260.000000,560.000000,8820.000000
-32109.443201,-22145.013171,-34031.402651,22443.341904,-37837.010662,-14517.994466,-18950.747722,-31953.517431,-12807.415462,-28214.115288,-6138.347821,-29516.596140,49242.994099,-5848.803323,-14771.463248,-12013.794424,-84.424004,-937.936035,-336.231995,1120.000000,980.000000,7840.000000
-32095.048677,-22130.149261,-34019.399764,22456.127102,-37820.850351,-14499.978960,-18936.777882,-31934.898428,-12792.730366,-28204.548741,-6128.825978,-29503.386259,49257.053346,-5842.544835,-14763.036640,-12000.808060,-87.351997,-935.984009,-337.208008,1400.000000,1120.000000,6720.000000
-32106.090439,-22143.917935,-34032.252018,22444.370084,-37837.211828,-14518.821480,-18951.865310,-31949.516469,-12803.638018,-28217.780974,-6141.320603,-29516.752603,49241.496532,-5845.472913,-14766.724678,-12014.308514,-88.328003,-935.496033,-334.768005,1680.000000,1260.000000,5320.000000
-32119.814410,-22159.452398,-34044.120794,22430.512003,-37856.031997,-14538.736884,-18967.019792,-31967.219051,-12817.563154,-28229.917971,-6153.703469,-29529.470745,49224.688020,-5849.272710,-14767.104658,-12025.618497,-86.375999,-938.424011,-338.183990,1960.000000,1120.000000,3360.000000
-32104.302300,-22144.812005,-34030.620340,22440.212660,-37841.302197,-14523.247126,-18951.887661,-31953.897411,-12800.039387,-28218.004491,-6142.684059,-29513.936283,49237.853198,-5841.471951,-14758.968623,-12010.732235,-89.304001,-933.544006,-333.791992,2520.000000,980.000000,1260.000000
-32088.343154,-22129.948095,-34016.739907,22453.310782,-37820.068040,-14501.364768,-18932.218126,-31930.517486,-12782.381509,-28204.280520,-6130.859987,-29497.306585,49256.449849,-5831.100742,-14750.810236,-11995.890676,-88.328003,-934.520020,-334.768005,2380.000000,840.000000,-840.000000
-32100.211930,-22142.912107,-34026.597026,22447.029942,-37830.394546,-14514.932277,-18940.957658,-31941.805117,-12793.713843,-28214.987006,-6144.203978,-29510.181190,49245.028108,-5831.413666,-14754.587681,-12008.899392,-87.351997,-935.007996,-336.231995,2240.000000,700.000000,-2660.000000
-32120.395556,-22162.000497,-34042.980855,22433.685950,-37852.723939,-14540.390914,-18960.068400,-31966.727312,-12811.729349,-28232.488421,-6162.353595,-29529.470745,49222.765770,-5841.203730,-14762.299032,-12027.004305,-84.912003,-932.567993,-335.256012,2100.000000,420.000000,-4200.000000
-32114.293529,-22154.758531,-34038.376396,22441.196137,-37845.437270,-14533.640687,-18951.731199,-31960.781748,-12803.638018,-28225.939360,-6156.385679,-29520.865324,49228.241948,-5843.327146,-14758.946271,-12017.907145,-83.447998,-932.567993,-334.279999,1960.000000,280.000000,-5040.000000
-32095.518064,-22137.368874,-34022.976044,22457.825834,-37823.599616,-14508.606733,-18931.033484,-31935.926609,-12785.667215,-28208.952035,-6139.554815,-29503.050983,49248.626739,-5839.326184,-14750.743181,-11996.650636,-81.496002,-933.544006,-334.768005,2520.000000,-140.000000,-5600.000000
-32102.290643,-22146.488386,-34027.960483,22454.763646,-37828.248778,-14513.971152,-18935.325019,-31939.994626,-12794.518506,-28214.182343,-6146.372097,-29511.142315,49243.195265,-5840.622585,-14753.224224,-11999.511659,-78.568001,-935.007996,-340.623993,2940.000000,0.000000,-5460.000000
-32122.429564,-22167.566081,-34043.584352,22438.871555,-37851.472241,-14539.072161,-18955.799217,-31964.380379,-12816.490271,-28230.677930,-6162.845333,-29529.940132,49222.810474,-5847.909254,-14763.103695,-12019.963505,-78.568001,-933.056030,-338.183990,3220.000000,-140.000000,-4900.000000
-32121.826067,-22166.672011,-34041.662102,22439.452701,-37849.214715,-14539.675658,-18952.804083,-31964.380379,-12817.116120,-28229.113308,-6162.822981,-29528.599027,49223.548081,-5850.166780,-14764.713021,-12021.863404,-77.592003,-935.007996,-336.720001,3500.000000,140.000000,-4340.000000
-32102.603567,-22146.153110,-34024.317148,22457.736428,-37824.985424,-14513.948800,-18928.708902,-31939.458184,-12799.570000,-28214.294102,-6148.227292,-29508.862437,49243.038803,-5843.550663,-14751.749009,-12002.797366,-76.615997,-934.520020,-339.648010,4060.000000,140.000000,-3220.000000
-32103.721154,-22149.394113,-34025.099459,22458.138759,-37829.142848,-14512.473585,-18929.379455,-31938.117080,-12798.251247,-28213.578846,-6149.791914,-29512.617530,49242.524712,-5843.058925,-14752.352506,-12001.880944,-75.152000,-935.984009,-336.231995,4480.000000,420.000000,-1960.000000
-32118.942692,-22168.013116,-34041.952675,22443.028980,-37851.718110,-14537.842815,-18948.959583,-31961.497004,-12811.595239,-28225.537029,-6168.120345,-29531.169478,49222.497549,-5847.484570,-14762.433143,-12016.230764,-75.639999,-937.936035,-337.696014,4760.000000,700.000000,-1120.000000
-32119.725003,-22168.169578,-34043.092614,22444.347733,-37851.963979,-14542.290812,-18947.350257,-31963.642772,-12812.623419,-28222.608950,-6169.237932,-29528.688434,49218.898918,-5847.909254,-14759.303899,-12016.834261,-74.176003,-938.424011,-336.231995,5040.000000,420.000000,-140.000000
-32104.302300,-22150.399941,-34029.569808,22460.418637,-37830.863932,-14522.353056,-18928.820661,-31944.688492,-12795.501983,-28207.543875,-6154.776353,-29509.756507,49236.109762,-5846.769315,-14752.307803,-12004.160822,-74.664001,-939.400024,-336.231995,5320.000000,420.000000,420.000000
-32102.760029,-22147.762435,-34028.586331,22466.475960,-37823.554912,-14516.809823,-18925.490251,-31942.699187,-12791.702186,-28206.269825,-6156.229217,-29508.683623,49240.133076,-5845.964652,-14750.162035,-12001.769185,-75.152000,-938.911987,-334.279999,5460.000000,-140.000000,1400.000000
-32123.860076,-22170.047125,-34045.528954,22451.969677,-37845.929008,-14541.284983,-18947.506720,-31967.107292,-12812.332846,-28225.693491,-6174.423537,-29530.297760,49218.384828,-5855.888826,-14758.946271,-12021.371665,-75.152000,-937.936035,-334.768005,5460.000000,-280.000000,1680.000000
-32130.185620,-22177.803180,-34048.993474,22444.481843,-37855.942590,-14554.226643,-18957.229728,-31981.077132,-12817.540803,-28233.024863,-6179.899714,-29536.288027,49207.767750,-5861.722632,-14763.193102,-12031.206433,-78.568001,-936.471985,-337.208008,5880.000000,-700.000000,1960.000000
-32114.919378,-22162.447532,-34033.906047,22457.803483,-37835.490744,-14531.070236,-18935.883812,-31962.815757,-12801.358140,-28220.463183,-6165.438135,-29520.775917,49224.464503,-5854.637129,-14753.447742,-12011.693360,-79.056000,-933.544006,-335.256012,6020.000000,-840.000000,1960.000000
-32105.084611,-22154.870290,-34025.546494,22465.313669,-37822.705546,-14517.703893,-18925.087920,-31950.164670,-12792.372738,-28210.628415,-6157.838542,-29513.802172,49235.662727,-5848.803323,-14750.229090,-12000.673950,-79.543999,-931.591980,-338.183990,5740.000000,-980.000000,1960.000000
-32117.713346,-22170.941194,-34039.158707,22453.087265,-37841.101031,-14540.547376,-18942.254060,-31967.911955,-12802.788651,-28221.960750,-6174.579999,-29527.772013,49220.061209,-5849.540931,-14756.666393,-12014.040293,-81.984001,-931.591980,-339.648010,6160.000000,-840.000000,1680.000000
-32130.520896,-22180.932424,-34049.127585,22446.269983,-37854.668540,-14557.132370,-18954.189891,-31982.731161,-12814.232744,-28232.555477,-6184.638284,-29538.612609,49205.554927,-5853.385431,-14755.705268,-12024.389151,-85.400002,-931.104004,-340.136017,5880.000000,-840.000000,1400.000000
-32116.953387,-22164.436837,-34034.800116,22456.149454,-37839.491706,-14537.775759,-18940.823548,-31966.302629,-12800.017035,-28218.652692,-6171.137830,-29525.179210,49220.418837,-5850.546759,-14750.229090,-12011.693360,-87.351997,-932.080017,-340.136017,5880.000000,-700.000000,700.000000
-32104.190541,-22151.964563,-34024.495962,22464.061971,-37826.460639,-14520.453157,-18929.625324,-31953.070397,-12788.639997,-28207.298005,-6159.738440,-29515.232684,49234.701602,-5842.678945,-14747.882157,-12003.289104,-86.375999,-937.447998,-339.160004,5880.000000,-700.000000,140.000000
-32119.143858,-22167.320212,-34038.599913,22455.814177,-37839.737575,-14537.932222,-18940.868251,-31973.857519,-12806.566096,-28223.123041,-6176.278731,-29531.415347,49217.937793,-5846.165818,-14745.937556,-12017.728331,-88.816002,-938.911987,-335.744019,5880.000000,-560.000000,-280.000000
-32133.896009,-22182.206474,-34053.195602,22442.179613,-37857.730729,-14559.568710,-18957.654412,-31997.326851,-12823.151091,-28235.483555,-6189.578019,-29545.385187,49200.458729,-5853.385431,-14751.033753,-12035.117988,-83.936005,-941.351990,-333.791992,5460.000000,-280.000000,-840.000000
-32117.713346,-22165.554424,-34041.326826,22450.673276,-37843.269151,-14548.012858,-18947.506720,-31987.603842,-12807.840146,-28220.463183,-6173.954150,-29529.694263,49212.171043,-5848.088068,-14749.625593,-12023.808005,-86.375999,-940.376038,-331.351990,5040.000000,0.000000,-1680.000000
-32097.172093,-22145.527261,-34024.853590,22469.381686,-37815.955319,-14522.017780,-18922.517469,-31962.167557,-12786.963616,-28202.559436,-6157.503266,-29508.907140,49233.762829,-5832.508902,-14737.756817,-11999.489307,-85.888000,-937.936035,-331.839996,4760.000000,140.000000,-2520.000000
-32108.079744,-22155.742008,-34035.493020,22467.794713,-37822.482028,-14535.495881,-18926.116100,-31968.515452,-12794.965541,-28213.578846,-6170.735499,-29519.814792,49223.525730,-5831.726591,-14733.666448,-12005.703092,-84.424004,-938.911987,-335.256012,4480.000000,280.000000,-2520.000000
-32129.760936,-22174.897453,-34051.742739,22454.115445,-37845.861953,-14560.842760,-18943.729275,-31991.291880,-12815.797367,-28231.460241,-6188.952170,-29539.059644,49202.671552,-5841.159027,-14741.467207,-12024.165633,-81.008003,-937.447998,-334.279999,4200.000000,0.000000,-2800.000000
-32118.830933,-22164.772113,-34042.958503,22457.512910,-37840.072851,-14553.578443,-18936.688475,-31982.820568,-12803.325093,-28222.050157,-6178.938589,-29529.560152,49211.187567,-5842.276614,-14743.031829,-12017.080130,-84.912003,-934.520020,-336.720001,4060.000000,-560.000000,-2380.000000
-32098.669660,-22146.309572,-34027.088765,22470.052239,-37819.397488,-14531.137291,-18919.276466,-31959.820623,-12780.079279,-28205.018128,-6162.375946,-29512.461068,49231.773523,-5836.845140,-14741.578965,-11999.668121,-75.639999,-935.496033,-334.279999,4060.000000,-1540.000000,-2240.000000
-32107.833875,-22155.853767,-34033.727233,22466.274794,-37824.538389,-14537.127559,-18924.305609,-31964.156862,-12789.869343,-28212.014224,-6169.483801,-29523.055795,49226.789084,-5836.979251,-14743.747085,-12004.809023,-79.056000,-939.400024,-333.791992,4200.000000,-1680.000000,-2380.000000
-32126.184657,-22175.657412,-34050.066358,22451.165015,-37848.432404,-14563.368507,-18945.472711,-31990.308403,-12806.856669,-28229.850916,-6188.214563,-29541.071301,49205.376113,-5842.678945,-14752.508968,-12026.512566,-73.200005,-943.791992,-331.839996,3780.000000,-1680.000000,-2800.000000
-32121.177867,-22172.394058,-34049.060529,22452.215547,-37847.515982,-14562.452085,-18944.466882,-31990.733086,-12800.754643,-28225.872305,-6184.347711,-29535.550420,49204.973782,-5845.182341,-14752.464265,-12024.679723,-72.223999,-940.376038,-328.912018,3080.000000,-2100.000000,-3220.000000
-32099.362564,-22154.020924,-34032.855515,22468.420561,-37823.040822,-14538.289850,-18923.411539,-31967.330810,-12779.296968,-28208.750869,-6165.169914,-29515.389146,49225.336221,-5842.254262,-14744.529396,-12005.859555,-70.760002,-938.911987,-328.424011,2520.000000,-2100.000000,-3080.000000
-32097.261500,-22151.562232,-34032.989625,22470.409867,-37820.224502,-14536.367600,-18920.125833,-31966.257926,-12776.435945,-28207.856799,-6164.097031,-29515.635015,49228.554872,-5838.767390,-14742.003649,-12002.126813,-72.223999,-936.960022,-330.376007,2100.000000,-1960.000000,-2240.000000
-32115.433468,-22170.024773,-34050.491041,22455.098922,-37842.576247,-14560.686297,-18938.230746,-31991.090714,-12797.357177,-28223.078337,-6182.134888,-29536.198620,49209.801759,-5845.539969,-14743.836492,-12016.498985,-78.568001,-937.447998,-330.864014,2380.000000,-1540.000000,-840.000000
-32119.277968,-22174.204549,-34053.687340,22453.869576,-37846.174877,-14566.676565,-18938.990705,-31999.338508,-12803.772128,-28226.766375,-6186.761700,-29541.451280,49206.761921,-5850.949091,-14738.315611,-12017.080130,-80.031998,-941.351990,-332.816010,3220.000000,-840.000000,840.000000
-32098.379087,-22154.378552,-34038.175230,22469.113465,-37825.454810,-14546.895271,-18921.556344,-31983.491121,-12783.275578,-28212.237741,-6170.646092,-29524.218085,49226.118532,-5851.686698,-14733.174709,-12000.741005,-85.400002,-941.351990,-331.351990,4060.000000,0.000000,2380.000000
-32091.986488,-22150.466996,-34035.113041,22471.393343,-37819.308081,-14540.703838,-18919.075301,-31981.591222,-12778.022918,-28211.455430,-6168.992063,-29520.038309,49230.365363,-5847.886902,-14735.767512,-11998.908162,-86.375999,-940.376038,-333.791992,4480.000000,840.000000,3220.000000
-32108.929111,-22164.816816,-34050.423986,22458.228166,-37837.457697,-14560.708649,-18935.548536,-32002.825380,-12794.317340,-28228.263942,-6189.086281,-29534.231667,49210.762884,-5847.171646,-14742.249518,-12017.907145,-86.375999,-940.376038,-330.376007,3780.000000,1820.000000,3360.000000
-32113.600625,-22168.817779,-34055.408425,22454.540128,-37843.179744,-14568.576463,-18937.694304,-32010.939063,-12799.078262,-28234.701244,-6195.277714,-29537.807946,49203.453863,-5847.350460,-14738.159148,-12024.858537,-90.279999,-939.400024,-332.328003,3220.000000,2380.000000,3080.000000
-32091.360639,-22150.690514,-34038.063471,22469.716963,-37820.805647,-14544.593041,-18918.829431,-31991.425990,-12778.402898,-28216.998663,-6176.971635,-29521.222952,49221.737590,-5839.929681,-14728.078512,-12008.854688,-88.816002,-933.056030,-331.839996,2380.000000,2240.000000,2800.000000
-32081.324706,-22144.476729,-34030.687395,22477.808294,-37812.423743,-14530.578498,-18909.821678,-31982.865272,-12768.992814,-28207.543875,-6171.808382,-29514.338614,49231.550006,-5837.091009,-14723.451701,-11998.125851,-85.888000,-935.007996,-331.351990,1820.000000,1540.000000,2100.000000
-32100.346041,-22162.671049,-34047.831183,22466.364201,-37832.942645,-14553.734905,-18925.646713,-32005.954624,-12788.148259,-28224.039462,-6190.673255,-29531.527106,49212.483968,-5843.416553,-14729.330209,-12013.526203,-83.447998,-933.056030,-331.839996,1680.000000,980.000000,1540.000000
-32114.338233,-22173.086962,-34059.163518,22458.876366,-37846.912485,-14569.671699,-18938.051932,-32021.109107,-12801.000512,-28236.891715,-6202.564383,-29542.457109,49197.709465,-5847.484570,-14733.465282,-12026.847843,-84.424004,-934.031982,-335.744019,1120.000000,0.000000,420.000000
-32097.864997,-22157.463093,-34047.115928,22469.426390,-37832.316796,-14551.745600,-18923.635056,-32005.887569,-12785.801326,-28223.748889,-6186.068795,-29529.493097,49211.969878,-5842.924815,-14730.224279,-12013.526203,-80.031998,-936.471985,-330.864014,1680.000000,-840.000000,-560.000000
-32082.822273,-22146.086055,-34037.169401,22478.434143,-37817.676403,-14534.624163,-18910.402824,-31989.190816,-12769.283386,-28209.577883,-6170.132002,-29519.546571,49226.900843,-5832.575957,-14729.173747,-11998.081147,-77.592003,-936.471985,-330.864014,1960.000000,-1260.000000,-1540.000000
-32097.641480,-22161.888738,-34050.155765,22468.666431,-37833.926121,-14551.857358,-18922.450414,-32005.775810,-12784.192000,-28222.452488,-6183.900676,-29533.516411,49210.561718,-5830.899576,-14734.359352,-12009.949924,-75.639999,-935.984009,-333.304016,2380.000000,-1960.000000,-2380.000000
-32114.360585,-22178.451381,-34063.924439,22456.238861,-37854.243857,-14575.170228,-18936.487310,-32024.528924,-12803.526259,-28236.332922,-6199.055159,-29548.603839,49191.138052,-5836.643974,-14738.449721,-12025.149110,-77.104004,-937.936035,-333.304016,2240.000000,-1960.000000,-3080.000000
-32098.133218,-22162.425180,-34051.116890,22467.258271,-37839.335244,-14561.423905,-18921.422234,-32010.335566,-12786.404823,-28221.848991,-6187.588714,-29532.063548,49202.984476,-5833.224157,-14726.983276,-12013.705017,-76.615997,-942.328003,-336.231995,2520.000000,-2100.000000,-3500.000000
-32081.190596,-22145.527261,-34036.878829,22480.781076,-37817.788162,-14539.496844,-18903.719652,-31991.180121,-12768.031689,-28208.616758,-6173.238894,-29515.635015,49220.754113,-5825.289288,-14720.233049,-11998.103499,-74.664001,-939.400024,-333.791992,2800.000000,-2100.000000,-3780.000000
-32092.657041,-22157.440741,-34047.831183,22474.187311,-37827.555874,-14552.930242,-18911.565114,-32003.138304,-12781.040404,-28219.345596,-6186.471127,-29528.375510,49206.024314,-5825.266936,-14721.663561,-12010.106386,-73.688004,-936.471985,-333.304016,3080.000000,-2100.000000,-3500.000000
-32109.599663,-22175.791523,-34065.399655,22459.613974,-37848.454755,-14579.908798,-18930.452339,-32031.189743,-12799.190020,-28234.410672,-6203.391397,-29546.480423,49183.247886,-5834.095876,-14725.843337,-12028.904203,-73.688004,-935.007996,-330.864014,3360.000000,-1960.000000,-2660.000000
-32098.982584,-22166.269680,-34057.621247,22461.066837,-37843.738537,-14573.136219,-18928.977123,-32030.318025,-12785.421346,-28223.413613,-6193.601333,-29538.634960,49186.533593,-5836.822788,-14727.877346,-12024.500909,-77.104004,-936.960022,-333.304016,3500.000000,-1960.000000,-1680.000000
-32081.771741,-22146.711903,-34039.315169,22475.640175,-37820.984461,-14547.319954,-18910.603989,-32005.664051,-12770.602139,-28205.196942,-6176.837525,-29519.926550,49205.152596,-5832.218329,-14721.328285,-12007.558287,-76.127998,-935.007996,-334.279999,3220.000000,-1540.000000,-420.000000
-32089.036058,-22154.020924,-34044.389015,22474.768457,-37825.544217,-14551.253861,-18910.313417,-32008.189798,-12780.414555,-28210.606064,-6181.754909,-29527.168516,49201.553965,-5830.452541,-14715.896811,-12007.178307,-76.127998,-935.007996,-333.304016,3220.000000,-1260.000000,1120.000000
-32108.817352,-22176.126799,-34063.857384,22459.770436,-37850.712282,-14577.941844,-18929.334751,-32033.089642,-12798.765337,-28228.398052,-6198.362255,-29548.447376,49177.972874,-5838.722687,-14721.976485,-12023.293915,-75.639999,-936.960022,-330.376007,2940.000000,-980.000000,2380.000000
-32102.536512,-22168.124875,-34060.750492,22464.754875,-37846.241933,-14575.594911,-18923.746815,-32032.866124,-12789.869343,-28222.363081,-6192.394339,-29541.160708,49180.208049,-5838.610928,-14718.199041,-12021.304610,-76.127998,-934.031982,-333.791992,2380.000000,-840.000000,3080.000000
-32080.922375,-22145.907241,-34043.517297,22483.485637,-37820.537427,-14548.526949,-18900.277483,-32011.117877,-12768.121096,-28202.939415,-6171.808382,-29517.490210,49201.799834,-5829.938451,-14706.687892,-11999.735177,-79.056000,-937.447998,-333.791992,1820.000000,-700.000000,3920.000000
-32082.621107,-22147.874194,-34044.187849,22483.910320,-37820.738592,-14547.901100,-18900.009263,-32013.353051,-12769.484552,-28203.475857,-6171.406051,-29518.987777,49204.035008,-5829.603175,-14705.793823,-11998.304665,-79.543999,-937.447998,-332.816010,1960.000000,-700.000000,4200.000000
-32101.441276,-22166.537901,-34062.404521,22469.336983,-37842.531543,-14573.717365,-18919.187059,-32038.185839,-12788.349424,-28220.887866,-6188.281618,-29538.254981,49183.896087,-5839.102666,-14712.007607,-12018.890622,-80.520004,-935.007996,-334.279999,2100.000000,-840.000000,4200.000000
-32105.889273,-22168.996593,-34065.757282,22466.788884,-37845.347863,-14577.159533,-18921.913972,-32041.695063,-12793.087994,-28223.793593,-6190.047406,-29541.428929,49178.352854,-5843.505960,-14712.566401,-12020.611706,-86.375999,-934.031982,-334.279999,2380.000000,-700.000000,3920.000000
-32086.912642,-22148.097712,-34046.959465,22481.697498,-37819.688060,-14549.577481,-18900.411594,-32016.035261,-12775.117192,-28205.867494,-6170.444926,-29523.838106,49199.989343,-5836.733381,-14701.614046,-11999.735177,-84.912003,-934.031982,-334.768005,2520.000000,-980.000000,3220.000000
-32081.704686,-22143.225031,-34042.109137,22485.832570,-37811.596729,-14541.776722,-18894.555437,-32008.994461,-12770.088049,-28198.089087,-6165.616949,-29519.412460,49207.253660,-5832.777123,-14698.373043,-11996.427118,-86.863998,-936.471985,-334.279999,2520.000000,-980.000000,2380.000000
-32100.100172,-22162.983973,-34058.962352,22472.063896,-37831.355671,-14567.481228,-18911.900391,-32032.083813,-12788.416480,-28213.176514,-6184.414766,-29538.299684,49186.958276,-5838.722687,-14704.363311,-12016.230764,-88.328003,-932.567993,-333.304016,2240.000000,-1120.000000,1260.000000
-32108.258558,-22170.203587,-34066.427835,22467.548843,-37840.072851,-14578.075955,-18915.543725,-32040.443366,-12795.256113,-28221.692529,-6193.400168,-29545.116966,49175.156555,-5844.623547,-14703.245724,-12019.851747,-83.447998,-934.031982,-333.304016,1400.000000,-980.000000,0.000000
-32089.259576,-22151.450473,-34050.669855,22481.026945,-37819.598653,-14557.512350,-18897.081184,-32022.763136,-12772.390279,-28205.755735,-6176.502249,-29527.146164,49191.674494,-5845.092934,-14697.210753,-12004.138470,-85.400002,-933.544006,-336.720001,1120.000000,-980.000000,-1260.000000
-32077.413151,-22138.195889,-34040.343349,22491.196989,-37803.997136,-14543.140178,-18886.352347,-32013.978900,-12759.806247,-28194.356345,-6167.092164,-29516.976120,49204.325581,-5839.192073,-14691.041671,-11995.756566,-86.863998,-932.080017,-333.304016,560.000000,-1260.000000,-2240.000000
-32096.926224,-22156.658430,-34055.766053,22478.970585,-37822.437325,-14566.095420,-18904.412556,-32033.961360,-12778.626416,-28211.298968,-6182.492516,-29534.924571,49187.539421,-5840.689640,-14694.707357,-12010.732235,-83.936005,-935.984009,-333.791992,560.000000,-840.000000,-2940.000000
-32107.073916,-22168.415447,-34066.383131,22470.432218,-37836.876552,-14585.764955,-18918.136527,-32049.920505,-12788.125907,-28222.787764,-6192.707264,-29544.759338,49170.954427,-5846.478742,-14698.261285,-12020.969334,-84.424004,-935.984009,-335.256012,140.000000,-840.000000,-3640.000000
-32085.079799,-22149.438816,-34050.044006,22484.536169,-37816.782333,-14564.061411,-18900.366890,-32034.006063,-12765.818866,-28207.275654,-6175.272903,-29523.748699,49187.829994,-5840.197902,-14689.253532,-12005.479575,-81.008003,-936.960022,-335.744019,0.000000,-840.000000,-3920.000000
-32067.801901,-22133.099691,-34036.431794,22500.070632,-37796.397543,-14542.089646,-18881.434963,-32014.895322,-12748.943299,-28194.758677,-6161.794801,-29506.537855,49205.420817,-5830.743114,-14680.111668,-11989.162801,-80.520004,-936.471985,-336.231995,420.000000,-980.000000,-3780.000000
-32081.503520,-22148.880023,-34051.876849,22490.101753,-37813.049592,-14559.144027,-18894.510733,-32029.960397,-12764.164837,-28207.968558,-6176.882228,-29521.781745,49188.947581,-5833.470027,-14685.118459,-12001.903296,-77.592003,-935.007996,-333.304016,1120.000000,-980.000000,-3220.000000
-32096.523892,-22165.509721,-34068.215974,22477.115390,-37835.714261,-14581.227551,-18911.565114,-32052.200383,-12781.263921,-28220.329073,-6188.773357,-29538.769071,49170.909723,-5839.504998,-14691.064023,-12019.270601,-77.592003,-935.496033,-338.183990,1680.000000,-980.000000,-2520.000000
-32083.850453,-22149.036485,-34055.542535,22489.967643,-37819.866874,-14563.212045,-18895.985949,-32037.112956,-12767.852875,-28208.952035,-6176.122269,-29524.374548,49183.896087,-5833.715896,-14680.268130,-12006.820680,-78.080002,-940.376038,-336.231995,1680.000000,-980.000000,-1680.000000
-32065.946706,-22131.400958,-34039.114003,22505.971492,-37798.722124,-14537.775759,-18875.914082,-32017.041089,-12749.502093,-28195.250415,-6160.341938,-29505.733193,49200.838709,-5826.943317,-14671.752116,-11990.056871,-78.080002,-937.447998,-337.208008,1820.000000,-1120.000000,-840.000000
-32074.686238,-22142.330962,-34047.786480,22498.461306,-37810.814418,-14551.745600,-18886.151181,-32032.374386,-12759.426267,-28205.755735,-6169.349691,-29515.567960,49192.926191,-5830.206672,-14676.177761,-12001.188040,-78.568001,-935.496033,-336.231995,1680.000000,-1400.000000,0.000000
-32091.338288,-22160.234709,-34062.806852,22483.105657,-37830.774525,-14577.584216,-18904.256094,-32055.329627,-12778.782878,-28221.670177,-6185.532354,-29531.772975,49175.424776,-5839.080315,-14684.760831,-12017.236592,-79.056000,-937.936035,-336.231995,2100.000000,-980.000000,700.000000
-32081.794093,-22152.232784,-34053.910858,22488.224207,-37821.207979,-14570.856341,-18891.895579,-32045.338398,-12770.535084,-28210.114325,-6176.636359,-29523.234609,49183.694921,-5838.812094,-14678.457639,-12006.284238,-81.496002,-935.496033,-336.231995,2100.000000,-980.000000,1260.000000
-32059.241183,-22129.724578,-34038.622265,22506.329120,-37797.626888,-14549.689239,-18871.063753,-32021.690252,-12747.065752,-28191.338860,-6158.665557,-29505.219103,49201.553965,-5835.235814,-14666.477104,-11989.654540,-79.543999,-936.471985,-334.768005,2100.000000,-560.000000,1820.000000
-32070.528814,-22139.425235,-34048.166460,22505.010367,-37804.533578,-14559.769876,-18879.423306,-32030.072156,-12759.292157,-28201.821828,-6169.930836,-29515.009167,49193.261468,-5840.443771,-14667.304119,-11998.528182,-81.008003,-937.936035,-337.208008,1960.000000,-280.000000,1960.000000
-32094.780456,-22160.681744,-34066.763111,22494.862675,-37827.041784,-14584.602664,-18898.578751,-32052.736825,-12782.873247,-28222.564247,-6193.109595,-29534.723405,49170.552095,-5846.746963,-14672.266206,-12014.330866,-80.031998,-935.984009,-336.720001,1540.000000,0.000000,1820.000000
-32091.003012,-22156.546671,-34061.823375,22498.394251,-37825.499514,-14582.970987,-18895.471858,-32051.395720,-12778.402898,-28217.870381,-6187.767528,-29530.476574,49172.854325,-5845.852893,-14670.276901,-12006.775976,-83.447998,-937.447998,-335.744019,1540.000000,-140.000000,1540.000000
-32065.097340,-22131.915049,-34041.170364,22514.576914,-37801.650202,-14557.959385,-18876.852855,-32029.222790,-12751.603157,-28195.429229,-6166.108688,-29507.990719,49194.200241,-5838.298003,-14665.739496,-11987.732290,-86.375999,-938.911987,-335.256012,1120.000000,-140.000000,1540.000000
-32065.499671,-22135.670142,-34041.527991,22512.364091,-37802.141941,-14555.925376,-18876.450524,-32026.518229,-12753.413648,-28197.217369,-6166.734536,-29510.829390,49195.653104,-5835.593442,-14668.309947,-11991.107403,-83.936005,-939.888000,-332.816010,1260.000000,0.000000,1120.000000
-32085.079799,-22157.708962,-34059.275277,22497.366070,-37825.164238,-14581.115792,-18893.884885,-32047.774738,-12774.826619,-28216.328110,-6186.091147,-29532.175306,49173.703691,-5842.455428,-14672.601482,-12011.358084,-84.424004,-935.496033,-332.328003,840.000000,-140.000000,700.000000
-32087.247919,-22158.178348,-34061.622210,22496.449649,-37826.840618,-14585.988472,-18892.789649,-32047.752386,-12778.134677,-28218.250360,-6190.583848,-29532.488231,49169.233342,-5843.796533,-14668.287595,-12015.560212,-82.472000,-936.471985,-335.256012,840.000000,-280.000000,140.000000
-32065.633782,-22139.000552,-34043.405538,22511.760594,-37803.237176,-14560.485132,-18873.097762,-32021.824362,-12757.526369,-28198.379659,-6172.478935,-29512.259902,49191.898011,-5834.453503,-14659.950395,-12000.249267,-84.912003,-937.936035,-333.791992,840.000000,-420.000000,-280.000000
-32058.481223,-22135.513679,-34038.175230,22517.147364,-37796.486950,-14552.729076,-18867.018088,-32015.118839,-12752.161950,-28194.892787,-6171.227237,-29508.102478,49198.514128,-5831.614832,-14657.067020,-11994.884848,-82.472000,-936.471985,-332.328003,700.000000,-420.000000,-560.000000
-32076.608488,-22154.847938,-34053.441471,22505.882085,-37814.837732,-14576.690147,-18882.552550,-32040.085738,-12771.652671,-28212.640072,-6186.761700,-29524.531010,49179.313979,-5837.828617,-14660.084505,-12010.084034,-84.424004,-936.471985,-335.744019,560.000000,0.000000,-840.000000
-32081.503520,-22160.391171,-34060.236402,22502.395213,-37822.325566,-14587.866019,-18889.392184,-32055.799014,-12780.034575,-28220.284369,-6192.260229,-29527.660254,49172.094366,-5843.818884,-14660.889168,-12019.583526,-80.031998,-937.936035,-335.256012,-140.000000,-140.000000,-980.000000
-32060.358770,-22143.113273,-34042.556172,22512.207629,-37806.165255,-14563.033231,-18877.881036,-32039.348130,-12760.812075,-28202.157104,-6173.864743,-29508.482457,49192.032122,-5840.466123,-14661.358555,-12007.871212,-81.984001,-938.424011,-335.256012,-420.000000,0.000000,-980.000000
-32052.937991,-22137.748854,-34032.900218,22518.667283,-37794.475293,-14547.766989,-18868.582710,-32027.412299,-12750.262052,-28195.116305,-6165.996929,-29502.067507,49202.917421,-5835.369925,-14657.625813,-11997.209429,-80.520004,-938.424011,-333.304016,-280.000000,280.000000,-700.000000
-32072.004029,-22157.194872,-34050.021654,22508.631350,-37810.143865,-14569.291719,-18879.691527,-32046.344226,-12766.690584,-28211.298968,-6184.794746,-29521.759393,49185.170136,-5839.348535,-14656.418819,-12007.826508,-81.984001,-935.496033,-332.328003,0.000000,420.000000,-140.000000
-32081.391761,-22167.096694,-34058.224745,22502.685786,-37821.163275,-14585.764955,-18888.252245,-32060.247011,-12777.911160,-28217.669215,-6194.853031,-29531.035367,49174.418947,-5838.208596,-14654.630679,-12014.643790,-80.031998,-939.888000,-330.864014,-560.000000,560.000000,140.000000
-32061.096378,-22147.158938,-34040.388053,22518.175545,-37800.979650,-14568.710574,-18870.549663,-32046.366578,-12757.056982,-28200.033689,-6179.609141,-29511.879922,49190.512203,-5828.463236,-14643.320697,-11998.036444,-80.031998,-938.424011,-331.351990,-980.000000,700.000000,280.000000
-32046.947723,-22133.412615,-34027.938131,22531.743053,-37783.098255,-14549.353963,-18856.021029,-32027.792278,-12740.874319,-28188.455485,-6168.097993,-29497.865379,49205.219651,-5820.103683,-14633.709447,-11984.804211,-78.568001,-938.424011,-335.256012,-1960.000000,420.000000,980.000000
-32060.917564,-22149.729389,-34040.633922,22520.522478,-37802.656031,-14565.156646,-18871.309623,-32043.527906,-12754.598290,-28199.832523,-6177.552781,-29513.221027,49191.339218,-5824.395218,-14639.900880,-12001.344502,-77.104004,-938.424011,-334.279999,-2100.000000,560.000000,1260.000000
-32077.904889,-22166.090866,-34057.420082,22506.373823,-37823.867836,-14586.502562,-18886.575864,-32063.666828,-12769.462200,-28215.970482,-6191.008531,-29529.783670,49172.988435,-5833.939413,-14648.014563,-12019.360008,-75.639999,-936.471985,-335.744019,-2100.000000,280.000000,1820.000000
-32064.739712,-22153.596241,-34048.501736,22514.822783,-37811.037935,-14571.191617,-18875.020012,-32050.054616,-12753.078372,-28203.028822,-6179.117403,-29518.071356,49183.672569,-5831.458370,-14645.600575,-12008.854688,-78.568001,-935.007996,-336.720001,-1400.000000,-140.000000,2240.000000
-32047.774738,-22134.843127,-34031.827334,22530.580763,-37788.507377,-14545.867091,-18855.082256,-32026.182953,-12734.772293,-28184.543930,-6163.761754,-29500.301719,49202.805662,-5819.991925,-14636.145787,-11989.453374,-81.496002,-936.471985,-339.648010,-1120.000000,0.000000,2240.000000
-32058.615334,-22143.806177,-34038.801079,22526.937428,-37796.777522,-14555.143065,-18860.849006,-32034.207229,-12746.037572,-28194.624566,-6176.502249,-29510.203542,49194.088482,-5818.203785,-14633.240060,-11994.884848,-79.056000,-932.080017,-339.648010,-1960.000000,0.000000,1960.000000
-32072.875747,-22158.334811,-34050.312227,22514.621617,-37815.150656,-14581.205199,-18877.568111,-32055.508441,-12761.504979,-28211.164857,-6195.233011,-29526.565018,49175.022444,-5824.305811,-14632.591859,-12014.308514,-78.080002,-930.127991,-342.088013,-2520.000000,420.000000,1400.000000
-32064.315029,-22148.544746,-34042.913800,22519.628408,-37806.679345,-14575.103173,-18870.504960,-32049.138194,-12754.441828,-28205.040479,-6191.254400,-29518.406632,49182.532630,-5823.702314,-14627.138034,-12007.938267,-77.592003,-929.640015,-336.720001,-3500.000000,280.000000,840.000000
-32046.232467,-22131.110386,-34027.289930,22531.988923,-37784.975801,-14550.449199,-18853.472931,-32026.406470,-12738.236813,-28189.595424,-6175.496420,-29502.268672,49203.520918,-5818.024971,-14624.209955,-11989.386319,-80.031998,-929.152039,-341.600006,-3920.000000,-280.000000,420.000000
-32048.400587,-22135.960714,-34030.888561,22528.703216,-37788.037990,-14554.427809,-18857.853873,-32028.753403,-12740.561395,-28192.411744,-6179.452679,-29507.454277,49200.168157,-5817.846157,-14626.445130,-11991.599142,-79.543999,-931.104004,-341.600006,-3220.000000,-420.000000,140.000000
-32065.834947,-22154.646773,-34047.786480,22515.694501,-37808.422781,-14581.808696,-18874.818847,-32052.379197,-12758.398087,-28208.728517,-6197.401130,-29525.067452,49179.626903,-5823.612907,-14631.876604,-12007.066549,-80.520004,-932.080017,-340.136017,-2380.000000,-1120.000000,-140.000000
-32060.314066,-22149.058837,-34044.880753,22520.008388,-37805.338240,-14582.188676,-18871.533140,-32051.507479,-12751.983136,-28204.638148,-6194.808328,-29519.770088,49182.689092,-5826.451579,-14631.206051,-12006.507755,-80.520004,-932.567993,-340.136017,-840.000000,-700.000000,0.000000
-32031.033281,-22121.521487,-34023.624244,22540.683751,-37781.310115,-14556.506521,-18849.583727,-32027.613464,-12723.998752,-28179.157159,-6173.417708,-29494.400858,49204.482043,-5820.349553,-14624.120548,-11987.084089,-79.056000,-934.520020,-341.112000,-420.000000,-840.000000,-140.000000
-32012.034298,-22104.847086,-34015.264692,22550.429112,-37771.698865,-14556.327707,-18843.057018,-32026.629988,-12705.424452,-28166.193147,-6169.148525,-29482.621489,49208.952392,-5814.940431,-14618.219688,-11980.959711,-79.543999,-933.056030,-341.600006,-140.000000,-560.000000,-280.000000
-32021.176162,-22114.413633,-34026.865247,22544.908231,-37783.210013,-14581.585179,-18851.371867,-32047.506517,-12714.365150,-28177.771351,-6186.694644,-29493.596195,49191.339218,-5816.616811,-14612.162365,-11989.587485,-80.031998,-934.031982,-340.623993,-140.000000,-560.000000,-280.000000
-32022.606674,-22113.676025,-34027.155820,22550.518519,-37781.533632,-14587.307225,-18845.292192,-32048.557049,-12715.482737,-28180.431209,-6191.120290,-29493.171512,49184.365473,-5817.756750,-14600.561810,-11987.776993,-81.496002,-937.447998,-343.063995,0.000000,-420.000000,-140.000000
-32003.585339,-22093.291234,-34010.213197,22567.841121,-37758.913667,-14561.446257,-18822.828689,-32024.104240,-12693.153345,-28162.750979,-6173.820039,-29474.753675,49198.402369,-5814.672210,-14588.961254,-11969.448563,-78.080002,-934.520020,-340.623993,420.000000,-280.000000,140.000000
-32002.266586,-22092.285406,-34006.703974,22567.483493,-37759.181888,-14554.539568,-18823.275724,-32019.343319,-12691.812240,-28161.074598,-6169.617912,-29476.742980,49200.682247,-5817.086198,-14592.895161,-11967.056926,-80.520004,-936.471985,-341.600006,1400.000000,-420.000000,420.000000
-32030.429784,-22118.213429,-34027.982834,22547.545737,-37786.585127,-14580.914626,-18847.236794,-32042.343264,-12720.735397,-28185.549758,-6190.516793,-29504.392088,49178.174040,-5827.747980,-14601.120603,-11989.699243,-79.543999,-935.984009,-337.696014,2100.000000,-700.000000,700.000000
-32046.724206,-22133.658485,-34041.505640,22533.866469,-37801.069057,-14594.728004,-18861.005468,-32054.457909,-12740.583747,-28202.335918,-6203.145528,-29518.250170,49167.489906,-5832.799474,-14607.334388,-12003.579677,-81.496002,-935.007996,-342.575989,2240.000000,-840.000000,840.000000
-32036.129479,-22125.410691,-34032.363776,22539.409702,-37783.858214,-14570.677527,-18849.896651,-32035.168354,-12731.866566,-28194.959843,-6190.360330,-29506.426097,49186.310075,-5826.853910,-14611.201240,-11992.582618,-83.447998,-933.056030,-338.183990,2380.000000,-1120.000000,560.000000
-32028.306368,-22122.996703,-34028.787497,22542.494242,-37774.381074,-14557.132370,-18844.956916,-32025.825325,-12727.329162,-28188.477837,-6182.648979,-29501.888693,49195.742511,-5820.304849,-14614.285781,-11985.586522,-81.008003,-933.056030,-342.088013,2240.000000,-1260.000000,280.000000
-32042.969113,-22142.621534,-34045.886582,22527.406815,-37796.330487,-14581.763993,-18863.911195,-32049.741691,-12745.031744,-28200.793648,-6197.781110,-29519.971254,49175.648293,-5821.601250,-14619.314923,-12001.500964,-81.496002,-934.520020,-336.720001,2100.000000,-1120.000000,140.000000
-32052.937991,-22153.551537,-34057.800061,22517.728510,-37810.792066,-14600.695920,-18874.908254,-32066.840776,-12754.240662,-28208.728517,-6207.347656,-29530.118946,49161.834915,-5827.725628,-14616.900935,-12014.688494,-81.496002,-935.007996,-336.720001,1960.000000,-1260.000000,0.000000
-32039.705758,-22139.425235,-34044.590180,22527.228001,-37792.217766,-14584.937940,-18860.781951,-32052.423901,-12739.689677,-28195.295119,-6195.300066,-29517.199638,49176.274142,-5827.725628,-14611.983551,-12003.177345,-82.959999,-936.471985,-334.768005,1960.000000,-1400.000000,-420.000000
-32028.932217,-22132.183270,-34034.263675,22536.123995,-37778.024409,-14568.151780,-18847.482663,-32035.011892,-12732.447712,-28186.242662,-6184.303008,-29509.801210,49190.020465,-5827.502111,-14607.513202,-11989.453374,-83.936005,-940.376038,-335.256012,2380.000000,-1400.000000,-560.000000
-32041.382139,-22148.209470,-34046.803003,22527.049187,-37795.101141,-14585.407327,-18859.664364,-32049.764043,-12747.468084,-28200.503075,-6198.116386,-29525.358024,49174.575409,-5836.643974,-14610.821260,-12003.087938,-85.888000,-938.911987,-339.160004,2380.000000,-1540.000000,-700.000000
-32051.283962,-22157.865424,-34058.112986,22519.248428,-37812.781371,-14604.495717,-18872.494265,-32067.913660,-12757.504017,-28212.394203,-6213.002648,-29534.522240,49155.934054,-5844.243567,-14610.463632,-12017.057778,-81.984001,-932.567993,-339.160004,2100.000000,-1260.000000,-840.000000
-32033.782546,-22139.693456,-34044.433718,22531.586591,-37795.928156,-14587.284873,-18858.770294,-32054.234392,-12737.409799,-28198.223197,-6200.440967,-29515.858533,49169.121584,-5841.203730,-14601.411176,-12003.825546,-83.447998,-933.056030,-344.040009,1680.000000,-700.000000,-1260.000000
-32015.387060,-22120.873287,-34028.072241,22546.718722,-37772.727045,-14563.703783,-18838.765483,-32034.654264,-12717.114415,-28181.571148,-6185.778223,-29497.463047,49190.579258,-5832.486550,-14591.665815,-11980.512676,-83.447998,-932.567993,-339.648010,1260.000000,0.000000,-1680.000000
-32025.132421,-22131.490365,-34037.035291,22539.029722,-37781.801853,-14575.326690,-18846.387428,-32045.941895,-12727.776197,-28191.048287,-6198.049330,-29510.270597,49181.750319,-5831.994812,-14593.543362,-11987.329958,-82.472000,-932.567993,-339.648010,560.000000,700.000000,-2100.000000
-32039.102261,-22147.985953,-34052.748567,22525.283399,-37803.281880,-14600.047719,-18863.285346,-32067.153700,-12743.511825,-28208.594407,-6217.897680,-29528.151992,49162.572522,-5836.420457,-14598.728967,-12006.440700,-83.447998,-934.031982,-341.112000,280.000000,1120.000000,-2380.000000
-32029.491011,-22138.598220,-34046.244210,22530.513707,-37794.698810,-14592.805754,-18854.143483,-32059.397645,-12735.129921,-28201.777125,-6208.219374,-29519.345405,49170.082709,-5834.498207,-14593.699824,-12002.909124,-83.447998,-940.376038,-338.183990,560.000000,1120.000000,-2660.000000
-32009.396793,-22119.643941,-34029.234532,22546.629315,-37770.290705,-14566.922434,-18832.842270,-32032.866124,-12717.136767,-28184.856854,-6188.996874,-29501.531065,49190.400444,-5826.138654,-14586.256693,-11982.680796,-81.496002,-940.864014,-337.696014,840.000000,1120.000000,-2940.000000
-32013.151886,-22122.013226,-34031.179134,22546.517556,-37773.911688,-14572.756240,-18833.602230,-32034.229581,-12721.875336,-28188.164912,-6193.869554,-29506.426097,49184.879563,-5820.014277,-14587.128411,-11985.363005,-81.984001,-936.960022,-332.328003,700.000000,980.000000,-3220.000000
-32032.642607,-22140.967505,-34047.227686,22532.905344,-37796.710467,-14601.142955,-18851.148349,-32059.777625,-12740.628450,-28203.922892,-6210.923935,-29524.307492,49161.521990,-5821.534195,-14591.196429,-12006.843031,-79.056000,-937.447998,-335.744019,0.000000,700.000000,-3780.000000
-32030.139211,-22137.927668,-34045.752471,22534.291152,-37795.101141,-14598.907781,-18848.019105,-32058.861203,-12736.627488,-28198.983157,-6205.224240,-29518.920722,49163.690110,-5819.701352,-14585.787307,-12006.507755,-78.568001,-936.471985,-329.399994,-1120.000000,140.000000,-4200.000000
-32011.542560,-22118.615761,-34029.212180,22548.797434,-37771.564754,-14572.532722,-18827.880183,-32032.195572,-12717.539098,-28181.034706,-6186.515830,-29501.151085,49185.058377,-5814.269878,-14579.126487,-11990.570961,-79.543999,-938.424011,-331.351990,-1960.000000,-280.000000,-4340.000000
-32013.151886,-22123.086110,-34032.989625,22547.143405,-37774.425778,-14576.824257,-18832.998733,-32034.609560,-12719.595458,-28181.749962,-6188.303970,-29505.844951,49183.873735,-5820.371904,-14583.596836,-11997.030615,-80.520004,-942.328003,-329.888000,-1820.000000,-840.000000,-3920.000000
-32035.347168,-22147.047180,-34054.648465,22529.865507,-37800.912595,-14605.993284,-18857.429189,-32064.560898,-12741.969555,-28201.643014,-6207.437063,-29530.074242,49162.013729,-5831.883053,-14593.588065,-12023.651543,-81.984001,-944.768005,-328.424011,-840.000000,-1680.000000,-3360.000000
-32042.075043,-22152.612764,-34061.622210,22526.825670,-37806.411124,-14613.928153,-18863.061829,-32074.060389,-12747.468084,-28208.259131,-6209.895755,-29536.198620,49154.212970,-5837.091009,-14595.644426,-12030.178252,-80.031998,-945.744019,-336.231995,560.000000,-2240.000000,-2520.000000
-32019.477429,-22133.390264,-34042.466765,22545.176452,-37780.840728,-14588.558923,-18841.715913,-32049.585229,-12725.384560,-28190.355383,-6190.963827,-29517.289045,49173.033139,-5830.765466,-14585.519086,-12008.742930,-79.543999,-943.791992,-339.160004,2520.000000,-2800.000000,-1260.000000
-32010.089697,-22131.132738,-34037.839954,22548.596269,-37774.537536,-14579.864094,-18836.351494,-32042.611485,-12719.617810,-28184.342764,-6186.515830,-29513.779821,49178.911648,-5828.619698,-14583.507429,-12000.517488,-79.056000,-938.424011,-338.671997,3640.000000,-3080.000000,-700.000000
-32030.966226,-22150.779921,-34056.771881,22536.414568,-37796.151673,-14606.105042,-18855.730457,-32066.013761,-12743.087142,-28203.475857,-6207.548822,-29533.270542,49158.169229,-5835.682849,-14585.586141,-12015.850784,-79.543999,-934.520020,-340.136017,4480.000000,-3360.000000,140.000000
-32039.862220,-22156.814892,-34064.371474,22533.218269,-37804.533578,-14617.951467,-18862.972422,-32077.457854,-12751.267880,-28210.829581,-6218.098845,-29538.612609,49148.334461,-5838.543873,-14585.116754,-12018.689456,-78.568001,-933.544006,-341.112000,4760.000000,-3080.000000,700.000000
-32012.928368,-22130.931572,-34042.086785,22551.166719,-37781.533632,-14595.063280,-18844.733399,-32060.179956,-12722.836461,-28188.075505,-6197.334075,-29514.316263,49168.719252,-5832.844178,-14577.181885,-11999.019921,-75.639999,-929.152039,-339.648010,4760.000000,-2940.000000,1260.000000
-31999.807894,-22118.436947,-34031.402651,22561.247356,-37768.368455,-14581.115792,-18832.931677,-32045.718377,-12710.699464,-28176.363191,-6188.169859,-29502.380431,49180.275104,-5826.116303,-14571.102210,-11988.291083,-74.176003,-927.200012,-333.791992,4480.000000,-2240.000000,1400.000000
-32017.041089,-22137.011246,-34046.780651,22549.512690,-37787.590955,-14604.182792,-18848.332029,-32065.365561,-12730.659572,-28192.456447,-6207.571174,-29520.686510,49160.113831,-5828.686753,-14575.527856,-12003.870249,-76.127998,-927.200012,-336.720001,3080.000000,-1680.000000,1820.000000
-32029.602770,-22152.098674,-34059.834070,22539.364998,-37803.751266,-14622.824147,-18861.050172,-32081.615279,-12745.903462,-28203.677023,-6220.445778,-29533.941094,49143.640595,-5834.095876,-14580.668757,-12021.617534,-77.592003,-925.736023,-342.575989,2100.000000,-560.000000,2100.000000
-32011.833133,-22136.586563,-34045.551305,22552.194900,-37785.311077,-14602.796984,-18843.258183,-32062.370427,-12729.117302,-28186.689697,-6204.218412,-29517.154934,49160.493810,-5827.345649,-14573.426792,-12013.079168,-80.520004,-924.272034,-342.088013,980.000000,280.000000,2520.000000
-31995.158731,-22122.236743,-34031.000320,22565.293022,-37767.340275,-14583.842705,-18828.126052,-32044.734901,-12709.224249,-28171.177586,-6192.148470,-29500.994623,49174.977741,-5819.656649,-14568.084725,-12000.629246,-83.447998,-925.736023,-343.063995,0.000000,980.000000,2940.000000
-32008.793295,-22139.000552,-34040.835087,22555.167682,-37783.031199,-14600.293589,-18842.520576,-32057.676561,-12724.535194,-28179.693601,-6204.665447,-29514.763297,49161.812563,-5818.963745,-14575.214931,-12011.067511,-88.816002,-928.664001,-346.480011,-280.000000,1540.000000,3080.000000
-32025.043014,-22155.227918,-34055.631942,22543.991809,-37801.337278,-14622.935906,-18857.362134,-32077.726075,-12742.438941,-28194.758677,-6218.277659,-29531.035367,49143.394726,-5824.149349,-14575.170228,-12023.271563,-91.744003,-929.640015,-349.895996,140.000000,1540.000000,2940.000000
-32010.939063,-22140.475767,-34047.294742,22555.279440,-37787.836824,-14611.223592,-18844.688695,-32067.712494,-12725.764540,-28184.812151,-6206.095958,-29519.635978,49153.855342,-5821.198919,-14565.491923,-12014.017941,-88.816002,-935.007996,-347.944000,1120.000000,1680.000000,2380.000000
-31992.431819,-22121.208563,-34031.335596,22571.529159,-37766.088577,-14587.173115,-18823.834517,-32049.071139,-12707.123185,-28170.216461,-6189.399205,-29503.006280,49172.966084,-5815.253355,-14555.590100,-11997.365892,-91.256004,-932.567993,-345.992004,1960.000000,1400.000000,1540.000000
-32004.501761,-22131.669179,-34038.331692,22566.991754,-37776.906821,-14598.617208,-18831.903497,-32062.258668,-12719.774272,-28182.688735,-6201.245630,-29512.841047,49159.376223,-5820.528367,-14555.992431,-12006.395996,-86.863998,-935.496033,-343.063995,2800.000000,840.000000,0.000000
-32022.003176,-22148.812967,-34053.195602,22554.497129,-37797.224557,-14622.019484,-18848.063808,-32082.196424,-12735.554604,-28199.452543,-6218.501177,-29528.084937,49137.650327,-5827.189186,-14558.607585,-12022.846880,-83.447998,-935.496033,-341.112000,3360.000000,0.000000,-1820.000000
-32012.771906,-22141.034560,-34047.965294,22559.682734,-37789.401447,-14613.347007,-18841.335933,-32075.021514,-12727.150348,-28192.344688,-6214.120235,-29519.770088,49143.886464,-5827.680925,-14555.500693,-12018.577697,-78.080002,-935.984009,-341.112000,4340.000000,-840.000000,-3640.000000
-31992.789446,-22122.527316,-34032.117907,22572.646746,-37766.602667,-14589.430641,-18824.907401,-32053.854412,-12709.626580,-28174.195072,-6198.853993,-29502.648652,49164.539476,-5821.020105,-14552.751428,-12002.864421,-75.152000,-935.496033,-340.136017,4480.000000,-1820.000000,-4620.000000
-32000.791371,-22130.238668,-34040.298646,22569.048115,-37771.743568,-14595.823240,-18830.048302,-32057.229526,-12717.628505,-28183.247528,-6207.772339,-29510.963501,49160.449107,-5819.880166,-14556.260652,-12005.658389,-70.760002,-939.400024,-340.136017,4760.000000,-2520.000000,-5460.000000
-32018.002214,-22148.209470,-34059.297628,22555.435903,-37796.330487,-14623.718217,-18850.723666,-32080.542395,-12734.124092,-28205.018128,-6226.816026,-29528.487269,49140.041964,-5827.680925,-14564.217873,-12027.428988,-71.248001,-939.888000,-342.088013,4760.000000,-3080.000000,-5600.000000
-32017.197551,-22146.421331,-34060.683436,22557.425208,-37796.866929,-14626.758054,-18850.611907,-32082.375238,-12733.386485,-28206.381584,-6225.765494,-29526.989702,49139.416115,-5831.123094,-14566.140123,-12030.625287,-70.272003,-937.447998,-341.112000,5180.000000,-3500.000000,-5180.000000
-31996.790409,-22126.081243,-34042.578523,22576.245377,-37772.436472,-14603.467536,-18829.221288,-32061.163433,-12712.375845,-28188.254319,-6206.431235,-29507.074297,49159.242113,-5822.629431,-14558.898158,-12011.313380,-68.807999,-936.471985,-343.063995,5600.000000,-3640.000000,-4060.000000
-31998.511493,-22129.255191,-34043.874925,22577.407667,-37771.408292,-14603.400481,-18828.573087,-32062.884517,-12711.995865,-28188.746058,-6207.638229,-29509.756507,49155.107040,-5823.210576,-14558.607585,-12007.960618,-70.272003,-937.936035,-338.183990,5740.000000,-3500.000000,-2660.000000
-32018.896284,-22150.690514,-34063.097425,22562.923737,-37794.363534,-14629.149691,-18847.348553,-32089.036058,-12732.917098,-28207.655633,-6227.710095,-29530.431870,49132.196502,-5835.369925,-14564.441391,-12026.825491,-71.248001,-936.960022,-344.040009,6020.000000,-3360.000000,-1120.000000
-32019.835057,-22150.824624,-34064.773806,22562.141426,-37796.643412,-14632.904784,-18847.348553,-32095.518064,-12732.738284,-28211.321319,-6233.365087,-29530.342463,49130.676583,-5841.315489,-14563.994356,-12030.580584,-72.223999,-935.007996,-338.183990,6160.000000,-2800.000000,280.000000
-31994.979917,-22128.875211,-34045.305436,22577.765295,-37772.123548,-14606.216801,-18827.857831,-32072.361657,-12708.218421,-28190.042459,-6212.399150,-29508.102478,49155.241150,-5837.672155,-14558.115847,-12012.654485,-73.688004,-931.104004,-342.088013,6020.000000,-2100.000000,1680.000000
-31987.894414,-22127.042368,-34040.522163,22579.553435,-37766.736778,-14597.007882,-18822.895744,-32061.878689,-12703.122223,-28184.365116,-6207.235897,-29506.068469,49165.478249,-5836.062829,-14558.495827,-12005.591334,-77.592003,-933.544006,-343.552002,5180.000000,-1260.000000,3080.000000
-32010.380269,-22149.930555,-34059.610553,22564.734228,-37787.881528,-14621.348932,-18838.385503,-32081.838796,-12726.770368,-28202.022994,-6229.207662,-29528.800193,49143.797057,-5844.243567,-14559.144027,-12019.829395,-79.543999,-935.007996,-344.040009,4200.000000,-700.000000,4200.000000
-32017.376365,-22155.250270,-34065.310248,22563.057847,-37794.832920,-14632.211880,-18841.559451,-32090.332459,-12734.504072,-28209.220256,-6235.667316,-29533.583466,49132.867054,-5850.032669,-14552.751428,-12023.003343,-78.080002,-928.664001,-338.183990,2240.000000,-140.000000,4900.000000
-31996.142208,-22131.602124,-34047.182983,22582.101534,-37771.117720,-14610.441281,-18823.678055,-32072.652229,-12712.018217,-28191.316508,-6215.081360,-29512.438716,49150.457877,-5845.137637,-14543.855434,-12003.624380,-78.080002,-922.807983,-337.696014,700.000000,2520.000000,5600.000000
-31983.357010,-22120.068624,-34037.392919,22591.288101,-37759.405405,-14595.756185,-18814.379730,-32063.219793,-12696.371996,-28177.637241,-6201.312685,-29501.039326,49164.315959,-5837.850969,-14540.905004,-11991.397976,-91.744003,-933.544006,-334.279999,420.000000,5740.000000,3500.000000
-32001.350165,-22136.385397,-34051.787442,22581.386278,-37777.599725,-14615.001037,-18826.092044,-32078.083703,-12713.605191,-28191.517674,-6217.160072,-29517.311396,49150.904912,-5835.951070,-14538.267498,-12001.746834,-85.888000,-935.496033,-338.183990,-2660.000000,140.000000,4900.000000
-32014.403583,-22148.902374,-34062.918611,22572.713801,-37793.447112,-14632.837729,-18833.915154,-32091.494750,-12726.390389,-28201.665366,-6225.609031,-29527.637902,49136.577444,-5840.220253,-14537.216966,-12013.392092,-87.351997,-936.960022,-334.768005,-1680.000000,1260.000000,3920.000000
-31996.790409,-22130.976275,-34048.479384,22585.946034,-37772.682342,-14613.123490,-18814.536192,-32073.389837,-12709.246601,-28184.968613,-6209.582831,-29509.153010,49153.028328,-5835.124056,-14528.388027,-11998.729348,-92.232002,-934.520020,-336.231995,-1820.000000,280.000000,3080.000000
-31977.791426,-22115.888848,-34034.487192,22597.211313,-37753.549248,-14595.063280,-18797.414756,-32058.861203,-12691.476964,-28171.356400,-6195.881211,-29495.540797,49171.088537,-5826.831559,-14523.671809,-11984.558342,-87.840004,-936.960022,-337.696014,-2100.000000,-140.000000,1960.000000
-31986.150978,-22129.121081,-34044.321960,22587.689470,-37768.726083,-14611.558868,-18807.741261,-32077.033171,-12702.183450,-28181.660555,-6209.269906,-29508.907140,49159.957368,-5829.111436,-14529.706780,-11993.879019,-92.232002,-934.520020,-337.208008,-1680.000000,280.000000,0.000000
-32001.640737,-22146.488386,-34056.235439,22575.396010,-37788.350915,-14631.049589,-18823.678055,-32096.590948,-12717.114415,-28194.535159,-6226.212528,-29524.374548,49142.567711,-5837.135713,-14535.071198,-12008.184136,-89.792000,-934.520020,-337.696014,-1680.000000,140.000000,-2240.000000
-31990.755438,-22135.223107,-34046.154803,22585.856627,-37774.917516,-14616.699769,-18812.122203,-32081.257651,-12706.229115,-28185.460351,-6216.064837,-29513.958635,49152.469534,-5834.162931,-14528.164509,-11996.225953,-83.936005,-934.520020,-338.671997,-1120.000000,140.000000,-4200.000000
-31972.561118,-22118.749871,-34033.056680,22599.580598,-37757.505507,-14594.549190,-18796.900665,-32060.582287,-12688.258313,-28171.199938,-6200.239801,-29500.860512,49171.312055,-5829.804341,-14522.330704,-11978.366909,-87.351997,-931.591980,-338.671997,-840.000000,420.000000,-6020.000000
-31982.753513,-22131.266848,-34043.897276,22591.153990,-37772.391769,-14607.714368,-18809.305884,-32072.696933,-12699.188316,-28178.397200,-6210.655714,-29513.735117,49162.885447,-5833.626489,-14526.711646,-11988.045214,-82.472000,-933.056030,-338.183990,-560.000000,140.000000,-7280.000000
-32007.407487,-22154.445607,-34063.991495,22577.072391,-37793.648278,-14633.932964,-18830.249468,-32094.691049,-12724.088159,-28197.686755,-6229.967622,-29537.025635,49141.517179,-5841.404896,-14532.679562,-12005.256057,-80.520004,-931.591980,-341.112000,-560.000000,140.000000,-7980.000000
-32003.741801,-22148.812967,-34061.510451,22582.280348,-37787.769769,-14625.618115,-18824.817994,-32089.080762,-12717.606153,-28193.082296,-6225.318459,-29532.421176,49144.177037,-5840.913158,-14530.734960,-12001.635075,-79.543999,-930.127991,-344.528015,140.000000,-280.000000,-8260.000000
-31984.608708,-22126.684740,-34046.490079,22598.485362,-37764.255734,-14600.852382,-18805.729604,-32067.511328,-12694.986188,-28173.971555,-6208.733464,-29514.048042,49162.728985,-5833.425323,-14524.923506,-11985.675929,-76.615997,-931.104004,-341.112000,560.000000,-280.000000,-7840.000000
-31992.364763,-22131.847993,-34051.385111,22595.177304,-37766.826185,-14606.909705,-18808.948256,-32070.752331,-12700.797641,-28178.151331,-6214.187290,-29521.692338,49159.733851,-5833.470027,-14527.516309,-11987.218200,-73.200005,-929.152039,-341.600006,1260.000000,-700.000000,-7140.000000
-32013.107182,-22152.277488,-34068.595954,22580.469856,-37789.960240,-14631.943659,-18824.281552,-32094.109904,-12719.081368,-28195.205712,-6233.432142,-29540.668969,49139.974909,-5837.940376,-14533.014838,-12001.813889,-73.200005,-930.127991,-340.623993,1400.000000,-840.000000,-6160.000000
-32012.369575,-22151.673991,-34067.970105,22579.665194,-37789.401447,-14629.283801,-18820.593515,-32093.975794,-12717.404988,-28194.803380,-6232.471017,-29539.640789,49139.661984,-5837.918024,-14530.913774,-11997.902333,-73.688004,-934.520020,-339.160004,1680.000000,-700.000000,-4760.000000
-31992.521226,-22132.764415,-34051.586276,22593.657386,-37768.994304,-14603.534592,-18801.706290,-32073.568651,-12696.863734,-28176.609060,-6214.634325,-29521.826449,49161.633749,-5832.173625,-14523.537698,-11981.138525,-71.248001,-935.007996,-338.183990,2240.000000,-700.000000,-3080.000000
-31990.353106,-22131.959752,-34049.395806,22595.937263,-37768.614324,-14601.120603,-18801.393366,-32074.060389,-12695.656740,-28173.233947,-6213.874366,-29520.887675,49164.070089,-5829.759637,-14523.023608,-11983.865438,-69.784004,-934.520020,-341.600006,2800.000000,-840.000000,-1820.000000
-32013.531865,-22152.858633,-34066.651352,22581.967423,-37790.876662,-14627.093330,-18821.286419,-32093.439352,-12719.550755,-28192.702316,-6236.092000,-29541.160708,49139.013784,-5836.509864,-14531.472567,-12002.953828,-72.711998,-935.984009,-343.552002,2940.000000,-700.000000,-560.000000
-32016.236426,-22152.903337,-34065.779634,22579.575787,-37792.173063,-14633.508281,-18827.522555,-32096.345079,-12719.640162,-28192.277633,-6239.198892,-29541.831260,49136.376278,-5838.588576,-14535.138254,-12005.837203,-75.152000,-935.984009,-343.063995,3780.000000,-700.000000,420.000000
-31997.282147,-22133.345560,-34048.769957,22594.350290,-37769.351932,-14610.284818,-18810.311712,-32075.334439,-12699.724758,-28175.759694,-6223.753837,-29523.659292,49160.069127,-5833.179454,-14527.963344,-11986.994682,-72.223999,-934.031982,-342.575989,4200.000000,-420.000000,1400.000000
-31993.638813,-22131.937400,-34046.199506,22598.418307,-37762.534650,-14603.020501,-18805.394328,-32067.354866,-12699.165964,-28174.239775,-6222.703305,-29521.602931,49165.746470,-5830.609003,-14523.872974,-11977.718708,-76.127998,-935.007996,-339.648010,4340.000000,-560.000000,2100.000000
-32014.492990,-22156.412561,-34066.785463,22581.118057,-37786.071037,-14628.769711,-18826.404968,-32089.617203,-12723.037627,-28194.624566,-6242.641061,-29543.954676,49142.612415,-5836.643974,-14531.181995,-11996.337711,-78.568001,-932.080017,-342.088013,4340.000000,-980.000000,2240.000000
-32019.410374,-22164.369782,-34076.374361,22575.865397,-37795.503473,-14640.459673,-18832.819919,-32098.647308,-12730.391351,-28202.715898,-6251.939386,-29552.783615,49131.436542,-5839.616756,-14529.684428,-12008.787633,-76.615997,-932.567993,-342.575989,4060.000000,-980.000000,2240.000000
-31997.684478,-22145.013171,-34058.940000,22591.757487,-37775.476310,-14618.309095,-18812.837459,-32075.960288,-12709.917153,-28188.187264,-6236.851959,-29535.908048,49150.100249,-5835.571091,-14519.357922,-11994.169592,-79.543999,-933.056030,-341.112000,3920.000000,-840.000000,1680.000000
-31989.794313,-22139.313476,-34050.222820,22598.418307,-37765.798004,-14606.395615,-18803.807354,-32065.119692,-12702.518726,-28182.241700,-6232.918052,-29529.046062,49161.723156,-5832.508902,-14516.318085,-11987.285255,-80.520004,-934.520020,-341.600006,3920.000000,-1120.000000,1400.000000
-32009.083868,-22158.267755,-34067.165442,22586.616586,-37784.215842,-14627.339199,-18818.984189,-32085.906814,-12718.746092,-28195.563340,-6252.565235,-29544.379359,49145.160514,-5839.214425,-14519.894364,-12003.356159,-82.472000,-931.104004,-342.088013,3780.000000,-1260.000000,980.000000
-32022.204342,-22168.773075,-34078.050742,22579.039345,-37795.056438,-14640.504377,-18829.556564,-32099.161398,-12727.955011,-28205.643976,-6264.210494,-29552.247173,49133.828179,-5845.629376,-14522.263649,-12011.961581,-84.424004,-935.984009,-336.720001,3780.000000,-980.000000,280.000000
-32002.959490,-22149.036485,-34061.443396,22592.003356,-37776.124510,-14619.896069,-18816.234924,-32083.783398,-12704.172755,-28188.813113,-6244.742125,-29533.091728,49149.049717,-5843.014222,-14517.748596,-11996.382415,-81.984001,-939.400024,-334.768005,3080.000000,-560.000000,-420.000000
-31988.564967,-22136.094825,-34047.697073,22600.541723,-37762.557001,-14602.215839,-18803.315616,-32068.092474,-12688.660644,-28178.643069,-6232.694534,-29522.944036,49162.058432,-5837.605099,-14515.871050,-11983.306644,-81.008003,-938.424011,-343.552002,2380.000000,-420.000000,-840.000000
-32006.826342,-22156.814892,-34063.186832,22587.756525,-37781.801853,-14623.092368,-18817.598381,-32083.559881,-12709.783043,-28195.518636,-6252.319366,-29542.457109,49145.160514,-5842.656594,-14524.431768,-11999.064624,-81.984001,-940.376038,-335.256012,1820.000000,140.000000,-1260.000000
-32027.300540,-22176.998517,-34081.559966,22573.205539,-37801.381982,-14648.573357,-18834.004561,-32105.643404,-12731.799511,-28211.678947,-6270.580741,-29561.478443,49126.921490,-5852.200789,-14531.964306,-12015.180232,-83.936005,-939.888000,-336.231995,1540.000000,420.000000,-1540.000000
-32013.598921,-22164.570947,-34070.875832,22583.643804,-37785.333429,-14636.749284,-18822.359302,-32094.400477,-12715.996828,-28197.530293,-6259.159000,-29547.754472,49138.611452,-5852.021975,-14525.772873,-12005.613685,-83.936005,-941.840027,-336.720001,1400.000000,280.000000,-1540.000000
-31993.348240,-22145.527261,-34052.726215,22598.820639,-37763.294609,-14610.955371,-18802.667415,-32073.859224,-12694.002711,-28176.631412,-6242.462247,-29529.046062,49159.666796,-5847.015184,-14517.882707,-11990.973293,-80.520004,-938.911987,-340.623993,1680.000000,140.000000,-1120.000000
-32000.701964,-22153.417427,-34059.409387,22592.226874,-37772.503528,-14620.387807,-18807.741261,-32080.609450,-12701.714063,-28179.939470,-6248.899549,-29537.159745,49153.810639,-5846.612852,-14518.575611,-11998.751700,-82.959999,-938.911987,-343.063995,1540.000000,-140.000000,-840.000000
-32019.522133,-22173.019907,-34074.809739,22579.173455,-37795.056438,-14647.098142,-18825.399140,-32098.200273,-12720.400121,-28194.512808,-6262.936445,-29554.325885,49131.637708,-5852.513713,-14522.420111,-12014.800252,-78.080002,-933.544006,-345.992004,420.000000,-560.000000,-840.000000
-32013.665976,-22167.141398,-34068.797120,22585.856627,-37786.875699,-14639.565604,-18819.095948,-32089.080762,-12714.141633,-28186.823808,-6253.928692,-29547.128623,49136.420981,-5850.703222,-14519.380274,-12007.714749,-75.152000,-930.616028,-345.015991,0.000000,-1260.000000,-1260.000000
-31993.012964,-22145.929592,-34050.848669,22602.061641,-37761.729987,-14611.760034,-18799.985206,-32064.739712,-12692.728662,-28165.187319,-6235.175578,-29528.241399,49158.258636,-5841.673117,-14509.858431,-11987.262903,-72.711998,-932.080017,-340.623993,0.000000,-1400.000000,-1540.000000
-31995.158731,-22149.349409,-34053.061492,22601.189923,-37764.389844,-14616.833880,-18801.706290,-32066.818424,-12695.030891,-28167.154272,-6241.501122,-29533.047024,49154.458839,-5841.740172,-14507.824422,-11989.565133,-70.760002,-935.984009,-335.744019,-700.000000,420.000000,-1820.000000
-32014.224769,-22171.499988,-34068.797120,22585.968385,-37787.926231,-14641.040819,-18819.699445,-32088.544320,-12717.606153,-28184.432171,-6260.410698,-29553.543574,49132.688240,-5849.764448,-14513.345303,-12006.463052,-69.295998,-938.911987,-337.696014,-1400.000000,-980.000000,-3080.000000
-32012.034298,-22171.231767,-34067.344256,22587.912987,-37783.210013,-14639.990287,-18815.452613,-32088.432561,-12717.427339,-28182.465217,-6258.756668,-29551.397807,49132.554130,-5847.126943,-14511.735977,-12004.250229,-70.760002,-936.960022,-339.160004,-1960.000000,-2800.000000,-1960.000000
-31986.218034,-22147.896546,-34050.423986,22604.587389,-37757.036121,-14615.425720,-18793.592607,-32068.740674,-12693.041586,-28163.488586,-6239.981203,-29530.744795,49153.005976,-5836.845140,-14501.856506,-11988.022862,-73.200005,-936.960022,-336.231995,-1400.000000,-700.000000,-1400.000000
-31980.808911,-22143.068569,-34048.792308,22608.007205,-37751.694054,-14608.586086,-18787.982319,-32066.192575,-12688.235961,-28160.202880,-6236.986069,-29528.084937,49156.649310,-5829.536120,-14493.899285,-11984.670101,-76.615997,-937.447998,-340.623993,-1400.000000,-980.000000,420.000000
-31999.405563,-22160.994668,-34064.304419,22595.222008,-37772.302362,-14630.423740,-18804.008520,-32089.438389,-12708.285476,-28175.066790,-6256.454439,-29545.519298,49139.594929,-5831.324259,-14495.419204,-12002.193868,-81.496002,-936.960022,-344.040009,-1400.000000,-140.000000,1820.000000
-31999.025583,-22161.508758,-34064.639695,22595.400822,-37773.598763,-14635.832862,-18803.248561,-32093.662869,-12710.095967,-28173.725685,-6260.120125,-29545.295780,49135.795133,-5832.039515,-14491.217076,-12005.501927,-84.424004,-936.960022,-342.575989,-1120.000000,560.000000,2940.000000
-31974.818644,-22139.872270,-34045.148974,22613.639845,-37745.882600,-14611.491813,-18781.075630,-32068.986543,-12685.844324,-28152.245659,-6237.611918,-29523.547533,49157.833953,-5825.356343,-14480.778811,-11985.161839,-87.351997,-937.936035,-344.528015,-980.000000,1120.000000,3360.000000
-31969.051894,-22131.736235,-34040.142183,22622.625246,-37735.980777,-14602.372301,-18772.827837,-32060.247011,-12677.529475,-28149.406987,-6232.471017,-29519.568922,49162.170191,-5819.656649,-14475.146171,-11975.483534,-86.375999,-938.424011,-341.112000,-1260.000000,1820.000000,3080.000000
-31989.347278,-22153.305668,-34058.269448,22609.661235,-37756.589086,-14626.288667,-18791.759764,-32082.799921,-12699.590647,-28169.590613,-6251.134724,-29539.484327,49141.517179,-5822.316506,-14479.393003,-11991.867362,-86.375999,-936.960022,-341.600006,-1400.000000,2100.000000,2380.000000
-31997.349202,-22163.118084,-34068.663009,22602.195752,-37767.384978,-14637.531595,-18802.890933,-32096.903872,-12706.586743,-28176.430246,-6255.672128,-29547.866231,49132.397667,-5826.988021,-14484.265683,-12002.305627,-82.959999,-936.960022,-341.112000,-1260.000000,1680.000000,1540.000000
-31979.065475,-22145.706075,-34055.497832,22615.405633,-37748.721272,-14617.057397,-18788.742279,-32079.044828,-12684.078537,-28159.487624,-6238.081305,-29530.588332,49150.212008,-5824.909309,-14482.946930,-11987.776993,-82.959999,-935.007996,-338.183990,-1260.000000,980.000000,560.000000
-31967.777844,-22133.323208,-34045.305436,22625.083938,-37734.237341,-14601.701749,-18774.928901,-32060.738750,-12672.522685,-28150.502223,-6230.280546,-29519.770088,49164.628883,-5820.416608,-14477.426049,-11974.410650,-82.472000,-933.056030,-340.136017,-840.000000,140.000000,-560.000000
-31984.228728,-22145.594316,-34059.409387,22615.606799,-37749.995321,-14621.885374,-18787.602340,-32080.318878,-12691.298150,-28165.544947,-6248.944253,-29537.875001,49149.876732,-5824.126997,-14478.141305,-11983.776031,-79.543999,-932.567993,-337.208008,-560.000000,-420.000000,-1680.000000
-31997.438609,-22155.004401,-34070.428797,22608.342482,-37762.691112,-14637.621002,-18799.873447,-32099.943709,-12706.005598,-28176.743171,-6263.092907,-29550.771958,49137.002127,-5827.412704,-14478.007195,-11990.392147,-78.080002,-933.056030,-340.623993,-560.000000,-980.000000,-2660.000000
-31981.121836,-22136.385397,-34055.631942,22621.082976,-37744.921475,-14617.727949,-18786.507104,-32086.286794,-12689.510010,-28159.085293,-6249.301881,-29533.181135,49152.134258,-5821.109512,-14472.978052,-11974.656519,-79.056000,-932.567993,-341.600006,-420.000000,-1400.000000,-3500.000000
-31963.285144,-22119.845107,-34041.840916,22633.264677,-37730.303434,-14598.438394,-18773.945424,-32068.807729,-12670.689842,-28144.109624,-6236.069648,-29517.378452,49169.792136,-5812.593497,-14472.799238,-11959.233816,-78.080002,-932.080017,-343.063995,-280.000000,-1820.000000,-3920.000000
-31980.004249,-22135.625438,-34055.497832,22622.200563,-37748.497754,-14618.711426,-18789.971625,-32084.453950,-12690.091156,-28161.275764,-6250.866503,-29532.488231,49155.576426,-5816.303887,-14482.008157,-11972.622511,-78.568001,-933.056030,-345.015991,280.000000,-2380.000000,-3920.000000
-32003.853560,-22158.334811,-34073.043951,22608.096612,-37769.195470,-14641.487854,-18805.483735,-32104.682279,-12715.370979,-28182.062886,-6269.217285,-29552.649504,49136.353926,-5825.848082,-14485.472677,-11989.833354,-77.104004,-935.007996,-345.992004,840.000000,-2800.000000,-3780.000000
-31988.073228,-22142.465072,-34064.527937,22620.635941,-37754.711539,-14627.607420,-18790.843343,-32091.830026,-12694.762670,-28168.853005,-6257.773192,-29539.104347,49147.507447,-5825.266936,-14475.481448,-11979.506848,-74.176003,-934.031982,-342.575989,1680.000000,-2380.000000,-3500.000000
-31966.056760,-22122.884944,-34050.558096,22635.924534,-37733.007995,-14605.345083,-18774.057183,-32072.406360,-12670.667490,-28150.502223,-6241.791694,-29521.714690,49165.746470,-5820.997753,-14469.401773,-11964.754696,-73.688004,-933.544006,-340.136017,2520.000000,-2100.000000,-3080.000000
-31976.517376,-22134.194927,-34062.672742,22630.336598,-37745.882600,-14617.839708,-18781.723831,-32082.464645,-12683.206818,-28161.387522,-6255.135686,-29532.667045,49152.894217,-5822.115340,-14469.491180,-11974.500057,-73.688004,-932.080017,-340.623993,2800.000000,-2100.000000,-2520.000000
-31996.008098,-22153.193909,-34078.296611,22616.120889,-37769.418987,-14639.856176,-18799.538171,-32104.011727,-12705.022121,-28178.330145,-6272.547695,-29550.593144,49131.213025,-5829.089085,-14471.279320,-11989.609836,-73.688004,-932.567993,-340.623993,3220.000000,-1820.000000,-1540.000000
-31983.804045,-22141.839223,-34066.964277,22622.491136,-37758.712501,-14626.132205,-18789.971625,-32096.076858,-12692.259275,-28164.740284,-6260.656567,-29539.551382,49141.003089,-5828.016201,-14466.965433,-11977.338729,-73.200005,-931.591980,-343.552002,3080.000000,-1540.000000,-420.000000
-31966.414388,-22122.884944,-34047.317093,22637.064473,-37735.265521,-14601.969970,-18771.374973,-32073.792168,-12673.416754,-28147.641200,-6241.635232,-29520.619454,49162.259598,-5823.344686,-14464.149113,-11958.116228,-76.127998,-933.056030,-338.183990,3080.000000,-1540.000000,840.000000
-31977.769074,-22134.373740,-34053.173250,22632.504717,-37741.680472,-14606.954409,-18777.342889,-32076.630840,-12686.604284,-28157.051284,-6248.251349,-29530.387167,49157.386918,-5827.144483,-14466.853674,-11959.055002,-79.056000,-932.567993,-343.552002,3080.000000,-1680.000000,1960.000000
-32000.858426,-22158.826549,-34073.602745,22615.159764,-37767.317923,-14634.715275,-18799.649930,-32104.458762,-12710.073615,-28175.737342,-6267.339738,-29553.253001,49135.012822,-5837.426285,-14478.923616,-11980.870304,-78.568001,-933.056030,-340.623993,2940.000000,-1540.000000,2940.000000
-31991.873025,-22153.149206,-34068.886527,22615.629150,-37763.719292,-14633.932964,-18798.644101,-32105.755163,-12699.702406,-28168.987116,-6260.343642,-29546.905106,49137.493865,-5837.538044,-14481.248198,-11983.351348,-78.080002,-935.496033,-341.112000,3360.000000,-1260.000000,3220.000000
-31966.660257,-22129.970447,-34048.546439,22632.147089,-37737.165420,-14604.652179,-18774.504217,-32079.134235,-12675.227246,-28148.490566,-6239.735334,-29526.028577,49160.270293,-5828.016201,-14466.808971,-11964.106496,-80.031998,-930.616028,-342.575989,3360.000000,-1120.000000,3360.000000
