1.94151,3.25959,1.40967,3.3602,1.54908,1.87195,2.94713,-2.42205,1.30671,0.513039,0.507066,5.05705,-1.38004,1.36673,4.47628,0.870231,-283.528,-805.688,-518.744,-280,-1540,-840
2.11963,6.68915,-1.24622,5.33445,0.397233,0.998615,0.572344,-4.92092,6.2315,-1.85766,1.19716,3.76984,-3.59901,1.6064,2.73112,-1.56998,-282.064,-805.2,-521.184,-700,-1820,-840
4.74458,8.32429,0.75085,4.44618,-0.00964369,-0.322546,-2.11182,-5.22617,12.2548,2.04065,1.03418,3.09693,-2.34085,0.322547,-0.085062,-1.14812,-281.088,-806.664,-521.672,-700,-1540,-700
2.74322,-2.36132,-3.61781,-3.83838,-6.68354,-1.31923,-7.88849,-7.96147,5.50269,0.0692672,0.0266666,-2.40184,-1.44294,-2.57013,-8.89507,-5.32833,-281.088,-804.712,-520.208,-700,-1260,-700
2.25767,-3.20858,-0.139505,-1.23706,-2.44521,-0.137971,-5.01229,-6.19546,0.504976,0.816146,-0.213314,0.629171,1.10554,-2.39866,-6.79617,-1.89792,-281.088,-805.2,-520.696,-840,-1540,-420
-4.61067,-3.32348,1.12277,-0.220923,1.11278,-0.538856,-1.54934,-2.60205,-8.06727,-1.36148,-3.05825,-1.11882,0.892839,-1.92796,-2.6172,1.86544,-280.112,-807.64,-519.232,-1120,-1260,-280
-8.38813,-3.73445,-1.90054,0.595699,-1.38448,-0.416014,1.21315,-1.99456,-9.95103,-4.74451,-3.92917,-5.33766,-0.536945,-1.74408,0.741545,2.23593,-282.552,-808.128,-519.72,-980,-1540,-140
-9.40827,-1.9858,0.788796,1.84143,1.4659,0.218714,3.91013,2.56693,-9.89489,-3.84214,-2.86822,-3.986,0.237486,-1.24542,4.53039,5.72219,-281.088,-807.152,-520.208,-840,-2240,-140
-6.56095,-3.39117,0.203494,-1.29869,-0.342148,-0.53184,2.71789,4.02824,-8.39256,-4.12921,-2.52263,-4.35854,-1.55496,-0.574221,1.14486,5.00804,-278.16,-810.568,-520.696,-980,-3080,0
-1.54838,-2.23912,0.767914,-0.649744,-0.271696,-0.519188,2.44845,6.27021,-3.67831,-2.99846,-1.56106,-3.14564,-0.0247045,-0.594635,2.78926,6.72415,-279.136,-810.568,-525.088,-700,-3640,0
-1.12632,-3.08442,1.76023,-0.953152,-0.0707709,-0.290973,1.37284,6.87039,-4.59063,-0.407025,-1.96583,-3.47107,0.485249,-1.30338,3.57129,4.71729,-280.6,-811.544,-525.088,-280,-4340,-140
-0.513261,-0.988738,1.54691,-1.43574,1.59044,-0.883593,1.7433,2.93694,-2.31243,2.0086,-0.411474,-0.47025,-0.8356,-1.93142,2.84623,2.62599,-281.088,-812.52,-523.136,0,-5040,-280
2.05365,2.25239,-0.697395,-1.64719,3.25268,-1.40432,1.57396,-2.09615,4.68274,3.59372,0.475452,0.989368,-0.712156,1.04401,0.563457,-1.1335,-282.552,-812.032,-520.696,280,-5320,-420
9.4869,9.76909,-0.166917,1.78637,4.97916,0.247933,3.28434,-1.95737,13.614,8.57176,2.30462,4.97098,2.24818,2.79681,0.808957,-2.27918,-280.6,-811.544,-521.184,840,-5600,-420
8.48078,5.38082,-3.35525,1.5499,2.49091,1.10148,1.92623,-1.86516,10.9275,5.31252,3.05232,5.49697,3.37385,2.52629,1.0178,-1.73674,-281.088,-810.568,-520.696,1260,-5460,-560
3.82635,0.588845,-0.993916,0.665893,4.76369,1.40901,3.14303,3.37891,3.77779,3.01644,-0.468996,2.75264,2.04278,0.783082,2.1916,1.19993,-282.064,-811.056,-521.184,1680,-5600,-700
-1.23399,-7.28633,-2.41924,-1.87596,-0.558424,0.574194,1.06301,1.88382,0.468497,-2.47448,-1.11701,-2.48567,-1.50533,-2.07412,0.819527,-1.32812,-283.04,-806.664,-519.232,1820,-4900,-980
2.54363,0.405823,4.7602,7.50648,4.34914,2.47239,4.78744,6.80388,5.53919,1.26165,1.1101,2.205,0.271597,0.88375,5.4778,1.86671,-283.04,-805.688,-516.304,1960,-4480,-840
2.44179,-2.56502,1.39637,2.59645,-2.13909,0.429471,-0.448412,4.03619,1.57639,-0.962362,1.40686,-0.860324,-0.940629,0.476797,-1.23217,-4.02892,-280.6,-802.76,-517.768,1820,-3780,-560
2.54706,4.36808,5.99013,5.15902,3.80688,1.93682,2.78464,8.23823,0.356419,1.62063,1.4909,4.48234,1.2978,3.40036,1.17276,2.56674,-282.552,-801.784,-519.72,1680,-3220,-280
-2.3026,2.81559,4.16042,3.27879,-0.561412,0.493063,1.05684,3.56703,-3.8263,-1.98204,-0.0443062,2.11883,1.24707,1.61764,1.03246,2.30298,-279.624,-800.32,-518.256,1120,-2660,140
-3.29503,1.2304,1.60297,1.96017,-2.65444,-0.713779,-2.19368,-2.20794,-3.06514,-3.83016,-0.124043,-0.0764347,1.82132,2.97219,-0.485883,1.24944,-280.6,-800.808,-516.792,980,-2100,420
-3.38954,-1.12778,1.34135,-1.62303,-3.01808,0.253888,-6.75503,-4.08979,-4.4199,-3.4265,0.39397,0.344067,1.58762,1.91806,-3.9253,0.58573,-281.088,-801.296,-519.232,280,-1680,1120
-4.58254,-4.73913,0.678373,-3.67596,-3.64876,-2.016e-05,-8.48704,-4.85809,-7.23701,-3.15798,0.474043,-2.16303,0.819382,-0.0427729,-5.25735,-1.21056,-286.456,-801.296,-517.768,0,-980,1400
-4.10772,-2.33923,-2.61402,-0.228817,-1.47293,1.74428,-4.23692,-3.39096,-4.72917,-3.68679,0.294372,-1.61728,1.67791,-0.626739,-1.00472,1.30027,-288.896,-802.76,-518.256,-420,-280,1820
-0.191014,2.6586,-2.80438,-0.870292,3.5691,1.26907,-2.06898,-2.04266,-0.708489,2.28147,-0.252849,-1.49467,1.6303,-0.633298,-1.22483,0.666042,-288.896,-803.736,-520.696,-840,560,2380
-1.55672,-3.56073,-6.82137,-7.9492,-2.05343,-0.176216,-2.81552,-4.99473,-2.30795,-0.874296,-0.56823,-4.47145,-0.73792,-3.1034,-3.71949,-4.59004,-291.824,-804.224,-520.696,-1120,1540,2660
-1.26683,-3.94758,-3.96164,-5.24861,-0.494169,0.0875639,0.690843,-1.67613,-2.58217,0.645651,1.299,-1.28021,0.10285,-1.80371,0.44145,-2.89279,-294.264,-803.248,-519.232,-1540,2240,2660
-2.80514,-4.00882,-6.0196,-5.0046,-2.50129,-0.748021,-0.0607512,-0.539819,-3.87386,-1.26029,-1.06334,-2.63695,-2.77119,-2.83057,-0.0293303,-4.62837,-296.216,-802.76,-521.184,-1820,3080,2660
-2.2069,-4.20472,-8.18951,-6.87356,-6.26513,-1.1873,-5.13458,-2.28024,-1.40417,-0.864747,-1.24735,-3.59244,-4.27533,-5.45574,-4.6293,-8.03096,-296.704,-805.2,-521.184,-2100,3500,2520
0.76817,0.10362,-3.89271,-5.13615,-3.59944,-2.28736,-5.07948,-2.99618,2.94654,0.959143,-0.606501,-1.74849,-3.05833,-4.34848,-5.11511,-8.65455,-299.632,-804.712,-520.208,-2240,4340,2380
1.15866,0.358786,-3.51001,-4.16771,-6.68449,-1.93994,-1.36054,-7.08507,4.28026,-2.06661,-0.908078,-0.817029,-3.9324,-1.0818,-3.83723,-9.63866,-297.192,-802.272,-520.696,-2100,4340,2240
7.49177,11.8013,6.50004,10.6334,4.42747,1.68735,9.88195,-0.962821,11.15,4.79561,3.44193,10.263,0.5193,5.16159,8.33218,0.0987289,-296.216,-800.808,-520.208,-2380,4340,1680
2.41494,2.96995,4.40645,5.52919,-0.885447,-1.16295,4.68534,-4.09758,4.20341,1.06821,1.20393,5.60619,-3.35548,2.77882,3.7786,-3.47618,-296.216,-801.784,-520.696,-2240,4200,1260
1.82706,3.04767,7.15311,1.01859,0.714467,-1.85133,3.31983,0.783376,4.65355,3.11497,0.712785,3.53061,-2.91223,0.756601,0.74834,0.115429,-293.288,-800.32,-520.208,-1960,3500,700
2.02714,3.84337,6.99257,1.3867,1.99115,-0.618617,2.09755,4.51714,3.5892,3.64292,0.532007,1.25124,-0.68991,1.89702,0.0942986,2.28133,-293.776,-797.88,-521.672,-1820,2660,0
4.36326,7.09466,8.61498,8.25244,5.22651,0.63658,4.71705,5.71931,4.74521,2.36747,1.92196,2.11195,3.32696,3.9749,7.75726,4.29209,-287.92,-798.856,-521.672,-1540,2100,-560
5.51684,8.54624,8.51884,11.9861,7.53866,-0.160159,6.14488,5.74004,3.96793,2.88181,2.33594,4.07085,5.10782,4.11902,11.7097,6.71979,-288.896,-799.344,-519.232,-1120,1400,-1400
3.36625,4.58854,4.84376,8.39638,5.25655,-1.17325,2.75342,5.60931,0.11013,2.36843,0.926171,1.78477,3.70725,3.78869,6.20168,6.35822,-285.48,-798.856,-520.696,-980,840,-1960
-0.831787,-2.17333,-2.06043,0.505762,0.111227,-2.15862,-2.37388,2.62497,-2.95753,-0.749141,-0.315816,-3.81333,0.994543,0.665216,-0.494597,4.10968,-284.992,-796.904,-525.088,-980,140,-2660
1.02041,0.541697,-3.4782,-0.2694,4.25941,-2.01624,-1.5794,4.42349,-1.53807,3.06541,-1.61958,-3.15855,0.765056,-0.944876,-0.471764,6.97603,-282.552,-799.832,-518.744,-700,-280,-3500
-2.2755,-6.94765,-7.93624,-5.98247,-3.96332,-2.43017,-2.46894,1.41158,-3.28422,-1.60131,-4.08245,-5.7327,0.0622941,-3.14845,-2.90858,4.59259,-281.576,-797.88,-521.184,-700,-700,-3920
-3.98775,-3.40367,-2.24714,-1.78854,-0.176827,0.711648,1.09866,3.91312,-4.00419,-0.785239,-4.84479,-1.02866,1.9934,-1.15295,-2.07173,8.32618,-281.088,-798.368,-523.136,-700,-980,-4340
-5.34008,-4.24801,-2.15543,-2.17773,-0.0918464,2.24662,-0.0607209,-0.0472664,-5.5142,-4.63882,-4.16821,-2.24874,0.317345,-0.923289,-5.35593,4.80159,-281.088,-800.808,-523.624,-840,-1260,-4760
-4.0833,-2.3633,-0.674515,-3.19629,2.54052,2.79965,-1.0705,-1.39836,-3.44595,-2.27292,-1.90219,-2.04442,-2.13467,-2.04383,-7.46098,2.0041,-279.624,-802.272,-522.16,-840,-1260,-5040
-1.97413,-4.80861,-1.66991,-8.6423,-0.715364,2.34223,-7.23209,-5.4419,-3.00142,-2.2061,1.48448,-3.13725,-2.8499,-3.37583,-13.4888,-3.00184,-277.184,-802.272,-524.6,-980,-1400,-5180
0.775151,-4.81639,-1.09374,-7.3744,-2.73703,3.61917,-5.39518,-5.88318,-1.6885,-1.79681,2.56067,-1.64806,-1.709,-2.3218,-9.99954,-1.66635,-275.72,-802.272,-527.528,-1260,-1540,-5320
-1.72009,-5.4659,-1.02375,-3.50936,-2.0641,3.3948,-0.166513,-1.77207,-5.60454,-2.80502,0.623856,-0.602708,-0.251793,-1.93557,-1.75709,1.92007,-273.768,-802.272,-526.552,-1400,-1540,-5040
-8.7407,-9.21759,-2.34467,-5.50978,-5.97642,1.32915,-2.29656,-1.40585,-11.0454,-4.87019,-2.84061,-4.08676,-1.19884,-2.99474,-1.37718,-1.38605,-275.232,-806.664,-526.552,-1680,-1820,-4900
-9.46198,-7.54976,-4.48985,-4.60414,-7.6926,-0.0178808,-2.02056,-3.23018,-8.15479,-6.38815,-2.2451,-4.69227,-1.34341,-3.51152,1.02483,-4.04637,-275.72,-805.688,-521.184,-1680,-2100,-4620
-2.57178,-1.71901,-2.74052,-1.41644,-2.32965,-0.825384,-0.0568278,-1.70314,-0.531266,-2.17597,0.120981,-0.813856,0.167111,-1.14827,3.47602,-5.92684,-273.28,-808.128,-523.136,-2100,-2240,-4060
3.40174,1.86875,-2.18687,1.44337,-0.146123,-0.651046,2.09448,-1.26874,6.0001,-0.0967002,1.13099,3.09092,1.12938,0.342717,6.00644,-6.72648,-274.256,-809.592,-524.6,-2100,-2660,-3500
1.78023,2.77999,-1.32903,2.42924,0.986898,-0.951628,2.92801,-0.703218,3.2041,1.41761,0.625816,3.606,1.05531,0.876608,6.03889,-3.44438,-271.328,-808.128,-526.064,-1820,-2800,-2940
3.47654,4.94774,0.473151,5.32105,2.56568,0.57134,4.37992,-0.685849,5.59952,2.02064,2.41494,4.73149,2.13081,2.37562,7.83073,0.36033,-272.792,-808.128,-522.648,-1960,-3080,-2240
6.42867,4.84355,-0.671462,4.04439,2.82636,-0.824155,0.401379,-2.68122,8.67311,1.77413,2.80861,4.10577,2.33261,3.02111,4.54582,-0.218598,-274.256,-809.104,-524.6,-1960,-3220,-1540
4.99089,4.28182,0.946932,1.88198,4.72609,-1.43732,-1.52513,0.412089,5.06588,2.84259,2.81268,1.70086,2.28958,2.44728,2.44108,0.561553,-276.208,-810.568,-524.6,-1680,-3640,-700
2.13751,-2.06106,-0.370871,-1.6491,-1.26377,-2.3474,-2.76469,-1.25365,1.60356,0.816079,3.06566,-2.01687,1.75614,0.791913,-0.538759,-1.86843,-276.208,-809.592,-525.576,-1260,-3640,-140
5.30274,5.90137,6.77381,6.014,5.48405,-0.251759,3.01986,3.41527,7.73105,6.72505,3.40631,5.33824,2.74439,3.09508,4.4765,2.82336,-276.208,-808.128,-525.576,-980,-4060,700
2.91985,2.47021,6.79222,4.07933,2.09481,-0.339431,2.19519,0.441729,4.2606,3.44372,1.38267,3.98957,-0.284486,2.94452,1.84947,1.37543,-275.72,-808.616,-526.064,-840,-4060,1120
3.85344,3.65997,7.04669,6.95377,1.79455,0.471594,5.42372,3.53229,4.5096,4.13203,1.19119,6.63933,-1.20733,3.82925,2.90304,3.49595,-274.744,-807.152,-527.04,-280,-4200,1960
0.380369,1.39731,4.10162,6.08887,-0.288388,0.0322454,4.70518,4.75539,-0.570259,2.03527,-1.12307,3.4013,-3.06799,2.34282,1.3983,0.736774,-277.672,-805.2,-525.576,280,-4340,2520
-3.37746,-1.60771,-1.51394,1.38766,-3.80304,-1.87233,1.23702,3.41121,-7.13418,-2.9706,-3.99503,-1.60654,-3.08946,-2.3706,-4.81032,-3.30362,-277.184,-805.2,-526.552,560,-4340,2940
-1.65819,-3.88698,-4.17808,-2.37044,-5.79402,-1.04022,-1.53973,2.66663,-5.78061,-1.17772,-2.41823,-3.70429,-1.14504,-1.87863,-6.51027,-4.32589,-279.136,-802.272,-526.064,560,-4200,3360
-1.0328,0.385469,-2.26874,0.0574141,-2.12037,-1.15112,-2.10015,1.96985,-1.53745,0.326808,-3.17973,-2.46067,-1.59319,-0.890008,-4.57014,-2.86497,-279.624,-801.784,-525.088,840,-4060,3360
0.553774,4.72411,-0.439025,4.40614,0.459656,-0.0107464,-1.63407,0.505174,7.10411,-0.213025,-1.48031,-0.0451359,-1.38351,0.0326784,0.0481885,-1.51884,-281.576,-798.856,-526.552,1120,-3920,3640
1.74961,8.34549,2.63368,4.64431,4.57307,1.91896,0.0157727,3.27153,8.49349,1.14122,-2.23761,-0.81156,-0.156357,3.14016,2.04868,1.72127,-284.504,-801.784,-527.04,1120,-3920,3780
-0.346593,1.20348,-5.17201,-6.79749,-4.02344,-0.438905,-6.411,-3.26534,1.89209,-4.51717,-2.60172,-6.56746,-2.56441,-1.01444,-8.03011,-4.77743,-281.576,-802.272,-521.672,1260,-3920,3780
1.47669,6.30323,-1.82153,-5.23811,-0.190786,-0.647236,-5.30642,-3.1042,0.407863,1.77624,0.300159,-2.23057,-0.808525,-3.07926,-6.69298,-3.05741,-283.04,-799.832,-523.136,1260,-4060,3500
1.88314,8.73677,0.369784,0.39768,3.33011,0.641791,-0.200424,-1.53879,-0.457689,3.80095,1.73094,0.736553,1.88234,-1.61857,0.900694,1.7405,-284.504,-800.32,-519.232,1120,-3640,3360
-0.775661,4.57652,4.32668,1.72838,4.11946,2.62281,2.4331,0.645864,-3.96092,2.62053,2.54977,-0.22281,3.86964,0.58087,5.74454,5.86101,-285.968,-799.344,-523.136,1120,-3640,2800
-5.26682,-2.18333,5.07112,-0.96157,1.82532,2.33057,2.97446,2.75689,-11.0845,-0.557119,0.937402,-3.8957,1.72573,1.06624,5.68503,6.72074,-285.968,-799.832,-521.184,1120,-3640,2520
-7.38804,-9.35249,-0.187887,-7.34733,-1.79761,0.904961,-0.194092,0.722375,-11.4493,-3.69453,1.19254,-6.09278,-0.714314,-1.25073,0.768928,2.39906,-291.824,-799.832,-517.768,980,-3500,2240
-3.26357,-6.22676,-2.60092,-4.84416,0.549671,0.738536,1.15791,-0.566761,-6.06319,-1.57389,1.34448,-2.48805,-0.0451718,-1.61475,1.25168,1.05191,-288.408,-800.808,-519.72,980,-3220,1540
-2.16117,-5.83275,-2.48662,-4.55884,1.41371,-0.965941,0.504865,-2.88973,-6.15391,-1.61443,-0.13215,-0.337919,-0.546542,-0.931636,-0.553618,-0.456294,-286.944,-799.832,-514.84,700,-2940,1260
-4.34178,-8.83197,-2.93468,-4.9005,-0.474447,-1.38863,0.257534,-3.69868,-7.35799,-5.70585,-0.079236,0.585138,-1.36663,-0.483035,-0.992688,0.71323,-288.408,-802.272,-518.256,420,-2660,700
-1.21543,-6.11879,-0.265458,-2.92805,0.933334,-0.426922,1.17007,0.0913516,-2.83361,-2.28486,0.923432,1.17597,0.0897605,1.06156,0.128446,4.65874,-289.384,-800.32,-515.328,420,-2240,140
-2.57969,-12.1874,-4.17596,-9.28544,-6.39764,-3.02669,-5.68776,-4.28516,-1.41242,-6.43691,-0.30872,-2.70931,-2.0179,-5.51179,-5.59733,-0.555692,-291.336,-801.296,-516.792,0,-2100,-140
2.65414,-8.53046,-2.5624,-7.83094,-5.90334,-3.17515,-6.89476,-5.50459,5.55065,-2.7728,-1.23001,-1.15372,-0.95984,-5.14115,-6.08571,-1.40712,-288.896,-799.832,-517.28,280,-1540,-560
6.50634,-3.67512,-2.72872,-1.85725,-2.97824,-1.0983,-3.43697,-3.68456,11.1215,0.31379,-0.95879,2.51654,0.85327,-1.72245,-0.485871,-0.423565,-290.36,-799.832,-517.768,140,-1260,-980
4.10885,-0.5353,-2.5528,4.68396,1.3385,0.191823,1.3368,-2.40316,10.6908,2.3014,-0.144844,3.7583,1.49962,1.00959,5.16411,-1.18113,-288.408,-798.368,-516.304,140,-700,-1400
5.11634,6.76352,2.76487,10.3858,7.57478,3.09051,5.67403,0.668818,12.8654,5.50775,1.02189,6.42924,3.39779,3.17129,7.88509,-0.925686,-288.408,-799.832,-519.232,420,-280,-1540
3.5383,1.25833,-0.261211,6.2961,0.680976,1.83126,1.30322,-2.41981,9.02289,1.35814,1.17528,3.70546,0.821564,0.444097,0.956127,-5.11676,-288.896,-801.296,-522.16,700,-140,-1820
2.19442,4.27644,1.94218,6.28172,1.34372,0.220258,0.495597,2.32191,4.18393,3.82501,-0.224057,6.54406,1.77377,0.274925,-2.07303,-2.39293,-289.872,-799.832,-519.232,1120,140,-1960
1.16525,4.33629,3.35864,2.94701,-0.34867,0.57991,-0.408413,4.73129,0.137927,3.00295,-1.10168,5.74801,2.41095,2.15459,-3.82909,-1.59079,-287.92,-800.808,-520.696,1260,420,-2100
-0.348092,6.56456,6.21304,4.65049,2.39209,3.48467,4.29338,7.90379,-3.14392,3.16778,0.231782,4.17241,4.6129,5.18447,0.164517,2.05528,-287.432,-800.808,-520.696,1540,700,-2100
-4.09956,-0.940259,0.942547,-0.0201547,-2.02431,1.15433,0.065389,2.7627,-9.87918,0.846461,-0.417934,-2.95991,1.14744,3.13449,-1.52954,-2.0928,-285.48,-801.296,-520.208,1680,1120,-2240
-4.0279,-0.133416,-0.366183,-1.16086,-2.18201,-0.837487,-1.44642,0.0255046,-8.70812,0.446702,-0.150693,-4.786,-1.92897,-0.41828,-1.03102,-2.85248,-287.92,-799.344,-527.04,1680,1120,-2100
-4.75125,2.94464,0.501434,-0.102155,-2.90661,0.0667941,-0.505014,0.967723,-7.65182,-0.71267,-1.0074,-2.54038,-2.54969,-0.928065,0.0937669,-1.02573,-284.992,-799.832,-528.504,1680,1260,-1960
-4.24438,4.20123,0.935882,2.63037,-3.86909,0.325683,2.53489,0.25998,-5.43861,-2.12189,-1.44342,-1.36241,-3.92682,1.01088,2.71051,-0.379947,-286.456,-798.856,-525.576,1820,1540,-1960
-3.06722,3.44466,-0.378781,1.93419,-4.6492,-0.823212,3.45407,-0.906349,-3.38108,-3.27421,-0.0943897,-1.48747,-3.74062,-0.112065,3.48768,-0.895314,-286.456,-799.832,-525.576,1540,1680,-1820
2.82041,9.36473,2.42121,2.58843,1.2456,-0.897974,3.12177,2.95854,1.96461,0.878144,1.41728,0.0587465,-0.8447,0.206881,3.0722,1.00294,-284.992,-800.32,-526.552,1400,1820,-1540
3.76599,5.40685,-2.60389,0.861129,-0.917453,-1.75764,1.23913,-0.996905,2.48572,-1.74965,1.10417,-4.24261,-1.71889,-1.42933,0.540148,-3.00304,-285.968,-801.296,-524.6,1400,1820,-1400
2.82005,4.7357,-0.828395,2.59789,4.32427,-1.35172,1.84757,1.4716,2.04492,1.03078,-0.651134,-4.50961,-1.79117,0.497323,1.61352,1.28789,-284.504,-800.32,-524.6,1260,2100,-1540
1.83805,0.371043,-2.57797,0.203189,1.23075,-1.15218,-0.418886,0.887708,1.36299,-0.853831,-1.19224,-4.88432,-2.49049,0.132454,0.974143,3.92993,-287.432,-800.32,-526.552,980,2240,-1400
4.20696,-0.400129,-0.523925,-0.338351,0.906276,-1.23886,-1.63258,0.0626436,6.6981,1.30686,-0.126155,-0.0887465,-2.95469,1.19917,0.0247294,5.36967,-286.944,-799.832,-522.16,280,2240,-1260
4.00119,-0.486428,-0.136471,2.44215,4.61157,0.0102586,-0.0719435,0.105723,9.09036,2.10807,-0.0166852,2.59886,-2.46602,3.20963,0.995913,6.82341,-287.432,-801.784,-525.576,420,2100,-980
-0.926595,-3.96442,0.438314,-0.052071,3.48792,0.877386,-1.12573,0.044212,2.16921,-1.89991,-0.5665,0.538065,-0.158432,0.895802,-1.10076,7.67705,-285.48,-801.784,-524.6,-140,1960,-980
-4.46785,-2.85738,0.349832,-2.39989,3.26288,2.28027,-1.70958,0.628717,-2.45938,-2.8663,-1.04672,1.60171,1.31227,-0.158727,-1.90907,8.37445,-285.968,-802.76,-525.088,-560,1680,-560
-1.42094,-2.60792,-0.158318,-5.09468,2.35324,1.59806,-3.59059,-1.08717,0.472306,-0.612406,0.152114,1.01485,1.14195,-0.877389,-3.73929,3.55854,-284.016,-801.784,-523.136,-840,1540,-560
2.77877,-0.7267,0.262541,-3.54125,1.66253,1.10333,-0.814914,-0.92034,4.81501,1.16219,2.86023,1.60846,2.67224,-1.24728,-0.596709,1.62615,-282.064,-804.224,-524.6,-980,1120,-280
2.30071,0.339578,0.560273,0.91652,3.66366,1.18758,2.4229,0.362562,2.25906,2.44426,3.14052,3.14645,4.76484,-0.742734,3.57766,1.16163,-284.016,-803.736,-525.088,-980,840,-140
0.997874,-2.91801,-3.64614,-1.01977,0.847787,-0.704751,0.597304,-2.93577,0.0167348,-0.786975,2.34288,1.59204,4.53583,-3.43393,2.12269,-4.74252,-283.04,-803.248,-520.208,-1260,420,-140
1.78935,-0.563652,-1.98176,-0.600409,2.7233,-0.72994,-0.00443956,-0.96911,-0.271789,2.03343,0.440575,1.48936,4.55876,-3.59432,-1.28194,-5.12233,-284.504,-803.736,-524.112,-1260,420,0
-1.54122,-6.43127,-3.37505,-5.47906,-3.42306,-1.43035,-5.43319,-4.50287,-2.63254,-0.633026,-0.660616,-1.9558,2.05908,-3.3636,-7.3107,-10.5451,-282.064,-804.712,-521.672,-1400,0,-140
-6.26251,-10.4944,-3.16718,-9.5448,-7.46607,-2.11336,-7.17036,-7.40836,-6.49227,-2.13049,-1.90546,-3.48987,-0.399286,-2.67849,-8.56951,-11.4191,-283.04,-802.76,-525.576,-1680,0,-280
-6.67555,-7.91206,2.45792,-6.97709,-6.06015,-1.73211,-4.1949,-1.54767,-8.11914,-0.395194,-2.47647,-2.78155,-0.483889,-0.66762,-4.95829,-6.56369,-282.064,-802.272,-523.624,-1540,0,-280
-6.87586,-11.1472,-0.818606,-7.97245,-8.59772,-3.48176,-3.74749,-2.05977,-10.033,-4.34488,-1.57,-5.22824,-1.94242,-2.07044,-3.88339,-6.34295,-281.576,-803.736,-523.136,-1540,280,-280
-0.934406,0.649149,3.67377,0.134351,0.442809,-0.648504,2.42245,2.76193,-1.98763,-0.839518,0.671306,1.09669,1.94822,0.585946,2.39423,-1.04258,-279.624,-801.784,-524.112,-1400,280,-280
4.651,4.80951,2.97011,3.81367,-0.0536643,1.27596,1.39838,0.998739,4.60978,1.39487,1.83831,1.58633,1.42935,1.59761,3.2357,-3.5881,-281.576,-801.296,-526.552,-1400,280,-280
6.29879,6.83137,4.14904,7.61654,1.55872,2.01931,3.3665,0.833027,5.37433,2.39365,1.20699,1.60894,0.437753,2.25263,4.60503,-1.51409,-281.088,-803.248,-523.624,-1400,420,-280
4.81318,6.58046,4.53957,9.19881,3.82507,2.43861,4.7545,2.20034,2.35596,4.85162,-0.069521,4.15579,-0.96449,3.28461,4.63913,1.06526,-279.136,-801.784,-525.088,-1120,280,0
-3.01393,0.968091,2.74714,7.17702,0.832894,1.38776,5.56388,4.21598,-3.54069,-0.221782,-2.73622,2.30727,-3.37221,2.06317,3.75103,4.67789,-279.624,-801.296,-525.088,-560,280,140
-5.82434,-5.52302,-0.164693,3.76152,-5.73818,-0.334032,3.33814,2.20017,-6.91446,-4.04812,-3.02022,-2.49585,-5.24587,0.891253,3.06744,4.06721,-282.064,-800.808,-524.6,-560,140,280
-0.54446,-3.66528,0.628094,0.121459,-5.17995,-2.61098,-0.846293,0.253415,-1.28825,-1.01222,-1.36453,-1.82191,-3.5057,-1.67351,-2.44191,2.05677,-281.088,-800.808,-527.528,-420,0,420
3.48904,2.83452,-0.673637,-0.706182,-1.74812,-0.78669,0.116537,1.11478,2.66833,0.817231,-0.420565,0.77107,0.205849,1.57859,-1.11399,3.80785,-282.552,-803.248,-526.064,140,-140,700
3.949,11.0011,1.38047,1.97003,5.08487,1.4209,2.77107,4.73625,2.16428,4.20889,0.371125,2.23224,1.07103,3.36078,2.92255,6.70813,-282.552,-799.832,-527.04,140,-140,700
2.5918,6.21694,-4.76573,-2.21197,-1.67331,1.39984,-2.03753,-0.631325,3.6213,-1.04796,2.57217,-2.15585,0.0648284,1.59158,-1.71482,0.937952,-283.528,-802.76,-529.48,700,-420,980
4.02713,8.90912,-0.785296,0.165697,5.19631,3.16119,-0.955657,2.33043,4.77874,4.56239,2.80584,0.975935,0.617934,2.59077,-0.681078,5.81786,-282.064,-802.272,-528.504,1120,-560,1120
0.408015,3.8237,-2.20184,0.726763,2.1797,2.57098,0.53631,0.824767,1.51108,0.107052,0.928882,0.653177,-1.11631,2.29359,3.28756,5.23237,-283.528,-798.856,-531.432,1400,-560,1400
0.722665,4.47047,-1.54276,3.77062,2.8894,1.17279,3.19643,0.235724,2.44397,0.206351,-0.192319,3.67702,0.349339,2.12787,8.62883,3.34436,-282.552,-799.344,-527.528,1820,-560,1680
-0.505471,2.70259,-0.572962,1.27418,5.44112,-1.71474,2.82226,0.746151,0.0209099,-0.692074,-1.06522,2.97973,0.979535,-0.310381,5.26892,1.56763,-281.576,-798.368,-529.968,2100,-700,1680
-1.92316,-1.86173,-2.28848,-0.967129,4.78198,-0.969654,1.36587,0.555159,-1.88974,-2.67239,-0.587416,0.0861722,0.904544,-1.44461,2.17029,1.30493,-283.528,-798.856,-530.944,2520,-560,1820
-5.29919,-7.6272,-3.47825,-2.59646,1.8804,-0.44052,0.776913,0.45681,-3.02861,-3.08879,-0.722111,-3.07758,-0.961817,-3.07974,-0.258883,-0.508498,-282.552,-796.416,-526.552,2940,-280,1960
-5.76919,-7.5847,-3.47602,-1.44907,-1.28992,-0.0536063,-0.23645,0.088223,-0.338711,-1.89848,0.487851,-3.61209,-0.909348,-2.09893,-2.51068,-3.37287,-284.016,-800.808,-528.504,3220,-140,1820
-6.43768,-4.1562,-2.85872,1.17579,-1.33381,1.37587,-1.10136,0.27667,-0.965456,-2.61388,-0.133514,-1.25931,0.809636,-3.14203,-3.69959,-3.44848,-282.064,-797.88,-528.016,3780,280,1680
-6.86669,-6.3706,-0.696591,-2.74784,-2.98282,-0.37705,-3.51768,0.451608,-7.49704,-3.42394,-2.04111,-2.18937,-1.00038,-4.60328,-5.49199,-4.1569,-284.504,-801.296,-526.064,3780,560,1680
-4.16898,-5.99308,-0.899681,-6.47279,-7.07017,-2.33706,-7.31757,-4.22076,-3.57786,-6.11007,-1.55272,-3.72823,-3.32131,-5.2214,-8.93596,-6.69436,-286.944,-796.904,-528.016,4200,700,1540
4.1469,5.42177,3.2741,-1.90155,-0.96413,-0.362415,-5.83825,-4.25722,6.19253,0.811282,2.1439,1.80363,0.0168147,-0.106462,-7.16652,-4.44524,-284.016,-798.856,-527.04,4200,980,1260
6.38355,5.02005,2.39624,-4.93207,-2.4985,-0.994954,-7.77353,-4.41355,6.56041,3.40324,2.21232,0.0814594,0.866232,-0.108069,-8.60746,-6.01823,-286.944,-796.904,-526.552,4340,1260,1400
7.83097,3.22814,4.35222,-3.12006,-1.6347,-1.06473,-4.10347,-1.97335,7.08202,6.37963,2.61491,-0.517945,0.764525,0.965908,-2.6264,-1.54593,-284.992,-796.904,-524.6,4340,1540,980
9.86171,4.76061,8.15328,1.05474,1.13175,-1.04449,-0.886216,-0.0348027,8.13205,8.94702,3.38764,3.12123,1.46681,-0.0408547,1.66052,1.50722,-287.432,-799.344,-525.576,4480,1540,980
9.16752,0.833268,4.67133,2.19066,-1.62372,-1.18682,-0.318008,-4.18235,7.16098,4.23841,0.93248,3.44834,0.789327,-0.506101,-0.0324687,-0.997298,-285.48,-801.296,-521.184,4200,1540,700
10.0142,4.98596,6.8295,7.70897,5.54442,0.900597,6.70028,-0.00923334,8.46036,6.54469,1.39732,5.13692,3.78291,3.09478,7.30085,3.77281,-284.504,-800.32,-523.136,4060,1540,420
3.08606,-3.93684,-3.08523,-0.266748,-1.5949,-1.07049,0.668132,-5.20911,1.74309,0.25953,0.438627,-1.67723,0.982126,0.412064,1.40793,-2.6227,-284.992,-798.856,-521.184,4060,1540,280
0.535914,-2.15545,-4.25501,-0.25073,-0.454571,-0.374918,1.80182,-3.99994,1.53859,-1.28037,0.268765,0.125512,1.86038,1.08627,1.4044,-0.55779,-284.992,-800.32,-520.208,3920,1260,0
-3.0091,-4.5573,-5.05117,-1.55515,-0.915924,-1.35533,2.09296,-2.37192,-4.43112,-2.64382,-2.67713,-1.47391,0.407881,0.677994,2.91493,0.21738,-284.504,-801.296,-520.208,3920,1400,-140
-6.20994,-3.53076,-3.24563,2.27652,0.534767,0.372425,6.27902,1.49422,-8.0586,-4.98603,-3.2872,-0.399113,0.728341,1.00195,7.43287,4.40863,-285.48,-801.296,-524.112,4060,1400,-420
-4.96362,1.17306,-1.67647,7.99464,2.9371,2.20018,8.35251,2.65985,-4.99421,-5.27585,-2.86338,2.30159,1.30188,3.57014,8.94267,5.79955,-281.576,-799.344,-521.184,3780,1260,-560
-9.21021,2.1787,-0.689033,11.2937,7.4106,3.33237,9.98621,6.10112,-12.1078,-5.2235,-4.06622,2.17598,-0.353829,6.09283,7.68565,7.44193,-283.528,-803.248,-518.256,4060,1120,-700
-14.273,-2.80923,-1.82511,7.73431,7.0497,2.91036,10.1827,7.74807,-18.065,-6.84537,-3.81021,-2.01847,0.245369,5.00964,6.19562,7.66688,-284.992,-802.76,-520.696,4200,1120,-980
-15.6249,-11.4275,-1.69506,-2.98586,3.2504,0.129071,2.49588,7.65006,-21.5316,-6.69439,-5.23861,-5.89871,-0.584157,1.02087,-2.81107,3.59031,-282.552,-803.736,-520.696,4060,980,-980
-8.59143,-16.4725,-1.74483,-12.9527,-7.56035,-3.73448,-7.66599,-0.667625,-13.0031,-5.21992,-2.25016,-8.1617,-3.34339,-3.69422,-10.6054,-4.97251,-284.504,-804.224,-520.696,4340,980,-980
4.99805,0.282561,7.07386,-6.26002,-1.33106,-2.69691,-6.69936,-1.05596,4.53379,7.30459,2.85621,-0.111662,-2.20227,-3.85828,-4.98652,-1.40765,-283.528,-806.664,-521.672,4200,840,-840
1.75922,-3.00651,2.026,-11.0389,-8.48626,-2.63163,-10.7129,-4.82571,2.91617,3.68557,3.19692,-3.61556,-4.93339,-7.35093,-11.6361,-6.00871,-282.552,-806.176,-523.624,4200,840,-840
3.76483,1.74485,1.13525,-6.71738,-5.96627,0.124233,-7.24552,-0.825862,7.33891,4.25338,3.073,0.129851,-2.74259,-4.22978,-8.52016,-2.45075,-283.04,-805.2,-524.112,4480,560,-560
5.52704,7.67145,1.19785,0.365533,-3.48073,1.8975,-2.8062,2.44856,9.83362,3.19646,1.5146,4.4652,-1.29333,-0.872574,-1.58079,-0.623074,-281.088,-805.688,-521.184,4480,280,-420
10.6266,13.2069,0.366353,4.50546,0.375446,0.99279,0.0982733,5.29766,13.7693,4.34555,2.7152,7.65681,0.346588,0.99961,3.17193,-0.483802,-284.016,-805.2,-525.576,4760,280,-280
9.8903,14.6668,-0.957727,2.88258,3.13612,1.52989,0.669555,7.77615,12.1463,4.74293,3.3135,6.67157,3.32705,2.97254,3.54654,1.8019,-283.04,-809.104,-523.624,4760,-280,0
4.60266,7.601,-5.00787,-2.95953,-1.61867,0.281436,-4.6227,1.23843,5.893,2.52259,2.41046,-0.437207,0.522178,1.35219,-2.75891,-1.90062,-284.016,-806.176,-523.624,4760,-420,140
1.77549,5.16047,-4.27892,-0.222448,-0.458513,1.80814,-1.52989,1.55615,4.01598,0.0767587,2.39541,-1.10844,0.357355,1.41549,2.16526,0.121734,-282.064,-806.664,-524.112,5180,-560,280
-0.868423,2.88222,-0.33623,2.64537,1.62559,1.58789,0.191242,-0.21881,-1.47023,-0.570851,0.125326,-2.4855,2.97495,2.51567,5.74991,0.875651,-283.04,-805.2,-522.648,5040,-700,280
-2.15329,-4.69771,-1.42716,-0.742436,-3.68675,0.552034,-2.20362,-4.90222,-3.88941,-3.51961,-0.0594,-4.05712,3.17596,-1.29531,3.18711,-4.26573,-283.04,-805.688,-522.16,5040,-700,420
-2.71353,-6.17939,0.595525,-0.334597,-2.85742,-0.522363,1.02404,-3.7903,-1.27839,-3.82857,-1.05067,-2.54423,1.50011,-1.2035,4.53517,-4.74958,-284.016,-803.736,-523.136,4900,-980,560
-1.18067,-4.36546,0.663931,0.0419607,-0.308637,-1.48495,1.76693,-3.25171,0.784951,-3.52529,-2.69371,-3.09173,-0.379414,-2.62015,1.53784,-5.27961,-282.552,-808.128,-524.112,4900,-1120,560
1.55412,-1.4035,1.4755,0.371637,1.23141,-0.607112,1.52482,-1.99452,2.8804,0.322708,-1.72658,-1.51153,-0.844709,-1.73766,0.161117,-3.44655,-281.088,-806.664,-523.136,4620,-1400,560
3.82946,4.01232,3.821,7.122,7.43351,0.644165,5.77187,-0.155075,6.7301,4.85974,0.1252,3.36218,0.899288,2.51864,5.42044,1.88421,-281.576,-807.64,-520.208,4480,-1400,840
3.39929,0.805315,2.96532,6.86915,6.37022,1.1998,4.71574,-3.24584,4.75907,3.0077,0.870556,3.73224,1.11809,1.97109,4.72634,1.18088,-279.136,-807.152,-524.112,4200,-1680,840
3.41606,4.38474,8.47969,9.57244,11.4723,2.54719,8.49239,0.322974,3.239,4.80679,1.2883,6.43629,2.94248,2.04927,6.25729,9.2168,-279.136,-807.152,-524.112,4060,-2100,980
0.55132,-1.50956,1.49354,4.87371,4.98802,0.448836,5.40164,-2.51908,0.320394,-0.993067,-1.36021,2.77093,0.217587,0.0526029,0.815015,7.00182,-277.672,-808.128,-524.112,3500,-2100,980
-2.0785,0.10189,-1.29531,3.00154,4.8484,-1.25542,3.80524,0.495357,-1.3041,-2.73962,-3.36949,3.24533,-0.688202,-0.61613,-1.61928,7.95877,-281.088,-804.712,-522.16,3500,-2240,1260
-0.679505,-0.160854,-0.656272,-1.98678,2.41421,-2.0202,0.0915703,-1.15977,-0.626267,-0.107147,-1.23532,2.36208,-1.72638,0.10882,-7.1149,4.32639,-277.672,-804.224,-527.528,3360,-2520,1260
-2.26828,-0.956862,0.602134,-3.24042,0.736034,-2.3095,-0.876986,-1.76346,-3.17255,0.070415,1.41399,0.345389,-2.48061,1.68636,-7.93,2.38728,-279.136,-806.176,-525.576,3220,-2800,1400
-5.80085,-4.11205,-1.21678,-6.01819,-2.80344,-2.05195,-2.86945,-1.4059,-6.0346,-1.70647,2.01079,-2.32351,-2.41669,0.854107,-9.09913,-1.14911,-278.648,-807.64,-525.088,3500,-3080,1540
-7.91847,-3.75631,-0.79384,-7.7303,-4.63258,-2.10558,-6.17401,-0.884578,-7.05927,-4.38644,0.125837,-3.60837,-3.92724,-2.3291,-9.19735,-4.13044,-277.184,-803.736,-525.088,3360,-3220,1680
-11.3702,-7.371,-3.88802,-7.53253,-9.12919,-1.72454,-6.28744,1.19105,-12.0514,-7.23871,-0.559476,-7.28229,-4.64678,-4.56797,-4.92598,-4.58691,-277.672,-804.224,-524.112,3360,-3500,1680
-6.00938,-6.08628,-3.55793,-4.38721,-7.07165,-1.36352,-3.57462,2.98209,-10.7191,-2.35343,0.165753,-6.11499,-3.09538,-2.70296,-1.04192,-3.49835,-277.672,-804.712,-522.648,3500,-3500,1680
-3.0542,-9.93148,-8.57102,-8.59666,-12.5567,-4.28173,-8.79153,-3.11737,-7.14621,-4.45496,-0.60863,-7.49541,-2.76722,-3.74899,-7.42505,-10.3747,-281.088,-806.176,-524.6,3500,-3500,1820
3.16277,-2.84859,-4.35164,-4.90725,-7.16288,-1.61058,-6.40938,-0.667433,-0.000346976,1.74029,-0.232866,-2.64604,-0.155612,-1.18933,-6.12333,-9.14079,-278.648,-806.176,-521.672,3360,-3640,1820
0.900526,-5.91239,-6.90439,-3.26755,-9.00496,1.07828,-4.50382,-1.18827,-3.18195,-1.85216,-1.87176,-5.55314,-0.684445,0.133002,-2.39739,-8.06151,-284.016,-806.176,-523.136,3220,-3780,1680
4.90958,2.35986,-3.24474,6.35995,-0.984211,4.2717,0.703843,2.08423,2.88074,3.09317,0.226145,1.10552,1.7996,2.46124,5.72759,-0.20981,-280.112,-805.2,-518.744,3220,-3360,1680
5.13481,3.36812,-2.23807,8.01706,1.55109,5.57751,2.2262,2.41546,5.72048,2.92347,1.12987,4.51216,3.41745,3.10801,8.09157,2.77169,-284.504,-806.176,-519.72,3080,-3500,1680
5.0697,3.98498,1.3159,5.6846,2.15508,5.93153,3.73444,0.266962,5.21849,1.64177,0.461578,5.28135,5.31422,2.55569,9.73182,2.59541,-284.504,-807.64,-519.72,2940,-3080,1540
6.75038,8.99948,7.18571,4.29621,4.4637,5.76241,5.04608,1.0431,5.37641,4.45876,0.436799,6.49102,7.02334,2.08129,10.4268,4.19748,-284.504,-806.664,-521.184,2940,-3080,1540
3.45361,5.19674,5.57302,0.476375,1.05034,1.77347,1.10904,0.399388,2.85215,2.33855,-1.8288,3.6321,4.10243,0.788528,5.1131,1.62199,-283.528,-807.64,-519.232,2800,-2940,1260
1.29439,4.9867,3.94244,2.42921,2.57067,-0.296492,2.81362,1.62783,2.43696,0.961705,-2.10121,3.38208,2.59798,-0.125633,4.71059,2.72942,-286.456,-807.152,-519.72,3080,-2940,1260
2.79796,4.85956,7.02594,3.66542,8.41489,-1.09899,4.95388,3.93518,2.20894,5.64974,-0.612749,3.38003,2.11001,3.38185,4.14946,3.11925,-284.504,-809.592,-520.208,3220,-2800,1120
3.66549,3.12963,5.03673,3.72097,7.94709,-1.87831,5.77661,1.75546,3.20991,3.89405,2.07051,3.15063,0.922831,3.2293,4.88187,4.21086,-287.432,-806.664,-521.184,3080,-2660,840
2.50158,5.7113,5.1606,3.02642,7.64689,-2.69715,5.04445,0.946449,4.13853,1.52365,1.60486,2.42884,1.82514,1.39133,4.71623,6.60933,-285.48,-807.64,-520.208,3220,-2520,700
-0.0913031,7.02851,6.53864,0.114755,6.18283,-2.65944,3.29583,1.35403,2.78867,-0.923009,0.549037,1.45393,0.806799,-1.62058,1.94612,7.29175,-285.968,-805.688,-519.72,3360,-2660,700
-4.45741,-0.578255,-0.651742,-4.49124,-1.00255,-3.01965,-0.313529,-0.148392,-2.19318,-3.44602,-0.169612,-2.10432,-1.80727,-3.51539,-2.895,4.46578,-285.968,-805.2,-521.184,3220,-2660,700
-6.0877,-3.98714,-3.91304,-2.82232,-0.641457,-3.04014,-1.51543,0.300111,-3.06487,-3.26421,-0.44501,-2.80431,-4.03994,-2.21673,-3.94182,3.41049,-287.432,-805.2,-521.184,3500,-2800,560
-3.45775,-7.3189,-6.37293,-3.31681,-3.53528,-3.33699,-4.2979,-3.95215,2.10019,-2.75044,1.13659,-2.59775,-6.18268,-3.13696,-4.74374,-1.68478,-285.48,-809.592,-522.648,3360,-2800,560
1.44077,-0.230545,0.795988,1.70683,4.24046,-0.558389,-0.255145,-0.409148,6.83869,2.60631,1.56803,3.9575,-4.8877,-0.766592,-0.576564,0.607971,-287.92,-806.664,-518.744,3640,-2800,420
-0.167824,-5.59434,-3.09323,-0.232946,-0.206482,0.360544,-1.48489,-1.45783,3.83659,-0.375634,1.05768,1.54324,-4.19812,0.560833,-1.84169,-2.19271,-287.92,-804.712,-525.088,3780,-2660,140
0.131951,0.219192,-1.30599,2.20873,2.65577,1.13519,1.04221,2.14604,5.47315,1.082,1.59831,2.0354,0.681453,2.56865,1.03451,-0.636538,-288.896,-803.736,-522.648,3780,-2520,0
-1.71381,-4.64676,-2.31717,-7.09161,-3.54232,-0.726873,-5.93428,-1.19282,0.487039,-0.683292,1.68361,-5.13878,0.372201,1.28116,-8.47449,-7.29329,-287.92,-803.248,-524.112,3920,-2380,-140
-4.16643,-8.10692,-1.53043,-10.8275,-7.80413,0.109507,-9.49225,-3.15088,-6.34281,-4.48592,0.606784,-7.68453,0.295913,-0.817654,-11.8973,-9.75422,-291.336,-802.272,-525.576,4060,-1960,-420
-4.20813,-2.70022,1.92791,-4.18968,-4.54336,2.95338,-5.23019,-1.82767,-7.29383,-3.84695,-1.56361,-5.08265,0.95825,-0.214999,-5.26135,-7.17666,-287.92,-804.712,-523.136,3780,-1540,-700
-2.4538,-0.868031,0.935352,0.696197,-1.07216,2.49445,-1.25335,-0.51708,-6.52277,-1.71581,-3.45799,-3.97391,-1.13566,-1.14744,-1.19213,-4.50837,-287.432,-802.272,-520.696,3920,-1260,-840
-4.01478,-2.72223,-2.15472,0.225807,-2.9013,0.433569,0.528816,-0.894783,-10.6076,-4.54621,-4.23301,-4.60157,-3.33958,-3.15957,-1.82372,-3.07736,-289.384,-803.248,-520.208,3500,-1120,-840
-2.32576,1.52339,2.38021,4.35228,1.50344,1.85723,6.2532,2.82606,-9.43299,-0.462671,-3.48923,-1.08749,-1.64716,0.222633,1.71799,2.35429,-284.992,-800.808,-519.72,3220,-840,-1120
-2.04732,-0.0947611,1.25426,3.13021,-1.26094,2.43622,8.42204,1.67463,-9.34666,-1.70501,-2.35379,-1.85089,-1.11852,-0.120968,4.33032,4.55874,-285.48,-802.272,-523.136,3080,-700,-1120
5.81823,7.60478,3.61482,5.01892,1.82744,1.26852,6.87843,3.37554,2.74719,4.15786,1.91767,2.2697,1.39801,1.2844,3.96932,4.45062,-290.36,-801.784,-519.72,2940,-700,-1120
7.22569,6.66444,0.391683,3.4562,-1.72299,-0.720562,0.920659,0.989476,7.61114,2.76375,2.34451,1.23254,1.43458,-0.900238,-0.887629,0.123236,-288.896,-802.76,-520.208,2800,-560,-1120
8.1864,7.36821,-0.766318,3.53399,0.123614,-0.619454,-0.691153,1.03521,9.1973,5.56017,2.44993,3.16208,2.76968,-0.735432,-1.96502,-0.10167,-287.92,-802.76,-519.232,2520,-560,-1120
6.49899,4.80305,-4.33846,2.06893,1.29034,-1.7699,-2.49974,-1.91172,8.73636,5.60136,2.30267,5.18289,4.07024,0.713669,-2.72574,-0.781533,-285.48,-801.296,-523.136,2660,-560,-1120
3.61846,0.173331,-5.90799,-1.7567,-0.734449,-3.07583,-3.62611,-3.53356,6.63081,3.24252,1.47623,3.61254,5.48424,-0.0640109,-3.81549,-0.286295,-287.432,-803.248,-521.184,2520,-840,-980
-0.324735,-2.92558,-2.928,-2.79556,-1.32985,-2.11939,-1.66142,-0.894857,2.13142,-0.147647,-0.327441,1.68923,5.05056,-1.7993,0.460459,1.02438,-285.968,-800.808,-523.624,2380,-700,-980
-3.55776,-5.116,-2.92806,-1.29156,-3.80119,-0.927253,-0.891344,0.298443,-4.6985,-3.73271,-0.25755,-0.170597,1.86202,-0.719783,5.39002,0.334932,-283.04,-798.856,-519.72,2240,-840,-840
-4.63584,-4.11355,-1.8179,-0.343277,-3.94101,0.695754,-1.62768,0.0719187,-5.04723,-3.27553,1.88985,0.102902,-0.343552,1.36351,5.83929,2.02251,-286.944,-802.76,-521.672,1960,-700,-840
-4.06054,-1.52887,1.20261,0.880122,-0.2791,1.39795,-2.75047,-0.597107,-2.83361,0.704323,1.45748,1.2047,-2.11618,3.23083,4.59206,3.28901,-283.528,-801.784,-524.112,1820,-840,-840
-4.70099,-0.546327,0.223918,4.48141,2.89691,3.72009,0.95675,0.774782,-2.58642,-3.18974,-0.66458,2.64847,-2.51063,4.01117,8.13034,4.10812,-284.016,-800.32,-526.552,1680,-840,-840
-2.42886,0.87412,1.47412,4.00949,5.81693,3.7652,0.923202,0.823976,-1.52524,-1.45838,-2.35086,3.70475,-0.541831,3.78096,5.90149,3.53202,-283.04,-801.784,-526.552,1680,-840,-980
-0.447079,-0.377198,-2.81175,-0.222654,3.29172,1.05081,-1.01803,-3.47273,0.735576,-3.08804,-2.59891,-0.237577,-1.86031,0.0871306,-0.281189,0.405875,-285.48,-802.76,-523.624,1400,-840,-980
-2.06499,-2.78489,-3.88591,-5.35529,-2.0168,-1.21491,-2.62264,-6.94178,-1.64329,-3.28471,-2.93389,-4.53896,-3.95648,-3.06298,-5.30737,-4.50374,-284.504,-804.224,-523.136,1540,-840,-700
-0.411242,0.636368,0.68304,-3.7376,0.234122,-1.97361,0.338523,-3.85897,0.223408,-0.289953,-2.42429,-2.73948,-4.05569,-2.88382,-4.42675,-4.76996,-283.528,-802.272,-522.16,1400,-1120,-840
-0.83707,-1.11742,0.0266221,-3.18045,-1.32216,-2.4565,1.32816,-3.59482,1.89176,-2.43489,-2.6869,-3.43473,-3.70608,-3.83852,-1.03631,-4.18994,-284.016,-803.736,-526.064,1400,-1260,-840
3.37966,7.23056,5.3309,0.410193,4.17524,-1.33205,3.23069,0.894818,7.90523,2.55052,0.100975,0.773375,0.805019,-1.16735,2.57219,-0.904409,-284.016,-801.784,-525.088,1260,-1400,-700
4.03881,1.5522,2.83999,-3.76142,-1.4748,-1.09209,-0.844495,0.5035,4.7654,0.171635,1.54195,-2.92684,0.244496,-2.02863,-1.99589,-4.26796,-284.016,-802.272,-526.064,1260,-1540,-560
3.83115,3.59359,7.69694,1.2886,3.8914,1.33215,3.01012,8.04104,3.09244,4.32437,3.34018,1.79629,3.82876,2.12899,1.05177,2.97662,-283.04,-801.784,-522.16,1120,-1820,-420
2.98059,1.23557,7.50336,3.4392,5.55748,-0.699443,5.90914,8.70094,1.87991,4.82182,2.01206,3.8666,4.49974,3.98115,0.985247,5.27752,-280.6,-802.76,-522.16,980,-2100,-280
6.28021,0.0768239,7.66701,3.70262,4.38983,-1.38032,6.84548,7.87397,4.11584,5.89759,3.98654,5.30087,3.45141,4.47732,1.40393,2.75657,-283.04,-802.272,-528.504,1120,-2380,-140
5.86634,-2.15554,5.66824,1.49436,0.991668,-0.835422,3.86053,5.83085,1.74058,4.73058,4.42738,4.50584,1.09879,3.53665,0.166786,2.19273,-283.04,-803.248,-522.648,840,-2660,0
2.38207,-3.18513,2.75466,-0.450108,-1.78229,-0.779254,1.01775,3.43073,-2.69333,1.81998,2.01807,1.70394,-0.110639,1.013,0.0479343,2.56392,-282.064,-804.712,-523.624,980,-2660,280
-0.830686,-4.62074,-0.772708,-3.9531,-5.83146,-0.905485,-2.53974,-1.50473,-1.53117,-0.950968,2.16609,-2.10971,-0.320441,-0.404611,-3.05707,-0.690968,-282.552,-804.224,-524.6,1260,-2940,420
0.371458,1.00741,0.458939,-1.12434,-1.76889,-0.4165,-3.22135,-2.4271,0.92165,3.3004,0.538963,-2.01859,-0.391053,-1.0026,-3.95652,-0.803717,-284.504,-803.248,-524.6,1120,-3220,420
-7.45515,-5.43714,-7.85615,-6.48774,-9.07312,-1.10873,-8.04689,-6.90121,-6.38064,-4.03916,-2.57293,-7.51517,-4.02821,-4.16717,-7.44595,-5.35044,-283.528,-803.736,-523.624,1400,-3500,700
-7.95875,-2.88796,-7.41739,-3.95331,-4.8364,-1.3704,-6.05916,-4.27552,-7.18609,-1.98734,-3.52398,-5.82149,-3.42181,-3.42767,-3.75797,-2.16331,-279.624,-805.688,-522.16,1540,-3500,840
-7.63194,-5.6493,-12.2349,-3.42694,-5.86554,-0.997132,-6.99409,-6.06899,-7.67267,-5.3857,-2.6956,-6.53459,-3.24256,-5.52539,-2.1816,-5.02814,-283.528,-805.2,-525.088,1680,-3780,840
-3.97759,-1.63153,-8.12653,0.915945,-1.41432,1.47581,-4.21622,-3.40906,-4.62204,-2.60016,-1.11849,-0.849368,-1.54478,-4.55554,-0.282611,-1.8431,-284.016,-805.688,-524.112,1960,-3780,1120
-4.08255,-0.274494,-5.49337,1.8662,3.4817,1.69895,-0.234978,-0.127729,-7.08789,-3.15485,-1.77202,-0.530638,-1.43884,-3.29022,2.05343,0.548558,-283.528,-802.76,-524.112,1960,-3780,1400
-5.6627,-1.15924,-5.6785,0.501762,3.62982,2.35805,-0.308227,-0.178539,-9.07871,-6.20588,-2.85395,-2.18627,-1.71675,-2.9755,1.12988,0.83129,-283.528,-803.736,-527.04,2100,-4060,1260
1.77483,8.03247,1.04301,8.63947,8.78143,4.64698,4.43882,3.39959,0.982133,-0.573002,-0.823552,6.13762,1.23519,3.15841,5.36569,5.3801,-284.504,-805.2,-523.136,2520,-4200,1260
4.47975,5.96998,2.13875,7.01592,5.72662,2.44562,1.00057,2.0651,5.27116,1.2949,-0.195701,6.09444,2.40546,5.45715,1.34678,2.75032,-283.04,-804.224,-527.528,2380,-4060,1540
1.02741,1.38208,3.65055,5.38976,2.98718,1.94616,0.755435,3.11656,4.57348,-0.784639,-0.620905,2.836,2.55357,4.81432,1.93025,3.48727,-281.088,-804.224,-528.016,2520,-4200,1540
2.88124,2.95637,6.14794,8.20357,2.7092,0.814012,3.1251,2.80156,8.52695,2.04163,-0.76327,2.49231,2.09461,4.3057,5.566,3.3736,-283.04,-806.176,-525.088,2800,-4340,1820
4.22942,2.90716,3.79023,4.31845,-1.59968,0.226132,1.66742,-0.335305,9.74865,1.45051,-0.137495,0.733131,2.5128,2.13987,1.97575,0.0154745,-286.456,-802.272,-527.04,2940,-4340,1960
-2.26541,-4.75206,-0.595767,-7.68909,-7.00131,-1.04784,-3.81,-2.32767,-1.45969,-2.0399,-2.37792,-6.08425,-0.862014,-2.03696,-6.53608,-3.0326,-285.968,-802.76,-524.112,3360,-4480,1820
-2.7163,-3.03657,-1.74201,-6.55728,-6.02091,-0.116891,-1.56152,-2.60911,-3.41403,-3.32399,-2.50921,-3.80562,-0.500297,-2.32064,-5.62409,-1.87615,-284.016,-802.272,-524.6,3500,-4480,2100
3.76655,5.15345,5.17906,-0.333607,-1.21475,1.4701,3.84663,-1.56572,3.97361,2.91423,2.34609,2.8895,3.14991,0.658443,0.066751,0.0540627,-283.528,-801.784,-525.576,3920,-4760,2100
5.43811,8.15017,7.85592,0.565463,1.60085,0.348628,3.8785,-0.448602,4.46123,4.94291,3.7151,3.05421,3.02256,1.91359,0.339327,-1.40518,-284.992,-799.832,-525.576,4340,-4620,2100
-0.18572,-2.00717,0.783559,-4.95376,-3.37711,-1.00911,1.40041,-2.02375,-4.09785,-2.07997,1.55473,-2.94501,0.676508,0.66952,-0.742677,-3.19222,-287.432,-803.248,-528.504,4480,-4620,2100
3.31562,2.73,4.18297,0.628745,4.89635,-0.19781,6.42126,3.69469,0.370217,3.56827,2.20309,2.38371,2.74251,3.38625,5.69178,2.57724,-286.944,-800.32,-528.504,5040,-4620,2240
1.1539,-1.86871,-2.18578,-1.09728,1.53438,-1.17247,3.96875,2.24253,0.0533261,1.23207,1.11948,1.43664,0.961345,2.12057,4.04506,-0.875335,-285.968,-801.296,-524.6,5320,-4620,2100
1.76221,-2.47917,-2.26261,-2.52183,0.863481,-1.3119,1.0228,2.3501,1.377,0.845238,1.50257,3.33204,0.130396,-1.30541,1.4327,-0.913091,-288.896,-799.832,-524.112,5600,-4760,2100
2.48162,-1.99189,-2.66017,-2.62401,0.455479,-2.811,-2.84426,-1.1178,3.70899,0.571448,1.51587,2.31501,-1.66596,-1.1555,-0.368595,-3.53359,-286.456,-800.32,-523.624,5740,-4760,1960
2.61903,-1.01941,-0.635424,-2.6741,0.493679,-2.79572,-3.12314,-3.30054,4.72594,2.06212,1.66407,0.0216527,-1.29244,-0.741599,0.149171,-2.23626,-289.872,-799.832,-524.112,5740,-4480,1960
2.3309,-2.2958,-1.13858,-3.12742,-2.89301,-2.10719,-2.80848,-3.92429,5.67547,2.2088,0.58189,0.0341356,-1.34622,-0.698006,-1.52783,-1.3456,-289.872,-800.32,-527.04,6160,-4620,2100
1.88022,-1.22392,0.0218787,0.592646,-1.30034,-1.45471,-1.34146,-3.22887,4.63367,2.55341,0.682877,1.89296,-1.72749,-1.85908,-0.442585,1.04564,-288.896,-798.368,-526.552,6160,-4480,1680
-0.879568,-2.29165,-0.344518,0.725499,-1.29813,-0.0107197,-0.762657,-4.03982,-1.17124,-2.19714,0.42568,0.101754,-2.88317,-4.13154,0.152322,2.39321,-289.872,-799.832,-527.04,5880,-4620,1540
-1.77792,2.04809,2.7426,3.58501,2.76287,-0.580853,1.27003,-0.47314,-3.05012,-1.5394,-1.03274,1.26951,-3.48594,-3.61598,3.22413,5.53165,-285.968,-802.272,-526.064,6160,-4480,1540
-5.92208,-5.00013,-3.84755,-0.291396,-2.39043,-2.79404,-1.7777,-3.2948,-6.98279,-7.80352,-1.56725,-2.43409,-4.66124,-4.60723,-0.508739,0.0304084,-289.384,-801.784,-523.624,6020,-4480,1260
-6.80092,-2.30381,-1.14019,0.877583,0.42993,-1.53126,0.490153,3.38288,-6.87819,-3.0344,-1.14715,-1.80636,-2.34802,-0.297823,-0.442633,1.45717,-288.408,-801.296,-523.624,6300,-4200,980
-11.2324,-7.25759,-3.07564,-4.8968,-6.18813,-1.65569,-2.13246,2.52986,-11.6025,-4.68875,-1.97102,-8.0792,-1.52169,-0.801915,-4.59739,-1.94643,-289.384,-801.296,-524.112,6440,-4480,840
-9.08697,-1.41929,2.33368,-0.542657,-1.23981,1.23597,0.725287,6.75119,-9.43287,-0.601459,-1.45941,-5.07802,1.65079,1.58021,-1.29776,0.821075,-289.384,-801.296,-526.064,6440,-4200,700
-1.8986,7.4453,6.385,3.18264,5.51234,2.95284,2.22301,9.51065,-1.83192,1.58225,-1.23994,-1.38405,2.67734,4.17493,0.417928,1.59623,-290.36,-801.296,-526.552,6580,-4340,560
3.1739,7.71418,2.47533,1.4481,6.44629,2.50428,1.01475,6.15338,0.485261,2.76295,-0.759022,-2.06684,1.69579,4.26788,-0.524321,-0.248067,-287.92,-800.808,-523.136,7000,-4200,280
9.87081,10.0875,2.11102,4.59787,7.74983,2.60432,2.88409,4.4123,7.27642,8.28046,2.5249,3.06473,3.90223,5.60909,1.61944,0.979105,-287.92,-805.688,-525.088,7140,-4480,140
9.08777,4.15889,-0.510153,2.33893,2.72155,1.00662,-0.184814,-0.935105,6.16442,6.5186,1.93499,1.87558,2.45086,2.34423,-0.632896,-0.141327,-288.408,-804.224,-522.16,7420,-4340,0
8.16321,8.1632,1.78403,9.57853,5.51068,3.15144,5.13942,1.78514,8.34486,5.84618,2.34438,8.29644,3.88969,1.86493,8.40649,6.90113,-287.92,-803.736,-524.112,7280,-4060,-140
1.94993,1.12343,-0.164159,3.87783,2.39975,1.24233,1.10578,-0.881641,1.91467,2.36408,-0.171227,6.91782,2.0213,-0.239198,3.33984,5.64912,-287.432,-804.712,-519.72,7280,-4060,-140
-0.50157,-6.54257,-3.47676,-4.64141,-5.40381,-0.626449,-8.42065,-5.84874,-1.08275,-1.38127,-0.104713,2.95234,-1.44758,-3.24304,-9.05331,-0.894925,-285.968,-802.76,-522.16,7140,-4060,-140
1.60828,-5.39075,-5.86156,-4.35267,-5.56836,1.14245,-9.26143,-4.54917,1.36606,-2.1256,-0.845796,2.01169,-2.89583,-1.17265,-9.33289,-2.82829,-286.944,-806.664,-519.72,7000,-3780,-140
-3.84623,-10.4463,-11.4668,-4.57646,-7.90878,0.37935,-6.90541,-4.33776,-5.68241,-7.74733,-5.24547,-4.6911,-5.59242,-2.37568,-5.57669,-3.59761,-286.944,-803.736,-519.72,7140,-3920,-140
-4.23441,-9.52078,-10.3127,-4.50702,-9.00143,0.572581,-6.91431,-4.97245,-4.26136,-6.77302,-4.37936,-6.49721,-3.61243,-2.48856,-3.73132,-6.56649,-287.432,-808.616,-521.184,7140,-4200,0
0.316844,-1.70072,-2.69183,-1.86617,-2.53374,2.47957,-1.90669,-1.2035,1.88902,0.0882106,-0.694927,-2.85305,0.545647,-0.673251,1.51192,-4.24213,-286.456,-805.688,-519.72,7140,-4200,140
-0.797738,-2.45335,-2.10336,-4.69237,-6.73533,0.285476,-3.03619,-4.09095,2.60445,-2.71966,-0.14546,-4.99123,0.636731,-2.58488,-1.76674,-9.98278,-287.92,-804.224,-518.256,7000,-4200,140
-1.21789,6.0978,3.73574,4.18874,4.27562,0.435837,3.63729,2.47118,2.76671,1.90564,-0.651366,-0.741276,2.23471,0.994557,4.86829,-2.64553,-284.504,-804.224,-521.184,7140,-4200,0
-3.73703,-0.303005,-0.0102276,-1.01971,-1.1702,-1.64145,1.43388,-0.838224,-1.16513,-2.5928,-0.825679,-4.4722,0.122284,0.638889,-0.366094,-4.31697,-287.92,-802.76,-519.72,6860,-3920,280
-0.844741,4.82621,8.1494,2.17703,3.82502,-0.247512,6.70361,0.937852,0.234211,-1.26775,0.272308,0.130431,0.959152,3.08065,3.07755,-0.260105,-288.896,-803.248,-519.232,6860,-3920,280
-1.72207,3.50603,9.11393,4.12194,6.22166,0.602634,10.7822,1.57025,-4.0357,-2.59065,0.345193,1.70338,0.821185,3.07063,7.17679,3.69539,-288.896,-800.32,-521.184,6860,-3780,280
-3.78178,-0.84627,4.78761,-2.61164,2.16942,-1.78656,5.42367,-1.28819,-4.46376,-0.377071,2.41521,0.218166,1.14282,-2.58187,0.705481,2.01644,-287.432,-799.832,-519.72,6580,-3920,420
-1.70821,-1.99607,3.64116,-4.83511,-0.776226,-3.42815,3.48742,0.686721,-0.837165,2.88683,4.32758,0.63765,0.751324,-4.81495,-0.341239,3.51386,-289.384,-798.368,-518.256,6440,-3920,420
-0.703119,-4.20837,2.66279,-4.7507,-2.96387,-4.15825,-0.0771821,0.830728,-0.0791649,-0.376474,2.629,-0.913366,0.283521,-4.21753,-1.23925,2.67374,-286.944,-801.296,-518.256,6580,-3640,140
-1.56718,-4.71243,2.62618,-1.50837,-2.15162,-3.3427,-2.46674,-0.378454,-2.3024,-1.60158,1.22701,0.271954,1.44629,-2.89612,-1.39895,2.94393,-287.92,-797.392,-521.672,6300,-3640,0
-2.94312,-3.70281,4.62538,4.07523,2.95292,-0.622148,1.45931,1.35178,-4.15648,-0.0238108,0.2068,2.34862,0.763524,0.117303,1.76853,5.28346,-288.408,-799.832,-519.72,6300,-3640,0
-5.24755,-6.35777,-0.613069,3.458,-1.84986,0.242012,1.57675,-2.54571,-4.44503,-4.93093,-0.113705,-0.496385,-2.15781,0.764584,2.28855,0.894636,-290.848,-799.832,-525.576,6580,-3500,-140
-1.78513,0.932481,2.88642,4.88151,2.2207,1.10998,4.63906,0.565594,-1.92976,-0.706258,-0.663404,0.548631,-1.3507,1.20605,4.92529,4.57857,-286.456,-800.32,-522.648,6860,-3640,-140
0.440985,0.0618852,-1.37686,1.15662,0.915834,0.0949633,2.19144,-1.23355,0.913151,-1.1095,-0.883602,-1.28906,-2.2797,1.99873,0.840989,3.05376,-288.408,-800.808,-521.184,7140,-3500,-560
10.6019,7.5954,-1.29951,3.06098,3.50693,1.04936,0.330618,1.44964,12.6856,5.40499,3.02073,3.73463,1.14744,4.51301,-0.115571,2.84025,-289.384,-801.296,-524.112,7420,-3640,-1120
13.3586,8.42173,-2.07643,3.4784,3.1099,1.79367,-0.336735,1.5182,13.1885,8.30087,4.06353,4.64867,2.28673,4.20215,2.68468,1.27921,-287.92,-804.712,-521.672,7980,-3780,-1120
11.0771,6.54019,-3.7476,1.53765,0.725474,0.197317,-1.61605,1.21204,9.48259,7.44182,2.81905,3.84788,1.15493,2.26883,2.19594,-0.270414,-287.92,-805.2,-523.624,8120,-3640,-1260
11.4983,13.3312,0.94642,5.33827,6.82793,1.08218,-0.300871,4.00162,11.2771,9.92297,3.49628,7.60228,2.51507,2.33525,3.10458,1.01364,-288.896,-801.784,-521.184,8260,-3220,-1540
2.23714,2.74451,-6.10831,-4.28072,-1.47794,-0.736291,-8.48899,-0.98643,0.423704,0.794815,-0.900991,0.124842,-1.11907,-1.19752,-7.20674,-7.16714,-284.992,-806.176,-520.208,8120,-2520,-1820
-1.05155,0.157166,-6.49861,-6.00142,-1.89434,-1.35133,-7.73671,-2.23554,-2.87214,-2.31563,-3.37047,-1.1598,0.436751,-1.75489,-6.87441,-6.51988,-284.992,-807.152,-517.28,7140,-1820,-2520
-0.227139,2.30076,-1.53029,-1.27271,1.81942,0.818135,-2.96809,-1.29452,-1.41421,1.80249,-3.11912,0.971269,1.61606,1.34491,-0.34587,-1.67449,-286.456,-802.272,-514.352,6720,-700,-2940
0.331743,1.81569,-0.756594,2.02662,2.0943,2.28715,0.544688,-0.759474,1.35003,1.28417,-3.14237,0.279105,-0.376769,1.45474,4.75737,1.41179,-283.528,-804.224,-513.864,6020,-1260,-3080
2.73266,4.81852,4.05555,5.58395,5.50912,3.63538,3.66333,2.8304,3.62029,4.54387,-2.08782,3.72795,0.066836,3.98065,8.30606,4.68622,-285.968,-806.664,-515.328,5740,-840,-3220
-0.260278,2.55302,3.15883,5.90661,4.32972,4.68256,3.4858,3.79155,-0.035604,0.41333,-1.51052,4.0322,0.23313,3.49135,6.12709,3.11673,-283.04,-807.64,-515.328,5320,0,-3920
-1.7527,-0.819584,2.3288,3.69154,1.059,2.47307,-0.0645173,0.886408,-2.10919,-1.64027,-0.756048,4.56919,1.68263,1.30823,-0.36239,-1.43077,-283.04,-808.616,-515.328,5040,420,-4620
-9.54315,-7.79666,0.343475,-1.6378,-2.14985,0.952827,-0.528345,1.3322,-10.8753,-6.02443,-3.97662,-0.577902,0.759338,-2.41154,-4.47648,-1.68199,-287.92,-806.176,-515.816,4620,1120,-5040
-9.43381,-9.35819,-4.99755,-4.54145,-5.83468,-0.421407,1.7837,0.520878,-7.99734,-8.79433,-4.39293,-4.235,-2.01097,-3.25174,-1.7642,-1.58939,-285.968,-805.688,-516.792,3920,560,-5320
-1.08418,2.82673,2.6757,0.998729,1.06938,1.31073,7.06819,7.1527,2.90838,0.141749,-0.220486,1.597,-0.246945,1.10292,3.9441,5.61129,-284.016,-806.664,-516.792,3360,-140,-4900
-6.55201,-6.68841,-3.55038,-7.15696,-8.1303,-1.53268,-0.386301,2.06201,-6.8304,-7.89217,-1.87417,-8.10646,-4.03688,-2.23671,-5.06271,-1.6114,-280.112,-802.76,-516.792,2940,-700,-4200
-9.70552,-7.50039,-3.81596,-8.13339,-7.29162,-3.02614,-3.05528,1.58594,-11.4828,-8.57314,-1.28708,-10.5535,-4.58615,-5.29433,-6.24592,-2.02505,-282.064,-796.904,-516.304,2520,-280,-3780
-8.53844,-8.16134,-2.579,-8.2151,-8.08797,-3.82481,-4.25128,-1.18299,-10.475,-7.21232,0.0847926,-10.3863,-3.23412,-6.37201,-7.56888,-3.61105,-282.064,-805.2,-516.792,1820,140,-3640
-3.86795,-4.28312,-1.34959,-5.62108,-7.18935,-5.51897,-5.28854,-3.97981,-6.40722,-4.33935,1.03906,-8.26592,-2.36849,-5.19723,-9.80381,-4.47408,-268.4,-814.472,-526.552,840,2800,-4760
-9.62641,-11.3276,-5.36874,-7.45475,-9.31518,-5.44919,-7.56773,-8.22447,-12.3755,-6.49082,-0.801187,-12.4688,-3.77622,-5.33772,-12.09,-6.57591,-268.888,-806.664,-529.968,-2660,9800,-7840
-11.4768,-15.2259,-5.13261,-10.9584,-12.0493,-5.81103,-9.14977,-7.81172,-14.765,-6.01791,-2.43241,-13.4392,-5.7047,-5.92208,-14.6087,-7.99445,-269.864,-818.376,-538.264,-8680,20020,-11760
-7.62096,-11.4281,0.259889,-9.66686,-8.24232,-5.32525,-8.17101,-4.43621,-10.3018,-1.43465,-1.84912,-8.94399,-5.36234,-4.758,-13.6304,-4.88098,-279.624,-815.936,-536.312,-8680,20020,-11760
-0.670097,-2.62089,4.10536,-4.31175,-2.33496,-3.6917,-4.77042,-3.06283,-2.00928,2.68772,-1.18256,-3.31481,-2.39041,-2.51728,-8.1442,-3.15895,-287.432,-795.44,-528.504,-15820,25480,-13720
2.27024,0.31003,0.209955,-0.743469,-2.30638,-1.73668,-2.1901,-6.11538,3.85007,1.24635,0.87381,-1.37852,-0.369478,-2.91788,-0.889543,-3.31062,-284.504,-795.928,-527.04,-17220,21420,-10220
8.5532,10.4979,3.97076,6.80687,9.32524,1.44864,4.45769,-2.34454,11.8967,8.35492,3.97744,8.29,4.83561,2.25588,8.9532,3.24022,-285.968,-799.344,-521.184,-17080,21560,-8960
12.0609,11.1717,2.38518,8.91517,10.5191,2.39278,7.04663,-2.74922,15.9506,8.22207,5.9316,11.3025,7.06954,5.08331,13.5075,2.65375,-289.384,-797.88,-508.496,-14280,20580,-7560
15.9311,13.5163,6.11047,13.1336,13.6076,4.90356,9.82287,0.616641,19.9805,11.2745,8.02932,15.4073,8.48893,7.52464,18.3876,5.96011,-290.848,-792.512,-508.008,-10640,20580,-7560
16.5742,13.208,6.12148,11.5713,13.1527,5.48467,8.21868,2.85109,19.7401,10.8923,9.05962,16.4201,8.34905,6.94652,15.7989,6.14749,-288.896,-789.584,-503.616,-6160,12180,-4060
12.7934,9.139,2.75259,9.58552,10.8753,6.48878,8.23625,6.90789,14.5563,7.76306,7.19594,14.8149,8.15842,7.2687,12.9424,5.73246,-287.92,-786.168,-501.664,-6160,12180,-4060
11.8959,13.5334,4.90209,16.3291,14.4962,9.44122,12.4667,11.8914,15.5394,8.49439,6.85296,16.7967,8.45384,10.0951,17.3759,10.3616,-286.944,-784.704,-499.712,-280,8680,-2240
6.20334,4.88348,1.36546,11.254,9.35453,8.3978,10.1035,8.66767,7.23656,3.76351,4.7381,7.91537,4.01676,7.34295,14.6569,7.12004,-284.504,-785.68,-500.688,-280,8680,-2240
4.62502,5.7908,2.34659,9.83219,8.16258,6.65856,9.25697,7.54714,5.56138,1.41349,3.17843,4.59317,1.3207,4.38516,13.2266,8.24675,-285.968,-784.704,-504.104,2240,10640,-3080
4.66609,7.09037,4.76515,8.16909,5.20696,3.21835,3.89679,2.86117,5.66681,1.89821,-0.060578,1.7902,-0.426993,2.20305,4.90402,4.74618,-283.04,-790.56,-506.056,2240,10640,-3080
-1.65823,1.61938,-0.202365,4.03734,-1.71431,1.5451,-0.154566,-0.80437,-0.350442,-2.92682,-3.49093,-3.08787,-1.28766,1.79566,-1.1967,1.76906,-282.552,-792.024,-509.472,2100,11480,-3360
-4.27228,0.0210233,-0.709721,-1.60808,-4.74707,-1.19983,-3.44691,-3.72185,-4.99798,-1.90639,-5.23172,-5.52877,-2.13526,-0.729636,-5.77308,-0.181541,-280.6,-797.88,-514.84,1260,11900,-3920
-1.66979,1.87522,0.371874,-6.90382,-6.99665,-4.05239,-5.04443,-5.93796,-2.13367,-0.8831,-5.29236,-4.06124,-4.44433,-3.90806,-9.67229,-3.37387,-285.968,-803.248,-517.768,700,13020,-4340
-2.61093,1.45552,-0.325439,-9.83643,-5.95154,-5.6024,-8.72637,-6.10632,-3.20448,-2.64114,-5.63475,-2.67585,-5.82568,-3.17204,-13.3577,-4.41542,-284.504,-804.712,-519.72,0,14420,-5040
-10.3711,-6.10037,-3.90105,-13.4383,-5.97799,-6.73739,-10.1384,-6.46169,-12.9368,-6.12788,-10.0287,-5.47447,-7.56901,-3.57199,-14.6375,-4.37898,-286.944,-806.664,-522.16,-700,14280,-5180
-18.2466,-16.5907,-12.5032,-17.908,-13.3412,-8.57008,-11.2895,-6.05058,-20.1058,-11.3704,-11.5858,-10.3404,-8.09266,-6.40146,-14.5068,-5.19402,-283.528,-810.568,-521.184,-1120,14140,-5320
-13.7655,-13.3612,-6.86586,-13.2309,-8.36406,-6.9976,-6.59625,1.36303,-17.6198,-6.59532,-7.87215,-7.89741,-3.8073,-7.39219,-8.28641,-0.600859,-286.944,-809.592,-523.624,-1400,13440,-4760
-7.20204,-13.2142,-3.41508,-10.0362,-9.78199,-4.91883,-6.44544,0.498931,-11.3208,-6.64362,-4.43183,-8.44289,-1.61682,-6.59486,-5.63692,-3.33372,-285.968,-814.472,-519.72,-1680,12460,-4760
-0.630595,-4.35685,4.59008,0.0908031,-1.87786,-0.91464,0.016181,6.42564,-4.38716,-1.19146,-1.04497,-1.95623,1.43689,-1.68448,1.67012,0.258045,-284.016,-810.568,-516.792,-1680,10360,-4060
0.877191,-4.0914,3.57989,0.607714,-3.18266,0.233852,0.316812,3.95604,-3.21798,-1.09907,0.685769,-1.9853,1.17887,-0.405651,0.729099,-2.81233,-284.992,-810.568,-513.376,-1120,7280,-2940
3.32888,-2.47745,3.0114,3.26548,-1.11794,1.33241,3.52074,4.18535,0.728657,-0.876492,2.22536,-0.776368,2.9264,2.1986,2.75073,-0.348424,-282.552,-809.592,-515.816,140,4760,-2100
2.67863,-7.34761,0.416377,0.797224,-2.29995,1.94584,2.76143,0.271923,1.42452,-2.03235,2.91161,-1.67175,0.940154,1.62501,1.35435,-1.53805,-280.6,-811.544,-520.208,1260,840,-980
-0.635952,-8.72567,-0.340092,-3.96279,-2.46334,0.732438,-2.33764,-3.9589,-2.74349,-2.38522,2.81419,-4.6624,-0.921438,-1.79585,-5.16221,-5.73961,-278.16,-813.984,-523.624,1680,-700,-560
0.474172,2.12257,0.252425,3.35793,3.29506,1.56419,0.303989,-3.57343,2.46496,-1.19712,3.69808,0.454062,2.38057,-0.518404,-0.769122,-4.26092,-277.184,-813.008,-524.112,1400,-560,-980
1.48985,9.39394,0.186697,6.19415,5.80223,2.00101,-0.591972,-1.92618,3.67793,2.21036,1.81501,3.1701,1.48115,0.764712,-0.890703,-4.54375,-275.72,-807.64,-528.504,140,-140,-1820
-8.50586,-1.40576,-7.65411,-1.55677,-2.86353,0.940521,-3.79681,-1.45264,-8.52933,-5.58316,-1.63884,-3.54934,-5.11941,-2.53798,-5.87544,-7.24086,-278.648,-808.616,-530.456,-1540,420,-2380
-10.7196,-4.88036,-7.05613,-6.92974,-3.04491,0.745577,-4.89321,1.29661,-10.1895,-2.95881,-1.33196,-4.54549,-5.07953,-2.69054,-8.46817,-5.35393,-279.624,-805.2,-526.552,-4060,140,-2380
-3.77531,-2.75882,-8.06389,-7.98783,-3.17232,-0.246387,-4.77336,-1.7295,-0.682167,0.868391,0.58321,-3.15114,-3.41374,-2.93488,-7.87729,-5.81658,-278.16,-805.2,-530.456,-5740,-140,-2240
5.5055,9.9541,-1.45865,3.68216,7.82145,2.27346,4.15978,2.24195,12.2966,7.03573,1.94362,6.56637,0.766827,1.95673,5.23057,1.01881,-281.576,-801.784,-531.92,-7700,-840,-1820
7.82361,13.2275,1.73728,10.2497,10.4111,2.47031,7.62508,1.55484,12.0969,7.25766,3.41993,6.9682,2.96991,3.986,11.5911,4.33339,-280.112,-800.32,-529.48,-8820,-1820,-840
7.55983,9.29798,1.14514,8.31455,7.26896,0.556223,6.15936,0.88535,10.4031,4.36093,3.61592,3.45055,2.44496,2.8626,10.2194,5.46033,-279.624,-799.344,-532.408,-9380,-2800,0
6.20515,8.43761,2.76736,8.66909,6.7622,0.181839,7.22473,4.0506,8.53393,4.472,2.89193,3.49247,2.34575,4.66767,12.2261,7.85529,-278.16,-797.88,-530.456,-9800,-3920,840
3.67122,4.83367,4.28766,4.29867,0.851356,-1.0262,2.46243,0.67045,2.88261,2.46039,3.19987,0.650187,2.12472,3.55982,5.41259,4.33849,-278.648,-796.904,-528.504,-9380,-4340,1260
3.32727,4.50769,6.1976,2.51412,1.5727,0.155236,2.30038,1.42994,2.2383,3.52198,3.41168,1.15286,4.10746,2.46858,2.4984,6.3364,-277.672,-793.488,-526.552,-8820,-4760,1680
8.55064,5.23135,4.33866,3.06553,1.94642,0.561587,3.48674,-0.813742,6.87065,7.94525,2.90291,4.27805,5.30781,1.7104,3.92983,8.05273,-280.112,-794.464,-524.6,-8400,-4900,1820
8.81535,4.57199,3.88186,2.70273,0.230137,1.31363,3.94539,-1.90847,8.85738,6.31303,2.0706,5.32507,3.7734,-1.10098,3.94358,9.13085,-280.112,-793,-520.208,-7000,-4480,1820
5.22056,3.38,4.27822,3.73132,1.18124,0.64077,2.1863,0.700096,5.39108,4.987,1.02409,3.54977,2.06549,-1.29604,4.38598,7.49908,-281.088,-796.416,-519.72,-6580,-3780,1680
3.86749,4.07654,4.67184,6.39337,3.61882,1.39127,3.69946,2.99432,4.07313,2.42688,0.138772,4.24411,1.19212,1.88896,6.62049,5.17336,-281.576,-794.952,-515.328,-6160,-3080,1540
2.77722,2.1072,3.00994,7.23965,1.78296,1.66611,5.6537,2.51415,3.62941,0.57549,-0.0166804,4.29495,1.45885,3.89755,6.43418,3.38371,-284.016,-795.928,-516.792,-5740,-2100,980
-1.42876,-3.56308,-0.0552905,1.07217,-0.693251,0.0586597,2.61233,1.35689,-1.30973,-2.35083,-2.12422,0.357586,0.218205,1.05457,-0.176131,0.61746,-285.968,-798.856,-515.328,-5460,-980,560
-7.08114,-11.6931,-3.99004,-8.13335,-7.2603,-1.12741,-4.99837,-6.0199,-7.75097,-8.67534,-2.46459,-4.4308,-2.34709,-1.61646,-8.86929,-6.04545,-285.48,-796.904,-515.816,-4760,0,140
-7.06583,-3.77849,1.59979,-6.47423,-0.868286,-0.975957,-4.76456,-3.36879,-8.43841,-3.40847,-2.97171,1.50023,0.273436,1.86428,-8.08032,-3.77423,-286.944,-794.952,-515.328,-4480,840,-420
-17.3506,-18.9301,-7.29675,-19.707,-11.5269,-4.4086,-13.4926,-7.11974,-23.7533,-12.5007,-6.35484,-10.2293,-2.54782,-3.59118,-19.3645,-11.0005,-286.944,-801.784,-514.84,-3920,1540,-700
-15.369,-22.3689,-5.64551,-21.2094,-11.2884,-4.06069,-14.9411,-4.86557,-22.8072,-12.4391,-3.66983,-13.1612,-2.51703,-6.32382,-18.854,-10.9918,-287.92,-799.832,-515.816,-3220,2240,-1260
-5.63074,-12.0803,-2.09421,-10.7668,-9.08457,-2.89445,-10.1739,-4.485,-7.17416,-6.38175,-0.934321,-8.55108,-3.20827,-5.85126,-9.84459,-10.0277,-286.944,-797.88,-518.256,-3080,2520,-1680
0.722285,-2.72194,1.05927,-3.29916,-5.34805,-0.747551,-4.71087,-1.05017,3.14607,-2.21897,0.0268191,-1.57267,-2.37701,-4.45875,-3.05706,-5.12876,-286.456,-798.856,-519.232,-2380,2940,-1960
1.89318,1.65449,1.3812,0.111735,0.0243553,-0.0350655,-1.1624,2.3617,6.88114,0.300703,-0.0828843,1.29101,-3.32726,-2.77967,1.61023,-1.63918,-283.528,-797.88,-517.28,-2380,3080,-2520
2.63797,4.93283,1.69084,2.2006,1.31182,-0.198294,-0.319564,3.12008,4.54015,1.18903,-0.265583,1.1424,-4.29015,-2.02596,3.04395,-0.612588,-282.064,-800.808,-518.744,-2380,3080,-2660
3.80429,6.9235,0.0146115,5.14501,2.56616,2.31547,3.35881,3.95754,2.98195,1.13541,0.678927,2.70122,-2.64891,0.71063,6.66979,4.15553,-282.064,-800.808,-517.768,-2380,3080,-2940
5.99686,9.00722,-1.69823,8.27439,6.32467,3.34228,6.06196,3.32879,5.18143,3.74866,1.75376,3.9955,0.167663,2.56334,8.18048,6.6055,-280.6,-799.832,-518.256,-2800,2940,-3220
1.16514,2.06167,-5.31005,7.64241,4.83774,2.21798,5.83187,-1.50358,1.9453,-0.775762,1.15136,1.47863,-0.136462,3.30675,8.45914,2.7441,-279.136,-800.808,-517.28,-3080,3080,-3500
2.52241,8.7438,0.206982,13.1218,11.2835,2.08732,10.4715,2.89845,4.16475,4.8729,1.11162,5.61906,1.87821,5.02896,12.314,4.5724,-276.696,-801.296,-521.184,-3640,3080,-3920
1.12369,6.24249,-1.38369,7.09328,5.35322,0.154924,5.36145,0.606732,2.71924,2.17869,0.634043,4.78907,1.09129,2.5823,5.93063,0.596478,-275.72,-803.736,-519.72,-4200,3220,-4060
-0.272673,2.05944,-1.93599,0.437657,1.41715,-1.45726,-0.724856,-0.936162,2.65213,3.80682,1.9072,1.87144,0.302009,1.37843,-2.99692,-2.79866,-273.28,-807.152,-521.184,-4620,3220,-4200
1.38021,1.4977,1.51454,-2.14569,0.383211,-1.5115,-0.428383,2.29019,2.72806,7.63693,0.764614,1.47284,0.32194,0.726118,-4.5733,-2.30696,-277.184,-807.152,-521.672,-4760,3500,-4340
1.28823,2.42729,3.41265,1.79506,1.22266,-0.207233,3.96821,3.43299,2.08273,5.59154,-0.32444,3.04787,-0.483523,0.836966,2.20747,-0.237497,-278.16,-808.616,-524.6,-5180,3220,-4340
0.826407,3.19802,3.13164,4.1457,2.46356,1.6266,4.23024,3.14107,1.48356,1.85391,-1.88816,2.77081,-0.923212,1.20124,4.3213,1.42118,-278.648,-807.64,-521.184,-5320,3080,-4340
-1.74432,-3.72228,0.129436,-2.60054,-3.22014,0.483798,-2.98619,-0.551022,-1.9228,-4.37582,-3.57184,-4.20311,-2.26407,0.251229,-1.23744,-1.65306,-279.624,-811.056,-530.456,-5460,3360,-4200
1.53518,0.794428,2.40754,1.69656,0.616465,0.814957,0.32751,2.4181,2.37666,-2.35959,-0.673698,-3.37854,1.25412,1.37524,3.21047,2.54915,-277.672,-813.008,-520.696,-5460,3360,-3920
0.847204,1.36107,0.9018,5.18977,2.02184,1.16604,5.5338,4.99982,-1.53549,-1.3611,-1.27289,-5.1579,3.15811,1.18834,7.26542,6.4833,-278.16,-813.984,-528.504,-5180,2800,-3640
0.589767,-1.48218,-3.87704,1.37804,-2.05007,0.424566,2.47356,4.05994,-2.64367,-3.16466,-1.08925,-5.193,3.69985,0.0279332,0.918279,6.23549,-281.088,-815.448,-527.04,-5040,2520,-3220
4.49657,-0.383443,-0.591887,-3.77484,-2.28171,-1.26031,-4.67241,0.95347,1.60591,2.19586,0.553471,-1.42077,4.38644,-2.56286,-6.41546,2.81593,-280.6,-813.984,-528.504,-4760,1820,-2380
3.88405,0.112616,2.78912,-2.02891,-2.08598,-0.733154,-2.75022,-1.58146,3.5231,-0.289219,0.990177,0.979394,3.00061,-3.58956,-2.18775,-0.321758,-283.04,-814.96,-531.432,-4340,1540,-2100
5.4857,4.1387,4.80657,0.739344,-1.25937,-0.164853,-2.01889,-4.10353,9.23248,1.09035,1.70537,4.41556,2.34466,-0.635458,-0.946009,-1.61184,-281.088,-814.472,-533.384,-3640,980,-1400
1.97306,3.43001,5.31624,-0.924777,2.00203,-0.641184,-1.10135,-2.26401,3.49486,3.23191,0.602411,4.15777,0.595214,0.620629,-2.86757,-1.02018,-281.576,-813.008,-535.824,-2800,560,-840
-0.602667,-1.26306,0.500477,-4.0436,-0.430063,-0.557601,-4.17265,-4.61529,-0.942487,2.67879,1.88052,3.99919,-0.880967,-0.387177,-6.7671,-4.51783,-283.528,-816.424,-536.8,-1960,0,-560
-1.52048,1.91799,2.04787,-3.27973,2.77075,0.859204,-3.28841,-1.76548,-3.13511,5.58891,2.03899,5.32559,1.0382,0.321515,-6.77989,-2.84109,-284.992,-813.984,-538.752,-560,-420,0
-10.157,-11.8813,-6.50123,-14.9941,-8.49977,-1.83284,-8.9946,-5.28361,-15.5954,-5.14339,-1.23599,-4.66194,-2.96649,-1.8203,-13.1319,-7.39039,-282.064,-811.056,-541.68,420,-980,280
-11.3365,-11.7994,-6.68059,-15.5974,-8.46557,-2.47059,-8.14757,-4.72865,-17.7513,-6.58229,-1.62899,-6.88759,-3.47562,-3.52432,-12.7013,-3.56838,-284.504,-811.544,-539.24,1960,-1680,140
-9.33458,-10.2482,-6.99773,-10.3136,-6.30672,-1.72985,-3.38029,-6.23767,-15.407,-8.9233,-2.77406,-7.96809,-4.15895,-3.06975,-8.05327,-2.0508,-284.016,-808.128,-538.752,3360,-1960,140
-0.607062,-0.170234,-3.38457,-1.39391,-1.57486,-1.06969,0.885161,-5.30802,-0.953046,-4.17814,-0.5738,-3.34543,-1.9136,-1.2248,-0.72263,0.22106,-280.6,-807.152,-538.264,5180,-2380,0
1.12401,1.91849,-2.43339,6.75991,1.85473,0.00355537,4.89808,-3.25166,3.94297,0.361591,0.375392,-2.37632,0.0674587,-0.085486,6.34271,2.86209,-277.672,-802.76,-535.336,6580,-2660,-140
0.546177,1.68502,-1.01742,10.0998,4.30514,0.950027,5.63638,-2.36139,3.23882,1.63787,0.918054,-1.9096,1.98102,0.256274,7.96429,3.49653,-277.672,-803.248,-534.848,7700,-2940,-140
2.04689,1.19394,-1.35561,7.85919,3.33103,0.174631,4.99747,-0.93515,6.4542,-0.05947,0.296864,-2.85672,1.78002,1.41664,6.62818,-0.0459165,-276.696,-801.296,-528.992,8820,-3080,-280
3.26451,1.35394,3.3698,6.2488,2.22614,0.300057,4.00032,3.69728,5.99978,1.19706,-0.930762,-3.31213,0.289082,1.78015,5.0113,-2.34008,-274.744,-799.832,-529.48,9240,-3080,-280
1.26185,-1.15075,3.43012,2.00304,-5.32592,-0.0234968,-2.08993,-0.453686,5.47106,-2.68463,-0.39268,-2.98744,-1.22911,-1.26171,1.448,-5.80474,-273.768,-795.44,-530.456,9520,-2800,-420
1.89854,3.42549,7.57723,5.23268,2.00367,1.12927,-0.84692,3.04796,6.63613,1.57175,0.496373,3.21854,-0.17763,0.0593636,5.83956,-2.03757,-273.28,-794.464,-526.064,9520,-2660,-140
-3.85119,-1.54803,2.34039,3.23801,0.344135,2.16234,1.00224,5.32534,-1.72279,-2.76325,0.281697,2.12829,-0.874412,1.23693,8.1814,-2.07602,-272.304,-791.536,-527.04,9380,-2100,0
-0.799197,2.00882,0.0963095,1.14352,0.866682,2.96999,-0.788881,7.44183,0.829776,0.728406,1.92635,4.47251,0.42188,2.59229,4.70317,-0.880239,-274.256,-792.024,-522.648,8680,-1400,560
5.5717,8.4043,0.770691,2.18459,2.04731,2.05099,-0.829862,5.86795,6.37005,4.78046,3.18111,7.47385,0.273698,3.73073,1.43939,1.56614,-274.256,-786.656,-526.552,8120,-560,700
8.51666,10.836,0.98591,4.7839,4.76797,1.59008,3.08443,4.40084,9.35194,4.94398,2.59331,9.1051,0.85875,5.40505,5.55461,6.08178,-278.16,-788.608,-523.136,7560,280,1260
4.00669,7.85759,1.28693,2.4654,7.57234,1.6163,5.35502,7.11176,4.22988,2.97847,0.811144,6.67327,0.42831,2.24723,5.60083,11.6629,-279.624,-789.584,-526.552,6440,1260,1680
-3.7726,-2.29873,-4.39172,-3.92349,3.1006,-0.0742556,4.1595,4.29885,-5.54176,-1.69361,-2.07418,0.159713,-2.43093,-1.929,2.61459,9.38718,-281.088,-787.632,-529.48,5880,1960,2100
-2.42004,-1.18505,-3.83634,-0.363401,5.23673,-0.512246,7.29693,4.36847,-4.45606,0.623695,-0.417236,2.57418,-2.50174,-1.18571,5.30832,9.23236,-286.456,-787.144,-524.6,5040,2940,2800
5.75397,2.64575,1.89755,5.11027,6.08293,0.803215,4.83646,2.1183,1.78164,5.28659,4.70994,7.14264,-0.24718,2.19308,3.26881,5.34246,-289.872,-792.024,-524.112,4200,3360,3080
-0.0380891,-1.05341,1.38164,1.43222,1.87899,1.30501,2.74479,2.20478,-4.41807,-1.08288,1.8683,3.60996,0.497187,0.572895,-0.0341803,3.21514,-289.384,-789.584,-524.6,2940,4200,3500
-4.06484,-7.37943,-2.20068,-5.1427,-5.04845,-1.8324,-0.503146,-1.32651,-8.02329,-1.31771,-1.23555,-4.48701,-1.68471,-3.42709,-6.26342,-1.44154,-286.944,-793.488,-524.6,1260,5180,3640
1.05042,-4.47268,-0.475192,-2.75782,-5.35662,-0.807941,-0.518286,-4.08766,1.37743,1.15505,-0.709966,-3.53084,0.345129,-2.31287,-4.22168,-5.47132,-293.776,-797.88,-525.088,420,5320,3780
6.20933,0.366355,3.63584,-1.35423,-5.47422,-0.871125,-5.31837,-5.49134,10.1435,4.65632,1.39125,1.53078,3.60576,0.774808,-6.74927,-8.71779,-293.288,-803.248,-526.064,-980,5740,3780
5.70483,2.29176,5.6858,-2.59276,-4.16124,-3.06878,-9.93709,-5.10401,9.33831,6.20904,0.190166,2.48786,4.22449,0.919408,-11.1302,-9.63961,-295.728,-805.2,-524.6,-2100,5740,3780
-4.41741,-8.20176,-1.19474,-5.77388,-5.79792,-4.90542,-7.41439,-4.45076,-3.7526,-4.37933,-4.94077,-4.97413,-0.395256,-1.32158,-7.16425,-6.90235,-293.288,-809.592,-524.112,-3220,5460,3220
-1.51988,2.7242,2.37576,5.46803,6.71554,-2.24129,1.57263,1.21483,-2.24345,-2.5385,-3.73649,1.20442,0.965109,0.770698,2.65658,2.52278,-291.336,-809.104,-524.6,-3780,5180,2940
-8.56644,-5.44461,-5.42486,-3.56461,-1.04772,-3.41905,-4.41707,-5.17084,-11.2766,-9.5861,-4.22647,-5.63014,-1.51742,-1.59592,-7.67163,-4.82981,-295.24,-812.032,-524.6,-4480,4760,2520
-9.29763,-10.5457,-4.44544,-8.03398,-3.0681,-1.98479,-6.36801,-2.79759,-12.4319,-7.06363,-2.21682,-9.3642,-0.188691,-1.85565,-11.639,-6.27144,-291.336,-819.84,-525.088,-4620,3780,1680
-5.3673,-11.4864,-4.60724,-11.7053,-9.37249,-2.64628,-10.229,-5.39065,-7.14553,-5.49024,-1.13575,-12.3414,-0.498376,-4.20488,-13.3118,-9.23807,-287.92,-820.328,-529.968,-4620,2660,840
4.31946,0.203045,0.309419,-7.13981,-7.40594,-2.0034,-9.38497,-6.42551,5.04585,2.15755,1.47939,-7.38358,1.35934,-4.16692,-7.10947,-7.48292,-289.384,-821.792,-528.992,-4480,1820,140
2.43267,8.44778,3.17284,3.35614,0.27423,1.44414,2.63701,-1.67774,3.93409,1.31755,-1.09494,-3.22253,0.804121,-0.925292,8.48127,1.94656,-285.48,-819.84,-526.064,-3920,560,-700
-1.99485,8.52404,1.01323,6.90433,1.60509,3.60452,9.25136,1.76081,0.274088,-1.71612,-3.16355,-3.24326,-1.46376,0.503495,14.3863,7.46941,-285.968,-821.304,-526.552,-3360,-560,-1400
0.655301,8.49144,0.277373,5.56067,-0.698041,2.91827,7.76331,1.88191,3.80706,1.48766,-0.0897174,-0.754937,-0.0325849,-0.034081,11.7809,7.34791,-282.552,-817.888,-524.112,-3220,-1680,-2100
4.39628,4.85674,0.0306575,0.895154,-2.11747,1.54742,2.06851,1.37475,5.67842,5.57331,2.29139,1.4954,-0.223749,-1.49743,3.07842,4.25354,-282.552,-819.84,-526.064,-2940,-2520,-2800
2.1479,2.65689,-4.73886,2.73443,-1.79233,4.2173,2.53873,-0.405957,2.86424,0.686328,0.914129,3.7102,-1.47154,-0.980191,4.14652,3.41837,-281.576,-814.96,-527.04,-2940,-3360,-3220
-0.540292,3.26824,-0.707081,4.86086,4.02685,4.35157,5.415,1.12484,-3.3531,3.26968,1.61797,5.14872,-1.06314,0.982055,6.86602,5.39448,-279.624,-813.496,-527.528,-3220,-4060,-3640
-1.85357,0.2736,0.386046,4.82774,5.39927,3.91047,5.34162,0.458552,-2.14108,-0.401722,1.32876,5.92217,-1.21624,3.39511,4.00181,4.28428,-280.112,-813.008,-531.432,-3640,-4480,-3780
3.12441,5.79127,4.12169,10.2427,11.2173,4.17903,8.5441,3.50592,7.96991,1.25847,0.220118,12.328,0.987283,7.23169,7.04299,7.19629,-276.696,-811.544,-533.872,-3920,-4900,-3780
-1.23624,-2.58808,-1.50659,0.485462,5.50409,0.392757,1.89143,1.27893,0.0579168,-3.03758,-2.1076,3.28592,-1.76603,1.8002,1.33862,2.59143,-280.6,-809.592,-536.312,-4200,-5040,-3500
-6.91899,-8.84395,-2.95661,-7.20028,0.0152497,-2.13334,-3.1649,-2.53958,-9.78341,-3.89656,-2.05462,-4.1811,-3.09235,-2.21842,-2.48498,0.215328,-278.16,-810.568,-539.728,-4340,-5460,-3220
-2.87728,-2.77228,6.12319,-4.50388,0.533941,-0.0644942,-4.49382,-1.48633,-6.80003,2.61371,1.78508,0.946982,-0.53766,0.785642,-7.38912,0.281671,-277.672,-805.2,-540.216,-4620,-5740,-2380
-3.06643,-5.48274,5.56329,-11.0797,-4.6263,-1.35993,-12.4852,-5.00088,-6.48693,0.691258,2.08215,0.725793,0.937206,0.387515,-20.3311,-9.07407,-276.696,-804.224,-540.704,-4900,-5740,-1680
-0.222097,-7.2686,6.88714,-13.1195,-3.79579,-1.43802,-12.3657,-1.68278,-2.58075,2.87929,4.65764,0.785547,3.01078,-1.23002,-20.3027,-10.551,-274.744,-805.688,-544.608,-5180,-5600,-700
6.19037,-3.4204,5.14979,-8.01532,-2.48167,-2.5079,-9.04819,-0.102944,3.04061,4.95479,5.67343,0.792094,2.53626,-1.84376,-13.2508,-10.5204,-274.256,-801.296,-540.704,-5460,-6020,280
14.2155,10.4291,5.17909,9.51532,6.17917,-0.416471,5.12523,4.57228,14.0962,7.37026,8.17394,7.77584,4.73671,2.7301,7.06005,-2.70743,-273.28,-801.784,-537.776,-6020,-5880,1400
6.69882,6.58855,2.11192,13.98,8.55445,0.251661,13.0201,9.58329,6.13029,3.17035,4.48573,3.59801,2.32242,4.69844,17.129,4.20287,-272.304,-801.784,-540.216,-6440,-6020,2800
-4.02499,-3.06722,-6.37705,7.52201,2.45102,-2.92541,9.20438,7.44401,-4.04792,-5.63368,-1.56394,-2.43508,-1.33457,0.779379,13.6328,2.96623,-274.256,-800.32,-538.264,-6580,-6160,3780
1.15915,-3.25543,-7.1682,3.0653,-1.60489,-3.05618,2.91527,2.09453,-3.41897,-2.04131,-0.0843179,-2.27099,0.569669,0.088123,9.49079,0.220984,-271.328,-799.344,-539.24,-6720,-6160,5180
5.04718,-2.56553,-5.84109,-2.09917,-2.06343,-1.6638,-1.64519,4.71506,0.490583,0.788089,0.00133852,-2.12107,0.671218,-0.0793483,0.802177,2.26045,-274.256,-800.32,-538.752,-6580,-6300,6020
0.221776,-5.2184,-10.9507,-4.27637,-6.59466,-2.65791,-3.00203,2.79134,1.45019,-5.27504,-2.99378,-5.53098,-3.0446,-2.72468,-2.29255,2.02083,-271.328,-797.88,-533.872,-7000,-6580,7000
2.16624,8.09036,-4.48251,8.06319,2.90379,-2.04781,6.13154,4.92314,10.6894,-1.2111,-4.88373,0.243445,-1.50752,-1.67321,11.2206,7.25465,-273.768,-802.272,-534.848,-7420,-6720,7840
-4.80993,2.29747,-11.2467,6.42021,-1.83588,-3.31064,6.24822,-0.911865,6.94856,-7.70843,-6.73611,-3.96761,-4.62386,-4.15849,13.8294,1.65978,-273.28,-799.344,-532.408,-7700,-6860,8540
-11.419,-1.06348,-9.99306,-1.24827,-1.94012,-0.721616,1.77733,-0.414636,-2.83526,-7.64875,-10.1328,-4.66436,-3.62686,-4.07766,2.94609,-1.18841,-274.256,-803.736,-531.432,-7980,-7000,9240
-17.7443,0.884167,-3.01478,5.55159,4.61082,7.77862,6.30315,2.99608,-15.5193,-12.8203,-15.6791,1.17879,-1.13792,6.12676,2.53389,2.57306,-275.232,-803.248,-535.336,-8400,-7280,9800
-6.92632,7.21572,9.58087,11.9168,11.9373,10.6416,9.33652,3.22692,-11.1858,-0.281024,-3.50921,10.2072,6.72703,11.5259,1.39439,7.73306,-277.672,-807.152,-532.408,-9100,-7280,10220
-1.2567,-8.65192,3.47116,-12.62,-9.4614,0.213367,-11.033,-6.25554,-2.89296,3.53395,2.70217,-3.88531,0.938189,-3.29505,-23.2537,-2.54643,-280.112,-807.152,-532.408,-9520,-7280,10640
3.92895,-12.0058,-1.11161,-18.6682,-19.91,-6.6744,-18.1637,-14.741,6.11174,3.77502,2.42366,-11.1909,-2.96388,-10.7606,-19.8065,-10.8618,-277.672,-806.664,-531.432,-9800,-7420,10920
11.6115,4.69681,6.23813,-0.193785,-6.42976,-2.95826,-3.68371,-7.9882,17.5424,6.65378,3.69898,-1.45013,0.721375,-3.91754,2.12216,-2.23172,-280.6,-798.856,-531.432,-9800,-7560,11200
11.0069,7.64148,9.02421,9.41211,2.93693,-1.21309,8.13739,0.611774,10.3664,9.48326,7.22135,-1.32529,1.23628,-0.289202,18.1535,6.04826,-279.624,-794.952,-529.968,-9940,-7560,11480
16.3701,18.7046,12.9248,26.7348,14.8028,3.74478,23.4515,6.32715,18.3881,12.0512,9.22495,8.54097,3.46851,7.97567,36.901,16.1757,-280.112,-792.024,-530.944,-10360,-7000,11620
13.5263,21.8288,11.3775,18.8978,13.3812,4.00684,14.4681,5.12228,21.7248,7.38555,-1.26589,7.60782,-1.22621,7.15057,18.586,11.1354,-278.648,-786.656,-526.552,-11200,-6300,11480
6.0868,0.203578,3.35903,-16.7526,-7.37602,-2.38059,-12.7181,-7.13548,7.38994,4.19178,0.227918,-4.74088,-4.50962,-5.09245,-20.9636,-7.61398,-277.672,-785.68,-530.456,-11340,-6020,11480
-5.14993,-13.1559,6.27879,-27.0569,-10.5549,-0.454528,-19.9532,-6.92355,-17.2487,4.39974,5.40845,-6.42697,-0.325869,-6.83797,-30.7297,-9.68606,-281.088,-784.216,-531.92,-12180,-5320,11480
-25.0247,-21.5236,-0.418337,-23.6143,-10.8708,-1.62681,-24.2119,-10.9112,-41.8173,-9.52219,0.0258794,-10.8967,-1.68472,-9.00703,-29.9327,-16.1487,-281.088,-778.848,-531.92,-12600,-4760,11340
-31.3611,-26.9028,-11.0738,-28.3457,-16.8747,-4.17099,-33.6037,-17.1396,-44.2448,-19.3338,-5.39942,-16.0778,-5.16785,-12.2362,-40.0165,-24.7599,-284.016,-773.968,-529.48,-13440,-4200,11200
-4.39757,-5.63408,-2.01326,-14.4478,-4.02984,2.35347,-17.9801,-4.18437,-12.8343,-0.872131,3.902,0.674138,2.31101,-1.61151,-28.0622,-10.2622,-280.112,-762.744,-530.456,-14420,-3080,11200
15.2987,22.1034,9.01676,15.4363,15.2258,7.30057,5.92362,2.58809,13.1068,11.596,9.75266,22.4031,7.51489,11.5963,1.41017,4.2385,-278.648,-758.352,-526.064,-15960,-2240,11060
-2.36907,4.12958,3.04326,5.9641,12.6594,6.01661,9.83914,8.89369,-7.60132,2.02902,4.57635,12.5824,5.7919,11.0326,4.18407,6.68415,-279.136,-760.304,-527.528,-18480,-980,10640
0.968111,-6.45571,-3.83801,1.93862,9.54952,5.27292,19.9404,16.9984,-1.182,2.68622,5.731,4.96851,4.38375,11.1726,20.389,13.4297,-277.184,-760.304,-531.432,-20020,140,10080
20.055,10.6567,-4.15404,19.9433,12.588,2.59938,28.4202,14.7121,30.0911,11.605,11.5001,13.3636,4.55065,9.27111,43.2129,15.9874,-279.624,-764.696,-528.504,-22820,1680,9380
7.10523,6.67199,-17.255,9.44811,-2.68072,-11.1762,4.91136,-1.83689,22.8065,-5.18157,-2.89309,0.723686,-7.06595,-5.87556,21.8275,-3.18773,-281.088,-771.04,-532.896,-25060,2660,8680
-18.4183,-4.98575,-21.7258,1.96405,-4.04051,-5.64048,2.99368,3.1333,-7.42029,-29.2669,-25.9174,-8.57587,-12.3777,-2.00139,7.01333,1.38192,-283.04,-772.992,-528.992,-26740,3220,8400
-7.86902,-6.16625,-4.67082,1.48698,3.24843,4.20464,10.4832,17.0982,-4.44794,-13.1527,-13.9514,-0.657723,-2.58092,8.44711,0.931408,13.0573,-280.6,-778.36,-535.336,-28420,3920,7980
10.149,1.01411,7.34408,4.50322,3.27011,-2.06091,3.73352,5.03844,11.2085,8.30054,5.60993,4.72475,3.73038,0.887372,1.4968,0.361075,-284.016,-783.24,-531.92,-29540,3920,7840
8.55354,-0.918565,2.22808,7.87733,-0.527932,-6.81636,2.92574,-5.49517,9.68123,8.04152,6.66321,2.07095,2.07298,-4.51282,8.50842,-3.35411,-287.432,-787.144,-528.992,-31080,4200,7840
7.17069,-0.922882,0.225665,-4.3562,-6.93399,-8.93217,-15.4772,-14.8253,6.78259,7.67734,2.24614,-2.57608,2.06872,-11.3979,-14.2348,-11.7483,-292.312,-792.024,-528.016,-32620,5040,7700
-17.7908,-22.3401,-5.35878,-20.7486,-17.5239,-5.28706,-27.3291,-21.0794,-28.6621,-11.9319,-9.97349,-16.9483,0.210172,-11.3657,-30.8685,-17.3116,-291.824,-793.976,-524.6,-33460,4900,7980
-28.2621,-14.9663,-1.31506,-3.20701,-2.34844,-0.392198,-5.24004,-8.21237,-39.6267,-16.8743,-13.1233,-14.8913,1.45471,-3.63958,-0.340782,0.79179,-291.336,-796.904,-522.648,-35000,3780,8400
-15.5675,-1.3848,2.26852,15.6443,8.60901,4.84954,19.4815,4.96166,-18.2886,-11.8725,-8.45144,-7.46345,1.26969,3.89843,29.5456,15.0615,-292.8,-798.368,-520.696,-36120,3220,8820
10.9129,10.5194,11.1054,9.29833,5.52358,4.48496,12.1851,4.13554,15.0771,7.72359,4.11918,0.281729,3.51931,2.09143,14.5628,7.83748,-294.752,-807.152,-526.552,-37240,3220,9100
32.2285,32.0164,17.4767,15.3221,9.15291,5.73806,7.76227,1.15979,44.6063,20.6979,11.9287,16.5206,5.07841,4.97945,8.78992,2.11246,-294.264,-807.152,-528.016,-38080,2520,9100
17.9491,20.902,5.46608,11.9101,4.8829,4.35156,10.7697,5.61548,27.6553,7.56765,1.84153,8.4001,-4.61016,2.57117,14.4074,4.60466,-295.24,-810.08,-527.04,-38220,1540,9240
9.53943,8.39305,0.818499,0.979636,-0.733205,2.79286,4.656,3.40392,12.1177,5.97124,0.79329,3.19397,-4.50673,-1.26798,4.02496,0.869058,-295.728,-813.008,-531.92,-38640,560,9660
4.30058,0.256433,4.16016,-8.52289,-2.47595,5.60297,-3.05771,3.05336,3.38739,7.05882,0.64149,2.97221,0.649651,2.46413,-13.8203,-1.88355,-294.752,-811.056,-533.872,-38500,140,9940
-8.73511,-15.6594,-6.69427,-22.7208,-14.3812,0.155056,-13.2392,-1.2066,-9.02925,-3.42757,-3.40032,-9.83813,-5.33927,-5.56503,-27.1548,-10.0176,-297.68,-803.736,-535.824,-37520,-840,10640
14.9241,10.8733,5.91114,3.50949,4.15191,0.910532,3.09604,5.12364,19.9927,15.4156,7.07302,8.77719,-1.28911,2.12632,-1.53939,0.425339,-296.216,-795.44,-533.872,-36820,-980,11340
12.403,5.9676,-0.60374,1.04962,-0.635794,-2.5891,3.05689,5.11356,17.158,10.667,8.63014,2.57017,-3.01177,-1.26287,0.263794,-0.823885,-295.24,-790.56,-531.92,-36540,-700,11760
-10.6941,-14.265,-10.4046,-10.3347,-9.49107,-3.59832,-5.98527,3.58991,-13.2943,-5.17715,0.180367,-13.097,-7.78596,-5.16991,-8.86347,-3.98158,-294.752,-788.12,-531.92,-36400,0,11760
-7.12933,-15.4858,-8.33672,-16.1815,-14.5209,-6.52476,-21.3847,-7.44318,-13.2492,-2.09226,3.82001,-13.4825,-4.41101,-9.29602,-21.7541,-12.7415,-291.824,-785.192,-529.968,-36120,560,11480
-5.13838,-5.67235,-6.38098,-10.7809,-9.9633,-7.39189,-21.4245,-9.29828,-7.21777,-3.79505,2.35838,-6.81204,-1.77687,-7.51697,-22.0702,-11.8459,-292.312,-780.312,-534.36,-35840,1540,11060
-3.77028,8.35813,2.86359,5.91006,6.35078,1.11971,-3.31971,0.36292,-4.31261,-3.4724,-0.661431,7.12923,4.54516,5.63489,-4.59278,4.16052,-290.36,-779.824,-533.872,-36400,2380,10360
8.18616,13.1144,11.3088,15.8589,11.738,4.1833,10.3854,0.93212,3.00491,8.71343,9.92284,15.3193,9.70977,11.0966,15.0642,11.2215,-289.872,-779.824,-537.288,-36540,3500,9800
1.53013,19.4626,10.0595,30.2092,21.8256,4.42362,22.5145,5.50798,-1.72183,6.57121,7.52206,16.8987,9.98183,11.5967,34.2878,17.6062,-287.92,-781.288,-536.8,-36680,4200,9100
-17.8096,1.07978,0.0105599,10.1255,10.9742,1.5636,4.64331,1.74688,-23.7119,-8.81448,-4.9733,4.05383,6.98454,6.30983,8.01593,6.25302,-290.848,-786.168,-542.656,-36400,4760,8120
-41.297,-36.5544,-14.7852,-17.5812,-7.27446,-1.16449,-3.53861,2.31967,-57.2037,-27.9385,-14.9765,-18.1871,-1.4919,-2.14706,-6.58113,1.36055,-288.408,-780.8,-546.072,-35980,5040,7140
-24.2613,-32.094,-9.05738,-18.2857,-4.16471,1.79583,-2.61069,1.96298,-38.3734,-14.5205,-8.14442,-11.7513,0.257972,3.13044,-7.57874,2.87883,-287.432,-783.728,-551.928,-34720,5040,6440
-25.0601,-31.6706,-12.6474,-36.4614,-19.1633,-5.2648,-30.7081,-14.1996,-28.2759,-20.0274,-11.5371,-17.2462,-5.58825,-6.87906,-40.178,-19.31,-287.92,-776.896,-551.928,-34020,5180,6020
-15.6076,-15.5445,-13.7861,-15.8192,-10.9019,-6.11201,-8.24215,-4.22482,-8.859,-20.4401,-12.5911,-11.9051,-9.19525,-6.54963,-9.98301,-6.36079,-285.968,-770.552,-548.024,-32760,5180,5600
34.9411,27.864,13.672,23.9143,17.9617,6.52033,19.3874,6.54287,42.7049,19.1591,7.37624,22.1757,5.74796,12.3871,24.575,11.2212,-283.528,-771.04,-543.144,-32200,5180,5460
18.1823,12.0079,7.18132,14.0264,10.0865,8.28926,10.6566,1.48669,18.2741,7.83081,-2.01556,12.4721,2.42867,8.97426,14.6167,3.02861,-281.576,-772.016,-542.656,-31920,5040,5180
18.2497,15.1197,5.84997,10.1073,6.82553,1.9725,5.26809,-3.20329,22.7606,8.63139,-1.52175,9.35927,-0.245716,0.471354,9.01647,-1.5375,-280.112,-770.064,-545.096,-31640,4760,4900
15.7987,11.8122,1.5747,6.24244,-2.0489,-2.51513,5.01634,-6.01147,23.4036,5.20643,1.65578,3.67898,-2.7371,-6.02214,8.00922,-2.58717,-279.136,-771.528,-543.144,-31080,4340,4900
1.71716,0.757815,0.658086,1.2463,-2.08829,-0.474838,9.43333,3.22165,4.73435,-0.795078,-0.972859,-2.79217,-3.99424,-2.98557,8.23067,3.99263,-275.232,-771.04,-544.12,-30240,3220,5040
0.535183,-6.21829,-3.87059,-17.5493,-17.1061,-5.83615,-17.8361,-10.7943,5.22852,-1.46655,1.47491,-9.08373,-4.24059,-8.86728,-22.8311,-15.8338,-276.208,-772.992,-544.608,-29260,2940,5040
20.853,23.1518,12.4427,15.5004,7.12064,2.31012,8.40595,0.769316,29.8966,16.6161,9.05092,14.7913,6.5477,3.35467,16.9103,5.19377,-275.232,-775.92,-548.024,-27440,2100,4900
21.7374,24.9475,19.3744,27.6372,21.482,10.8801,28.7765,13.3305,27.9552,19.7392,8.50727,21.1573,11.4259,12.4233,37.9945,21.989,-280.112,-776.896,-549.488,-26040,1400,4620
3.91538,3.5215,5.17458,-1.35909,1.44593,3.41937,-1.68436,3.28235,14.1911,1.99544,-3.49054,0.631445,3.23745,-0.0910113,-1.53146,0.956415,-281.576,-777.384,-555.832,-23660,1260,4340
7.95473,5.26255,-8.93975,-6.09174,-11.0322,-10.55,-18.0115,-7.08483,23.9806,0.401149,0.886226,-10.2663,-4.41674,-15.2328,-11.4869,-15.0313,-284.016,-776.896,-557.784,-21280,560,3780
5.72322,-5.72818,-9.60263,-15.2787,-16.2421,-13.1312,-27.2197,-7.90529,5.50986,7.62795,11.4124,-15.3882,-3.47222,-18.8793,-25.1121,-21.2693,-286.944,-774.944,-551.928,-19180,280,3500
-8.2832,-9.64431,-6.01619,-5.16437,-3.50566,-0.599273,-1.17633,9.3269,-17.0454,-2.68357,4.25617,-9.55757,-2.19334,-3.29563,-6.93653,1.45299,-283.528,-773.48,-546.072,-16800,700,3220
2.08091,9.95841,5.31352,20.0288,16.0841,5.62222,30.308,23.6431,-4.93278,6.35026,5.95033,4.98736,1.58035,8.7295,28.8738,26.0521,-283.04,-766.648,-540.704,-14980,1400,2660
1.53967,4.06626,0.879837,16.5985,6.65112,-2.12067,21.4765,8.43173,-4.32788,5.2473,7.49792,0.376724,0.260271,-1.55443,30.1145,13.3473,-283.04,-770.552,-536.8,-14840,1820,1960
3.58712,2.87974,-0.866024,12.5425,7.6612,-3.93613,21.6128,8.44124,-0.495958,4.45161,4.69514,2.31316,-3.04706,-3.35514,25.3177,12.6229,-283.04,-771.04,-534.848,-15260,2660,840
15.5914,8.40791,6.6126,-0.0447392,3.70731,-1.91932,3.35497,-3.16954,10.3502,15.7892,12.1059,11.8952,2.31017,1.26681,-6.23497,-0.889767,-281.576,-775.432,-535.824,-14840,3080,-280
-5.15766,1.51673,6.88411,-2.96886,-0.348642,-0.493684,-14.2794,-16.1873,-13.4321,4.66882,6.81361,10.58,4.88393,3.59464,-19.2305,-14.7174,-282.552,-770.064,-543.632,-14980,4340,-1540
-41.6811,-41.4114,-12.9935,-36.5266,-24.121,-9.11451,-33.06,-18.1336,-53.6219,-22.2469,-6.70298,-24.1633,-8.3126,-12.4492,-38.9073,-25.9949,-280.6,-781.288,-549,-14840,4900,-2660
-61.3086,-54.9878,-23.0098,-41.4049,-24.8878,0.874829,-25.9333,-7.82206,-66.7824,-50.6319,-34.5297,-36.9618,-15.6666,-4.1359,-33.6269,-15.3327,-282.552,-783.24,-552.416,-14560,5600,-2660
-21.6937,-9.55314,0.356823,-9.26808,3.98326,15.8377,-1.81254,9.71538,-20.3115,-24.5206,-25.8735,-2.72801,-4.07918,16.5245,-11.0574,7.99117,-282.552,-778.848,-550.464,-13440,6440,-3220
-19.661,-12.1106,-7.1636,-20.6656,-9.23262,3.88206,-22.8041,-4.30814,-21.4284,-19.1757,-17.8393,-8.61449,-6.1484,3.02348,-36.7661,-10.7202,-283.04,-783.24,-545.584,-13440,6860,-3220
-13.3108,5.06538,0.715638,-11.2988,-3.35058,4.25321,-36.1949,-19.1215,-11.0998,-12.8725,-12.3084,6.02824,2.11441,4.5691,-49.3459,-21.8312,-288.408,-790.56,-544.12,-13580,7560,-3500
-12.8377,2.7757,2.76909,3.15722,7.90713,5.87984,-5.92645,-7.35679,-19.6981,-4.22277,-3.16467,7.8711,5.29538,8.10307,-10.9116,-2.47199,-287.432,-782.752,-520.208,-12600,8260,-3920
-12.7464,-14.0694,-6.11004,14.5213,9.44336,3.26316,31.1917,16.2293,-21.8276,-4.40596,-1.62199,-7.05158,-0.398441,5.39814,40.4864,22.3029,-276.208,-764.696,-460.672,-12040,8260,-4340
35.2678,4.33596,3.62685,4.73232,1.22457,-0.586821,13.3788,2.97953,43.0831,24.5582,14.9942,3.55014,5.89437,1.19853,19.4251,7.93253,-281.576,-788.608,-509.96,-14700,9380,-5880
61.4066,29.0971,13.6544,14.8166,9.94507,1.81123,14.8942,2.06863,78.3943,38.941,19.5433,19.4701,11.6814,4.83889,20.6797,8.91244,-288.408,-792.512,-517.768,-18340,11760,-9240
75.0762,52.7639,14.0284,40.628,20.5675,0.180442,35.5764,12.3986,95.3998,45.2535,26.8841,29.9002,11.3716,3.99584,49.5775,21.5775,-291.336,-793.488,-525.088,-16380,9240,-11760
53.1863,51.3014,15.3423,31.6609,15.7514,-2.27987,17.871,4.7786,66.4045,35.2072,20.293,28.2881,10.8546,1.13943,26.9367,10.6795,-298.656,-807.152,-556.32,-17080,9240,-12600
19.5486,32.7346,5.4194,24.4906,4.19662,-7.31301,6.66229,-8.90508,24.4488,12.7639,11.8804,15.793,5.47859,-4.49251,23.7815,-0.310372,-299.632,-809.104,-553.392,-16940,8540,-13720
-6.58781,23.0529,4.65863,40.7396,17.78,-0.57311,28.2065,4.13232,-13.6788,0.757646,4.46475,12.4674,3.18838,2.49657,51.3825,17.1366,-302.56,-806.664,-553.392,-15260,7840,-13580
-28.2708,-6.64297,-2.83052,20.264,8.92822,2.56907,27.1457,17.1207,-42.2705,-13.0707,-6.51086,-5.99574,-5.28043,4.38699,32.5562,24.112,-302.072,-802.272,-545.584,-14420,7700,-14000
-88.4183,-67.3111,-29.9356,-35.2989,-29.9991,-8.41753,-18.3589,0.546952,-106.582,-56.0328,-30.1327,-52.7272,-21.1934,-17.1173,-26.3211,-6.47952,-302.072,-802.272,-545.584,-13440,6860,-14000
-101.401,-108.337,-46.3409,-83.6919,-62.6717,-17.464,-60.5352,-18.478,-119.92,-69.7143,-33.6727,-78.1814,-26.3037,-32.0901,-83.0168,-38.6696,-303.048,-800.808,-555.344,-13860,7700,-13860
13.2367,-23.1439,1.53753,-43.6058,-22.5742,-1.97073,-40.449,-13.5187,14.5556,8.26922,7.91596,-8.36199,4.33089,-4.13823,-66.8757,-27.0498,-305.976,-805.2,-569.496,-13160,8120,-13720
58.8008,40.7121,34.1814,-4.16333,12.4416,14.6035,-21.0008,-12.8797,72.0771,37.0483,16.052,43.2582,22.1424,20.7581,-41.293,-16.7695,-306.464,-802.272,-569.984,-11340,7840,-13300
-8.33251,2.85114,6.22094,0.694867,9.78253,8.50708,0.340184,-0.344414,-6.72694,-11.9685,-15.7599,11.6093,1.14276,12.6984,-2.99241,-2.74516,-305,-801.296,-559.248,-10920,8120,-13020
-22.462,-5.66837,-4.34448,15.734,15.8509,10.2534,21.2691,15.5167,-17.8552,-25.1947,-22.4261,5.03846,-4.19364,13.9569,27.3196,16.1895,-302.56,-798.368,-554.368,-10360,9380,-13020
9.01266,-9.96722,-4.31496,-21.3204,-11.3859,-3.96686,-19.3564,-1.94564,17.9774,2.20761,-2.20567,-3.88374,-3.97222,-8.37455,-15.6181,-11.4623,-299.144,-797.88,-547.536,-9800,9940,-13300
35.3065,3.81874,-0.68019,-19.2284,-18.7241,-11.1384,-27.1989,-11.4248,45.9394,21.4186,13.3746,-3.06418,-3.69511,-19.0785,-17.0161,-21.1322,-294.264,-798.856,-538.752,-8960,10500,-14140
87.3982,64.7153,32.5395,24.4229,20.2651,2.56361,-0.410807,-4.23779,104.37,60.6993,33.5163,43.9065,17.0117,6.42084,3.23067,-0.734039,-290.848,-801.296,-538.752,-8120,10780,-14980
65.1283,67.3458,31.3666,41.6666,37.0763,6.38589,25.4663,6.86188,74.2641,49.1963,26.9003,47.837,16.7185,15.1657,29.3656,15.6625,-292.312,-804.224,-544.12,-6860,10920,-15820
-27.7688,9.59971,-7.51946,37.7526,25.9916,0.849159,54.4238,26.3149,-36.637,-14.2263,-7.34989,-0.183234,-7.34816,4.92752,66.1657,36.7475,-291.336,-816.912,-554.856,-4480,10080,-16660
-97.3825,-46.2033,-34.5305,11.8725,2.60178,-7.12929,40.5655,26.236,-119.305,-60.5695,-31.9983,-44.7722,-25.4836,-9.98016,52.8918,28.8033,-289.384,-783.24,-505.08,-1120,9100,-17080
-51.1608,-31.3135,-16.853,10.7308,2.93052,-4.34324,28.2293,15.6043,-68.934,-28.9446,-9.6346,-25.3118,-12.2283,-2.68374,37.2292,19.1067,-293.288,-805.688,-557.296,-840,7280,-17640
-3.35516,-19.6962,-0.518227,-6.89578,-3.80922,-5.04193,7.40249,1.9197,-13.8726,5.7063,13.0733,-12.0024,0.199992,-5.26995,12.3344,3.84946,-288.408,-813.496,-543.144,1260,8400,-18340
21.0276,-1.012,3.77526,-6.98612,-5.99355,-4.28942,1.79283,-0.302189,24.7785,16.1614,16.4116,-3.56914,0.417384,-5.49908,1.43434,-1.08782,-285.968,-810.568,-556.808,3360,5880,-20160
18.6871,-3.79766,0.305817,-23.5254,-19.5534,-6.41482,-28.1822,-18.1422,22.8084,11.8055,13.0384,-5.37771,3.04036,-11.1503,-35.9162,-23.4518,-288.408,-812.032,-549.488,5320,4060,-21280
-22.3066,-38.8035,-17.5831,-50.1023,-42.8347,-11.2486,-57.001,-32.1378,-27.011,-18.8071,-7.22603,-28.591,-5.41546,-20.4739,-68.4543,-46.6206,-291.824,-799.344,-571.936,5600,3220,-21560
-6.35414,-14.6921,-2.10084,-27.6218,-22.3457,0.795673,-42.4308,-19.6918,-10.3786,-7.96859,-7.97367,-6.10974,1.89878,-2.37499,-55.6579,-31.9689,-286.456,-803.736,-557.296,4760,4060,-21280
14.3528,15.4053,6.16478,-2.61535,-2.26778,6.14331,-22.6775,-9.20663,23.5455,5.2088,-6.81429,8.9704,5.36568,6.06457,-28.3363,-14.1741,-286.456,-825.696,-550.952,6720,4480,-21560
33.2172,51.0435,19.0749,34.4053,26.4282,13.4504,9.52762,-2.5822,42.1898,22.3535,5.82166,35.5287,15.5697,19.1734,12.8554,5.35236,-302.56,-881.816,-626.592,10640,4060,-22260
-9.31686,22.3798,5.85125,24.0579,23.2763,15.9879,18.3745,3.39547,-10.2005,-7.50646,-6.96738,20.7808,10.1279,19.5404,15.0913,13.6636,-318.664,-803.736,-623.664,19460,280,-20300
-21.6739,-13.7339,-5.38859,1.24352,10.2384,12.1869,24.5091,19.2,-24.1533,-13.8742,-9.91331,-4.49304,-0.176644,10.4119,21.2968,24.2673,-280.6,-808.128,-595.848,11480,2800,-15820
-9.24848,-17.3661,-8.33976,-4.3233,-4.21057,3.6924,13.5872,6.82978,-9.8814,-7.24568,-1.85459,-9.27501,-4.51631,1.1543,18.9294,13.1296,-306.464,-736.392,-655.872,16100,3920,-17360
7.50463,9.40678,-1.17831,17.6861,7.32472,1.7976,27.7003,16.4856,17.4549,1.65785,-2.95009,2.76756,-5.41169,2.66775,39.0883,25.5653,-262.544,-694.912,-505.08,11760,3780,-12880
29.9758,29.4854,12.8909,20.7452,12.7847,1.17194,13.8005,6.77275,42.5308,21.8241,7.48885,18.1054,4.10459,3.73983,22.9517,13.3691,-279.136,-819.352,-544.608,9380,7280,-15680
20.7508,20.7079,11.4913,7.1625,4.17321,-4.21856,-12.4595,-13.0236,25.5757,16.0476,6.2863,11.3336,6.43661,-4.16554,-7.22211,-9.1613,-281.088,-879.376,-530.944,23100,8400,-17640
9.93107,2.75444,0.321482,-9.06471,-4.22629,-6.74186,-16.5178,-7.59457,5.90778,4.78279,2.21631,-2.5201,-0.125985,-9.16421,-23.2496,-11.4323,-295.728,-894.992,-595.36,28980,4900,-19040
-18.4425,-18.6088,-5.77404,-19.3199,-7.21641,-2.79375,-13.35,1.68119,-29.4782,-14.2759,-5.74121,-11.391,-5.66612,-6.38039,-30.2653,-6.25113,-299.144,-873.032,-718.336,34860,-3640,-17360
-23.5292,-36.2254,-9.06331,-24.6017,-16.907,-6.16587,-16.8123,-6.42597,-29.9633,-15.187,1.19771,-20.6743,-6.47377,-10.2162,-24.1476,-12.0563,-272.304,-713.944,-530.944,33600,-5740,-11760
24.1054,9.30081,7.86405,0.917693,2.27477,-0.190032,5.32677,3.41052,38.3888,11.9405,8.32398,8.69711,1.56247,4.58075,-1.36048,5.78523,-272.304,-728.584,-668.56,24640,840,-11200
36.377,34.5029,17.1071,18.5887,10.4258,1.16594,0.0421182,-8.4661,44.3495,22.2782,12.5103,27.1901,8.05546,10.9205,-1.02792,-2.66431,-259.128,-765.184,-562.664,37240,-560,-12740
0.672005,20.969,14.221,4.73691,3.96255,-2.53333,-30.3632,-20.7021,-4.853,4.42697,-0.334476,17.8282,4.90582,5.61855,-43.3616,-22.9337,-277.672,-857.416,-578.768,41300,1120,-13440
-59.3586,-18.5524,-5.67281,2.60404,6.30521,6.9809,4.26212,11.4522,-78.4245,-40.958,-31.805,-4.25226,-9.32993,12.8458,-10.751,10.765,-274.744,-885.232,-539.728,49700,-700,-14140
-77.9774,-40.5364,-27.5806,13.0141,5.44303,2.21512,43.831,32.901,-97.6518,-49.923,-29.088,-26.6028,-19.6286,3.00641,53.5728,35.0048,-294.264,-882.304,-590.968,56980,-5320,-14560
-47.1484,-35.8645,-26.2899,13.194,2.44499,0.298065,49.7122,28.7736,-59.1792,-28.7362,-9.1809,-25.4766,-13.8529,-3.0578,68.6717,30.9156,-262.544,-699.792,-556.808,53760,-5740,-12040
-8.28985,-30.2728,-9.52461,-7.42765,-9.95053,-3.31986,11.5892,-1.26287,-17.3927,-0.268855,6.04449,-17.6499,-0.314784,-7.38856,29.0686,-0.813727,-240.096,-634.888,-611.464,35140,-3500,-9100
43.3774,-8.01271,0.60213,-29.3571,-22.1654,-11.4168,-18.9152,-12.7886,49.7939,33.1118,17.1914,-10.4852,4.54464,-16.7424,-14.9314,-17.2588,-251.32,-713.456,-640.744,37940,-5600,-10360
56.3224,5.94188,1.27676,-44.1007,-32.7065,-16.6064,-51.4393,-32.1056,72.76,40.1536,20.3029,-7.78711,5.83958,-22.7334,-55.6123,-40.0202,-254.248,-818.864,-512.4,46760,-1120,-7140
58.2652,20.3087,10.1901,-30.4322,-21.4703,-15.1336,-44.7214,-27.4127,71.8363,43.6132,26.2477,3.55531,8.90411,-19.0706,-47.2039,-34.5142,-253.76,-870.104,-480.192,51520,4620,-10080
26.2269,-2.3219,-2.04966,-17.1426,-13.765,-8.91774,-10.5201,-7.65023,31.0772,19.4911,14.0024,-7.65071,1.89808,-11.6075,-5.80687,-10.6389,-260.104,-827.16,-595.848,52360,-980,-12880
25.6903,15.8975,12.5485,3.15553,5.48309,7.73456,-11.4733,-14.9884,37.4093,15.134,9.07326,16.0839,14.3637,9.4581,-4.73767,-12.6766,-266.936,-769.576,-640.256,49980,-13300,-11900
17.3473,21.8615,6.79968,8.79329,8.3402,9.57111,-4.16289,-2.71161,36.6864,1.01092,-3.40252,14.6848,8.08084,11.599,-1.44088,-2.54989,-272.304,-786.656,-646.6,50120,-17220,-7140
-12.9452,24.6474,3.41246,44.0389,33.1941,18.3522,44.3564,28.5561,-0.253001,-23.0539,-20.4521,15.6455,-0.387371,25.303,49.3672,34.5413,-289.384,-836.92,-643.672,55860,-14000,-840
-48.5811,9.51583,-3.57018,54.8006,33.3034,12.5728,51.2325,26.5551,-56.909,-37.2256,-21.2833,6.14505,-6.86891,18.9151,62.1785,32.7788,-289.872,-761.768,-550.952,62860,-12600,4340
-86.9979,-23.2215,-15.7921,27.019,13.4167,4.03719,27.1759,18.8864,-113.024,-54.7489,-28.0225,-17.1697,-13.9747,0.915392,30.3438,17.093,-253.272,-744.688,-581.696,53760,-8960,3920
-54.8458,-21.7153,-3.89737,14.0333,12.1593,9.72085,21.9519,16.2407,-77.7997,-30.9066,-13.0122,-5.15357,-5.45303,5.74673,16.5309,18.1887,-269.376,-792.024,-608.048,56280,-10920,700
-3.92838,-26.4043,-7.43986,-37.8828,-24.2719,-9.08219,-33.6568,-10.5524,-7.25643,4.7374,12.3529,-16.1587,-3.18724,-19.9233,-46.8813,-19.7438,-284.992,-810.08,-537.288,60620,-9100,2660
56.0151,6.51135,6.14805,-38.7722,-23.1245,-5.84467,-45.2305,-19.4044,68.971,32.7236,22.2179,9.30009,6.72147,-11.3597,-62.2799,-29.3728,-294.264,-760.304,-546.072,54320,-7420,3500
88.5197,61.9682,31.0133,18.9497,22.1576,6.67672,3.82399,2.14532,104.486,55.7388,24.9891,49.2472,18.4843,13.8386,-1.30746,7.11173,-257.664,-768.112,-519.72,45080,-10500,4200
56.1783,47.5086,21.0313,22.467,20.4336,2.11306,8.92604,-0.189885,62.6565,37.9558,17.4243,36.2712,11.0722,9.81768,9.18585,8.27511,-260.592,-767.136,-552.904,43260,-12600,2240
28.1048,17.6519,12.8388,3.94162,7.69997,-2.66563,-1.53714,-3.95012,25.6172,27.1483,14.5912,17.6313,7.13979,1.70066,-0.650704,3.66116,-274.744,-777.384,-572.912,43960,-16100,2100
-38.59,-24.985,-12.4448,-12.0824,-9.92794,-4.91605,-6.94609,-1.34087,-48.8918,-20.809,-13.8308,-18.4357,-7.47246,-6.73292,-3.50906,2.2307,-276.208,-789.584,-552.904,44520,-16380,3360
-92.3487,-54.0283,-31.6964,-23.9999,-20.3287,-4.22565,-14.1966,0.226066,-100.916,-66.7864,-42.1424,-42.5514,-19.0895,-7.56131,-13.4661,-3.5011,-264.984,-749.568,-573.4,43120,-16660,1960
-41.8872,-41.893,-19.4687,-20.1325,-13.7761,-3.05782,0.0499116,7.94857,-43.842,-33.3715,-20.0819,-30.3604,-12.5645,-4.36674,0.00276513,4.17968,-276.208,-790.072,-595.36,44240,-21140,560
11.1565,3.8155,-1.51799,11.702,3.21374,-2.97639,13.9839,4.65372,18.2501,4.33029,2.37407,-2.16972,-4.02129,-1.02113,20.4152,4.15083,-297.192,-772.992,-582.184,46480,-23660,1960
37.1157,49.9378,23.8258,49.1762,30.2344,9.7503,25.2282,2.85761,47.9949,24.3715,14.4238,36.0489,11.6852,17.1548,33.6696,9.23887,-274.256,-771.528,-538.752,41720,-22540,6160
4.14125,22.8326,15.7601,25.9625,19.159,8.23125,9.89364,2.3905,1.83578,8.82921,3.9853,17.5245,5.71508,11.8363,8.07008,3.1912,-283.528,-779.824,-611.952,39340,-22120,4900
-23.6696,-20.6106,-4.4315,-15.4521,-8.16976,-0.162078,-11.5629,-4.04877,-37.319,-11.1822,-3.09526,-15.5211,-2.90107,-2.68787,-22.9495,-9.02374,-270.84,-781.776,-539.24,42560,-26600,6160
-2.7291,-31.0166,-14.8296,-43.2808,-34.4178,-13.9716,-29.3493,-11.402,-8.63864,-2.26271,4.52048,-35.3848,-9.14669,-22.133,-38.0097,-21.1237,-288.408,-816.912,-581.208,41300,-26460,7280
2.38733,-24.852,-14.21,-36.8798,-35.5059,-15.6724,-25.1046,-12.9225,-2.30137,-0.142852,5.15839,-35.3353,-10.7114,-24.9304,-19.6441,-22.1409,-300.12,-824.72,-604.144,43820,-25900,9940
8.11011,-11.214,-4.29221,0.253773,-4.17674,0.0865289,22.3708,5.68079,2.70547,1.33734,4.01325,-15.6814,-3.35435,-1.62846,33.9257,11.2393,-293.288,-811.544,-565.104,43400,-25900,13720
24.6428,23.1295,10.7478,15.6995,11.3562,4.44876,6.64001,-7.21725,29.9078,14.3181,8.78651,13.587,10.4265,8.82647,13.1247,-1.75698,-297.192,-779.824,-549.488,44380,-26320,14560
20.5237,37.6077,21.9595,19.6332,18.8516,9.2651,-10.3772,-17.973,22.5573,15.3874,7.97233,34.6528,17.9616,18.2624,-14.0397,-14.0573,-266.936,-715.408,-510.936,39620,-26180,17080
-2.22976,7.40567,9.87826,-8.55501,6.08764,7.69682,-14.2932,-3.89378,-1.28141,2.46456,-4.92421,17.0578,8.31307,11.2487,-35.9542,-7.53568,-286.456,-753.472,-620.248,33040,-25620,14560
-9.80257,-18.6652,-7.73019,-19.0358,-5.14348,2.76948,2.30574,12.4218,-5.56592,-5.11422,-12.5238,-3.19812,-2.8458,4.38233,-12.5356,4.99314,-275.72,-780.312,-535.824,39340,-27580,15820
-2.04833,-4.53748,-11.61,3.7362,-0.695095,-3.71488,24.0155,19.7413,11.4402,-2.23487,-5.17967,-3.48231,-7.23907,-4.6914,30.3906,15.6304,-281.576,-819.84,-536.8,40040,-23800,14280
1.94357,15.6982,-1.97727,36.1244,19.1434,1.90586,43.3714,19.143,11.6903,1.67344,-0.696171,12.6659,-1.98753,3.98322,62.5433,26.1539,-279.136,-813.008,-540.216,42140,-25060,13720
-27.7638,-4.74074,-9.50832,17.4388,4.58265,-1.03117,13.3561,1.97995,-28.375,-19.2401,-9.55077,1.38885,-3.89038,-1.78437,27.2273,4.28928,-283.04,-795.928,-567.056,40320,-28140,14000
-44.0796,-24.6677,-11.6978,-4.35435,-6.71338,-1.56684,-7.82998,-3.33794,-52.5093,-28.7687,-13.499,-9.04732,-5.81718,-5.6895,-5.19798,-8.12867,-275.72,-777.872,-551.928,39060,-31500,16240
0.442531,-20.1442,-2.36254,-20.5452,-12.7355,-2.56503,-7.56564,4.42412,1.78773,-0.673681,1.93907,-6.52581,-5.03002,-8.47002,-16.553,-0.525172,-295.728,-799.832,-581.208,39340,-31780,17080
37.8139,-6.48403,6.92513,-31.6873,-21.5099,-3.85082,-24.0661,-4.26327,45.1524,23.6459,15.7193,0.708811,-0.690061,-13.6768,-35.829,-7.94921,-286.944,-791.536,-528.016,42560,-31220,19320
17.929,7.09256,11.9355,-8.62189,-8.07865,-0.647405,-16.8145,-1.71348,17.082,11.8456,4.07973,4.39747,0.043349,-6.49759,-19.5883,-1.40967,-290.36,-788.608,-572.424,41160,-31220,17920
-3.32512,-2.31087,2.18944,-13.0269,-13.4911,-2.6537,-25.0418,-12.9489,-7.84744,-3.82231,-2.15134,-3.36964,-3.37294,-5.67564,-27.6853,-9.06031,-285.968,-794.464,-549.976,41860,-33320,18340
11.417,23.2855,10.3109,16.2798,14.1448,3.34048,2.82933,-2.77629,9.90973,9.94133,4.9989,13.1145,4.80772,7.55693,4.24229,12.7952,-294.752,-813.008,-553.392,40600,-32060,17920
17.8966,35.0103,18.4256,34.3963,31.2677,10.1557,13.3585,-1.5441,9.57054,16.2502,7.71798,26.5348,13.8343,22.4249,20.5759,16.0069,-303.536,-828.136,-565.104,42280,-31920,19180
-5.59793,-3.27137,3.81968,1.50912,10.0092,4.62757,-5.11539,-8.21235,-22.6029,2.48495,3.43077,0.803602,9.75413,10.8216,-1.26814,2.77014,-298.656,-813.008,-528.016,42700,-32900,21280
10.3164,-9.66212,-11.6057,-22.8582,-16.1097,-6.94524,-22.6715,-12.7953,12.2274,4.90321,7.24761,-12.6478,3.05697,-6.32568,-22.7341,-9.83794,-281.088,-785.68,-502.64,39760,-33740,22820
34.1752,25.8767,-4.38684,17.2606,10.8377,1.29348,14.8131,3.77309,47.2551,16.9611,7.36756,11.9925,6.14908,8.42685,22.9294,15.2266,-272.304,-800.808,-536.8,35840,-33320,22260
-28.8885,-7.86975,-22.7471,8.24874,0.943714,-5.93975,13.6336,2.57346,-27.0728,-23.5145,-11.3913,-17.4641,-7.05719,-4.58382,23.1144,10.0639,-267.424,-777.872,-510.936,39340,-35420,21280
-58.598,-41.1413,-31.0667,-14.4121,-13.3965,-8.29711,-1.90177,-0.210505,-68.6769,-39.7979,-21.1497,-38.9414,-14.9928,-10.3242,-2.64635,-2.56068,-265.96,-793.976,-513.376,38360,-35700,21000
-30.0422,-20.6199,-21.6865,-12.1775,-10.0467,-7.08653,-11.7313,-5.31683,-32.0042,-22.8903,-11.358,-23.819,-10.3015,-10.3923,-18.6554,-13.8049,-270.352,-806.664,-497.272,40180,-34160,20020
3.41711,0.669695,-2.08347,-4.1642,3.23841,-1.85553,0.482125,0.530808,5.53392,2.73374,2.43993,-4.93624,-1.5082,-3.18992,-8.55146,-8.92456,-278.16,-829.112,-514.84,40320,-31780,19880
26.9563,7.82232,11.4494,0.00831652,7.09935,4.04149,10.7679,4.49489,32.1004,15.9588,11.3258,6.52087,4.64288,1.90191,6.04545,-4.6807,-288.896,-823.256,-519.232,41860,-31780,19460
31.9944,25.3928,23.1443,18.6007,17.0538,7.22238,11.7997,1.94937,44.3938,21.707,11.2114,21.1576,8.97575,6.47126,14.0194,-8.79198,-274.744,-794.952,-461.648,41860,-33740,20160
30.3483,40.2446,29.9247,33.1461,26.8185,12.5975,16.2799,6.78381,44.0372,21.681,8.80192,32.5553,12.1161,15.0816,17.1043,-4.49381,-302.072,-855.464,-611.464,38500,-29960,18340
4.64879,11.5201,13.3156,15.83,7.57748,3.00825,14.4463,6.10015,2.11347,8.30967,5.17581,8.20022,1.45075,2.28132,19.3861,-4.68979,-285.968,-798.856,-483.12,44520,-32060,19740
-24.3275,-16.1882,0.798966,2.62961,-3.59632,-4.80885e-05,16.4639,14.3522,-38.0686,-12.0248,-10.7212,-14.4481,-8.50034,-0.537954,17.9647,4.76493,-294.264,-812.032,-549.488,40600,-29960,20160
-33.7817,-31.2655,-10.5693,-15.0741,-18.9175,-4.45597,3.03735,8.3858,-43.4186,-24.7683,-14.5991,-24.0161,-11.9462,-6.05181,0.275835,-0.658105,-281.576,-800.808,-461.648,42840,-27440,20440
-13.1694,-20.5361,0.178474,-13.7553,-15.1851,-5.48046,-4.4184,0.578334,-18.3284,-7.74428,-0.980328,-11.9075,-1.28869,-9.50626,-3.28591,-1.24841,-293.776,-823.744,-524.112,40040,-22260,17780
11.3612,-2.79356,17.5042,-21.4533,-15.1205,-2.45023,-44.6222,-25.8649,10.0492,9.30534,8.61767,11.155,11.3248,-6.4931,-46.098,-31.0346,-297.192,-782.752,-519.72,42840,-24220,17220
-24.8286,-12.5473,-1.0304,-12.3404,-6.03417,1.87598,-19.2427,-2.04463,-21.5309,-21.1305,-15.1552,1.71071,-0.629726,0.537539,-22.7901,-6.3464,-288.408,-785.192,-498.248,37240,-25480,19040
-39.8622,-11.142,-8.57191,7.78128,10.2929,7.28423,18.9844,23.5383,-36.9816,-36.0629,-27.0686,-0.13807,-8.12174,10.2706,14.3514,26.1125,-283.04,-795.928,-467.016,35420,-24780,18060
6.7991,-5.0339,-3.8417,-10.242,-5.79243,-2.96,3.78895,11.4503,9.69393,2.19296,3.11608,2.04134,-4.0961,-2.68239,-4.66923,13.8759,-284.992,-828.136,-501.664,36120,-22120,15680
46.9839,20.5032,11.2003,-7.53317,-4.34501,-2.20951,-7.34413,-3.19833,55.4882,32.3369,20.055,21.7078,6.26746,1.7707,-14.6613,3.38189,-259.128,-808.616,-429.928,35140,-20860,13160
63.4047,43.6766,23.8329,20.9964,16.4937,5.40661,5.33977,-6.29239,68.342,46.2962,26.2678,39.9435,13.7393,12.4951,9.96649,7.22421,-322.568,-893.528,-676.856,23660,-10920,5880
34.9522,22.5271,2.9086,15.5439,6.44268,2.16124,9.42297,-2.53478,41.7507,22.7082,13.7501,16.1513,4.38187,2.48711,19.2543,8.70328,-283.528,-792.024,-443.104,29540,-14280,7700
21.3124,15.9804,-2.5816,11.2066,4.95746,1.09084,8.20773,0.152675,25.5102,14.9095,7.89404,7.53197,0.790237,-0.990815,15.6402,7.43879,-314.272,-872.056,-651.48,12040,-4760,7420
-11.6561,-8.46739,-16.9891,-2.72393,-6.50952,-3.70291,0.85977,-2.44191,-15.0377,-6.74927,-2.65786,-11.7448,-8.59446,-7.36441,3.80965,3.54002,-307.44,-738.832,-398.696,22680,-10220,11480
-29.4991,-26.0876,-15.5091,-21.2962,-14.4161,-6.13274,-15.2897,-8.47899,-40.4021,-15.439,-7.99792,-22.0591,-11.2504,-10.6974,-20.5495,-7.31099,-283.04,-761.28,-538.264,9380,1260,10920
-33.8098,-32.2397,-17.7927,-32.1899,-25.0553,-9.12088,-30.6515,-21.5475,-44.7297,-20.3933,-6.73159,-28.2321,-10.7346,-14.8143,-36.2123,-25.3134,-330.376,-767.136,-551.44,9520,-6720,8680
-35.3757,-7.44574,-14.0199,12.4592,10.1383,5.02929,17.3647,1.26368,-38.5957,-22.7422,-16.0069,-11.4527,-5.33822,5.93586,22.1003,8.94124,-299.632,-752.496,-424.072,10780,-8960,17080
25.7411,35.1912,10.3668,38.068,35.0294,11.6997,30.708,5.68817,29.2505,20.1566,7.1119,23.86,10.0873,22.1415,38.1416,21.0313,-303.536,-809.104,-501.176,7980,-1540,13860
-7.07957,-1.75516,-11.7584,-4.0847,2.07877,-2.8103,-6.67564,-4.11904,-9.17992,-2.35206,-1.39897,-9.10188,-0.815123,-1.62325,-5.96183,-2.55454,-301.096,-810.08,-458.72,19320,-3920,11480
-56.092,-56.1593,-39.6958,-55.7227,-40.2603,-15.407,-48.4946,-11.7647,-64.0095,-36.5412,-17.0887,-54.0593,-14.6678,-25.7403,-58.0809,-29.8375,-317.2,-804.224,-515.328,19320,-6440,13160
17.6691,13.8371,1.49439,-5.87546,-4.30569,-3.1183,-28.2598,-13.7816,22.4632,13.4325,6.32758,2.34482,7.42731,-0.221114,-27.1465,-20.6045,-277.672,-729.56,-462.136,14140,-8120,16380
11.0229,26.6971,6.55584,41.2744,24.8383,7.34097,32.6522,13.3934,13.7182,5.46161,-1.61981,13.8325,6.76632,15.3178,48.13,22.1967,-298.656,-759.816,-564.616,10500,-4200,12040
-41.6649,-11.2925,-4.37413,25.9554,12.1242,2.70344,32.6342,19.9745,-47.6345,-28.8987,-17.3255,-13.8855,-3.98337,5.65551,47.0254,24.5195,-304.512,-739.808,-455.304,18340,-3920,13720
-11.5541,-3.63667,11.5776,11.2007,6.10793,3.15817,11.0632,12.7006,-12.048,-8.87784,-2.62811,-2.16159,2.5479,4.5524,14.007,11.9868,-318.176,-799.832,-535.824,14280,10360,13020
35.6776,11.7402,23.7136,-11.8521,-2.25279,2.09074,-15.5697,2.6621,42.55,24.7683,13.5602,14.0984,10.5718,4.02363,-30.1344,-2.61302,-304.024,-751.032,-453.352,20580,11060,8680
48.5713,18.0669,16.175,-8.13717,-5.09414,-1.5522,-11.1035,-2.38349,53.5308,31.6381,19.5536,17.0809,10.9638,-2.87752,-22.0275,-7.46457,-290.848,-740.296,-450.424,12600,14140,5180
15.8752,-4.84047,-1.84366,-10.323,-10.7296,-3.78124,-0.261352,0.0364364,16.0535,8.37445,6.98943,1.04907,1.49249,-8.60667,-6.00131,-7.76178,-287.92,-758.84,-467.992,6860,18900,840
3.58441,-3.5911,6.42887,-2.94529,1.46176,2.26651,6.48805,3.93751,-0.935634,4.0861,1.97601,8.59882,3.11929,1.00434,2.02827,-1.0615,-323.544,-827.16,-608.048,9100,19460,-1540
-0.288744,-8.39341,6.62012,-8.13315,-3.10422,1.79697,-1.96909,-1.62157,-2.8977,-0.3772,1.49536,6.31118,2.3636,-0.171595,-5.15683,-7.18987,-297.68,-715.408,-466.528,16800,14560,2240
-20.1168,-6.40243,4.53415,-2.20481,1.91242,4.1516,7.80065,7.84028,-13.9432,-17.3273,-12.6949,-0.933278,-1.18476,1.53731,3.90804,2.18678,-297.192,-747.616,-579.256,1540,20580,2660
-3.74088,0.296042,8.42627,2.51566,4.23866,3.75136,3.81197,-0.863187,1.55221,-7.27342,-2.51903,3.57184,2.09082,2.57349,3.87577,-1.24809,-309.392,-768.112,-513.376,3920,22120,1120
21.5412,3.29157,6.94036,-8.73007,-6.07316,-4.19855,-13.6644,-14.25,28.5751,14.1115,13.7222,5.27384,3.04816,-8.07665,-15.8359,-12.1995,-328.912,-806.176,-582.672,7980,28980,560
10.1909,-2.33723,-2.6485,-14.437,-14.6089,-6.70097,-16.1545,-10.9931,16.4063,5.53457,4.53749,-2.35074,-4.54898,-10.3826,-20.3595,-11.9321,-301.584,-742.736,-457.744,9660,27440,1960
-5.20013,7.39208,-6.02181,10.3899,0.686969,-1.27398,10.5958,1.15439,-0.699351,-6.47664,-6.72576,0.778596,-8.36172,-1.04686,19.8073,5.73228,-304.024,-775.92,-530.456,-1120,30800,140
-13.8942,5.20962,-6.04624,18.7367,8.35453,0.813795,16.994,2.46773,-18.1861,-9.98936,-8.1393,0.215657,-8.31754,1.89469,31.7482,10.9944,-300.608,-781.776,-488,2100,27720,-840
-19.0915,-8.26519,-7.27831,1.03472,-0.455284,-1.73642,-2.30626,-5.10589,-31.5047,-10.7905,-5.40668,-6.37839,-7.15417,-1.931,2.89247,-2.37408,-295.728,-762.744,-447.984,3080,25060,420
-11.4738,-0.20418,-0.68289,13.606,10.1637,5.13144,14.6287,-0.351715,-23.4436,-7.38275,-3.97026,4.10202,-1.66789,10.6881,18.5178,6.54783,-290.848,-769.088,-491.416,140,20440,280
6.31821,6.88177,6.35861,18.482,18.2808,6.81927,26.4087,8.53611,-0.314349,5.46858,0.805269,8.89564,0.80693,12.6691,29.5085,13.8694,-300.608,-786.656,-505.08,1400,15540,700
9.12138,-0.440297,-7.17319,-5.66079,-4.66374,-1.94708,-1.10363,-0.719979,14.7371,-1.22571,-1.46082,-5.23398,-4.9659,-3.05372,-7.09416,-6.58004,-304.512,-788.608,-474.336,3080,12740,3220
3.65138,4.84429,-1.16215,2.63356,5.99168,3.03625,1.28618,3.99924,3.07392,-2.64215,-4.83789,0.873026,0.445218,4.54106,-6.36548,-0.540433,-297.68,-803.248,-462.136,4760,11060,4200
22.2873,12.8894,8.77183,10.5292,13.881,3.18068,6.35897,0.310662,19.2611,14.3001,8.3686,11.0556,8.24467,9.63034,2.48683,2.41624,-299.144,-810.568,-475.8,5880,6720,4060
19.1165,2.43369,5.34169,-9.12016,-1.91473,-6.77919,-16.7976,-13.8395,17.5502,14.957,12.4225,1.35929,5.26175,-4.22279,-21.0372,-14.0552,-290.848,-794.952,-456.28,6160,1540,4620
-9.83225,-16.8284,-4.10648,-24.7436,-13.8395,-8.28717,-26.8837,-10.4775,-10.8335,-2.59826,-0.90071,-15.5115,-1.00984,-9.53558,-34.909,-13.5847,-285.48,-805.2,-495.32,2660,280,4340
-15.6241,-6.31836,1.66693,-10.3283,-6.74102,-1.47421,-11.1264,2.39931,-6.80866,-3.61075,-4.971,-7.31905,1.17128,-0.237061,-17.8846,2.32021,-282.552,-808.128,-490.44,1260,-2520,4060
-13.1595,12.012,7.58705,20.1228,11.45,5.06472,16.9905,19.2755,-3.24219,-1.02993,-3.75924,6.74323,3.89508,8.03747,17.7699,21.1265,-285.968,-815.448,-498.736,-700,-2240,4340
-48.0252,-20.4198,-13.7631,-4.70362,-10.4065,-3.08268,-2.41514,15.2562,-49.2637,-25.7941,-17.2941,-20.3281,-8.11861,-5.95295,-2.04334,7.13351,-284.016,-822.768,-496.784,-3640,-1400,4900
-45.8636,-32.5784,-18.8549,-11.5457,-15.4195,-3.32141,-1.40523,12.0404,-51.9506,-25.8583,-15.0636,-26.2244,-10.3224,-8.06978,5.04254,9.11886,-279.136,-818.864,-495.32,-6440,-1400,6160
22.8741,11.6055,5.84026,8.90215,5.58844,4.43006,8.92932,7.52596,29.4488,19.3854,8.1172,11.2091,4.70885,6.51781,14.6305,16.8182,-277.672,-817.888,-511.912,-7980,-2660,7140
31.6179,3.1184,-6.66866,-21.9306,-23.1881,-7.28658,-28.7136,-17.5163,41.5823,21.1533,15.3008,0.0969412,1.32327,-13.8844,-31.2159,-16.3018,-275.72,-813.984,-508.984,-8260,-6020,9520
19.1858,2.98388,-8.18934,-10.7768,-14.8428,-4.77865,-17.1952,-14.9275,22.0183,10.8401,9.59107,-0.764789,1.00206,-12.0998,-13.0082,-13.7926,-279.136,-813.984,-496.296,-8540,-7560,11480
6.21498,9.01686,-0.542888,4.62194,4.6503,3.71125,-0.675366,-4.44231,2.93276,0.41535,0.403414,6.48547,2.58649,0.939715,2.9824,-2.00694,-275.232,-810.08,-486.048,-8120,-9940,12880
14.284,12.6985,5.64517,-5.92864,2.89649,3.35746,-16.6114,-12.9901,10.8531,7.50488,5.04726,13.6017,6.24102,2.53972,-21.8658,-15.0974,-277.672,-811.544,-488.976,-7560,-12040,13580
19.3583,18.8084,8.37015,7.28162,11.77,6.2602,5.35499,-2.46651,15.8442,12.2273,6.00017,18.4701,6.38147,8.28108,6.27159,-1.77809,-279.136,-814.472,-497.76,-7140,-13160,13860
0.927465,4.83706,-4.06194,16.1838,13.4513,7.49581,27.264,10.1661,-4.71789,-4.0144,-3.33922,5.63273,-1.77904,7.62618,37.0979,14.121,-281.576,-812.032,-499.224,-6580,-12880,14280
1.60249,-0.0469206,-2.16125,3.66433,6.95802,1.86707,9.88365,2.58588,-2.85887,1.526,3.05422,0.166402,0.199808,-1.48174,16.8756,5.18195,-284.992,-809.592,-489.952,-6440,-12040,14420
-0.639813,-9.62464,-3.24673,-13.3003,-8.76946,-5.09121,-7.77194,-6.77218,-5.04937,0.203409,5.60581,-9.36742,-0.828905,-8.48505,-6.00035,-8.79299,-294.752,-811.544,-513.376,-5880,-11340,14000
-5.77736,-9.35285,-3.48492,-9.09092,-8.28786,-3.62826,-1.41113,-1.88152,-6.27302,-8.69207,-1.02486,-10.5535,-3.03355,-6.46782,0.079295,-4.21036,-288.896,-801.784,-484.096,-5460,-11900,14560
-1.23137,0.691124,6.03261,4.35156,4.52696,3.31565,2.26628,-0.925719,0.103986,-5.9968,-0.328847,-0.484807,1.92611,6.49475,4.56002,-1.24405,-292.312,-808.616,-507.032,-7000,-10500,14000
16.342,17.0183,15.4132,16.6785,16.0118,7.46771,7.61366,1.74273,24.3059,6.26746,4.16008,14.471,6.95199,15.3294,6.07756,1.56111,-293.776,-803.248,-488.976,-5740,-10220,13160
10.3534,14.116,10.0321,19.403,15.5853,4.7468,16.8481,8.84034,18.4488,3.18119,-0.709277,9.59713,2.34118,11.2691,17.4864,8.91042,-294.752,-804.224,-490.928,-6020,-9520,12460
2.16432,3.74594,3.68834,9.63322,4.81489,-0.117211,12.6153,9.50652,6.76898,-0.528546,-3.09421,0.265648,-2.1075,2.107,14.2535,7.16616,-294.752,-802.76,-508.984,-5600,-9940,11620
-32.9014,-12.6568,-6.80762,5.0395,-1.76442,-1.96231,2.95778,4.01498,-38.0003,-23.2649,-14.2468,-8.03784,-6.943,-2.16225,5.24509,1.40047,-299.144,-799.832,-511.424,-5040,-10080,11200
-66.4521,-27.7426,-7.7413,13.9737,10.4125,2.03808,17.1848,15.2432,-87.8569,-39.0013,-23.7693,-14.0782,-8.77178,5.14303,18.9815,15.5414,-296.704,-783.728,-499.712,-5600,-8120,11340
-32.5871,-32.4793,-10.556,-15.4302,-12.458,-5.10997,-8.82994,-0.0363158,-45.3878,-16.4034,-6.18361,-18.5947,-7.74482,-5.59738,-16.2212,-4.5745,-298.168,-792.512,-517.28,-7700,-6020,9380
8.16856,-0.46188,2.4871,-8.26378,-4.4634,-4.1657,-9.0122,-2.93998,13.8317,9.92938,4.36396,1.01368,0.0754911,-2.53054,-15.0599,-6.55116,-299.144,-787.632,-488.488,-6440,-5040,8820
18.4092,6.83776,1.45591,-1.35166,-2.04335,-2.20484,-0.864045,1.89348,28.7402,10.6469,2.96187,4.29092,-0.302191,-1.99458,-4.1807,-1.40933,-298.656,-795.928,-496.296,-7420,-1680,6720
31.0927,14.0656,4.62617,-9.16005,-6.849,-5.38306,-15.7839,-6.51896,40.3954,20.829,10.9127,8.80762,2.47626,-6.41717,-21.8983,-11.3015,-303.048,-794.464,-520.208,-7980,-1960,4900
27.4765,6.28526,2.12617,-11.6972,-9.84472,-7.22614,-15.1664,-8.80666,30.683,19.6592,12.2315,3.62628,2.58269,-7.48548,-22.7581,-12.3251,-304.024,-793,-512.888,-8260,-2380,5040
13.6572,2.17124,0.42657,-4.55716,-4.91389,-2.27577,-7.4854,-5.41356,14.311,10.1165,5.38984,2.17117,4.53913,-2.90181,-12.5557,-6.33423,-305,-792.512,-506.056,-8400,-980,4900
14.6518,7.91703,2.60043,0.980759,-2.0176,-2.17816,-3.64632,-4.44839,17.556,12.9688,6.67276,5.51254,5.50267,-4.11928,-4.02768,-0.581406,-305,-800.32,-499.224,-8120,-840,4340
17.0667,9.12582,5.50512,-2.18777,-4.43975,-1.62186,-9.18515,-11.3791,20.5927,14.2695,6.2647,8.06096,3.6026,-2.37352,-10.9856,-6.52962,-309.392,-796.904,-503.616,-7840,-1820,3360
-0.785013,4.97749,5.05038,-1.0224,-0.620636,5.03863,-2.57296,-8.75326,1.35131,-3.14935,-4.69126,6.37226,2.41771,4.4624,-5.98028,-4.25782,-309.88,-798.856,-507.032,-7980,-2240,3080
-20.1097,-15.7572,-6.76555,-12.1087,-9.29225,0.0890607,-0.806911,-1.61231,-26.1924,-14.2151,-9.25658,-13.2497,-5.80182,-4.0768,-3.14551,-2.74184,-310.368,-801.784,-508.496,-7560,-2520,3220
-26.7699,-25.0249,-15.8916,-14.9277,-15.4859,-5.58935,3.29712,2.01792,-31.9184,-19.4942,-8.88702,-23.9234,-10.6348,-10.5151,4.6669,-1.83408,-305.976,-799.832,-509.96,-7420,-2100,2940
-15.9948,-9.82277,-5.85955,-4.3069,-4.90654,-1.5367,5.17045,6.64957,-19.0566,-10.3086,-7.57689,-10.9853,-5.13527,-2.00495,6.24045,5.25685,-310.856,-801.296,-510.448,-7420,-1400,2660
-6.9833,5.35963,5.30607,12.6151,10.2568,5.02069,15.9049,11.588,-8.38286,-3.22311,-5.83329,7.09799,0.0851873,8.95342,17.7784,16.4523,-311.344,-799.832,-504.592,-7420,-700,2240
5.59119,10.9581,6.60058,12.7876,10.491,3.67459,8.44002,2.99924,6.68797,3.01012,2.64564,12.7868,2.25565,8.53021,11.4613,9.77359,-307.928,-798.368,-503.128,-7840,-140,1540
23.5044,20.6465,12.5521,7.99279,12.4236,2.22081,-0.30804,-2.86168,23.628,16.9864,13.5886,16.6908,7.37704,5.85734,0.793167,3.1914,-306.952,-807.152,-503.616,-7840,0,700
12.8772,8.18528,2.53139,1.19106,4.7777,0.842318,4.67816,-2.01836,12.4344,6.86136,7.79659,3.7532,3.48433,2.03099,6.44927,6.02244,-307.928,-802.76,-505.568,-7560,980,-280
-8.30247,2.20121,-3.41669,4.15561,6.53284,2.49416,8.61221,4.57837,-8.00278,-6.77348,-2.52095,-2.21848,0.913734,2.40167,9.96879,10.1247,-306.464,-805.688,-508.008,-7560,1820,-840
-8.51486,-1.96185,-6.93133,2.1901,3.52106,3.91831,3.53658,3.14095,-8.05262,-10.8114,-5.97787,-2.67982,-0.0396101,1.41226,3.81468,2.66595,-305,-809.104,-504.592,-7420,2240,-1400
8.14899,11.434,0.520551,15.4514,11.9996,5.56268,10.8675,6.22095,7.53048,4.205,2.92949,6.16682,3.72182,4.44676,16.916,6.74421,-303.048,-808.616,-503.616,-7140,3220,-2240
-8.19062,3.21272,-2.49808,11.233,9.90185,6.65593,5.8766,2.40391,-10.3418,-5.0691,-3.18028,0.40388,1.69714,5.92828,12.4785,3.43612,-299.632,-809.104,-507.52,-6580,3640,-2800
-23.4431,-12.4809,-7.86872,-1.56892,1.44004,3.44047,-0.433453,0.799628,-24.5774,-17.8812,-11.6762,-10.4885,-3.26216,3.77132,4.09,-0.434591,-298.168,-810.568,-503.616,-5740,4060,-3640
-5.73372,-6.5778,-3.15046,-3.42742,-0.412751,-1.82899,-3.09338,1.38251,-3.22266,-2.65153,0.07077,-9.79393,-1.83183,-2.6817,4.52956,-2.36925,-298.168,-807.64,-503.128,-5320,4200,-4060
-0.983705,-4.32347,-1.97405,-4.71651,-1.77939,-2.30238,-8.63795,-1.20228,1.33318,0.305506,0.126407,-5.54206,-2.47742,-4.84161,-3.96969,-5.97011,-294.264,-808.616,-501.176,-4340,4060,-4480
-2.5255,-8.81723,-2.74773,-11.498,-7.47853,-2.29216,-15.9737,-5.87691,-0.254239,0.0581654,-0.337144,-5.71827,-1.89843,-5.04624,-15.591,-9.38313,-291.336,-807.64,-507.032,-3780,3500,-4760
10.6875,-3.47864,4.223,-16.7103,-8.77967,-4.13445,-24.0849,-7.6945,15.4184,12.4506,6.33356,-1.77342,1.35644,-7.37669,-24.7038,-11.311,-290.848,-806.664,-508.008,-3360,2940,-4760
15.5705,5.65836,4.72303,5.73426,1.78569,1.24644,3.62898,0.590254,20.36,9.92881,4.95298,7.80256,2.00572,2.98767,6.63261,4.47234,-288.896,-808.616,-506.544,-2800,2520,-4620
16.676,6.94262,7.28859,0.894178,-1.81303,1.73438,-4.72412,-2.39904,18.2135,14.6137,8.03969,8.32777,3.93265,0.815155,-9.02297,-2.0974,-293.776,-802.272,-512.888,-2520,2660,-4340
11.5374,-5.65299,1.42178,-14.536,-14.221,-3.95705,-18.5391,-10.8494,7.96556,12.4525,7.90582,1.84742,0.746284,-6.40306,-28.2252,-14.4665,-289.872,-804.712,-510.448,-2380,2520,-3920
-2.22223,-9.00161,-3.08689,-2.75431,-6.93969,-2.83578,1.27556,-0.740005,-7.14786,0.395132,-0.454054,-0.428581,-3.65913,-3.53699,-1.96227,-1.38273,-293.288,-805.688,-512.888,-2660,2660,-3220
-8.25696,-6.5999,0.954319,-2.9027,-5.47069,-1.9115,-4.14685,-0.670877,-12.5687,-4.81805,-4.03657,0.755588,-4.21666,-3.09299,-5.52161,-3.54371,-294.752,-802.76,-510.448,-3360,2660,-2800
-1.54196,5.4827,5.15014,8.94026,2.24446,1.91722,8.57365,5.13852,-0.219775,-3.51818,-3.68475,8.55611,-1.27121,3.07382,8.39823,4.13038,-292.8,-802.272,-517.768,-4060,2940,-2240
11.6324,16.6053,8.69093,17.0424,8.57729,0.715646,12.9414,5.95556,13.6255,6.60045,3.09178,14.1242,4.76614,4.89523,14.8409,4.39762,-295.728,-799.832,-513.376,-4760,2660,-1820
10.4363,12.3166,3.84487,7.72174,1.04873,-2.14463,1.43557,-3.93586,8.89437,5.64717,4.9815,9.73395,4.50418,2.55819,1.33185,-8.14207,-295.24,-795.44,-517.28,-5180,2520,-1260
-7.65424,-3.40602,-9.77473,0.243337,-8.81119,-6.21823,6.88289,0.812515,-6.91808,-10.6472,-2.30442,-7.98874,-4.25331,-4.41815,7.05509,-3.38377,-297.68,-796.904,-520.696,-5880,2660,-420
-6.53662,3.08853,-3.43437,6.36801,2.84878,-1.43631,9.7291,5.22854,-5.31384,-8.00332,-5.59918,-1.89884,-0.421496,2.74839,9.0335,4.6467,-296.704,-797.392,-521.672,-6580,2520,-140
-4.73691,0.219603,-5.281,1.86658,1.77369,0.273214,8.32526,2.76973,-4.68071,-7.26783,-4.06571,-3.60543,0.499607,2.22296,3.08931,4.35211,-301.096,-794.464,-518.744,-7840,1960,560
