56.43015578527407,65.92430303353515,6.288450022393163,49.12514388424101,9.453928771404387,18.0572148728583,18.82173654245357,63.476530741150896,14.426430983727451,56.70693248838623,1.774596146161125,28.263465854896065,53.35059230083542,4.037743501670766,38.18143746418847,47.63193263926343
56.10485931296448,65.51286753708764,6.284235975768257,48.814610367991826,9.382401835652823,17.96410304946264,18.693383984252122,63.13059605661807,14.325567893590348,56.3534410553927,1.805779709439799,28.088077282252236,53.04589371086234,4.049434803718216,37.971205276914695,47.319207887400076
48.00343970050805,55.90668968360728,5.5593823272266025,41.644632606074815,7.987992590839044,15.420038785717349,15.924124492117405,54.05011521676751,12.211735356876623,48.108296970674694,1.7411588550604853,23.991560394333327,45.42466676463865,3.643370471219659,32.50330882532185,40.42631932378646
43.68731863127972,50.913018315824246,5.171913018670321,37.92481325132315,7.348554182114656,14.076074724089736,14.5493574170869,49.09969208011686,11.177178910391271,43.81537075257008,1.7897635599037192,21.904173271913717,41.37766917781868,3.3988034640969733,29.55462041154528,36.92640770447572
43.40165096354257,50.52908457008085,5.179270132904658,37.63331002803214,7.2722643732046945,13.994305415020127,14.423992162576875,48.8231350152195,11.08992212308172,43.492513331762154,1.8156429629849213,21.73347964764811,41.10327555577913,3.4084182759129984,29.369168933903286,36.63816942249469
40.35206623044542,46.87286424425063,4.953983736554081,34.862551100975274,6.740951310664193,13.082775952475133,13.375888224735752,45.506072576387474,10.290381644922203,40.3709226970316,1.7984430738388495,20.214668271226994,38.23197056005081,3.264627007111654,27.302855277433725,34.07715818242181
39.14956166942312,45.51032960615883,4.8739445437926365,33.83281821621251,6.5926010567772675,12.740641395977349,13.024281668763287,44.144944195166396,10.021644046889138,39.19760309439221,1.8511779016874745,19.68977831724978,37.12202950860224,3.219106416575136,26.478408578547267,33.15839908143001
39.01152761210774,45.372642676131406,4.8568310370475505,33.736839224261956,6.5887053873127135,12.697048154864214,12.998043006176044,43.96148256209092,9.997948133093322,39.07423429635668,1.8678043115057503,19.6386227833574,36.99849547923663,3.215170389907181,26.38378349863484,33.060996256312166
38.96711992516407,45.324103011696586,4.852443401811347,33.707938242063875,6.581239702208074,12.675814765411058,12.98289099462239,43.89589815405498,9.994439482358755,39.03079840464267,1.8751306619342882,19.609957518093978,36.95656897427919,3.2201017152686946,26.35475031117941,33.01494597975697
38.789453391461606,45.130391249831916,4.854666108837527,33.558567822384326,6.567131032741348,12.636435435428147,12.940633905465218,43.71583518204066,9.96170550170243,38.86336638260282,1.8997353403533765,19.55373069328924,36.801760318772914,3.223474403687941,26.234895110887496,32.893422072908535
36.445345041510734,42.426935164496925,4.620214409182639,31.559016714522198,6.222914732982497,11.896411195452123,12.205961277173133,41.06553960008802,9.383260827238935,36.52963551150525,1.8939581581585747,18.442420184992137,34.60789684379263,3.1200543186617504,24.650787233750037,30.942363145948885
34.196771185769585,39.79376893354708,4.405456381593409,29.633411879992874,5.8496063730413645,11.15289363562684,11.445420624783894,38.45275175522955,8.845732893793672,34.26507564884267,1.8925777076839763,17.259942111631506,32.447324749569745,3.011743489382902,23.11806622558735,28.985495317620842
34.07634095162608,39.65531760064471,4.40164686867518,29.525697739079632,5.835866934251151,11.124154788433996,11.414858310254207,38.345800998086034,8.814298148719313,34.14607878696436,1.8942442974892806,17.223483994427294,32.34366627607728,3.0103075176577243,23.03962322709409,28.895900186512286
29.70374725731766,34.54121858272149,4.020559619101595,25.70223408788623,5.157754152313718,9.769973780950862,10.011892983444413,33.54331536614774,7.749763460678207,29.770844183332493,1.8816660048966931,15.13130679725054,28.169932132375884,2.8109648362918884,20.055043025442398,25.21397970653624
26.738466135736218,31.088179132827605,3.76071587725224,23.133810735370368,4.69797127016099,8.836749461281416,9.039384228679909,30.172561015215198,7.077645271276231,26.827383815707808,1.8791337148277871,13.61976363723174,25.256718863598348,2.646749332820105,17.990269676826212,22.697808209989887
26.63860615391781,30.966129449219334,3.756412505686779,23.036936415947242,4.682646861771608,8.810877542378718,9.012533114426434,30.0888225977936,7.048016528964059,26.72449656677675,1.878944692159435,13.588759419697189,25.166810982988345,2.646459492045831,17.925042853665673,22.616682595492147
24.22794944917126,28.153621236384748,3.575884260177903,20.88957639560077,4.3277356084006025,8.099795855993408,8.265973198630096,27.522972789410403,6.510969119130325,24.356446195507974,1.8798112519534405,12.484918523333533,22.75646698234012,2.5075803113920365,16.219601070347185,20.62175453732473
22.9691950795785,26.714129288373815,3.469297158927092,19.795684309860764,4.158791502792181,7.723631086688881,7.877408286360871,26.120447783446767,6.262463317958863,23.15167312048666,1.8798720823883799,11.872784100565013,21.450725670098773,2.4138183831911024,15.300661979319147,19.597177759811583
22.925397325897503,26.66608158903708,3.461413036630976,19.76465451913399,4.155288407367932,7.706586553513575,7.863531351786965,26.05690576897066,6.2542906713410495,23.108888872007498,1.885111944441267,11.840592872753334,21.41212336630459,2.415741350356398,15.27234866346188,19.559588375234924
22.897196741894017,26.6361439929997,3.4610501786006553,19.734493815603994,4.154897538496123,7.703691433045172,7.859935847125549,26.036496971859656,6.252953207356655,23.08885134000954,1.8856435903559696,11.836789159937503,21.362129360773345,2.3945820743536586,15.24045020031865,19.54351082804962
22.679890724601282,26.393673913620027,3.4426090767875657,19.54568472810311,4.133248213770651,7.640402331007344,7.799050633301163,25.7977992736307,6.220366321944614,22.893875980247877,1.8860732355319754,11.740633857568163,21.113375418054947,2.3677582497300524,15.067353062913345,19.37883500713822
21.662838092019904,25.21098453910913,3.345397957908084,18.689005825466598,3.99402711553398,7.302044045315484,7.472234882288827,24.63504365640961,5.980896956198333,21.87371588136261,1.8860755125169795,11.216814591250362,20.18188152510182,2.348185354856342,14.391569579645807,18.506769230781586
20.72184517360341,24.107252705530257,3.2544019865530185,17.89857806470811,3.8469813271372097,6.985856827795319,7.159436306912863,23.565492619523756,5.727718293198643,20.896908552068453,1.8813985568366283,10.711394357286718,19.39034619520013,2.3438880696578615,13.810743045221962,17.668928536018925
20.67060130902594,24.047323069366655,3.2517188212295625,17.852978604780514,3.8431084499197654,6.968369752251021,7.145597230539728,23.507404350573477,5.720969546740992,20.85076359982501,1.8815386632267832,10.69240871102314,19.328926948448895,2.338643429073133,13.767415223588634,17.629539369760103
18.425312447717936,21.441040514016876,3.0637361042783566,15.93714243563682,3.546622377896269,6.225593056743499,6.455063565217374,20.98687705429384,5.203706714939384,18.613445715390856,1.881403425505341,9.600778449797218,17.27177932570059,2.300631907461075,12.272309939863133,15.705632235791958
16.566327709947256,19.316707017339564,2.8981062660600285,14.366133905578588,3.3008434951217898,5.632681692991629,5.897764215103639,18.927765705893393,4.7730103952621485,16.76678187521045,1.8836313381154615,8.672971323551485,15.621886123926359,2.2759508852805452,11.073111669746634,14.1166043443454
16.543944040983597,19.28816765817777,2.898304693871826,14.345839165207167,3.2992277479335086,5.621527116615709,5.891569111986248,18.89881406922705,4.769296914467273,16.744888203120308,1.8839199791531318,8.666855831616413,15.598232389180351,2.2772957826759908,11.054547218191232,14.096181942050801
14.898505906748074,17.42196234996209,2.779745838382516,12.94902990217347,3.117629625726614,5.070608035563201,5.437884887862359,17.03789355880061,4.427129015428346,15.15172703825872,1.897629147710452,7.920481628491393,14.106918038059664,2.2698480935526986,9.957026227491454,12.699822754601547
13.772318529291121,16.17167551388104,2.684066248561735,11.994269421113264,2.996704483803693,4.72512031945169,5.141022636739755,15.786171668870395,4.1953632624607105,14.073767546521406,1.9028053256854311,7.380783416697409,13.091940303482179,2.253867423534869,9.222058581908923,11.764764047189468
13.749755885121491,16.143843945535753,2.684104688038406,11.973702738782375,2.991475446144206,4.723184720800139,5.131877654258115,15.76532402964324,4.191978418048936,14.04791635051716,1.9067446391822347,7.3615364951016,13.071508781375453,2.2612325573844845,9.210139662022867,11.74630635030947
13.622396292638381,16.015283172860048,2.6860334391558904,11.866524090051344,2.987644314041155,4.677830998037368,5.112968654478969,15.604435029074164,4.185214930622482,13.941771485346178,1.922796594667901,7.3201095123136195,12.963688173388748,2.2921553990719423,9.125860093458092,11.643190703545441
13.370153501657551,15.726310236471122,2.668248770285125,11.632546946862252,2.9623134372852924,4.6056543890950765,5.050768605726569,15.303708055552804,4.126576039567864,13.691616206407135,1.9238108177597892,7.185458008171082,12.733758635712043,2.291708788174917,8.964440364816495,11.426827805881933
12.92448304616682,15.16633936373218,2.6489673497044026,11.224332582135851,2.8913726294752418,4.48843789708543,4.898239562773204,14.813927109587501,4.019454537872182,13.20043418058779,1.924537872433952,6.930628446771199,12.323043618886146,2.301326242158963,8.689479210173127,11.025728719819982
12.59002447114672,14.766902770686771,2.632944292542726,10.958489198098718,2.8408643694543367,4.3954558895929265,4.781216764168879,14.482614194050319,3.9696933868195283,12.854543760996323,1.9285739081504822,6.774884741137759,12.015061288204114,2.323681774759537,8.479605948333944,10.743822837969962
12.56207092699333,14.71547021184812,2.6329127895290556,10.913360885367025,2.8338321313553956,4.388814696914275,4.769671834038399,14.437734715020097,3.947725675106917,12.806804811965316,1.9250013173314313,6.743458426555734,11.992100555100798,2.3240480039542843,8.465900920264179,10.703664887340281
11.476346143596572,13.341594290923107,2.588970235349907,9.920666046168765,2.6758834755903793,4.069958926174953,4.412604642145655,13.205662767567942,3.6811923705417695,11.598819231321965,1.9118833748195776,6.169503763719999,11.020023054048862,2.330558431052698,7.8072625724043725,9.691705156802316
10.393799384304684,12.155763914720957,2.502617593598646,9.097351622238591,2.5651430121604926,3.737415641156719,4.114649010357369,12.066986172120895,3.529609350418722,10.580817110006064,1.9114581250817242,5.740764168799143,10.023975700096356,2.3211921500426045,7.1116678765211825,8.831419848853907
10.393511905906555,12.14238028920354,2.493421709301453,9.085131814865713,2.560650026878078,3.7374224999453447,4.111642616056742,12.063551703255554,3.5098745249821435,10.564969935510566,1.896850835747239,5.7309487615475705,10.02379501260097,2.308427414690499,7.110998542743477,8.81810958865003
9.415892175384215,10.91950333763712,2.456604646564555,8.215300127826662,2.4438456443783214,3.429238545645208,3.822091032788214,10.937049097706517,3.289215748192392,9.477822589028282,1.8813276975704096,5.2767288168752495,9.188641086498844,2.310389263561614,6.553494789395997,7.884949805913813
8.479410491582058,10.006393739032845,2.36268324689797,7.583908337574258,2.3837144559868397,3.1274937635399023,3.6233676529726884,9.93162513377595,3.2098870263249872,8.704173689303278,1.8802645515368268,5.00265965577783,8.31705337555342,2.283356215820267,5.952170383437085,7.21895845307164
8.444303569083692,9.998137390518567,2.340191529138087,7.5787568816927795,2.3837334203620806,3.118690593132994,3.6218225087228766,9.90329160031036,3.206100266271031,8.70076249122126,1.8595140313757184,5.005415866335688,8.262914274693895,2.2530159526163422,5.908595941915375,7.216799275272622
8.261831213426667,9.795864186468975,2.329793880472589,7.440454981372103,2.3739882611123924,3.042535164603586,3.5874421264850813,9.68741278900189,3.177509517761434,8.515274754073157,1.858859513091374,4.958064303826339,8.123264824176838,2.2528780117368035,5.824687171009261,7.046101179487812
7.930331576304642,9.541949367567083,2.278533421915753,7.265864312853956,2.3642371350990725,2.922542832085843,3.5404346553994026,9.325386575068846,3.1747316432498476,8.309293572498815,1.8498688896274325,4.9094665545339575,7.788102627760479,2.2256052548715703,5.602226009082654,6.866147279410393
7.676660116492274,9.31596552516681,2.254666748400625,7.099965769101001,2.3443041684810852,2.8651565472874507,3.478043412060062,9.048627421733885,3.166968521025752,8.133000137262307,1.8452997182580866,4.829379420808627,7.494517849006931,2.194921642170516,5.392732587254543,6.728346648632419
7.60480911311738,9.1922996583157,2.25494095777807,7.007057248573798,2.3172154153598252,2.8612002754269907,3.4334034968721747,8.964640058096686,3.1346901160238825,8.026916458525587,1.8483138468187692,4.738130007371916,7.419799951444839,2.1962116298092265,5.333638188929183,6.6525859237804665
7.547639805456839,9.164888168931835,2.2461646220147964,6.988522558992477,2.3184490874281476,2.8359743895055036,3.42907734168169,8.904772561417824,3.1437842096987225,8.008280206966703,1.838351443082623,4.738014292877289,7.344933126360431,2.178778585230028,5.288803176757374,6.635827352101157
6.994261356385186,8.509912194642284,2.237040891902589,6.492088568329789,2.2419099701311596,2.7223767581141822,3.242611512417813,8.275276660793246,3.0610625734968235,7.452762228500371,1.8477037873724376,4.472147356597801,6.766446972257203,2.1694344694675256,4.89507354253926,6.195656800131979
6.5322599981603,7.820886728743132,2.237600977822417,5.989977463513144,2.1389319115868255,2.6524351828328174,3.0369245999176924,7.7242408413896175,2.91273672348563,6.839540853150312,1.8364317075489154,4.109202707846941,6.358306657797149,2.1705416416703134,4.597153913385508,5.707693707707323
6.531352980803295,7.821607637008638,2.246885367474346,5.991839304898258,2.1416738264327218,2.6533956652582638,3.037414172364115,7.72621801215749,2.921194929159302,6.841185025618164,1.835180022819803,4.106132775274863,6.351558602880719,2.1660515119739996,4.594569112774177,5.708293045938454
6.024946299393357,7.08849977599606,2.2487383035233734,5.406041240665599,2.0449603424950245,2.572474639759991,2.821568565900295,7.161041955822938,2.78803216958966,6.182723316862589,1.8322312916035772,3.7952559463414093,5.857512159725433,2.16880419843392,4.272295306367731,5.1925890019458
5.54937429478679,6.325683437859613,2.2505848496707554,4.849146978997211,1.9348894823856777,2.5152293051908083,2.59604764867715,6.588469365323635,2.6293785821098017,5.484065279030517,1.8138248193345488,3.417256333497081,5.470098929328909,2.166424677484776,3.9973184923314404,4.629630216516502
5.535431705612474,6.30739147652937,2.253480550262662,4.845302786812246,1.9320714207232594,2.514014924999428,2.5915369636797614,6.561257420630373,2.629883404383234,5.470013128974794,1.8141293658642508,3.4018816107677643,5.4654753105846146,2.166753641084717,3.989811433407838,4.614023255681344
5.425554220126161,6.066060164323865,2.248946745709583,4.614445344675189,1.8925255701097308,2.5116862699542555,2.5099943518984826,6.456867998615051,2.5598056493581325,5.2274609931228255,1.8014721979626642,3.29560391193572,5.370501635272335,2.163199648810793,3.934422672428002,4.433788706554896
5.24885508560207,5.7214983234701675,2.249022767482217,4.3582627816998345,1.8304262172325303,2.5044039708803303,2.396146857126924,6.25219032647483,2.481291604167875,4.900228663028917,1.7886275393681625,3.127500588118235,5.242620302255284,2.1582684590185406,3.8469837244164813,4.164339501204886
5.133178949098934,5.58222308363955,2.242283691428816,4.2995037468658674,1.8141725577956693,2.4779341162997044,2.3607754536560375,6.086549448712914,2.471128785279742,4.789406951148773,1.7914092322648085,3.0612734979303378,5.1514794732902,2.158992348089142,3.779158964325567,4.05699184097782
5.10004492300347,5.575720675852741,2.2249754894455083,4.3034104113252045,1.8218437592663397,2.461411848018006,2.3677744619389687,6.027670750316987,2.4780725786121245,4.789770209018981,1.7929239552794383,3.058751119195427,5.122518600160612,2.156724674392373,3.755535080622442,4.057721705786865
5.080384294732708,5.504034013538862,2.222717047571246,4.249132859404775,1.7967383092005556,2.4635650786819703,2.334264625080291,6.011007337777022,2.455730525471691,4.718974013491727,1.7857917417213682,3.0252080742218492,5.112716699198252,2.149852987009052,3.7501120101713696,3.9931989688104474
4.813478271165293,5.157810593549077,2.2150997131335424,4.083831390858883,1.764923956175144,2.4070335074854667,2.249172469068359,5.678242695432998,2.436868396208351,4.434095940531655,1.8018416613883814,2.8705822456266037,4.87967156668156,2.15908284891695,3.6008366259717226,3.7272576183942134
4.524191813342692,4.898902331396447,2.1908654378028354,3.975042008494189,1.7617065536111929,2.32258362786599,2.2137900261447525,5.278976249255956,2.450067587570914,4.239319818662978,1.8136246392136164,2.755612062044337,4.62208385131943,2.166054349812646,3.4226000695744845,3.558404753416546
4.523066795641685,4.894171698554856,2.189331219103311,3.97194277161168,1.7544781850781925,2.319635748294438,2.2069115740474645,5.273970067706971,2.4454068008892436,4.233268257413632,1.810615913677923,2.7543260789277553,4.622400970300103,2.1571767193360456,3.419562518043574,3.5495825738666764
4.232843342730443,4.507002195419645,2.178955948067658,3.7935094938710483,1.7216791601206534,2.2586055384533066,2.115661438402757,4.942131149607057,2.4271470712637138,3.905756351562881,1.827089170250031,2.574827097903864,4.362379278118682,2.17142914571991,3.273224787109808,3.2433357104589935
3.839294726959205,4.135226237902387,2.1558857923625645,3.6299402122149838,1.7059551330433735,2.1617247190212407,2.053329926362705,4.439637575231729,2.4312860729682813,3.6176976349796943,1.832111501910625,2.406362590687655,4.027130217310298,2.1751470013181486,3.051776605466777,2.9917983323056285
3.8122071866752814,4.129383382059223,2.154985453511958,3.6265194896413493,1.7060896374831636,2.1563148884364907,2.053874506289238,4.40024858448641,2.432955712148731,3.6167349962611124,1.830644867633595,2.4056277261585763,4.009163925734021,2.1662413994931313,3.0276479214676573,2.9914134304394397
3.6946197573417066,3.9878095902881165,2.142165207175005,3.5768016780245673,1.6938047920968844,2.1241922109936837,2.0207315269182833,4.272473640912028,2.4282344035437284,3.4929047408903195,1.8329102086922784,2.328424272288363,3.9021181145849186,2.1708006184502766,2.9808865983180945,2.8678167291113694
3.45391875365049,3.8024211618303796,2.126275003148554,3.5061695104633257,1.6876119347777518,2.0707872554567754,1.9936629042715213,4.00471690166171,2.4348580949090226,3.361523596741277,1.8319965361590318,2.243678817453425,3.7083385505238677,2.1640349461591373,2.8544688498353934,2.744955344406598
3.3672405243864945,3.7416441388948805,2.1308777349017465,3.4716145965585157,1.6867990154894383,2.0612827899738853,1.987797033835417,3.919314873107886,2.4451444227971444,3.3313568500267228,1.8320700841975597,2.2271760297762713,3.6475789429443686,2.1597736567440506,2.7896718545110315,2.71944076099008
3.370280927670537,3.7411994593299625,2.1300679878809756,3.4657769855360976,1.6899595034194914,2.062353364129088,1.9920417653964682,3.9188034274914783,2.444750610050869,3.3316461555343513,1.8363606127549235,2.2289064856620233,3.6485498505482896,2.159271803194064,2.7890108744169098,2.720380136349426
3.29376423992954,3.7095373439836177,2.122646564104044,3.4590840972376014,1.690446159089193,2.0456236033927135,1.993248556597374,3.859263493058675,2.4498270571591583,3.318255779447195,1.834406888415459,2.2150677394615963,3.5949355477586384,2.1499471542266897,2.7506108364506465,2.701704815426952
3.14156332788853,3.557298003977442,2.1445965532624456,3.379724282136282,1.6897268012959632,2.03801057127084,1.9743758125591553,3.754973690845493,2.47468340333896,3.230624555649391,1.8501444547175592,2.170606774115797,3.4817714752194897,2.1599428377408243,2.6451930235604255,2.620569224976398
3.0812890012732557,3.42227364745167,2.1581917701737394,3.279644415816688,1.689512898971376,2.0518347714870804,1.9625035966056719,3.7060766462254326,2.465775398645461,3.120537579370928,1.869746378238141,2.138511359263771,3.420346457216778,2.168769501181975,2.5920380515494563,2.5448055869821546
3.071075834553336,3.4224623073516294,2.1593302766161595,3.281570732752797,1.688806238001131,2.047494461148479,1.9635370998497148,3.706534711155907,2.4706820111292394,3.1215526722160494,1.868626514909003,2.138643778016607,3.4216112941803134,2.16543757461057,2.5892192263364997,2.5449217215447564
2.925389911959609,3.252941560183297,2.1969679367968187,3.203345872579346,1.6978019007463783,2.050626202399365,1.9505243113495399,3.633571498078608,2.5092301072723004,3.018478630891626,1.9069257835924716,2.087952963739583,3.3071031682612024,2.193988151688089,2.4938265025943567,2.4510452979725206
2.8051248258288117,3.0323151612513257,2.2091093462944533,3.066675891377371,1.6937091765967893,2.059797254720741,1.928000895081825,3.5507520539659545,2.499659433885422,2.839203876791829,1.9259168743229542,2.032912065363944,3.1685725968148617,2.2063159333369904,2.3989970423713305,2.3272331107144923
2.8061338155170845,3.0236403856013476,2.2191898874005447,3.0638337359521626,1.6949212892218057,2.0600090177478676,1.9240068484210773,3.552892531848334,2.5109057672705006,2.830904155645203,1.931944485592891,2.0316871896466044,3.1804356558753875,2.2128582618309056,2.4064125968074723,2.3245370910345464
2.756858712903847,2.968509500565737,2.2549571545653624,3.0487723202026284,1.71510070680348,2.070880897297286,1.935946569311496,3.5317055220242626,2.548483374370162,2.7994437824298406,1.9725099362899083,2.0175734893681714,3.1374624497239023,2.2464438086047114,2.3788473996464057,2.302208531627104
2.67894456798528,2.8377173824447044,2.2582797377036434,2.9802669707979965,1.7132836618489198,2.0725726069328694,1.9249726048104105,3.4804950440137823,2.5454757153344683,2.698721412225608,1.9786346512679698,1.9949185910432004,3.0187742003255895,2.2501904192191935,2.3080461859263455,2.2386133793124396
2.663407886561651,2.801278979116959,2.271926606545053,2.9621075616596357,1.7184373968681288,2.076473996488696,1.9224656725395213,3.4745267961153545,2.5582383429281386,2.676338659796405,1.9921331926784596,1.9921083300741518,3.0188974729513136,2.2653767818810655,2.3120330331672316,2.2303737294347705
2.6783695635473705,2.82161198855029,2.2943647366746363,2.9714706649432583,1.7355491900079456,2.086322295275394,1.9380334733983011,3.479519422994681,2.5761469036247098,2.69193704369372,2.014672747442518,2.0022691383993414,3.035925246884599,2.286841979990466,2.330997143409281,2.249470305314674
2.661878668627925,2.7866763058597757,2.2944849750783174,2.9602097559931266,1.7350991312226487,2.0860849930037055,1.9360575939748237,3.4615309810381407,2.5759817765681787,2.6708007118515393,2.0148344914597907,2.0017193872845502,2.988331108192481,2.2862953961331303,2.3072887468185987,2.2382606075223346
2.619017565145645,2.701780056807701,2.3032990070551085,2.9172123013529023,1.73782607295048,2.0903836210243125,1.93201461210381,3.4466820038486925,2.5797481402634364,2.622419132784914,2.0257914137834385,1.9937588051351833,2.9635743391194787,2.3017718387898425,2.2958490593543583,2.2129162509823046
2.5937129994948758,2.6637787927723746,2.3135580558070283,2.8797523050074196,1.7440058440886559,2.094988764678211,1.924464638012068,3.4460244378497977,2.5780987937607764,2.5912473985862907,2.032323217766221,1.984033475736798,2.9626535847251816,2.3090380275744105,2.2925843942893307,2.188269984806019
2.5955614783039707,2.658899852437137,2.314017496479977,2.879824720196163,1.7433461108272603,2.0948747039581974,1.9254321129927643,3.4427943182783287,2.578200495595376,2.5904518985675837,2.0321843609240706,1.9836058508950811,2.95950906534514,2.310454166552628,2.2934319793153297,2.1899265339294494
2.5439990150873144,2.548499533481988,2.3158830992168475,2.8306400969471848,1.7392645068201262,2.096711737795767,1.9128173661863626,3.421854213124163,2.5730177544248103,2.525022708093577,2.0351805923122406,1.9700725591693498,2.923368158306838,2.31817229507242,2.2709529387995473,2.1500080147773075
2.454041162515152,2.469470459503736,2.3172522718843744,2.7691541564132542,1.7420897273995197,2.0949547789296314,1.8945963589632386,3.401959087424392,2.5687531453201,2.4584083255229894,2.035250557259028,1.9465617530933217,2.87521219775052,2.317331331660894,2.2243963920582237,2.10049075957505
2.440427883135544,2.4699855003165987,2.315913232016819,2.7669663709264833,1.739902539266547,2.092490534318965,1.89589844612964,3.402519472144883,2.5683725945349996,2.458122990525128,2.0326433761119427,1.9453047248996698,2.871907194977068,2.314799671999754,2.2213761090382,2.104204650206146
2.410484327295334,2.4084129822557774,2.3162442550798787,2.7472422996953467,1.7354176833425203,2.092251917458026,1.8823995239276055,3.3851249774651806,2.565369685203068,2.4183438313426855,2.032527932846135,1.9379124631806912,2.851569585600325,2.315957322074115,2.2052085323414925,2.0810743659677997
2.3109242739471734,2.369544989410665,2.3113171448523486,2.71524561035497,1.7366072391517198,2.085198293636131,1.8740686356775957,3.3495088017441232,2.56606290405818,2.381110234652156,2.029281015647385,1.926376892386076,2.7933971349315736,2.309420109515392,2.1490356216468767,2.058835787425499
2.2735260965338195,2.371200268144441,2.3082074451119126,2.709171438858286,1.7350322059836902,2.0808585133060165,1.8741891874489949,3.343394003400059,2.5649644780296583,2.3795151741536262,2.0253460202369418,1.925195434681025,2.770536436558796,2.3003786734316494,2.1309497445231953,2.0616010543680563
2.271797126045088,2.372304662432397,2.3139189378920024,2.712593386811893,1.736591274792858,2.081689528954422,1.872329422342417,3.3367305010406345,2.5685619005737017,2.3817384266906085,2.027218831931993,1.9254500409191257,2.7701074469866773,2.3003506468887616,2.128320288156193,2.061111883359673
2.2205082503222933,2.369628924083382,2.311216154722946,2.707734891744752,1.7355083663403676,2.0759391901821544,1.8738708494828096,3.302980057218214,2.571831601397622,2.3812918599863195,2.0255562566263254,1.9259558312279765,2.7455313703917623,2.2943289160789657,2.101798199995703,2.061233585734819
2.177142257007345,2.362202272074867,2.3099001494491676,2.6914450948349304,1.7371582787821238,2.0739935482092418,1.873293114480633,3.2849995505343896,2.5716145246541733,2.3739704169170515,2.0241804270682393,1.9215008136954732,2.716452614817757,2.288525636890803,2.0793769107130458,2.057713347345646
2.1881264094357755,2.3592022505232544,2.324147588566032,2.6803705335468084,1.7466383580395262,2.080993497753593,1.8827846352163518,3.2857910509779384,2.575739796745773,2.381338951336702,2.0292433558850114,1.9119459105283787,2.715099176086809,2.2891217450327948,2.0810681625407956,2.049171267423252
2.198191475011694,2.365848414290759,2.334098469583294,2.6827730171990423,1.7549648392690935,2.084165682024271,1.891695237152343,3.2744170167007813,2.5865243416466397,2.3976079941195034,2.0373441719574124,1.9241049817489915,2.7305155748304584,2.2954486008013997,2.091267803507893,2.058244591624829
2.173245701113947,2.338360991128669,2.334305809104836,2.655213757487501,1.751167124188824,2.0852781499179027,1.8846482877087687,3.255689416721418,2.588705841241516,2.381048489929157,2.0377860718605056,1.9095201028105226,2.7196938946083766,2.3005867814174312,2.080403732979451,2.040597073484952
2.1851421107303337,2.317969773304854,2.354738198468101,2.6309687905512327,1.7753407112906836,2.1014011752591992,1.9037025764666626,3.2629712978248113,2.5915898521635072,2.3747030119104076,2.046013311131236,1.8902823259478843,2.7035719060468537,2.301191925479003,2.0756832992119474,2.02523090886811
2.219516402281269,2.3332040822663793,2.3754533061377665,2.638631764094588,1.7923134534751135,2.110384692958488,1.9160467835560233,3.274813764214105,2.615056719774902,2.4007328591244446,2.0627322731243343,1.9169800984431258,2.735349681681578,2.3211247422643844,2.0985933267817627,2.0423479007805283
2.2142740520944377,2.3047563364116677,2.3747624566851617,2.6165672182246538,1.780409492534992,2.1109156128151616,1.9023207630175156,3.2691668858925906,2.6209937770567784,2.3868827373870114,2.0641358815812825,1.8988926942987827,2.7495455633673487,2.3359661897285826,2.1011090817547093,2.0206104160011047
2.219008301880991,2.3049840365785284,2.3942688827604504,2.6071165952649284,1.8156494071923335,2.1299851070216933,1.9288963777844297,3.2843101085259723,2.625769675717638,2.3832291566844486,2.071619926220807,1.8886909343449212,2.725554242659784,2.3344039670258416,2.088335696746116,2.0220219811735665
2.2283355783237297,2.3243333865329086,2.414830088066627,2.619660032816883,1.8242538665508445,2.134842631959755,1.934863882488883,3.2925467149809786,2.653907391901073,2.410628454714337,2.088527441852515,1.9205518580777772,2.7508858315165683,2.35795549072951,2.0997746415650074,2.037961401130886
2.228357486343785,2.3191358182313118,2.414744775579088,2.6155102947804805,1.8186777555137743,2.1340406727615844,1.928602294548385,3.294751592669932,2.6608829111419254,2.411168267490766,2.0921267652028965,1.919591805671223,2.773738807287767,2.3753260140011148,2.1071737649124738,2.0317187847123006
2.2168648701013085,2.3357437916147465,2.426558317550775,2.621557126012632,1.8397662365003693,2.1447912395521387,1.9469609949488238,3.3077059058464666,2.6666084126556497,2.4161051799774333,2.0926582114841277,1.9201604176130105,2.7556070900522864,2.3697848102110965,2.0919629669616984,2.0403769236763023
2.1894492336968763,2.3496247596835325,2.4415930118517606,2.631818988666362,1.8402689148719464,2.144941530951754,1.9474663407978083,3.293847077851036,2.6846272597728804,2.432569063562517,2.1051651298122414,1.9488865326835123,2.766545464811075,2.3881479768657488,2.089171905943215,2.0493222548093475
2.1883491533460013,2.344361594645643,2.4423440791546525,2.630498521946298,1.8404009622349369,2.144634489400686,1.9479540551563133,3.2908114856964796,2.685577182251809,2.432494123983513,2.108160807094768,1.9641912694947268,2.779697946063756,2.3978134714402457,2.0951380603399943,2.0488772295161786
2.163223600783443,2.3480066829249946,2.446363523168861,2.635792791311569,1.8332955237188093,2.144918959155859,1.943524424364499,3.294225264246709,2.6892576239286607,2.435650571773165,2.101550716129746,1.964996893203722,2.7723973774054618,2.3908866072689405,2.0838878736114443,2.043807664947651
2.1267145130625975,2.350433713202116,2.4554009871250835,2.63726678678077,1.8364043676386417,2.146312144023933,1.945527616624523,3.2725235890951234,2.6918967119747896,2.43718292008625,2.1082763503075377,1.9876381600221469,2.7718635529262063,2.3992006194354754,2.0767081303813337,2.0473731764660257
2.126463779961164,2.3173288113168806,2.454310418312922,2.6251272578066214,1.8239750803936017,2.1469428263557724,1.9321715052954551,3.2634597741304665,2.6871966290175595,2.420371205710981,2.1073349325146715,1.999670718771839,2.7736160318362515,2.3988572395843963,2.079822754478035,2.033308679669355
2.1049208418496623,2.3057161381298856,2.454789263634799,2.625028556926459,1.8036325325465108,2.1439457425068826,1.910114035294367,3.263402775536287,2.6880297009214518,2.4156820438979296,2.0985136905960275,1.9986436858102565,2.772362820052102,2.3935505848981617,2.0742920905974302,2.0167145952100927
2.083392608969073,2.300159780554121,2.4579784395867392,2.62195757750075,1.8074154730811394,2.1463729918718606,1.9122994638368558,3.250466253721979,2.6862112328876715,2.4122760145758377,2.0997699246120236,2.012852398449278,2.7698869230354624,2.39407883303554,2.0684931359779912,2.0172615928494224
2.0855243349188597,2.259499685511412,2.4564018749183743,2.6089594849443696,1.78517099774613,2.147656924264503,1.8826787589163212,3.23985505714929,2.6840261964031553,2.3897068975929456,2.0973209718345784,2.0163016656849146,2.7693586906989074,2.3919278514062285,2.0695400219550186,1.9983093747180718
2.0792046950948433,2.244210916040232,2.455350851415583,2.6052777157288545,1.7692947198164286,2.145558900314844,1.8571273094181469,3.239804721543505,2.6825066846037493,2.3762243073896063,2.089242769373649,2.0156615607083554,2.769679656687412,2.3874875553182133,2.0673732274684444,1.9807345432041352
2.0710157864080485,2.242563335853503,2.454579333752271,2.6053274709268504,1.771279460334033,2.1448973009946486,1.8579743401302118,3.2346170763054127,2.685711998578063,2.376630745297955,2.0871933667636107,2.020739601857883,2.7732266267060783,2.386737240507464,2.062672782816962,1.9804403766463374
2.074397497327551,2.224631625250086,2.455197796649155,2.60142634432723,1.760059673637464,2.145404483074717,1.8344910214316432,3.222742121644457,2.6880553798514284,2.3649410934848305,2.0865036417802054,2.0209887675908473,2.7752575521103386,2.3873996846187646,2.0627263631655564,1.9737310800250443
2.0795073143082323,2.2098924592437172,2.451359482742311,2.5920421013358887,1.7509300502745813,2.14342752963624,1.8128900316935648,3.2238874716601154,2.6824443976869734,2.3411035424694946,2.07851219664948,2.0196586419780136,2.776143867620361,2.381220220217177,2.0615138586077615,1.9578248827937508
2.0759413950901915,2.2068022859863157,2.4441555203949017,2.5831916971550024,1.75031922798418,2.134491321728943,1.8118603013361736,3.2237887623939208,2.680528603054256,2.3328927521250424,2.071279651757268,2.0095362546535442,2.783452686736515,2.3765866000765765,2.0558781153306125,1.9491046674596673
2.0769880973901746,2.205912133788585,2.4444063679693655,2.583273413693024,1.7508305735827572,2.1314417668713217,1.8059449830630396,3.214917508470325,2.6825712630245984,2.331094833916115,2.072091279461344,2.007887705916489,2.786571881200027,2.3774045781128863,2.055743261162601,1.951026507432383
2.088753694933324,2.191208854167804,2.4360671591856153,2.5620931928358215,1.7442364078606718,2.12787414233222,1.7893485803336817,3.218233163033107,2.668631616647562,2.298035352738635,2.062143510636502,2.0010678494427157,2.7855265651304353,2.3662877962752598,2.054262203940143,1.9357333532885632
2.0869691138025255,2.167357565543906,2.416132613083627,2.5237571021221368,1.7281376270762028,2.1028225493561563,1.7781180963154488,3.213517406647366,2.649717542103476,2.2664221304023076,2.0461737298261555,1.9752767928419697,2.7914836433947436,2.351947359520596,2.046366662686009,1.907463838619259
2.0843525798268248,2.1652549426087586,2.4132382444452025,2.5215060033089367,1.7255885943336742,2.0961347086976434,1.7792677404722541,3.2108160403675514,2.649601773399897,2.2663783688512176,2.048065590172539,1.9729289015709819,2.7932363341302513,2.3518826293549835,2.0469720800337714,1.9065841395537602
2.104427642197912,2.155283284667238,2.404281255341424,2.4901629270253225,1.7218340034533373,2.090930767055245,1.7704919564209078,3.200962314562833,2.630112431735273,2.2357350156839377,2.0373548952196305,1.9629971379647415,2.7893940198250813,2.336549891687706,2.0458384278312787,1.894616735134438
2.106394303800341,2.11830230414381,2.376336235920658,2.429417814459431,1.6855639826516609,2.0492464314873162,1.7467064221441018,3.1676921865861227,2.6046188228820593,2.194283457257923,2.018893481355697,1.9475142091975421,2.79572573832754,2.3200754344754806,2.0383067195268256,1.856643484415875
2.1046233844182893,2.1136046432282845,2.3742082450714133,2.4263798576462405,1.680254686816611,2.045154120383059,1.7473610041504617,3.1649310208865757,2.6045522285889207,2.194345563271695,2.0225458619490513,1.9466413906372957,2.794455826342286,2.3205361320500124,2.040272983850894,1.8521432716939485
2.1335565108468972,2.1199777959454464,2.3755120213810077,2.4049303878237582,1.6856026707355412,2.043369401652052,1.7509081223857372,3.133548070566351,2.5942040611794597,2.1836689096032638,2.01803346294802,1.9530245694136317,2.7930173887077996,2.3089703674549242,2.0425552950795787,1.850194673793899
2.1431043363394373,2.100303274794411,2.3540435171281446,2.352597873996436,1.6517730035526463,2.0001032790826554,1.7309010531248112,3.069084608530256,2.581244556567404,2.1597795052966964,2.0093922660522114,1.971169183635036,2.8020077354502626,2.302459170559167,2.0408461895462353,1.8282016657530125
2.145216232450115,2.100235698793256,2.3589791520105274,2.3559102609897,1.6548311187997347,2.006997009688401,1.7337212399638176,3.0725200607296697,2.5835610953857793,2.1624310620021348,2.0133731889869995,1.9711563049950624,2.7973418166444164,2.3022618243569912,2.0424476742031534,1.8257312429461003
2.175446870405311,2.1231222105905556,2.3721584531870645,2.3604129357827284,1.669956736009153,2.011103746393873,1.745344107462681,3.0500742101931175,2.591580823913399,2.173565808481844,2.0189954407159063,2.003436890619756,2.801338072622141,2.2994055558704214,2.0489889694129313,1.834786567001582
2.1897571540523884,2.1263988661727917,2.362202802078858,2.3331427840401866,1.658803896439781,1.9843433540948756,1.7431209350995418,2.9932520596983005,2.591732813736369,2.171339034695084,2.0210791655992866,2.03435004443896,2.808474709137125,2.300528287096596,2.0536630355056626,1.8357027114117908
2.1906691429266223,2.1298848323795987,2.372445796080847,2.34556906849276,1.6664511211045039,1.9987286772859711,1.744936279631491,3.021403882779827,2.5967764159266915,2.175582317814676,2.0208074384184767,2.034082442692939,2.8014047515896032,2.295463480919275,2.0499790501625093,1.8360710641910347
2.2097971274248636,2.148287055259322,2.381587438825133,2.3594001898621317,1.6784895561131292,1.9999265626684193,1.7522634476908148,3.030296320537861,2.6109255825667605,2.189448749532868,2.0288944447403696,2.0666991027507,2.805024021352881,2.2955847715753164,2.0552909965070834,1.8455189953866968
2.2183946507040746,2.153172762326015,2.378139034200855,2.350981993544902,1.68015735198965,1.9925735795451855,1.7582161216771435,3.012060880542469,2.61228871224066,2.192062312804822,2.030282008156585,2.0784591389227294,2.805797330802989,2.2930777249884637,2.0595350666104713,1.8508042789508714
2.212322610887249,2.152588126401671,2.3842152411003563,2.3617671085426406,1.6788265124791184,1.9984562726867792,1.7518678709371505,3.0474427970592406,2.616808792382329,2.193371735507163,2.0226768529757653,2.076746108016639,2.797485024328783,2.2803142489988986,2.0466455836730533,1.8493351809615777
2.216374107000951,2.1550358291570584,2.3813202135487144,2.364192863093934,1.680224698923201,1.9930057563216894,1.7517854750119415,3.059215877600332,2.6216401976206947,2.196858273483927,2.0248874633691734,2.0855425374460315,2.796206176444222,2.279190097597826,2.045934928706624,1.8509913619281795
2.2142158404631513,2.150684599367078,2.3822910024969355,2.364332931921533,1.677799755756457,1.9936677539110954,1.748597081519421,3.061071920987555,2.6213849535363853,2.194716170616461,2.018622677212719,2.0794943820219167,2.794058001252479,2.2692759395055266,2.043740796131339,1.8460064259572397
2.2052862432133997,2.1468470170806584,2.3809004342059463,2.364244139108445,1.6698835378040506,1.9880051502945542,1.740635721346153,3.0673104542433003,2.621387615902247,2.1922207410410763,2.0086820422959657,2.076920656125667,2.786238678028246,2.252676462718601,2.025454119857042,1.8411801593799701
2.2054831039129503,2.1504607905271405,2.3802160152420386,2.364168789938071,1.6709866039787598,1.9882529876881094,1.742760843961794,3.0670060214811072,2.6211055698708217,2.192531413152206,2.0090585969237105,2.07581660634011,2.7857391613316236,2.2560117570327733,2.022742697670655,1.8425971803901522
2.19898831929157,2.143106745360459,2.383929270808829,2.3644772408614023,1.6642972919579058,1.9871819791906993,1.729942991248476,3.062291761043137,2.622304832310952,2.188143889792737,1.999526342928757,2.0701489669984245,2.786095060809668,2.2434109346692774,2.015518953218995,1.8313235599382145
2.198263790562115,2.1488153369586946,2.3837612680932936,2.363838589484204,1.665433507631753,1.987953002479282,1.735008156238235,3.054028607265794,2.6200561102189246,2.1869350361612905,1.9984323286086003,2.0755610322124367,2.7816384694826426,2.2320263118903823,2.0022997957712803,1.8288883506327318
2.2068692909627075,2.1669942791483248,2.393896146066068,2.373489787834458,1.674788135757489,1.999356064335304,1.7449088982124157,3.069505415951079,2.6246853406053514,2.1917875311312427,2.00332350411799,2.0889218945471457,2.7863025704315296,2.242090073376529,2.003722338752345,1.8408330051015345
2.2036782484194117,2.16312068602289,2.3952769913494434,2.3711183441228867,1.6716243235297912,1.9980763202136858,1.7354256058710342,3.0615149798654597,2.625384309134484,2.1883609761790264,1.9983160693466995,2.0880678511363033,2.7884142117674506,2.2321019601812955,1.9970755632657022,1.8328413865302549
2.214810411282634,2.182658032132807,2.4022597088824442,2.3805031499710045,1.684472333924905,2.0122210252719612,1.7528761123098646,3.076787198558959,2.6261930695776807,2.1908753914695085,2.008995757076433,2.110288629291256,2.7876259387008178,2.228669864430101,1.9942716023117466,1.837110649175784
2.227597917460871,2.199796930406404,2.4102777746126196,2.389230903244414,1.694341209925279,2.0207051521629102,1.7646552181251918,3.109383329931307,2.631057572594547,2.1948972910233513,2.014006847249457,2.1302522060208413,2.7918004278844073,2.2369376947170596,1.9981616962308588,1.854104276593513
2.227824854140163,2.200861604459488,2.4093925081971532,2.3895914831909564,1.6952279810904782,2.0225296117796008,1.7637417019647572,3.1081523756312226,2.6306797389383294,2.193789762296627,2.0166636530633713,2.1314107175664243,2.7929265900334297,2.2319462026822974,1.9954299017829074,1.8515626215013405
2.2416071317490083,2.218781831115379,2.4169192003326203,2.397036407332383,1.7073072497158734,2.032796607927109,1.7795045361717303,3.13141906644229,2.6323503121445193,2.1953678107375882,2.028149197530588,2.1611198988728564,2.7928736733286494,2.2293503726691903,1.997740382353655,1.8568241177929483
2.244124552195896,2.21903732506394,2.413911643360966,2.3951116147005385,1.7084596730134334,2.0267354367128134,1.785663580979662,3.142985260477754,2.6313573103577643,2.194803822545608,2.0273642974429884,2.166621009042568,2.7933324449182844,2.2303304950569043,1.999441126941583,1.8641605121552132
2.244006174794638,2.222828329562755,2.415016891940798,2.3991335526610587,1.7081520706745876,2.0266968438751682,1.7864660155137435,3.1417195203441475,2.633147795484172,2.196411989312761,2.0339997680416113,2.1712605933946634,2.793517804106571,2.229047100020611,1.9997764224925048,1.8640098405862084
2.2486168791898096,2.225464032546707,2.4147458869394636,2.3912444373962454,1.7121613394414652,2.023024996076356,1.7932943238992622,3.142025036939589,2.6283306133363324,2.1920624097590293,2.03585075280408,2.1884346751135193,2.7928203960358395,2.221216035515498,1.99998052254558,1.8603398508386404
2.231901036189797,2.211184875833498,2.402966404435892,2.380816821444643,1.7013605106802756,2.001506719888201,1.78812986720288,3.12132080763434,2.622615436927402,2.187105774081068,2.0269217280673653,2.1773480856828544,2.7901782531027393,2.21474115903941,1.9968812725741578,1.850651844230857
2.2294210212025267,2.212824686190576,2.405025499938923,2.382273539627403,1.6974979040412836,1.9973765080818724,1.7845276757476358,3.11709251621165,2.6248194960382754,2.1888585505652136,2.031139504207015,2.1822721012813684,2.7902159432036617,2.2144509816308635,1.9976642361134969,1.850647456483954
2.2189787900479487,2.2005234399783182,2.3894603326136354,2.3596234438710977,1.69276495354772,1.985018186273996,1.7828385292925306,3.1071105635236007,2.604625850128791,2.171916151918433,2.019005810020438,2.177978303112071,2.782420680194208,2.19678390758532,1.9905303337702365,1.8311508365153475
2.1822624046499675,2.173425849198929,2.362500300328109,2.3349968800788523,1.6675529437814838,1.947503571067174,1.760798893639019,3.0754512608621347,2.5864987729203666,2.1537084995126423,1.9949309854279167,2.1559668416591893,2.768614397111967,2.1788751922192384,1.9781865917451642,1.8065797846535756
2.17897528158093,2.1727384471757407,2.3628930505662193,2.335185640915215,1.6637239051028245,1.9487828275854315,1.7545871246392615,3.0775716415470233,2.585411747209868,2.1534572207832454,1.995573120174706,2.156538469305152,2.7688560826955535,2.1792841162730787,1.9783182514788282,1.806802451289641
2.1526907017881025,2.144607956456138,2.317513612280767,2.2907026125746475,1.647980890084262,1.9226711384057096,1.7440335136480944,3.064927552185926,2.534001851806425,2.111440651978525,1.962160600249303,2.133315777486636,2.7354694800842365,2.1425674885543904,1.9573816304783365,1.7698257703811457
2.103562567629315,2.106058535165855,2.272174963969758,2.2479475296962894,1.615024913958197,1.8773942469726317,1.708767168684856,3.0340442859117425,2.4973452412753208,2.0766659677444803,1.921759433409999,2.1041159838892076,2.706688364700106,2.1158307343365554,1.934982549432294,1.742082852255399
2.102406181805053,2.1068503876651175,2.2707420486323127,2.2505867805587894,1.6150089165451202,1.8878588285688283,1.705025460917292,3.038661533950424,2.4914049586208504,2.074051018099607,1.921591755496548,2.1055056401720025,2.7040820255334297,2.115241765461507,1.934672554266767,1.742509415110425
2.0657410163151155,2.0609140268948174,2.19224799072398,2.1736007798513244,1.5931636630140744,1.8392266190730753,1.6890885953404935,2.993061532264781,2.4030359452042704,2.0079062415042777,1.8657520786056043,2.0677169643477753,2.63926002403787,2.06187770141002,1.9006404415101832,1.6987041297916263
2.022102356898676,2.028793436019697,2.1513376974361478,2.132088799480445,1.5710402558665513,1.8097071291953997,1.6587077125373753,2.963710132519916,2.367523081993433,1.9767093046567525,1.8286421335408924,2.0465386097704377,2.6124380978358754,2.042801937022742,1.8793796354447763,1.684939702884795
2.0223274479414877,2.0272626333112362,2.1441110726431973,2.1282886444868696,1.572437211573328,1.8155571273695825,1.6581587625211023,2.954527236422827,2.3512314857210685,1.9688576342842092,1.8257147075136844,2.0509077177211603,2.6003037716534316,2.0360414845468155,1.8775953852618228,1.6833202050521723
1.9915012100218266,1.9811993955097997,2.066185992862593,2.0412606853539303,1.5610504019610987,1.7635015425812126,1.648296730258431,2.8735595324707153,2.2600332452232292,1.9102271567902,1.7715247390445692,2.0112084744266556,2.5353793457036082,1.9928630117277768,1.8474594430506162,1.6546144635666933
1.9684946267784804,1.9709459538302188,2.051844464172592,2.021303937467426,1.557140428464869,1.7618620883341547,1.6378753300722562,2.8531834384996864,2.247328544667103,1.9001905804885766,1.7570556806745095,2.012614367233288,2.5257584728613502,1.9893658863413153,1.838194249009579,1.6574537965286777
1.9687964446775739,1.9617040139845106,2.037650292519079,2.005755855809434,1.557067839076711,1.7534117409298589,1.636992495841052,2.831931499025276,2.2213117900878547,1.8880159722638887,1.7492692791976294,2.0080083604839043,2.5070465516915865,1.9788174274909929,1.8351610359266688,1.6530554101733508
1.9595335556138815,1.9403998330877916,2.0012240511356074,1.9518259482852618,1.5629198564891653,1.7289687778272829,1.6398615791036733,2.7667589429354065,2.1748558408976857,1.8663242900507775,1.7259132932612433,1.9870280968500957,2.477295373254113,1.9662139243599237,1.8244763695477713,1.6477656011954152
1.953731064707642,1.9408247706814494,2.0021222206664535,1.9477700311429067,1.5651542786822354,1.7383791467439136,1.6430180867717634,2.7611638985781055,2.175022685946034,1.866461520645322,1.7257784329779877,1.995740094987146,2.4772936849959657,1.9669208591626666,1.8233535117537365,1.6507232962137637
1.9614207926747025,1.9332675738273049,1.9939505091456913,1.9353855204887132,1.5678662263489898,1.7259326222059619,1.6418932999439553,2.7466009271729344,2.159503651575591,1.8624002373404145,1.7213942831469708,1.9799372988806199,2.4686713067931527,1.964690245081629,1.8240810780069765,1.648025812669132
1.968604318803937,1.933629644620973,1.9935279514625075,1.9214655181193487,1.5779822228753426,1.72852329162476,1.648815685259623,2.7306730920296904,2.155566045822782,1.8646904760950853,1.72282794400102,1.981143524298492,2.466359113341041,1.9688534334073018,1.8251188010473287,1.649473832594005
1.9703056076691365,1.931792181897179,1.993409108400482,1.921536912631055,1.5779510797373815,1.729323372317708,1.64961433688584,2.7332180985129315,2.1548911580374184,1.8640446444502832,1.7218695551627718,1.9737860863283652,2.468560068695657,1.967042965367871,1.8266703561659914,1.645113537453627
1.9938846797271785,1.9385921832558546,2.000694985954086,1.9219376471174234,1.5880267054222086,1.7249474968559522,1.6540295779807723,2.731066828459913,2.1634212437405846,1.8768752844404426,1.729409291952654,1.967344558685653,2.4781217657375842,1.9783978338604893,1.8348750716942743,1.6489162162454252
1.9998560719567406,1.9403074720706033,2.005044553703911,1.9216412084962458,1.5903606384927593,1.7302864400515117,1.6526035375680537,2.7351424938995694,2.1663064200718325,1.8766441385193466,1.7296501564554851,1.9716958828761044,2.47723309712749,1.979117582330089,1.8326873523575362,1.6428297709616475
2.0099325100925305,1.9437475736508216,2.0077789422433194,1.924608223648248,1.592245507502523,1.7232196054252846,1.6489799084264716,2.7336289903562596,2.171577120399699,1.8843223391211126,1.7322753407615208,1.9579955113328682,2.4877235934132145,1.9817973309402432,1.8416771233867388,1.644298501767299
2.043564980484154,1.9604299382594332,2.020565424438065,1.9276998944708272,1.6066631384605994,1.7254554145812842,1.6622496352750926,2.733170330684527,2.189200483697488,1.9055815532792386,1.7468604719398553,1.9732884840627531,2.5057684701313625,2.000053597071735,1.853556170190619,1.6544026862040389
2.0435204410479453,1.9589400968661708,2.020338310451837,1.927413350886367,1.603412613403449,1.723090111076694,1.6529660500996362,2.7157681344953737,2.1879580317425766,1.9018682551890356,1.741214560439876,1.969756381222065,2.5035751588784145,1.9985204156615273,1.8498350933867167,1.6476838738249882
2.0627333695907613,1.9728154239699678,2.027306695950706,1.9303952175856283,1.6117525207478065,1.7191368477200046,1.6567406307625354,2.7058814829662983,2.198183995076251,1.9198424182563094,1.7542105721313095,1.9740470983315141,2.519479854046628,2.0079507502040133,1.8655964340754327,1.6629253809903901
2.09136670635427,1.9858842344206304,2.0336413800088255,1.9301458252648493,1.6235819468680932,1.7211930124381163,1.672755135845787,2.70033083595327,2.2077195872431514,1.93630360174818,1.7657401113533582,1.9947128911243877,2.536348567792357,2.0257305344904473,1.8754586436442207,1.6759559793857017
2.091370048821438,1.9861835576808935,2.0336654934559393,1.931100325139126,1.6221753836801938,1.7191290292710286,1.6667907238775561,2.6655061012833934,2.2077990404475067,1.936265906552483,1.7646302906972564,1.9921605418143764,2.536387137875215,2.0269777164428597,1.8755920684920064,1.6757472464083554
2.1087297961433613,1.9973936924208968,2.035544553981239,1.930985482463983,1.6338989989888395,1.720710278184188,1.6807179334372857,2.6557480041315684,2.2077528733458145,1.9477482210866115,1.7780296713434751,2.0080536264267375,2.542372422726393,2.0331702800541227,1.8830903981107978,1.690942712448067
2.1241879663287446,2.002033762274513,2.036259117744863,1.9323619900496023,1.6392289362639356,1.7208936257524932,1.6897565146717644,2.6503062288111714,2.2100387174685316,1.9554574881409503,1.7834482206650495,2.01651354191577,2.555431020785418,2.046455999783994,1.8895370862750944,1.7030045342709363
2.1216059750891656,1.9974957816314192,2.0323236265135662,1.9311111392752578,1.6409921863794343,1.721948513526102,1.6909817505182467,2.633705098755013,2.202582703464349,1.9496249409660547,1.7828479291051822,2.0172084794495277,2.5435594544329074,2.037942657858426,1.8819791024980483,1.6979817621127709
2.126982345392297,1.9949617704960607,2.026993989219701,1.931745801200095,1.649008732572899,1.721843977462172,1.701758605603668,2.6317334858446517,2.1896496212080465,1.9446810326353454,1.7855435970083933,2.021451089288872,2.535673939028526,2.0333485370628015,1.8723737423672737,1.699991410119402
2.130114152625943,1.9943608961251154,2.026854892558106,1.9346752952321482,1.6494327124619201,1.7220919830079051,1.7029270799127953,2.631462784261438,2.189280080754348,1.9455844015559123,1.7856782896138765,2.021492179921066,2.53993946092229,2.036816757219068,1.8743934546265226,1.7062688157979613
2.117025395665013,1.9768656385366654,2.013206847369828,1.9234570249155314,1.6526503285692404,1.7179137193299812,1.705332142772703,2.633188381525657,2.163139276064348,1.9244723188793535,1.7741278281848567,2.0134357427805725,2.50625470170734,2.005883438839201,1.8470711344299278,1.688016563080219
2.114250825067295,1.967893629198225,2.00825247030566,1.9270163337074433,1.6553480276977044,1.7139742665590394,1.7068045808943408,2.634325651052615,2.149987033203582,1.9134470304168798,1.7708641424628697,2.0069649600431836,2.4970691647289076,1.9964465492377952,1.8318974611492218,1.6834813255579717
2.1093118005323093,1.9654437984549482,2.0072881880626174,1.925022078730894,1.6566813534421776,1.7158828423360115,1.7077177460298256,2.630999098667111,2.1449107624590056,1.9098323804707455,1.7657021523335397,2.0067663142132672,2.487973264795458,1.9875137300918184,1.8271870187502188,1.6818831814055404
2.091970988618568,1.9472018182231174,1.9917047373583638,1.90358500220626,1.6676645313062899,1.7102693732805438,1.7135500217680466,2.6158575709826994,2.110543787282336,1.8868568010504474,1.7505653705235462,1.9912545053806392,2.4520880078884923,1.9502873194812813,1.7945872482809115,1.6659266001162276
2.089822880212124,1.9434085202331322,1.9906953021308298,1.9063898317094488,1.669874340199712,1.7077015928963815,1.7141186378017965,2.614990123854932,2.1049247594724108,1.8822244361170453,1.7497148983473392,1.9891720246138256,2.4509905272754273,1.9457640754887229,1.7879704927913551,1.665766588243211
2.085766450469492,1.943949468886145,1.9892022075199853,1.9002625549194094,1.6786091230640259,1.7173888286323848,1.720115462462277,2.606765073450058,2.0967304170819294,1.8793244557508986,1.7442661270979538,1.9870713508475903,2.437449913353669,1.9356922115175852,1.7814374755350701,1.662882911795722
2.079533534769384,1.9455581730642322,1.9858303011930363,1.8829371117966438,1.705827861586655,1.728215567160877,1.7383724228967803,2.5789155032085707,2.0793505714131286,1.87593559254791,1.7428030364148148,1.9839284678641227,2.428952850812071,1.9247067111876714,1.7704162478946817,1.665766675820223
2.0794963979212917,1.9458024580738023,1.985817630585967,1.8833105687799183,1.7089670399322594,1.7280165583867986,1.740699228458245,2.5775227233221143,2.078957092259226,1.8763233988600274,1.7425226873452897,1.9827417267785856,2.432657986793511,1.9249727958860157,1.770310002569931,1.6675368427435595
2.0863760922812675,1.9553015880066917,1.988566110529562,1.8860246122489048,1.7267363301930785,1.7530273254770927,1.7506961663112994,2.5881498717959412,2.0785485904202297,1.8814860072463149,1.745621098045228,1.979714514184245,2.431783126095069,1.9319556072389619,1.7734856513315196,1.671426192202608
2.091831434157303,1.9750239144507609,2.000758157728923,1.8932544933185018,1.7629322400852478,1.7807070485105405,1.7742646966065592,2.5934171054360005,2.0916805391359286,1.8979586313788426,1.7563558650896527,1.9952532933999503,2.455024243813027,1.9534168370048692,1.7858503746376533,1.6827186075886449
2.092777658586115,1.974970943172577,2.000992326379218,1.8932304775189763,1.7648750112922322,1.7807246586085015,1.7747558162823456,2.5926920340712862,2.093616770901904,1.898611610032002,1.755121041299758,1.9864385767753439,2.4589088116360545,1.953934291913886,1.786100886752569,1.6823238739571296
2.1074215263513025,1.9903637324808316,2.011175383349455,1.9185933183664992,1.785204918498744,1.8134522159568864,1.78319818345357,2.6360783837542754,2.1091622109565398,1.9123591063111154,1.7646997957846446,1.9894815256717007,2.475197695109271,1.978980769349652,1.7993630078899674,1.6888298579714567
2.1135609386742398,2.0112251915499364,2.0293892649771132,1.9528283033127636,1.8141576772451604,1.840609717166087,1.7969240342348116,2.6879917361608947,2.14324169462485,1.93404469625681,1.7757006646952938,2.0091792101666903,2.513330884270307,2.012005622317685,1.8184540787212744,1.6932777183868506
2.114349746217434,2.0117485568910904,2.0294613240040476,1.9521888002211405,1.8147440936530514,1.8407031054485434,1.7981627053699634,2.688298991212342,2.1436563301564155,1.9342456295885726,1.7758880812705364,2.0024550083098704,2.5147802027121333,2.011941053687577,1.8186517930401331,1.693230471084517
2.1238619496665794,2.022350921718643,2.0445731372089373,1.9989646317332443,1.8292801951942415,1.8652353866661342,1.7993181955887947,2.738657220433513,2.171999044362099,1.9498186462433842,1.781130939861643,2.0092566814797297,2.539443465105,2.0395633217299873,1.8307650689263597,1.6933761201050708
2.1261166418393143,2.036659820336328,2.054680692557025,2.035332178814149,1.8436467197181785,1.8823676718627065,1.803482111371376,2.800969919198432,2.2049194763054545,1.9672703238546645,1.7901825104109073,2.0232192001646134,2.5773320069605896,2.0694034551459564,1.8490761109805303,1.6940956418655586
2.121639059401876,2.03408557908554,2.0506554050072014,2.033953053304243,1.8421108822955106,1.8809197584337407,1.8046999536508757,2.8029642452510006,2.197700831087663,1.96235720809803,1.786377002801246,2.025237873623647,2.57066260446948,2.0657890585744796,1.8446823470607536,1.6922077841211862
2.12312622130668,2.0370181290736467,2.065821329273657,2.082286058045994,1.8488829092337138,1.8935963488389091,1.8010686701261114,2.829395616200334,2.230384442275638,1.9763918690891764,1.7867778003891037,2.026719226071616,2.5985258568534237,2.087730688449229,1.853504541301536,1.6887506065319886
2.1212987278908852,2.0432089055216585,2.059336405486811,2.095833185155768,1.8500201085674692,1.8983397525735997,1.8019956844780385,2.860644232390393,2.2448136444694535,1.9850245881541257,1.7922326902351018,2.0347622704760857,2.626708883296795,2.1101434299966186,1.867687251739486,1.6895964374215038
2.1126389868588578,2.0350663791805212,2.0544209911456903,2.0982089646289315,1.8475627926489437,1.8964469052533264,1.799521566422195,2.8626389819660276,2.2343235530230703,1.9744174723487393,1.782579119457004,2.035736106169064,2.614493780115624,2.102116200229932,1.8583877034264156,1.6843265958698215
2.1121983975311487,2.0354854387203076,2.063346880455917,2.122883195865401,1.8485590704597714,1.8994991652182158,1.7984915781290949,2.8581746891694357,2.260862371946025,1.9879447427355077,1.7849242594701489,2.0314248313988252,2.644632749294315,2.121389018927484,1.869716428751822,1.6844587503086537
2.1091797474135334,2.0340300074892452,2.0502277261630493,2.118539747674595,1.845040086739399,1.8953395472584995,1.7981397899462526,2.8531987814961086,2.259087317841271,1.9878559444471948,1.7838878862503103,2.0336391908521643,2.6597017200250157,2.133703796865099,1.875484279304576,1.6823333426871863
2.106431741940145,2.0289908861029966,2.052014835146978,2.122991416971214,1.8450019248367497,1.8957731082972171,1.7968958711033882,2.853280427376941,2.257160441010356,1.9831117433611822,1.7800493411454048,2.0299302360950766,2.6558361205319705,2.13013208838746,1.8727871431063456,1.681398363536583
2.1066037183943194,2.028980148587402,2.0513784948164884,2.120993321424464,1.8443245628974185,1.8906291516761033,1.7997633357958054,2.839462791457197,2.2669083539603982,1.991691650484249,1.7819585774066964,2.027193286556818,2.678137544015471,2.144091048173079,1.8818503440099357,1.6815740468233062
2.1125712041594022,2.0277426262038594,2.050253172350414,2.1204532443985804,1.8472591839272023,1.8912932269414944,1.8042406222002934,2.837459867087272,2.2645833601483516,1.9903852961881325,1.781194998912625,2.0270666675528832,2.683641729290286,2.1479619823500293,1.8827783247770655,1.6808934744482198
2.1149880261628287,2.0283444441638454,2.0518565000556737,2.1177866830836356,1.8456890973768103,1.887142937143887,1.8032936881101937,2.835441825685418,2.2652926090919068,1.9922623084910782,1.7819130580596512,2.026215636444082,2.685278924913544,2.148777900286328,1.883847419604733,1.6817526836081116
2.1211066179914684,2.0324352373197074,2.0548619391592324,2.124865533133046,1.8554989158908224,1.8898794636485603,1.813391659135567,2.851471357890393,2.2624782230732228,1.992091652718412,1.7812970329434687,2.033303446533447,2.6879156425181443,2.14970971291207,1.8836849749908975,1.6786435855711175
2.139925425161173,2.0332192028736786,2.0624350352907816,2.128008206385451,1.8604460817329607,1.8967405711602414,1.8221628936805152,2.874888089961005,2.262548195767363,1.9925183072664887,1.7820163121895385,2.035993046557279,2.686480620189728,2.148751761349993,1.8816443053705854,1.6817667891907644
2.1374382382746138,2.0326793768347464,2.059671606868576,2.13375486819546,1.8572489527755343,1.8876470796734761,1.8150441350984479,2.874315176065182,2.2509538700738654,1.9858177977002367,1.7719992914763325,2.0408881080646344,2.6703070983757877,2.1360953373937344,1.8675822549830887,1.6708738703243489
2.1624759628261914,2.0547066219347436,2.0923102344008337,2.19087928699319,1.8892812236538818,1.919004302992925,1.8420746231450265,2.929364205774116,2.263726868994667,1.993375609612618,1.781426791507642,2.064217967203965,2.669333061891662,2.135948574957226,1.8707790204879522,1.674057362840504
2.185676635192341,2.0499934176375842,2.0929850350309955,2.1845714901817046,1.8856054306881567,1.9174395070696408,1.8442073389837477,2.945611660037942,2.2598575014106723,1.9930693169212625,1.7760545098865996,2.070349657420012,2.6669426311952398,2.134094651501273,1.8638530226916776,1.6738805124031553
2.1817064334548277,2.056142014497281,2.1087296602762438,2.238313735629359,1.8955149599416619,1.9268274987666831,1.8425566943791325,2.960164205735727,2.2480290627650663,1.981447162604117,1.7630043111500828,2.0785721166502373,2.6323282527077962,2.1061291892502747,1.8389631281887988,1.6565908647671348
2.2293840254620028,2.1036615101196983,2.1790470679088507,2.3407687584782764,1.944694369005899,1.9817979443868243,1.8829568144259505,3.025131107637708,2.3054241200995795,2.0244646253032785,1.7964353167628107,2.1168401858201777,2.6727936084234134,2.139975883169473,1.870032586337922,1.6760696095703418
2.251505173614312,2.0988892308028317,2.1771725958194477,2.333534651953278,1.940430593728674,1.9750881647350953,1.8814749403811974,3.0171688754319272,2.306996275624218,2.0301564922606037,1.7949762386167294,2.1276453304112315,2.6874373160443015,2.149265854410058,1.8706871336411623,1.677174089481265
2.255027353212286,2.121469478057483,2.222468977206418,2.4301077397756163,1.9647532553150318,2.0128148499296943,1.8941690340438022,3.0576977735650197,2.318521274425818,2.0349376652026603,1.798264286984208,2.1356469903836333,2.666987128693091,2.133522982955313,1.8606338604800545,1.670597479887881
2.309017120014911,2.181719478954337,2.30452743067233,2.5371320431711837,2.014567989746062,2.069648926930446,1.9299017136176926,3.117754220706409,2.412456408512989,2.1113579319893576,1.8521945646066311,2.177915277581305,2.7664777123410307,2.2167297106300254,1.9239459926396005,1.703944115815839
2.3284664201341148,2.186204077002579,2.3072382113822067,2.536926341834277,2.0183908386583655,2.069403779242494,1.93332292996568,3.1104418714701447,2.4270579256760527,2.1270989748800524,1.8651312305409902,2.19427620681428,2.801629328223235,2.2426389619027605,1.9417162466838258,1.716767520092313
2.334690073498945,2.2102908416314775,2.3526025525103,2.620364644986898,2.0362958124277726,2.107837260097031,1.943089838862187,3.1563594458142754,2.454007610845739,2.1459275747431903,1.8778429941762196,2.1979292143417384,2.8101782029454574,2.252899369929946,1.9501757009998832,1.7193088999238355
2.372094009459292,2.2595226585905364,2.4106435158094626,2.6975445259794983,2.0730002039321755,2.151430002871243,1.9637640138563088,3.2095939398156594,2.538620153803128,2.2165251987549652,1.9287768126172407,2.231472349684305,2.9188239059641963,2.348504569565708,2.015428856096789,1.7539136601311924
2.3841681823548604,2.264380738228159,2.4094975174555215,2.6949052650783827,2.0776629126054456,2.149365906599606,1.9633497176791679,3.211649707352435,2.5517180755098563,2.229802249621606,1.9382206275827443,2.24755367574295,2.9474388047572457,2.372010362966858,2.032394688131895,1.7695476614886751
2.385700921646398,2.274161936552929,2.429567796271847,2.7313997669511094,2.0813079292022194,2.1657205047584713,1.9611000621023007,3.229482946444846,2.5698541925185046,2.242949556639889,1.945661886426634,2.2474418989190545,2.964944773025668,2.3910992293790536,2.0428395472468703,1.7715528003375285
2.395665088864863,2.294639441302475,2.446851143385585,2.766760526127503,2.0980861118552907,2.187926961524086,1.966679691354656,3.25717094284741,2.6054687179532925,2.2745766898122057,1.965436000028327,2.265307730849863,3.019404122281726,2.4479542327823434,2.0736480295967947,1.7919617439893225
2.4012390804738906,2.2930850406537973,2.4423495534452915,2.766679026224356,2.1031058407280137,2.1818672029914463,1.9581388049008044,3.268867155445089,2.6078615261348443,2.2773954073532816,1.9592795459600938,2.2741412322903454,3.0231333282286315,2.452074435637629,2.0740401715948655,1.7973957315302749
2.4009834582966616,2.2933028249282494,2.441659446467373,2.7682374932603633,2.1031554042845597,2.1833447060545534,1.9571351500201797,3.2643588107766,2.6076994724456863,2.2784111109963407,1.9600666446429393,2.2739302073937973,3.0292471151773057,2.462552525401281,2.0768348936772885,1.797839258063477
2.389860921944435,2.284239805162414,2.428193163036498,2.7743012127196875,2.102986890203665,2.1862896301930754,1.9498700667378641,3.260180363474172,2.594508968169882,2.27118651929458,1.9418536883092707,2.2767716253566306,3.0161089984997558,2.4646887870528635,2.0644442002113617,1.7956117407753316
2.3972547498964727,2.286981133022276,2.4341937174310484,2.7965372919582103,2.11734877773857,2.1970003985064266,1.947619784792405,3.3069575653603267,2.5949289134836344,2.2707199684673967,1.9345003556896767,2.2771517140130464,3.0069481800386457,2.457263928040518,2.0566775358132605,1.7934499985674497
2.398763964242469,2.284390252158907,2.4248564640873482,2.7886205019355517,2.1168942980049446,2.196790408562923,1.9498363259479259,3.31660188304166,2.581224023612396,2.2637030006416703,1.927487035884262,2.2770000326891386,2.996530726047472,2.4539892522810662,2.04905134614971,1.7897938071466006
2.381199509972836,2.262053741801311,2.40447594537716,2.7888323334902956,2.1106353667863407,2.195872275587003,1.937499014025653,3.3052296165232744,2.55147093376807,2.240596280805242,1.8946399517038839,2.2704876225672495,2.9533171471556927,2.4262493192873604,2.015497828850449,1.7703047544237578
2.391683135933289,2.2740977155927347,2.420932268508353,2.828568770270046,2.1296053882603316,2.229568115447692,1.9460752788268643,3.3855637067044886,2.5548556021664175,2.2420003205619055,1.8948615088448897,2.2672630267289127,2.948229867117692,2.4221150507187774,2.0117708197551476,1.7682481896707891
2.392500470675421,2.2675136193657868,2.409396992964397,2.825407408620582,2.1236146865891383,2.2294633596783284,1.9395176400483507,3.4181678478594693,2.5393129752619203,2.231601855703786,1.8800942481397591,2.265575157884261,2.9285590173546514,2.4080992000692705,1.994179092815016,1.7542933703800123
2.3783765097287644,2.2490127596348297,2.396313803076449,2.8276191189727387,2.1182554886044023,2.234221188893209,1.9325027374022163,3.4144840768706954,2.520775439408081,2.2135224764874097,1.8579824980377304,2.2565914748378257,2.8995875450817605,2.385864331695519,1.967190055827024,1.7310315152550522
2.3846135644429616,2.259663244505566,2.4092795425258604,2.858983984406461,2.129077262446851,2.267818010453649,1.938965992806554,3.4779686990172993,2.5227393866445316,2.214190506681709,1.858479083281406,2.25712879969509,2.9006297682845856,2.387240144314752,1.9675101769374814,1.731757454571422
2.383846007742462,2.2522144984165635,2.4018545135027383,2.8637473789243266,2.1202127784256652,2.2674172127106362,1.926136157230094,3.5099057955362247,2.5168914460885787,2.2070027000863854,1.8461090874055779,2.2537075814115517,2.885596676574054,2.372167191865571,1.9479216273725228,1.7088024023691148
2.3749509870199508,2.24172223512386,2.3947600930600474,2.863284907111698,2.1149007583118555,2.271936395120113,1.925709020457458,3.5089713529617312,2.514237206493897,2.201374193769488,1.8387644655912347,2.2481060767742043,2.8857326341209357,2.3709234401660324,1.9384672238655674,1.6932197556326865
2.3751726942687372,2.24485062076599,2.3990942815819762,2.8763492412196476,2.1169811707187596,2.2892385360748624,1.9253019653873302,3.530027781016013,2.5142816700832187,2.2014562027980595,1.839873922408301,2.2537723058541257,2.8903542992847715,2.3751243886140956,1.9399550225396982,1.696312785934847
2.3752121713342436,2.242451493163905,2.398836849452937,2.887296534914429,2.1115387564998804,2.2910091958951315,1.9178794053976185,3.5468328016189075,2.519493599874403,2.2020993405149785,1.8361231550945525,2.249545565369464,2.8873284748625965,2.3679115876576895,1.9282029892768306,1.6741555354077309
2.3725807465313644,2.2380677328007277,2.3958455619467953,2.8886680048515507,2.1067235868203493,2.2912783255688716,1.9187240125650273,3.5490534417594337,2.5276220138772,2.20900251080958,1.839732120010087,2.2500700889177754,2.9079069047408206,2.3834912232466228,1.932311502836369,1.6710836173966594
2.371787464410831,2.2372017632585615,2.3951732211297534,2.890715087655622,2.106533683971019,2.2969631668447104,1.917488394510697,3.5490217265348956,2.5276842377191167,2.209930116319791,1.846016246709757,2.254716360412384,2.9155089290247886,2.3905574523450235,1.9346960820616022,1.6737410963885626
2.3741134681223266,2.238984026410217,2.3996009248008705,2.906492104828614,2.1058668700159586,2.3030503204070065,1.9167735265492956,3.5542030926764454,2.5376960643655315,2.216689830701466,1.8463514298473214,2.252543878897031,2.920305367284985,2.3912831645334305,1.9323800759450602,1.662108683070403
2.3793368639630246,2.241463449775787,2.4040325838604817,2.9185263951644056,2.1062199707613187,2.3042879038385724,1.9169561234033252,3.5609880992343887,2.5523079020745705,2.23241959566935,1.8604785385909646,2.2568885730699644,2.94886885395207,2.4149666082609422,1.9421929581237587,1.6686806631912194
2.3794064344017873,2.239081514132917,2.4014684053907853,2.916678307735977,2.1057593772445093,2.3063568764993865,1.9170053130126756,3.560506155530403,2.552451318717738,2.2327893569335435,1.8673082935498002,2.257216055419249,2.9562181131719365,2.422548705316907,1.9436787438216976,1.66836451034263
2.383858413951182,2.2401639654640917,2.4067906820536384,2.934996350416961,2.1063696267719574,2.316515502921085,1.9164836225723394,3.5620907839794134,2.562528955036286,2.2410178718987663,1.8694862583665537,2.259021472743681,2.9634498440754315,2.4271932840714396,1.9466015998572581,1.6692433769486479
2.388590310377936,2.2466236595623372,2.4157219150655957,2.9539608280674545,2.110356799201448,2.320618223990165,1.9148051250138538,3.5680590120998823,2.576782644417415,2.2542731777508602,1.8880578216180117,2.2601966980910917,2.987102672047925,2.4496712869716313,1.9537282391724407,1.6761547967441754
2.388587438783162,2.243699686727987,2.413857076995443,2.951887683490865,2.109208989149927,2.321789083468275,1.914606134552718,3.5687165969033168,2.5770993250494567,2.2541823921067734,1.8909930988388104,2.258136226495456,2.988989470130196,2.45288727216666,1.9520886167721787,1.6740965786204007
2.38900756304906,2.2375652015645056,2.4128383704702316,2.9638702653272406,2.101443881357405,2.32869752716281,1.9057643983310997,3.569508828930579,2.5833264243528764,2.2567782626351676,1.895129356836094,2.260614539964851,2.9960837458165477,2.4587799018365932,1.9569960380618652,1.6799558426471162
2.376643673157927,2.2370986411611007,2.4126358223348228,2.9766198653830593,2.0986079867421616,2.3295741914710373,1.8979612168026911,3.5699647332464557,2.585475225574391,2.252653489753915,1.9035261425726766,2.2506773107867866,2.999946157135928,2.4681479967632,1.9521402797510303,1.6769036963875412
2.3778253170481976,2.235231801427489,2.412353639713897,2.9759008965957783,2.0971544031198412,2.329755353243273,1.8969821094224721,3.569589925298269,2.5834849226683874,2.2525368338864693,1.9033058219352774,2.2460671937324697,2.990944635008105,2.4629754403019684,1.9477552875850208,1.675754436458115
2.362848239868247,2.215950925435979,2.397782445525846,2.973200269481199,2.0729280751436905,2.3226869246240436,1.8740453592894875,3.5573954181129985,2.5819340756332965,2.2433227289611715,1.9038421883239909,2.245124354870904,2.994296615758792,2.466857637301338,1.9519239125305585,1.6771795767370326
2.3304109545372187,2.2014529505295375,2.3788030557914306,2.971818237881675,2.0580762378409503,2.3159568097975956,1.8596107358806928,3.5472806062469853,2.5632885206995324,2.217990847986966,1.8908749959330435,2.22182470959034,2.9715562560262523,2.454803196430072,1.9304806455548316,1.6609487668664868
2.333500700479213,2.200787082446231,2.3788020170891113,2.97311049048477,2.057390473864421,2.314877380181867,1.8577628102713197,3.544856332885303,2.556786412429139,2.2159274335277415,1.8880739277778331,2.2121993646099622,2.9504728023205384,2.4404971575131533,1.9259403370299177,1.6622680102353837
2.3039003858058282,2.17448104086737,2.3573176591633898,2.9627827281160126,2.026519013557834,2.2964453135193996,1.8281724788796947,3.507221590119405,2.55054952054226,2.2010523714395633,1.8803444066180366,2.208973590459502,2.949729722286261,2.440346316277407,1.9259579835586789,1.6571010343070436
2.270509497217615,2.1538498882625423,2.328423893242367,2.95163322231843,2.0078145605628075,2.2849019410150193,1.8138973635721167,3.483111359815251,2.521257654028994,2.1709357453659828,1.8518879161404085,2.1790378695054105,2.9172472720043134,2.4156659595911134,1.8979353701124335,1.6358480482600004
2.2733751334241843,2.154015557152783,2.328802405164546,2.9576481975934477,2.0096460391570736,2.2857391131238667,1.8121344216465665,3.481941703010883,2.515138697146491,2.1670135588673074,1.847466043596857,2.164632876606519,2.8939768262326995,2.3984969109927086,1.8962649980312476,1.6404411073328495
2.2490179054347883,2.139240219692272,2.3203804862957176,2.9603597970200948,1.9933101989293547,2.2743186599079928,1.7922080980408919,3.439383910644548,2.518370185832161,2.1652328366950604,1.8378664828150957,2.162540686120492,2.8992860662020012,2.4002731155800188,1.8928631848926751,1.6334542711516247
2.233982797173554,2.127430696985132,2.302102309080394,2.9503548560680586,1.9816144197379708,2.263480255884541,1.7851734938627346,3.4097562461557,2.5058687689353487,2.154550315088351,1.8152251364561516,2.1361005806991966,2.8910674067092974,2.389227813017885,1.8807081288218792,1.6216936756070408
2.235154213540271,2.12844945315171,2.3041275249783566,2.9642841925857057,1.9853700392120606,2.2702713987397933,1.7845470035886304,3.4181769550492533,2.5056617673218415,2.152136964338015,1.8115902943173579,2.120930613936885,2.878522668403519,2.378543407859431,1.8824257343976987,1.6288422615689815
2.2309433685664413,2.134801696121065,2.3206585108384843,2.9923044738721294,1.9890952763726193,2.277800272495422,1.7802209847419228,3.410471641653806,2.532935000603511,2.1748269164381124,1.8128236251268162,2.120628344925584,2.9026669504911795,2.393253588736502,1.883444773396099,1.6254664873711082
2.233561846861396,2.13732878371856,2.323261262932489,2.989180855377765,1.9869740388309072,2.2707634135700387,1.781823422907573,3.3910632655008652,2.548304492671194,2.1889867203775943,1.810671592226679,2.103176894094479,2.929507675322893,2.410553529511659,1.8984471978446487,1.631490102068878
2.233174013241328,2.138208151556675,2.326477891070256,3.0099976126077377,1.9890113411508017,2.280662142363796,1.7818546381927685,3.4081925402360773,2.551956150592794,2.1895747696531602,1.8089589005238447,2.0926233792650595,2.927584175432227,2.4078850983630664,1.9004621870816876,1.637323501378414
2.2409158677889045,2.1553809529275108,2.3583356046033357,3.052765604369934,1.9996503738403966,2.2994619534052387,1.7854864693314523,3.4425845972721554,2.5985726116647054,2.2258562031786613,1.8242879911378587,2.092639657733405,2.9662071030486965,2.43537943201317,1.9112356081737887,1.6401165513370997
2.249139448338109,2.1662739652467025,2.3731579782151178,3.0537912064485027,2.0037690107473525,2.2966943315084736,1.792849940143027,3.4411712474185285,2.620089221298133,2.246852524725758,1.834634792682855,2.0833116127976488,2.99822996171231,2.462786534598776,1.937834452460587,1.6561768441978648
2.2468661624921857,2.166245490383969,2.375919560256659,3.0764061542247716,2.003298074373089,2.3031880510424143,1.7935602920380413,3.455802880668441,2.6246120661138286,2.2490172929486842,1.8347686196935795,2.0797402699272602,2.998548386779791,2.4628829743032843,1.9379110613165784,1.6570871968208238
2.2516157237565513,2.1801295622974926,2.4047736436113016,3.1128919499378713,2.009933220391636,2.3192580158350444,1.7972397237339255,3.501845081301776,2.6669970366279947,2.2787178983396177,1.8532857994124534,2.0786502058363454,3.0304312860921794,2.487811269717992,1.951809127553544,1.6637872595250376
2.2575911336747705,2.1913635095260435,2.4175266190110034,3.113733683726315,2.016315931584712,2.32015807368436,1.8062018781543439,3.5124954825079397,2.673240552363265,2.2894833897694693,1.8602504981856807,2.074548972618761,3.0392487495870446,2.501016197079295,1.968920262395515,1.6745748992621599
2.253884206719438,2.1911790013083126,2.4189451437341494,3.132744414652666,2.0165157197696053,2.3218178443667044,1.8082371597688585,3.519186339530405,2.6792006419202945,2.2920140864331757,1.8624208554508994,2.0746464032020024,3.0383654857495235,2.5010614605902557,1.9681931741800975,1.6725087541004668
2.2505802016660796,2.1971158428250765,2.435616854703241,3.1514703888405577,2.018388211443593,2.3291422216744837,1.809826257844083,3.5472720884743496,2.700000020552846,2.305613287239554,1.8718738396641426,2.0727786926448086,3.050024818646412,2.5114877498504917,1.9755628373455527,1.6767892911097972
2.252496829246044,2.203729062513135,2.4400600727895703,3.150948760473377,2.02437831043824,2.3316345244068484,1.8169932716666952,3.5549165492077273,2.694324763345731,2.3052877039668385,1.8721409848715298,2.072405157378552,3.039577714571447,2.509092117870087,1.9803059763817368,1.678705642557441
2.2491482317639218,2.203925062331958,2.4406383325897374,3.1631289656546033,2.026830524326128,2.331471734682911,1.8196606465859413,3.554984227935478,2.700618981402608,2.3076739618674913,1.8752408299890695,2.0712449553065286,3.0381728952859284,2.5093883075899694,1.9797356067539889,1.6772740869554281
2.2385975481218803,2.2024432448148974,2.4464176166168095,3.1666327596317068,2.0262857138802426,2.331328578404296,1.8186996544153193,3.5600837023273453,2.7031338372758453,2.308145035686115,1.8731532978872623,2.0709960976509607,3.035564844958777,2.5078408176306586,1.9794226459134805,1.6759921484195033
2.2354416564078647,2.201552030402987,2.443282335682204,3.16359209458825,2.0303034512251394,2.3313319912591406,1.8223416225774092,3.5543025187930484,2.6962600977346898,2.3027492283705757,1.8725395554311788,2.0690390834188572,3.021212678065879,2.5008699402900785,1.979302781104122,1.6759389318079225
2.2332353692244125,2.2017059237952297,2.4439883963907025,3.1693956921469963,2.0336139960402515,2.3320383612918305,1.8243795675426648,3.5521149173891016,2.7000389795641166,2.304177356545744,1.8734289066252938,2.066271314530332,3.0201238477484638,2.501352651521005,1.9782366523175636,1.674608642962306
2.213949359964767,2.1902718404669304,2.4385625707836516,3.1620337394146714,2.0281210047086877,2.3237483667976266,1.816873577266782,3.547847275421669,2.693402369346933,2.2948823843029134,1.862941624386903,2.0640212212616404,3.012052095086325,2.4935624622599457,1.9723492110431502,1.6692330447620194
2.2029629729331313,2.179740345700369,2.4290082955554455,3.1532052175019976,2.0281255852650415,2.3189019547110026,1.8160854814538983,3.534406499125396,2.684941525938593,2.285938345379272,1.861659123946349,2.047886664849486,2.9979256634556566,2.4869205989277625,1.9704624394545769,1.6678268639169385
2.2011828245961422,2.179223797751582,2.428706078447132,3.1551124740608594,2.0304042123325177,2.3194746356344136,1.8170948373647418,3.5353187671062343,2.685809640095772,2.2854902402961836,1.8584792843418445,2.046940874389633,2.997850446999129,2.486347850158543,1.9686167676336688,1.6661758044099633
2.170594174107016,2.1533296255913688,2.407076775217869,3.134162290480727,2.013115899498873,2.2983631394068404,1.798595600764753,3.5254368045157047,2.6700618019745717,2.2661828967705855,1.839739050265383,2.02896694353175,2.98434870200633,2.4737721050127632,1.9562944118627077,1.6556717079700096
2.1524740844864483,2.135884211252874,2.3956491426776974,3.1213964490057085,2.0094081347792865,2.2926338632286543,1.7943907316471595,3.5165974926087036,2.6594694280957043,2.255701155495495,1.834850788781334,1.994961727829028,2.972583015621231,2.468980892316308,1.954373946165363,1.6509216393883732
2.1501830082149396,2.1336795162517403,2.3904800321502946,3.1186511877776204,2.009307295312527,2.287739071425716,1.7960295174781038,3.5123939069058334,2.657396637956666,2.2529038811022657,1.8288062794684972,1.9963709817467377,2.972219132814781,2.4661757321746,1.9516682501661722,1.6511882510575162
2.114366803572428,2.0998130329102023,2.3597500588018834,3.087734407687979,1.9826613801616508,2.258709722724449,1.772469235006436,3.485273057996371,2.636381451972278,2.230850917300975,1.805438268446493,1.959850589212149,2.957847659117468,2.4555068153377024,1.936988695988516,1.6366000960465132
2.097536319230799,2.0856841383134332,2.355297316627975,3.079863820043571,1.9806344651839856,2.2579234544412676,1.769200430800383,3.4834880778256947,2.6313696650089,2.225691201156994,1.801233783292616,1.9265669907568874,2.9541834674107954,2.4550437240581515,1.9378140573842841,1.6345260200277387
2.094894217627627,2.0821368242258744,2.3448723058267493,3.0715534485226277,1.9790825481218564,2.2468500175591557,1.7744679530740894,3.460296576950777,2.6263073748522645,2.221739648498429,1.795163199874291,1.9273186006638905,2.952184423012086,2.452112317481611,1.93480574174437,1.6364290757828182
2.0703767362607226,2.0607162457748593,2.3278255645660955,3.0508563182947204,1.9597691154002472,2.2284513513745416,1.7603576834126553,3.427049731770429,2.6168020629502373,2.2119449363151613,1.7814215678179226,1.8978828365597769,2.948761891976074,2.4534204913252378,1.9273436462440683,1.6274909002087081
2.062159427531393,2.0563719181884026,2.3299961459728,3.0501817097933377,1.962048603050215,2.231119541782855,1.7602224318353943,3.4270242932291892,2.618396244568713,2.2130961603385493,1.781269950667367,1.8835867108981155,2.9505244732943545,2.4548906882392845,1.9284366092767145,1.6301474401398024
2.0611074824104145,2.0548810471614156,2.3228209574541525,3.044295624512147,1.9619960889066776,2.2237054014840134,1.7670541127377306,3.4002737909370913,2.616352784553404,2.2117195199580375,1.779556852234074,1.8854671671820247,2.9506557560435462,2.4568744044312596,1.9278130676130039,1.6313358293861724
2.0553752664406573,2.052608692252983,2.3257316173309035,3.04423328177945,1.9582898924641978,2.22233760612543,1.7656273542947056,3.391476833662389,2.623800229125481,2.21538701002914,1.780785307689826,1.8834685413905214,2.9571746873592333,2.4655470864151057,1.9282331049434362,1.6312204843566556
2.053598082197854,2.052548846390079,2.3248658350632065,3.0439981669358067,1.9598514550988466,2.2229591265275945,1.7650438136039646,3.390134648150293,2.6238832115818322,2.2161015550309977,1.7807134290599238,1.881697487375966,2.956877625675931,2.464531237716542,1.9270840454005156,1.6320697265496524
2.053777474616235,2.0521538099247905,2.3275161684898173,3.0470552815011254,1.9604256167682597,2.2228553124489507,1.7643967848311084,3.3854224461277003,2.631063097816187,2.2188316824842524,1.783941567060333,1.888759167715707,2.9628555583503924,2.471203654676388,1.9294690751251486,1.6308279130041357
2.0534292383207204,2.0479347613962684,2.3285665696862363,3.0500157392006253,1.9595024057447519,2.221242755838403,1.763849918165087,3.3915584513509955,2.6379339824640473,2.2205149284348575,1.7850147338407407,1.892133928486915,2.9654674592932575,2.471804688685905,1.9300288878446186,1.6290200117022728
2.0549342699251336,2.048371121803804,2.3260059441575014,3.0491931410914765,1.959638047740147,2.2206843933802705,1.7628757355897422,3.3899285212404537,2.636805529573426,2.220460160471697,1.7869276790911286,1.8944036459228966,2.965004384556191,2.4705035257902477,1.9321406946917792,1.630018452389018
2.049870561448941,2.0388485036096644,2.330079166481739,3.050654011793049,1.9550457255453908,2.2150524524467317,1.7491889107555678,3.388777127052387,2.6464386337167705,2.2223918397403897,1.7850966934748802,1.8963159085481267,2.972575397083263,2.474244550938971,1.932830651716114,1.622885326510788
2.043751940765907,2.020507587158559,2.3188566211814017,3.0434836824909364,1.9485102528522673,2.2041127582295053,1.7446725104035903,3.3746425403917244,2.6424808268114264,2.216973562157238,1.7799876344166174,1.8807955205527007,2.9681846918348502,2.4651029406724017,1.9325560057492952,1.6166133187539489
2.0497046354116035,2.0246989452788946,2.322324439236078,3.0444603423122354,1.95367168761152,2.2054761955298257,1.749677770866017,3.374599118780028,2.645217894709932,2.2201973650533726,1.7878213463214678,1.8919612086421533,2.9720168830066616,2.466955210823526,1.941212605241975,1.6255082786227433
2.0353401535851776,2.0018732614292616,2.3174219305865034,3.0346482382162545,1.942304323303503,2.1889051874966157,1.7287471957016387,3.3485839573977354,2.646987663256814,2.2176318291747092,1.77415917798709,1.8716088703275875,2.975499266220582,2.4644919268490995,1.9371192323878015,1.6115048350962997
2.0323255111249567,1.9870451773452384,2.309097806210631,3.0273995754667515,1.940065332326416,2.181676789882935,1.7294065868727622,3.3211619517436257,2.642144622363961,2.2148658586214065,1.7766821547714111,1.8540621444799954,2.972827272371323,2.4578020666575853,1.9399891927923476,1.6110423728794596
2.039500084661604,1.9911784868891689,2.3123043351887076,3.026114656131121,1.948440647082224,2.182384105943095,1.739178070944274,3.3233152898105605,2.644273512191488,2.217435235107985,1.7808342702991196,1.866974493648433,2.9769650949580253,2.4599456806588407,1.948217316348353,1.6232992271887416
2.0248112075742117,1.9697469784225181,2.3044158709260767,3.015578023980766,1.937848493882766,2.170188855704841,1.7227592530962081,3.292976868053262,2.6412913612164837,2.214685410851813,1.767813014731577,1.8324247609764703,2.977415067574443,2.4572892120861005,1.9428036001723559,1.6098665254543016
2.0341094092494947,1.9702120988235392,2.3046425919489484,3.0145977816047416,1.9451046751564844,2.172653088831314,1.7320268726118517,3.2807380820281136,2.6409785265043184,2.215740981484628,1.7792571367125527,1.836426375334596,2.978210628625175,2.456994829041494,1.9467599385726466,1.6169294042463558
2.0362736086732,1.9673331689409677,2.301030937949938,3.011736272249804,1.9481311066164135,2.1715194819885433,1.7373349907050832,3.283705092221395,2.6391740383277114,2.214135568748695,1.7728792430947449,1.8345544962032294,2.9789809010586787,2.457185459701875,1.9491098975006236,1.6230608742310437
2.0336747727006825,1.9609591397326673,2.30003727293994,3.0099474052138446,1.946031521582268,2.172160991829371,1.7323895817061206,3.276023447852793,2.6386289502832834,2.2145854628567516,1.7738297111039645,1.8173012180583923,2.9787022283648676,2.4578606485219456,1.946136434800677,1.6173543134328094
2.0477454038560268,1.9633447097964003,2.2984012087083214,3.010535110951966,1.9541066328421455,2.1747509457765464,1.741498626438444,3.2755080953659035,2.6374648836301695,2.2123912098593004,1.7794531171843375,1.8327323607120423,2.978440054056074,2.4584922420609034,1.9476973823927666,1.62312184909567
2.04647779524009,1.9588185131912634,2.297688110942512,3.0134837023103263,1.9533480836476973,2.175098453566619,1.7417163925584003,3.2756938402997506,2.6376271913857665,2.211955654114161,1.7737244161572876,1.8238768558258422,2.9785235673613535,2.4588009262285357,1.9472063508394062,1.6239919723593426
2.0549781206840203,1.960311076141418,2.300577793721744,3.0131438107820383,1.9596753784436087,2.177844453932211,1.746606642280448,3.2750218097984773,2.6377008308537224,2.2126234818565815,1.7826146451031424,1.8350869725430565,2.977236524300134,2.4601059150938855,1.9463347711867316,1.624366366013472
2.064961437483804,1.9575453063140926,2.297409327255483,3.0165574857592232,1.9635909024035607,2.1780314115837127,1.7495859475627136,3.275207585802044,2.6354924607749566,2.2090364122268697,1.7813383646141348,1.8454554879573333,2.976192808228212,2.460425676596851,1.946565559669815,1.6253841502093636
2.064856213262647,1.9572874729746654,2.3040225136168164,3.0218872977373157,1.9656571087972607,2.178058700001513,1.7504836863880413,3.2709589873944727,2.6381930080409903,2.211654991282603,1.7832341206131859,1.8463727804766474,2.97658359790471,2.4603512060507033,1.94643227492971,1.6250846285776686
2.0760951109937156,1.9571945761261176,2.3070112397019744,3.019300820457368,1.9764282442790528,2.1789155720319133,1.7594424175263355,3.2636990409684583,2.6374147932270366,2.212245374356107,1.7910279242014098,1.8677589649315824,2.976717119440413,2.4630947717466047,1.9463305020904274,1.6271723376846676
2.083015527398342,1.9566901720216665,2.3069171748274213,3.0239004550779165,1.9756552031194752,2.1779612701921685,1.7555194188595373,3.268229637575998,2.636977839065523,2.2117229092022055,1.7914606117757845,1.8742485455036704,2.977466910590551,2.464422267153376,1.9463058004256975,1.6244442888267236
2.0835642672973993,1.9562268714273368,2.311735833083532,3.0242455765664853,1.979945409889737,2.1751216749637368,1.756550373043069,3.265263783177009,2.637172988034433,2.213042897471369,1.794010645412596,1.8767840594944039,2.9770075590613247,2.462785917678943,1.946222042248563,1.6226314839003262
2.095754832478319,1.9585542836091867,2.3181285583173166,3.0239283026855386,1.9903279803721359,2.180714253555297,1.7646255449181207,3.261727457728702,2.6399141011447034,2.2171359651983433,1.8026794600529772,1.895113547672343,2.983428784684349,2.4709248341800696,1.9475008075324243,1.6250783653636411
2.1017362576010123,1.9608755608776847,2.3160613607363723,3.021254799057172,1.9820543693836508,2.1726567660585028,1.7528747092750638,3.265212191540898,2.641264036148828,2.2177338742386272,1.8051599492826575,1.89739444754979,2.986801476097944,2.473107031310537,1.9479230253729314,1.6189370176550644
2.1028816914433697,1.95928106596584,2.3177701054671824,3.0213697305021903,1.9867908563962016,2.1733300596139853,1.7523041287355663,3.269821900401798,2.640381069115554,2.2181075713239236,1.8057318512327285,1.8911027528381108,2.98744367045413,2.472927589749556,1.9479214991372584,1.6163128045271156
2.117771406945808,1.9672927754102356,2.327964941838701,3.0238802440329886,1.991537251584844,2.1819008922928136,1.7567505793456617,3.272315107729635,2.6490941778493236,2.2253594537292885,1.8185157602112239,1.906958009843018,3.001227495242275,2.48633513414255,1.9540148448134143,1.6193571895130587
2.122286610029801,1.968347776882557,2.323575300442211,3.0170264818340633,1.980052824132363,2.167933958540012,1.7418078570623046,3.2680992217102345,2.6522939830013423,2.2254588632449916,1.8211442657209789,1.9019422972617093,3.005425558942606,2.489171266737465,1.9554948997273447,1.6130520482220652
2.126351226855837,1.9705630265240741,2.328589102674356,3.024090522266182,1.9859473617100716,2.177660944192143,1.7430122119041214,3.278107453521916,2.6540244567147515,2.2280965226627103,1.8240788912345736,1.8970946428488842,3.009772582169839,2.492922687448358,1.9587139608528144,1.6130887899151847
2.14232540729247,1.979632177594611,2.3405324005013854,3.03137092119802,1.9850741364096205,2.184026955659103,1.7438921596059658,3.286048157365012,2.665727776165833,2.2343430891430263,1.8396013262674067,1.910100229820582,3.024629684068993,2.5069611077528875,1.9706455672045942,1.6165500025859236
2.144355037711015,1.9797742290987825,2.338446468244036,3.0286670599638272,1.9798118074503357,2.174632852072187,1.735097015503372,3.2815752659948876,2.667558177078587,2.234249131083102,1.8413080709551106,1.904395961124792,3.0252710600857475,2.5080941176080302,1.970968395825507,1.6139076550607268
2.15084921647004,1.9856356525827845,2.3491975267807863,3.0448304905086614,1.9848274294295487,2.1904333740298405,1.7395439779408783,3.293481787596313,2.6723546435036916,2.2381982753084397,1.8490998717645521,1.9098912489303874,3.0320655592269827,2.5151594404436612,1.9825309542853977,1.618242801477558
2.1637725055022186,1.9914488033433229,2.3602837518574207,3.0575100388712206,1.9837344724364896,2.195389714864763,1.7389250509873708,3.309943280620147,2.679393823496231,2.2398422067848185,1.861677565885033,1.9179072410358866,3.038808471217709,2.5228864254676266,1.992335237316475,1.6201233201581038
2.1623760829411154,1.9913425983579904,2.360538998311198,3.0586681147365424,1.9839519651009767,2.194362912647688,1.738128549323876,3.3085801512044344,2.6792883563582968,2.2406327824637042,1.8614706012122328,1.917191225143817,3.0367497000537904,2.5230246252221398,1.9936701637041716,1.6216089418865294
2.1675042694475968,1.9964348552085722,2.3754845317984192,3.081995473837439,1.9852849587509722,2.210873219623299,1.7414828057713485,3.3211505094505855,2.6838172411329717,2.2403224267793576,1.871749835125314,1.9273431464948667,3.0383929659897704,2.5290408911913205,2.0099602111100805,1.625970607913665
2.1736492914381955,1.9981021378730974,2.3805367002721005,3.0910295184365735,1.9862466459748722,2.214167891626289,1.7406938959926137,3.3338894316344545,2.6833719138989616,2.2391541182478503,1.8758735102744046,1.9310635824560785,3.0383277218706213,2.5288150088869124,2.011800361456535,1.6257787573885054
2.1698804366451894,1.9975296161194833,2.384556302978218,3.094809547499125,1.9839821318932729,2.218053188047577,1.7410005188700806,3.333667325399205,2.6879598653185397,2.2409850128156026,1.877051612147301,1.9330811767720655,3.0370958329563864,2.53314018929527,2.0186320616545292,1.6284177327108333
2.1672588013257212,1.9969345763386477,2.395592764840222,3.1142516550140114,1.9811241822493817,2.2294237340874767,1.7374352900996712,3.341445675033732,2.685342554814518,2.2308593721896828,1.8808817545083043,1.9417700558477877,3.026619309870533,2.529922101578883,2.024902025716925,1.623701189976708
2.1677308389322554,1.9969058305067326,2.3957250401773185,3.1155724307693586,1.982362780104447,2.2302832538883193,1.7369678958040498,3.342032111933378,2.686536335443011,2.2332744997611695,1.8808055581200496,1.9431264351639368,3.0300099859589693,2.5294770682284766,2.025573600962798,1.625723266263642
2.1609276667690285,1.992651573000205,2.4009090628918193,3.119200446101805,1.974149819386585,2.2333484659963063,1.7307727807177096,3.3445661731255356,2.6927762122140066,2.2296374333154434,1.8812079573089828,1.9453990188969108,3.0248299373420857,2.5336469911599067,2.0293863120061704,1.6208555905218425
2.1476727434647196,1.9859338895513468,2.4020017250490158,3.1258767922033925,1.9682665603084926,2.236657606150241,1.719727956491901,3.3453045958145133,2.685450598314919,2.215227540849312,1.8746307887678433,1.9523718092166802,3.009855111406152,2.520999430271874,2.02183949454947,1.6056691267951397
2.147341082528713,1.9860263927958992,2.402576778589612,3.1251615473038545,1.9686858667617158,2.2364904861877957,1.719762994507966,3.3440092924706315,2.691518782223384,2.220410687465424,1.8768344573098639,1.95271843055516,3.015994679789331,2.5237227145348733,2.025426467389787,1.6111387389972378
2.1349729713613765,1.9765251262278443,2.4024541399150827,3.125309103775841,1.9582955644233375,2.235323091761721,1.7060884001115901,3.345717022575701,2.691711525014504,2.2102715347014446,1.8695441714209882,1.9532199174092957,3.0070311698044927,2.520261765752217,2.0185663729945067,1.5946414573110634
2.1209747584392393,1.9718728093938225,2.4018640955810753,3.1244874200612065,1.9539065255279824,2.235243324963222,1.6966479261978984,3.345313380436533,2.6912045437010907,2.2051576900131122,1.8638419600154736,1.9602837142717475,3.0012588819086967,2.5101818744640374,2.011631922159088,1.5829608140954305
2.1209803491304537,1.9706448076811844,2.4020821401931505,3.126402891377065,1.95335256585573,2.2345496496501616,1.6953573043205203,3.345414628970635,2.693725505608511,2.2066226050912015,1.8649024229631035,1.9589329370815862,3.002869454794739,2.511408932121699,2.0129472267679054,1.5862460130877212
2.1108954591195057,1.9673010215617002,2.404236213982947,3.1294385345236706,1.9502385362477117,2.2360554093614398,1.684296849155541,3.345948111524414,2.6949924276142347,2.203686644270269,1.8578253920603107,1.9574112824515817,3.001949326357742,2.507941919387275,2.008447189022829,1.572550054851689
2.108585651453424,1.9691952534377657,2.4080445824890377,3.127480816612546,1.9517314936042045,2.236610793494714,1.6849880631413532,3.346560365773997,2.7000956974091648,2.2085118956918515,1.8609090716152192,1.9631374122880663,3.0045551986284713,2.5073249866259246,2.0100728615941494,1.5762863229775976
2.1074968488693653,1.9677345992788815,2.4084076968711794,3.136260559905725,1.9487486745198255,2.2370411240427197,1.678592048877202,3.348257545744377,2.6999684450859607,2.207331868969146,1.8580612945669313,1.9592247479886147,3.0046616337406546,2.507294279134614,2.0098566350629063,1.574803191085091
2.112148254883065,1.9785126045920904,2.4197534659642357,3.144822811465599,1.9574676657761776,2.247307904790191,1.6795175722612186,3.3586946762739855,2.7057059263631804,2.2144760463155957,1.8619517564310273,1.958481906756735,3.0097764882787295,2.5106618461657164,2.016695126062093,1.577864543199518
2.118566678382515,1.9793275247123232,2.4210212432606633,3.142415411185166,1.9613922313116503,2.24543020674309,1.6844689682605383,3.359339550765676,2.7068319035157864,2.217374745611326,1.8652900114947173,1.956670421397068,3.012104741958303,2.5132397884575846,2.0196459525541495,1.589468745827923
2.115906622040654,1.976193788324741,2.422212084271787,3.1548199073769854,1.9503279707602144,2.244231527990167,1.6692353315182449,3.369848936884111,2.7076914968064125,2.2137361633737886,1.8607129974529855,1.9502970665753763,3.0100887612988134,2.51054267146116,2.01975869049111,1.5846162321899597
2.130734982387827,1.98854356191544,2.430775550514024,3.1599170362113473,1.9621192746385936,2.2552832847750537,1.6762285375118788,3.390506810584369,2.709239759238396,2.217336846002134,1.8672108445985616,1.9503025565345686,3.009003644226688,2.512940774390111,2.02621915375077,1.5945994708326197
2.134369473573559,1.981147793368242,2.4258184273144145,3.15654231323605,1.9604226177048039,2.2458772549177803,1.674771450063447,3.391540975400453,2.7056400595084837,2.2126010960626297,1.8631121300617608,1.939057042277852,3.007508226126134,2.5093962449545963,2.0242082029673787,1.600211405178202
2.128158688310606,1.9677757381636163,2.420238883940143,3.1588905071771896,1.9355613241699678,2.2331716608862053,1.6508039789443776,3.3997072852979895,2.6997520723241717,2.2007492536283353,1.8547185766277603,1.92733007472078,2.9942709252460427,2.495164263153214,2.0180420740749128,1.5907136220440976
2.1392687104115042,1.9714286312020617,2.4208307499616737,3.1591287537509234,1.941110078984523,2.237608395158105,1.65388136234607,3.4168461466953275,2.7011894188584007,2.2002257465259527,1.8558004864253426,1.9274806391474322,2.992376016344814,2.4942075189386066,2.018449480638284,1.5943244440181241
2.136802540007056,1.9573715811269177,2.4120772572555333,3.1507857523629776,1.9313351270425605,2.2196193171414067,1.6468927379903389,3.4142566928446767,2.692514259771405,2.189455058184778,1.8468306307153906,1.9124708685409026,2.9841052995827293,2.4796655071391234,2.0107988247769817,1.5911374775461937
2.1289752442449315,1.9356929955625561,2.400404804150752,3.140895800450947,1.8986465694504273,2.1979070743002302,1.6222061127489327,3.4025068192362657,2.6798804629953175,2.174867741495471,1.8369209648391163,1.8934401084264465,2.963697256763625,2.456404147907352,1.998463617602204,1.579210955030295
2.132833075483384,1.9353472332646287,2.4013639684687513,3.1411722209413866,1.8992840373412008,2.1985797610903135,1.6209324517476127,3.41047512404881,2.687790042640024,2.1784654214782653,1.8371860223604175,1.8946303174687498,2.969192684089053,2.4580572485998697,1.9986712039369507,1.5788926524057874
2.131429288674408,1.9226568869602363,2.391620070081388,3.1274415599019316,1.8875603305389705,2.18113873930756,1.6168682010857258,3.40579405823619,2.6724521640414225,2.1657206818522483,1.8300751859568443,1.8811373095454185,2.953697494156358,2.4361961513312247,1.9881126110726706,1.5724033581480996
2.1303473429463575,1.9068369793217954,2.385499845705493,3.11406758809305,1.8626312140342,2.1669273743037643,1.6013955635277668,3.3812263158960274,2.6606349725033,2.1588191921687145,1.8270421258129335,1.8598470239562508,2.935455317136923,2.4162367748862428,1.977126885215523,1.5653932348671908
2.130791356300147,1.9062869612146354,2.3867079600970293,3.1140650984668827,1.863011736757935,2.1671944708261304,1.5991782949475648,3.3835702561208674,2.665350529083453,2.1619798619074557,1.8272764480741162,1.8588190266601405,2.9396565652682574,2.4185083544908865,1.9774072025400902,1.5656881588949136
2.1394374706687653,1.9037488292247593,2.381846082718967,3.1011226101226304,1.8578796982719887,2.1639451127429474,1.6018241156496877,3.3868377615037404,2.649581412634498,2.1535469437437387,1.8287214863390595,1.8503904395496775,2.9229018534490376,2.3990026891337597,1.9690074346501003,1.5610477124081115
2.1467336383909976,1.896689432817301,2.3808320740400233,3.084983039958132,1.8479763563115577,2.1610261195151765,1.5965098849992683,3.363288594133437,2.633624182720566,2.149178943526345,1.8289428239993428,1.832711715780764,2.901184250367871,2.382069520085968,1.95834355674738,1.5597669569281167
2.146851294684582,1.8971596719832358,2.380959066073952,3.087309715845476,1.8498355644966415,2.1631204253940624,1.5960023946882997,3.3631939710416563,2.6334445476713726,2.1491693344808867,1.8295038470785887,1.8302791625072572,2.900343728590829,2.382027144354179,1.958566205118157,1.5595608688717735
2.1648396172956756,1.9031505307469418,2.381968736137183,3.0746462143148054,1.853694476663622,2.1726251464885413,1.602276423124536,3.372081469742453,2.6197753878868975,2.145475943616465,1.8374449129718127,1.8281155265228421,2.8837928382198785,2.367435181577793,1.9521445693059645,1.5579004847492892
2.1723379775622296,1.8985414400531968,2.380095420482775,3.0602976177273766,1.8528316457807197,2.172278726133342,1.6017402767693945,3.356054756016304,2.599483156021956,2.1373468149531387,1.8336705894185388,1.8196306346439353,2.8554185866894826,2.3484721662666317,1.9400810474722272,1.5576336888171807
2.1729936056651806,1.9023091666733052,2.383425515137049,3.066495394824735,1.8566962424778877,2.178104592730278,1.6050849892990342,3.3565216089040746,2.604942427142054,2.141253184776434,1.8402525477004317,1.8229916606984402,2.8585649168079246,2.3503341735341476,1.9434536613925744,1.5575979215505982
2.189775082329655,1.906910840991806,2.3841279094283516,3.054297432928727,1.8641438874246534,2.1865310909241398,1.6096463431853563,3.360478244135644,2.5899371405769718,2.1359828123367928,1.8439435110263895,1.8229385159200033,2.8378728629308925,2.3354888909768605,1.9349279448293257,1.5567943270020945
2.191189661931728,1.905105895415403,2.3841574931930745,3.0527407682396186,1.8641595413377643,2.1864990032644935,1.6091640840585195,3.3588529020438846,2.5806980428167825,2.130855400052427,1.842481588099,1.8296376355644954,2.8161627027170315,2.3214139204228954,1.927631636223833,1.557096306947894
2.190175726233576,1.90801603588328,2.3870137298000778,3.0560726826412083,1.8685251168665769,2.1920556312247017,1.6135069103608242,3.3607467363179295,2.58837813241839,2.1365252482105976,1.849802462940663,1.8335777592069782,2.8229070261879254,2.324312830090892,1.9305241709845449,1.557142503461219
2.197565809124887,1.9084796670147957,2.387281252460415,3.053980140534841,1.871121299277292,2.1929219431135643,1.611650291497283,3.357136876145254,2.5789634420090675,2.1309320523700976,1.848500346833783,1.83466063397417,2.803757695783466,2.311591974609571,1.9231143051429382,1.5565810724264246
2.190416958245031,1.9089432796124448,2.3867044857287354,3.0583055685059053,1.8676204040948816,2.1921027434123896,1.6065898184410776,3.3610145912266285,2.5824720142084785,2.1316694223243977,1.8520405462264729,1.8484918666021801,2.7979968808425784,2.3085707752742373,1.922149945366878,1.5573611204972757
2.188066652538372,1.9083016732646334,2.3867636704133206,3.058430743232752,1.8691918921888468,2.1931627519572756,1.607629237588455,3.361769155991121,2.584884474398011,2.132989480636523,1.8522679137356468,1.8453683226688806,2.8005917999931067,2.3081419914033616,1.92122833018305,1.5559918439478344
2.1823573714271247,1.9050191232202238,2.383366645422569,3.0570519832407106,1.8580937468838234,2.184423062245392,1.5941574314430653,3.3438562364074573,2.585342197777997,2.132662818998353,1.8539965240406326,1.8490745345466175,2.795412625646577,2.3059126339704354,1.9203013260571908,1.5574772120609668
2.1656110559894035,1.9030752471452632,2.376534685356024,3.0548374850843363,1.850996543060386,2.1792747133405874,1.582809430769349,3.334911333895622,2.5870711985721533,2.132077469844592,1.8523243897492632,1.8527490009013656,2.7963496940310004,2.3066619797597343,1.9195505629326621,1.5548028265542355
2.1671453849894413,1.9031788198740893,2.3753555610856263,3.0492141768088046,1.8462425120492494,2.175625730025385,1.5813236514720979,3.3317504067465435,2.586654509471935,2.132100772570714,1.854135564295298,1.854416236816314,2.7965941139050416,2.306500257430624,1.9193762391307694,1.556734953056012
2.1413018314475325,1.8844770308525367,2.3478480716004126,3.0158915806050746,1.8145132889854314,2.149448436176151,1.5510355553867483,3.2898986621189827,2.575469393250402,2.124298692915938,1.8509570178721224,1.8503944443950229,2.793852026111759,2.305253913371699,1.9149521065266386,1.5567359781932384
2.118479010723869,1.8800299526465036,2.3398928955534117,3.0124654878812254,1.8070270905125991,2.1435768140988047,1.538587387282912,3.2748977367568046,2.5689761678933283,2.1169759643836277,1.8404842992184185,1.8416896731085652,2.783519337221966,2.2968640041401094,1.9078621033743284,1.5488289097732058
2.1227974610196916,1.8758146473824664,2.322154295568592,2.9776149843686204,1.7929749830679196,2.1297171654217317,1.5364270860235996,3.259872814001597,2.559993750112991,2.1128316568220677,1.8485463201112626,1.8574458754041312,2.7832737404307024,2.2981716513854407,1.908022468649821,1.5594348313402813
2.072879712881709,1.828881184530024,2.25687826362796,2.901205317551541,1.7440362977166097,2.0835474955095323,1.4942090329124762,3.2007836427685827,2.5085192950060384,2.0711145826602824,1.8211964493028847,1.8332779369612586,2.7414535164888614,2.266109143027377,1.877193235767548,1.5481996525423158
2.0496115318078845,1.8232499061532965,2.2520868783687322,2.901697769352254,1.7382600120737646,2.082161669632239,1.4865877049496397,3.1961877694784895,2.495568881928067,2.056516188139512,1.8071825707282327,1.8196403194533588,2.710797929923621,2.242016608806975,1.8599219562559095,1.5366621412554047
2.049011406326895,1.8048944622411038,2.205315772822274,2.8274853678603558,1.720149403938384,2.0538113262473976,1.4873666090840554,3.1619814410895746,2.468327428085636,2.038196423756047,1.8090550323635544,1.8375820632167554,2.7010355318617614,2.2349922706736702,1.8525287735641554,1.5530754610446111
1.9882788820792168,1.739044797054309,2.119986658883306,2.734220979108595,1.6706759905489525,2.000875588027223,1.45144308389105,3.1018973996696637,2.3750209416192907,1.9574543311471653,1.7571594360487375,1.7991222352463823,2.594341350192652,2.152054974728407,1.786321074709944,1.5264239704984328
1.9666919008117265,1.7315197423256656,2.1169061372578235,2.7344035393843935,1.665220876647155,2.0021362460636514,1.4485237991847855,3.104349254554732,2.360118098187068,1.9396226916670976,1.741759054462228,1.780505200071765,2.553388652729207,2.119334018330878,1.7625262776161505,1.5122443230745384
1.9623397685835713,1.708667112003174,2.065310475822035,2.657801899681415,1.657474611947692,1.9745188835895644,1.458924960092234,3.0713010893397863,2.3232700891153875,1.9120157469300965,1.7336984230936776,1.7895715398586762,2.527504166974212,2.097652890442304,1.7466535440901827,1.5283682081373957
1.9135631775925122,1.6505174265530183,1.9932077233976886,2.5804937513475554,1.6210780025079181,1.931065578768788,1.439540187057894,3.022887585722394,2.2204062524288526,1.8224284890169342,1.6791537851568121,1.7536421138311675,2.3870702496301255,1.9868076682990192,1.6671268328770614,1.4928493242384844
1.892928148670946,1.6403887377446371,1.9924121466734475,2.579716468094866,1.6118561942630418,1.931212998382568,1.4373784919436872,3.022829098265104,2.207802040557169,1.8059230852743733,1.6633073220606156,1.7305432604127682,2.3530397273371837,1.9596971790314721,1.6452348959326,1.4774406454584186
1.891912458117921,1.6313041354405777,1.9670338327768053,2.5427549450941287,1.6168401669890835,1.9234061599042476,1.4510252610568801,3.0246719923888086,2.1801217759346434,1.7862915489288897,1.6565910405111368,1.7326161058412621,2.321105871494439,1.932538770262568,1.6304509000734164,1.4888377079871193
1.8643257977469736,1.5945389863876955,1.923577428108915,2.4930489067020303,1.5912947668310122,1.8915929181671018,1.4408595153788095,2.992958377800896,2.105894600809152,1.7223307486287698,1.618325353993538,1.7089773521323093,2.211066645301177,1.8433190898270517,1.5700803938290404,1.4557175140499334
1.8417535234918323,1.5768600416898655,1.916446136827519,2.482577769044694,1.5724767945393248,1.883314469303088,1.4335159462074967,2.9710076565217887,2.0909264021885607,1.7050004374925796,1.6025741228949681,1.689550092370616,2.1900437173099676,1.8273644884517641,1.554293470518472,1.4447404106584893
1.8413974218475508,1.5785399317009574,1.9128626175067722,2.4808334349892482,1.5755247195407152,1.8880975222053562,1.435687329510163,2.9943384669994626,2.082315441604365,1.699757132055727,1.6015964072281805,1.6895369704953616,2.172804343814346,1.8112906880860118,1.5483783968531981,1.4490243589310394
1.8273232728795423,1.5551147629709137,1.8872529615277855,2.447159403345127,1.556266442565853,1.860504244040955,1.4296604377549997,2.9670090284470403,2.0450504801434364,1.6672682075257583,1.5798667054348916,1.6780173352292793,2.122736328822011,1.7683283863938863,1.517941423132809,1.430763184325858
1.8003037896799061,1.5270110447687353,1.865175345619317,2.4129130087425805,1.5265436584097947,1.8319941075654622,1.412180221262494,2.8927436444246637,2.0342179865858876,1.6545038691436675,1.565047209821504,1.6694086863905153,2.1217219448170366,1.7669998125299293,1.5136705388560139,1.4316693100066324
1.7959994133000892,1.5260655376458738,1.8659942819418014,2.4179741359791422,1.5238374167373974,1.8315533199491056,1.409355272755745,2.887678920646871,2.0421791868522106,1.6563063049507494,1.565489742509761,1.67050108127842,2.127547041158164,1.7663615127972248,1.5136839456004463,1.4312065397554796
1.7874651053294028,1.511134018718894,1.8484671655835725,2.3898850668390983,1.5127847937855081,1.8082281582946964,1.4052162815564817,2.859262167657595,2.0314995048313245,1.6487955308073383,1.5547568234913005,1.6678189006857234,2.119492045871028,1.7598948924925675,1.5084217615399107,1.435589193691773
1.7619385302466546,1.4830843590832348,1.8288858950958689,2.3456760238611976,1.4824311967252928,1.7607385097978063,1.3852543270426778,2.7477066619826376,2.051810314316441,1.6559512381614627,1.5483860138391083,1.6678038167538092,2.1514230006748853,1.781602667971299,1.519716736937665,1.445409920023112
1.759620406143422,1.4799799279095276,1.8279352045806405,2.341642740859332,1.486439255122117,1.7579562781680589,1.3934304232581356,2.705736163840885,2.061088083988983,1.6565705188112572,1.548386209526708,1.6708070634289376,2.1651487522781854,1.7847027838493517,1.5195369088216226,1.4450038301969603
1.7560599442113132,1.4784744221648607,1.8275732909737055,2.3313259465128855,1.481454351772225,1.7464904443867617,1.3824196758205736,2.7059449444982455,2.076288352141473,1.6715788146259083,1.5503396619688126,1.672120908083354,2.176371392331171,1.8017703595334944,1.5326067784599884,1.4623913864386489
1.7431293087575275,1.4614579574033386,1.825455957470205,2.302501337361796,1.4659302752036678,1.7015177391997465,1.3792994634240856,2.6245450142692617,2.1218916305460396,1.6896895201560829,1.5535369803543848,1.6708192243230149,2.223398951756256,1.8325345382906542,1.5456312210107752,1.4669818710646843
1.7504963214678946,1.4643756092048499,1.8243781651433075,2.293019435038494,1.47972351721013,1.7106773747793491,1.3905009498005283,2.5901172631070764,2.120576054501986,1.6890202839704278,1.554778014874773,1.6748256884915278,2.228567323947635,1.8325674006843422,1.545993827001593,1.4678425163486621
1.7520626762021934,1.4714706150044994,1.8435777320455227,2.3075197496961213,1.4759544637499282,1.7096861236556842,1.3771281478925113,2.627769410461548,2.150548267091529,1.7089341445198325,1.5657861066745313,1.6729069635970413,2.2390218977902023,1.8541975677002234,1.5603737817422911,1.478674102239365
1.7545142247570882,1.4655701862395547,1.8457792499712393,2.294868928389012,1.4816648393529337,1.689487836973841,1.3978981756679656,2.604972583054847,2.1810102175937502,1.715354995189684,1.565844390192207,1.6679322235108935,2.262223824446527,1.8654435354878751,1.5602219861761564,1.4726742657788991
1.7709651421944095,1.4737338895974248,1.8494581099641654,2.289724924936432,1.4947121672286352,1.7056118276959027,1.3991071584703423,2.597663321332476,2.174450155626222,1.7169769987968169,1.5710553001886411,1.6712356744089016,2.259798582388464,1.8669922032453123,1.5637572446094024,1.473444866571903
1.7720669571940522,1.4770171965821821,1.8663216766501576,2.3022518288217375,1.494874930329111,1.7061170431654276,1.4023143648576966,2.6229644577284312,2.1891227129017485,1.7167787977986817,1.5747175356729362,1.6650552857639076,2.2472694065618306,1.8669946361745096,1.5635632586036963,1.4716346951885664
1.7837298661278047,1.4795367809873425,1.865561921050029,2.298761417015868,1.513261558597985,1.710975510457857,1.4310158846194565,2.6231881673932973,2.1945717855018954,1.7156459572592544,1.5671818526546206,1.663065587606607,2.240730086954669,1.8570870862715498,1.5563448304469742,1.4633946083777032
1.8009797477661738,1.482898132161956,1.868455296314167,2.291523659077729,1.5186176193487106,1.7143859772667853,1.4290123345790726,2.62087594232686,2.1866354744878276,1.712587480013963,1.573202259827132,1.6632439750392685,2.235565265756234,1.8592302651451211,1.5597654879496987,1.463580205566626
1.7946693429954368,1.4786520973076847,1.8672118003586584,2.2802250613190727,1.5223392816771881,1.7136732128400143,1.4449736375274163,2.615267611321435,2.174968975042982,1.6911569429676134,1.5592481684340198,1.6586832599050374,2.196630747876766,1.8323322875752672,1.5468201530930132,1.4557900135136899
1.8072590984530421,1.4830615464636292,1.867989503624217,2.2830990501256085,1.536468011332538,1.7225426518043392,1.4622427155226865,2.613932800358242,2.1747262973734243,1.6946377085046722,1.5514699422371894,1.658925813712159,2.184408628222435,1.8190352603438091,1.5431154674419467,1.4516388556520194
1.8147857411176984,1.4754268987560215,1.8580539189656178,2.2629026734615296,1.534614047892898,1.7085774057849934,1.4622478837739958,2.611155788088169,2.161147642950246,1.6770881746974444,1.5492243110570523,1.6567728203897474,2.1739806804720896,1.8148427813200394,1.5407606435838352,1.4498690527312719
1.802742824638776,1.4646882384271191,1.844790748145547,2.238146968073062,1.5322183448549893,1.7036530113766728,1.4688397469543235,2.603718969895197,2.1391457906544313,1.6509371141044469,1.524510731895679,1.6543001251680782,2.128386377113016,1.778536750784831,1.523084488041491,1.4395177118765257
1.8088606173391084,1.464908130673,1.844733940129417,2.2393890908672174,1.534704024073165,1.7027517305637172,1.4718357042417596,2.6025432390164323,2.139049088727015,1.6529507300548099,1.5209627903794127,1.6550563104067717,2.12118113630866,1.7693817335473037,1.5223672726058373,1.4408861038214549
1.8049951330428653,1.4522309411323915,1.8281615452897184,2.2171687925921924,1.53016548127455,1.6841064726989228,1.4691087671515035,2.6044555250883996,2.1249787145764367,1.6298173655611607,1.5088927764501803,1.6533193046454475,2.107876367616313,1.7604100712824262,1.5121102585283366,1.4332972541777458
1.7997608631745101,1.442142320761399,1.816774554931193,2.1984205385234796,1.5240652080995836,1.6771302277987492,1.4677731245390697,2.60145670977496,2.1074228924218437,1.6115592780439778,1.4906625455742633,1.6539300488957265,2.075168294746259,1.7327813764014766,1.4964821023941786,1.4259383626973399
1.7982923201551446,1.4470072189255498,1.82270949776551,2.1999082701662607,1.5247647035552803,1.6794946393173664,1.4676987270373394,2.603744550915246,2.108100572739251,1.6125049037912906,1.4963986207872546,1.6624498535144971,2.071583834538497,1.7315256030446846,1.4965313558923128,1.4345021524160713
1.7944668416748737,1.4400011210188968,1.8158694643952698,2.1921778735994315,1.5238630316501927,1.669173675875957,1.4654909777600358,2.6025965518649796,2.1030359886799888,1.6015241185635878,1.4844476986539703,1.6612846834876926,2.065186234461855,1.7252323963572451,1.4829005866438825,1.4212957120020009
1.8060848178120725,1.450063509424944,1.823047611532606,2.1974777265490224,1.533941638426183,1.6854238568907818,1.4780086535705617,2.6080306143961653,2.1012154722265537,1.6025356565756017,1.4912567262411982,1.6721672693528578,2.0554874404501957,1.7210902182132624,1.4810018045293905,1.4290888297970654
1.8031048553875006,1.4665296101881962,1.8462282341781788,2.207590578845393,1.5399859239911065,1.70244225532722,1.4826977936273753,2.6153483538552775,2.1102899769987076,1.6138640883872635,1.509730927734085,1.6859671369838949,2.0607709439374164,1.7306131426563645,1.4794534716467662,1.439498404693274
1.807991752988018,1.4675612108014957,1.8463624797102458,2.209919825659186,1.5439051345972323,1.706808022727112,1.4882997708174674,2.6216475445534138,2.1102609986612633,1.613761691743936,1.506504083964556,1.6857941399637248,2.060919997071344,1.7299920261341957,1.4738916022430935,1.429352760003672
1.8276391585198903,1.5004826363511596,1.8748791959977067,2.2462340622521393,1.5736956628980099,1.7597360398273936,1.515735494697214,2.666967743548382,2.128999304563955,1.6330089455721422,1.5370365495232523,1.7006633104728852,2.0699895889612283,1.7466040876329654,1.484007070116553,1.449616409530473
1.8272868652706955,1.5139373151103341,1.900008773076824,2.2519320342213813,1.5765335766172177,1.774322621624647,1.520839548747879,2.6744389059512357,2.1394575008618193,1.6472785504047032,1.55656247009182,1.7068991852245852,2.0797789259050123,1.7552047806109552,1.4759648567316574,1.4510693377789559
1.833341511976031,1.5150090296409215,1.8900301016519074,2.2481642839198517,1.5791168869480925,1.7872069557883983,1.5298629370326535,2.70302728627425,2.131974229578086,1.6398231181615697,1.5586795426992084,1.7081641887879226,2.073097661724552,1.7552397841626328,1.483075758091005,1.4506511666086537
1.8418569374455684,1.5411401438553365,1.9126291663444484,2.2900858472442853,1.6046058506094234,1.8436855494461633,1.5500078224172633,2.7770690532668807,2.147761638205582,1.6502404493469978,1.5838389846003944,1.7113889808135854,2.0717802332458817,1.7581665412080836,1.4791310907622264,1.4617776722227822
1.8427823973498878,1.5421243330101442,1.920367236474039,2.275117255343677,1.6004291635089016,1.8405270186715703,1.551039657715515,2.771540087611553,2.148054329293421,1.6540093409801158,1.592022255853031,1.710180872492935,2.0743352961001107,1.758248830661752,1.4689630319278826,1.4537764135712201
