9795.920228,14303.775347,7001.281619,-4282.817755,10912.926306,13610.558344,9537.511711,-23445.035332,14731.163052,16196.454012,7445.544892,783.898030,39487.284659,6480.217752,21515.141012,8126.490787,-205.936005,-860.343994,-459.208008,-1400.000000,1680.000000,1400.000000
9796.523726,14295.684015,6998.800576,-4291.110252,10903.918553,13609.127833,9527.118150,-23454.266602,14729.978410,16194.643521,7443.130904,781.282876,39486.837624,6481.961189,21505.686224,8121.059313,-205.936005,-858.880005,-458.720001,-1540.000000,1540.000000,700.000000
10920.011809,16751.358420,7730.551986,-3608.890308,10996.767699,15482.360480,10094.785404,-17512.345912,15650.937337,17745.206385,7983.596085,1083.009074,39941.583865,6815.851547,21462.882634,8408.145119,-145.423996,-888.160034,-443.592010,-2520.000000,-280.000000,2940.000000
10916.323771,16748.363286,7732.541291,-3607.593907,10998.354673,15481.555817,10097.266447,-17503.718138,15646.198767,17742.345362,7980.265675,1080.349217,39938.164048,6813.102283,21460.267479,8406.804014,-149.815994,-884.255981,-441.640015,-2660.000000,-560.000000,3080.000000
10905.997265,16722.099986,7716.515090,-3624.380067,10975.399432,15476.973710,10086.470555,-17507.406176,15631.424264,17724.329856,7975.057718,1062.758394,39930.743269,6809.414245,21448.868090,8391.940104,-151.768005,-886.208008,-440.175995,-2520.000000,-280.000000,2940.000000
10903.203297,16697.334253,7711.105968,-3639.981585,10958.814437,15474.582073,10074.110040,-17508.680225,15623.355284,17719.770100,7969.425079,1048.274463,39926.876417,6809.235431,21438.183956,8385.480450,-152.744003,-883.280029,-446.520020,-2660.000000,-140.000000,2940.000000
10927.611402,16745.323449,7745.460599,-3607.057465,11008.077682,15481.444059,10100.328636,-17468.312975,15651.652593,17752.113074,7971.727308,1078.605780,39939.102821,6814.778663,21461.943860,8427.568785,-152.255997,-885.231995,-442.615997,-2380.000000,560.000000,2800.000000
10949.493760,16813.272752,7778.340015,-3557.034261,11073.367128,15491.725861,10146.328526,-17420.636704,15680.620453,17780.611548,7980.198619,1119.911804,39955.956037,6819.427826,21505.574465,8478.419003,-155.184006,-885.231995,-445.056000,-2660.000000,700.000000,2520.000000
10941.514187,16818.212487,7771.902713,-3553.837961,11072.182485,15493.178724,10155.760962,-17412.768890,15678.809962,17772.631976,7985.719500,1122.571662,39958.124156,6814.488091,21509.061338,8479.447184,-156.647995,-888.648010,-439.200012,-2240.000000,700.000000,2520.000000
10912.747492,16750.978440,7732.429532,-3603.682352,11005.797804,15481.667576,10118.321790,-17449.269289,15645.774084,17736.176281,7982.322035,1083.478461,39944.601350,6804.921544,21468.939956,8428.999296,-157.624008,-887.184021,-438.712006,-2240.000000,1260.000000,2380.000000
10918.067207,16740.160196,7733.636526,-3612.399532,10996.007740,15481.309948,10110.766901,-17453.672582,15644.678848,17738.232641,7980.109212,1078.337560,39942.746156,6808.877803,21459.284003,8415.901174,-158.600006,-887.184021,-439.200012,-2100.000000,1400.000000,2240.000000
10927.499643,16750.531405,7741.549044,-3603.570593,11007.518888,15484.975634,10119.931116,-17442.295544,15651.898462,17744.446426,7981.316207,1084.394882,39944.221371,6810.911812,21467.084762,8419.142177,-161.040009,-886.695984,-437.735992,-2100.000000,1540.000000,2240.000000
10917.351951,16730.683056,7729.993192,-3620.244994,10988.408147,15482.159314,10107.011808,-17445.134216,15637.995677,17730.387179,7976.354119,1067.765184,39937.381737,6805.949724,21451.393837,8400.992561,-161.528000,-883.280029,-435.783997,-2100.000000,1120.000000,2100.000000
10912.993361,16712.131108,7721.924212,-3635.600643,10971.264359,15480.214713,10096.394729,-17448.285812,15626.037493,17722.876993,7973.157820,1054.689414,39932.620815,6806.329704,21438.809805,8390.107261,-159.087997,-884.255981,-432.856018,-2100.000000,1400.000000,1960.000000
10921.419969,16729.699579,7734.485893,-3621.675506,10993.102013,15483.388660,10109.470500,-17428.459815,15630.351380,17735.751597,7971.861419,1067.005225,39935.995929,6813.012876,21452.399665,8412.704875,-159.576004,-886.208008,-433.343994,-2520.000000,1400.000000,1820.000000
10940.888338,16796.017205,7770.718070,-3571.652302,11061.699517,15494.944512,10153.816361,-17378.861294,15656.525273,17767.446371,7975.258884,1108.333601,39949.183458,6823.652306,21498.198390,8469.478306,-158.600006,-884.255981,-436.272003,-2380.000000,1260.000000,1680.000000
10945.112818,16828.941325,7780.061100,-3546.394831,11088.946293,15500.599504,10181.532524,-17352.642697,15668.595215,17773.749563,7979.975102,1128.517226,39954.279656,6823.473492,21525.065187,8498.066187,-154.208008,-884.744019,-433.832001,-2380.000000,1260.000000,1680.000000
10926.739684,16778.314624,7744.790047,-3583.834002,11028.909508,15491.703509,10153.794009,-17383.532808,15652.434904,17744.021743,7980.019805,1097.895336,39942.522638,6811.939992,21497.371375,8460.515256,-155.671997,-884.744019,-438.223999,-2240.000000,1260.000000,1540.000000
10922.559908,16738.059132,7729.479102,-3616.758122,10986.888228,15483.232198,10125.764921,-17408.410300,15642.220156,17735.148100,7978.030500,1075.565943,39935.548894,6806.866146,21469.141122,8426.875881,-155.671997,-884.255981,-438.223999,-1960.000000,1260.000000,1820.000000
10926.382056,16732.717065,7733.435361,-3622.614279,10987.938760,15482.405184,10124.334410,-17403.537620,15642.689543,17736.913888,7975.817677,1071.944961,39934.006624,6805.457986,21460.602756,8421.489110,-155.184006,-879.864014,-442.127991,-1680.000000,1540.000000,1680.000000
10925.800911,16720.580068,7728.406218,-3631.420866,10978.126344,15479.141829,10117.919459,-17405.057538,15642.577784,17730.901269,7974.364814,1064.077147,39931.100897,6802.060521,21450.253898,8409.150947,-149.328003,-881.816040,-441.640015,-1400.000000,1820.000000,1680.000000
10918.313076,16700.418794,7722.013619,-3644.943672,10962.614234,15473.911521,10106.385959,-17411.427785,15633.994714,17722.005275,7969.648596,1051.001376,39926.630548,6800.987637,21436.440520,8395.605790,-151.279999,-880.840027,-438.712006,-980.000000,2240.000000,1820.000000
10915.049722,16691.701614,7722.505358,-3649.302262,10962.368365,15472.905692,10104.888392,-17408.343245,15628.227964,17722.206440,7966.653462,1047.983891,39923.948339,6800.808823,21433.512441,8402.087796,-150.304001,-879.376038,-440.175995,-840.000000,2380.000000,1540.000000
10935.233347,16738.170891,7754.691870,-3614.277078,11015.006723,15478.895960,10133.945660,-17372.423991,15652.390200,17751.733095,7970.587369,1080.282161,39935.593597,6808.967210,21460.379238,8446.344250,-149.815994,-881.816040,-439.200012,-1120.000000,2380.000000,1260.000000
10952.198321,16793.334996,7779.949341,-3569.059499,11065.745183,15488.216637,10173.307082,-17337.264697,15678.877017,17773.436639,7978.298721,1116.357877,39947.685891,6816.656210,21500.344157,8486.935018,-151.279999,-881.328003,-439.200012,-1120.000000,2240.000000,980.000000
10941.469484,16779.074583,7761.084468,-3574.200401,11045.315688,15487.479030,10172.480067,-17350.988668,15674.831352,17757.253976,7981.517372,1110.904051,39945.160144,6811.984695,21499.740660,8471.579369,-148.352005,-880.840027,-438.712006,-1540.000000,2100.000000,280.000000
10915.697922,16713.807489,7728.763846,-3617.316916,10987.424670,15475.185570,10136.359648,-17389.388965,15642.555433,17727.794376,7973.694262,1073.688397,39932.240836,6803.289867,21464.067276,8426.406494,-147.376007,-882.304016,-441.640015,-1680.000000,1680.000000,-140.000000
10918.849518,16706.654931,7731.826035,-3624.178901,10984.876571,15473.576245,10132.135169,-17388.964282,15640.946107,17727.570859,7970.453259,1069.463917,39931.927911,6803.513384,21458.456988,8420.662096,-145.912003,-887.184021,-438.712006,-1680.000000,1260.000000,-420.000000
10919.967105,16704.196239,7732.027201,-3629.655079,10981.613217,15472.548064,10129.698828,-17389.456021,15639.336781,17724.531022,7967.368718,1064.479478,39930.765621,6802.932239,21452.042037,8415.185918,-146.400009,-887.184021,-439.688019,-1540.000000,840.000000,-420.000000
10912.009884,16684.593759,7720.091369,-3649.682242,10958.233292,15467.965957,10114.790215,-17405.102242,15628.339723,17713.399853,7963.881846,1049.168533,39925.580016,6801.121748,21433.780662,8399.427938,-146.888000,-885.231995,-440.175995,-1400.000000,280.000000,-420.000000
10910.400559,16675.653061,7718.124416,-3658.466477,10951.237196,15464.881416,10109.559907,-17412.098338,15623.824671,17711.522306,7961.669023,1044.340556,39924.261263,6800.339437,21424.214116,8399.919677,-147.863998,-883.768005,-437.248016,-1120.000000,-420.000000,-280.000000
10927.030257,16709.739472,7741.861968,-3636.539416,10987.357615,15468.927082,10127.240137,-17392.540561,15640.677886,17734.812824,7965.222951,1067.295798,39933.827810,6805.927373,21441.044979,8431.949727,-146.400009,-884.744019,-441.152008,-980.000000,-420.000000,0.000000
10948.130303,16775.721821,7774.204942,-3588.326703,11051.775342,15478.091297,10169.820210,-17353.693229,15669.824561,17763.937147,7971.503791,1108.400656,39947.440022,6813.459911,21484.496770,8482.241152,-146.400009,-883.768005,-437.248016,-560.000000,-700.000000,560.000000
10941.760056,16784.081374,7766.694756,-3576.212058,11058.257348,15477.934835,10182.381890,-17350.943965,15667.902311,17756.024630,7973.291930,1113.318040,39946.680063,6809.302486,21498.332500,8487.762032,-147.376007,-880.840027,-435.295990,-140.000000,-700.000000,980.000000
10917.687227,16719.216611,7722.147730,-3615.729942,10995.068967,15465.239044,10150.910634,-17396.005082,15636.855738,17716.998484,7968.933340,1074.738929,39930.273882,6798.707759,21468.492921,8439.951651,-146.400009,-880.840027,-437.735992,280.000000,0.000000,1400.000000
10918.402483,16697.736585,7719.644334,-3629.453913,10982.775507,15461.796875,10140.472369,-17407.627989,15626.417473,17714.115109,7965.066488,1064.747699,39924.060097,6801.188803,21457.607622,8424.864224,-148.352005,-879.864014,-433.343994,420.000000,700.000000,1820.000000
10916.748454,16688.974701,7723.488834,-3634.527759,10983.624874,15461.595710,10136.873738,-17410.265495,15618.951990,17713.578667,7961.534913,1062.132545,39922.473123,6799.981809,21449.762160,8419.008067,-146.400009,-885.231995,-432.368011,420.000000,1260.000000,2100.000000
10907.003094,16657.414038,7711.530651,-3658.019442,10959.507341,15456.566567,10120.601668,-17425.241163,15606.926752,17700.525248,7957.824523,1045.212274,39917.131056,6793.276285,21429.198555,8401.640761,-144.447998,-883.768005,-431.880005,140.000000,2380.000000,2660.000000
10909.148861,16644.494730,7711.038913,-3667.675396,10947.817379,15454.420800,10114.924325,-17433.935992,15608.066691,17699.318254,7957.869227,1040.652518,39915.566434,6792.829250,21421.889534,8397.081005,-145.912003,-886.695984,-429.440002,-280.000000,2940.000000,3080.000000
10920.324733,16661.280890,7726.506320,-3659.315844,10963.955338,15454.823131,10121.696904,-17426.358751,15617.789700,17713.422205,7960.439677,1052.253074,39918.203940,6795.287942,21428.349188,8416.191747,-146.400009,-888.160034,-428.951996,-840.000000,3920.000000,3640.000000
10946.543330,16730.370132,7762.827905,-3612.757160,11026.651982,15463.830884,10161.103029,-17384.560988,15648.053962,17746.748656,7966.541704,1094.095539,39930.586807,6801.211155,21464.782532,8469.835933,-149.815994,-891.575989,-428.951996,-1120.000000,4480.000000,4200.000000
10951.728934,16771.497342,7774.495515,-3580.280075,11056.268043,15469.441172,10191.568457,-17364.712639,15662.649651,17753.901214,7971.213218,1118.056609,39935.928874,6801.859355,21493.839800,8498.446166,-148.839996,-892.064026,-426.024017,-1540.000000,5040.000000,4620.000000
10923.029294,16717.786100,7739.693849,-3613.539471,10999.561667,15459.360535,10165.528675,-17403.984654,15634.218232,17715.679731,7966.742869,1086.473594,39924.954167,6790.437614,21468.716439,8461.498733,-152.255997,-895.479980,-424.071991,-2100.000000,5180.000000,5180.000000
10907.852460,16669.685146,7721.454826,-3646.061259,10958.345051,15450.039858,10134.012715,-17434.718303,15610.905362,17697.038376,7960.327919,1059.763260,39917.511036,6785.095547,21439.078026,8429.379276,-151.768005,-896.944031,-423.096008,-2240.000000,5600.000000,5460.000000
10914.312114,16671.160361,7725.388733,-3645.725983,10963.195379,15450.084561,10131.442264,-17435.277097,15616.180374,17701.240504,7959.322090,1061.618455,39917.175760,6786.950742,21436.887555,8428.239337,-153.720001,-899.384033,-422.608002,-2380.000000,5600.000000,5740.000000
10917.128434,16663.538416,7723.578241,-3648.408192,10962.368365,15449.615174,10129.765884,-17440.283887,15619.309618,17697.574818,7959.679718,1060.053833,39915.052344,6787.755404,21434.406511,8421.511462,-151.768005,-898.895996,-422.119995,-2940.000000,5460.000000,5600.000000
10916.971972,16645.142930,7717.498567,-3659.651120,10947.750324,15445.569509,10119.864061,-17455.684239,15615.778043,17691.986882,7958.629186,1050.710803,39911.967803,6787.017797,21426.002255,8408.905078,-150.304001,-896.455994,-422.608002,-3920.000000,5740.000000,5180.000000
10922.828129,16645.768779,7724.964049,-3655.873675,10955.104048,15447.871738,10122.635677,-17456.578309,15616.716816,17697.306597,7959.031517,1051.604873,39916.438152,6791.264628,21431.992523,8418.113997,-150.304001,-894.015991,-424.559998,-4900.000000,5460.000000,4480.000000
10946.096295,16702.855134,7761.665614,-3614.813520,11016.928973,15456.968898,10155.269224,-17416.769852,15644.164758,17732.175318,7963.568922,1087.099443,39929.625682,6802.485204,21465.698953,8465.678509,-148.839996,-891.088013,-426.024017,-5880.000000,5460.000000,3780.000000
10960.602577,16762.020202,7785.760794,-3572.345206,11071.020194,15464.367326,10191.032015,-17377.944872,15670.450410,17754.258842,7970.363852,1121.901109,39939.706318,6806.843794,21501.707614,8505.241097,-144.447998,-890.600037,-433.343994,-6720.000000,4620.000000,2940.000000
10943.212920,16745.904594,7765.241893,-3581.777642,11047.014421,15459.472294,10183.477126,-17392.071175,15659.207482,17731.415359,7970.386204,1110.300554,39932.687871,6800.384140,21495.583236,8487.337349,-143.472000,-889.624023,-435.295990,-7000.000000,4060.000000,2240.000000
10920.749416,16686.337195,7731.557814,-3623.418942,10986.754118,15449.995154,10148.094314,-17433.488957,15632.050113,17701.821649,7964.932378,1076.102385,39921.020260,6795.891439,21460.915680,8442.276233,-141.520004,-886.695984,-438.223999,-7560.000000,2940.000000,1400.000000
10922.694018,16678.916416,7732.764808,-3627.777532,10981.389699,15449.369305,10143.713372,-17438.316934,15629.479662,17703.632141,7962.049003,1070.961484,39919.299176,6795.109128,21452.399665,8438.632898,-141.520004,-885.720032,-442.615997,-7560.000000,2100.000000,700.000000
10924.705675,16681.173942,7731.110779,-3627.732829,10981.859086,15447.983497,10142.640488,-17440.306239,15628.652648,17701.821649,7961.445506,1066.826411,39917.555740,6792.113995,21446.901136,8437.872939,-142.496002,-884.744019,-444.567993,-7560.000000,1400.000000,140.000000
10917.262544,16659.895082,7721.030142,-3639.042811,10965.162333,15446.262413,10130.436436,-17453.426713,15616.850927,17688.969396,7958.875055,1051.806039,39911.677231,6791.778718,21435.367636,8426.004163,-146.400009,-883.280029,-445.544006,-7560.000000,700.000000,-280.000000
10910.109986,16640.225546,7718.102064,-3652.766782,10956.467504,15445.703619,10116.690113,-17458.344097,15606.770290,17682.576797,7955.879921,1041.993623,39908.570338,6791.443442,21423.275342,8422.673753,-142.496002,-883.280029,-447.007996,-7140.000000,420.000000,-560.000000
10927.790216,16673.820218,7742.510169,-3628.023401,10998.511135,15452.520901,10139.488892,-17431.700818,15623.824671,17708.661283,7958.964462,1064.412423,39916.818132,6798.484242,21444.129520,8458.280082,-142.984009,-886.695984,-447.984009,-6720.000000,-280.000000,-980.000000
10950.253719,16740.115492,7775.881323,-3575.206229,11067.108639,15465.373154,10186.181687,-17384.382175,15652.412552,17739.014952,7963.993605,1106.143130,39928.932778,6806.061483,21490.352927,8513.801815,-142.496002,-888.160034,-449.936005,-6160.000000,-420.000000,-1120.000000
10949.024373,16754.957051,7774.786088,-3556.833095,11075.915226,15468.122419,10203.370178,-17373.005137,15659.095724,17735.416321,7969.469782,1115.642621,39931.816153,6806.217945,21511.050643,8524.016562,-143.960007,-883.280029,-449.447998,-5740.000000,-560.000000,-1260.000000
10925.622097,16690.449916,7734.865872,-3602.117729,11008.077682,15456.767733,10168.479105,-17413.282980,15633.391217,17699.050033,7966.206427,1075.789461,39919.053306,6795.712625,21478.528855,8474.753317,-141.520004,-885.720032,-447.007996,-5040.000000,-280.000000,-1400.000000
10928.751341,16674.982509,7730.551986,-3618.792131,10994.577228,15452.207977,10153.011698,-17421.150794,15629.792587,17698.558295,7962.920721,1063.920684,39916.527559,6794.863259,21462.122674,8457.900102,-145.912003,-887.671997,-444.567993,-4760.000000,0.000000,-1540.000000
10933.802835,16678.134105,7731.557814,-3621.496692,10995.650112,15449.548119,10147.379058,-17421.374312,15631.871299,17698.334777,7961.892541,1062.892504,39915.722897,6792.873954,21454.523081,8452.625090,-145.912003,-887.184021,-439.688019,-4200.000000,700.000000,-1540.000000
10927.365533,16654.284794,7718.035009,-3640.674489,10972.672519,15445.077770,10128.111855,-17438.316934,15620.293095,17684.990786,7961.490209,1048.363870,39910.134960,6787.576590,21435.278229,8431.726209,-142.984009,-887.184021,-440.175995,-4200.000000,1260.000000,-1680.000000
10929.600707,16644.897061,7718.482044,-3645.748335,10967.777487,15444.630735,10121.831014,-17442.362600,15618.281438,17686.935387,7961.646671,1045.100515,39911.073734,6789.431785,21429.287962,8431.547395,-143.472000,-882.304016,-438.712006,-4060.000000,1540.000000,-1540.000000
10937.624984,16655.581195,7727.355686,-3639.691012,10981.948493,15448.028201,10126.144901,-17432.997219,15626.953915,17698.446536,7962.339576,1054.778821,39914.806475,6794.326817,21433.803014,8450.456971,-143.472000,-886.695984,-435.783997,-4340.000000,2100.000000,-1260.000000
10958.255644,16719.127204,7765.219541,-3592.461776,11047.215587,15459.181721,10167.093297,-17386.036204,15655.005354,17731.147138,7965.267654,1096.755397,39927.725783,6804.295695,21476.472494,8506.023408,-143.960007,-889.624023,-435.783997,-4900.000000,2380.000000,-1120.000000
10962.815400,16759.405048,7779.099975,-3555.268473,11086.509953,15466.624852,10202.163184,-17354.363782,15670.875093,17741.920679,7969.849762,1124.315098,39938.342862,6809.973038,21514.693977,8538.321678,-140.056000,-893.528015,-439.688019,-5460.000000,3220.000000,-1120.000000
10940.106027,16715.483870,7747.963994,-3576.279113,11041.627650,15462.467428,10185.086451,-17382.974015,15652.680773,17711.298789,7968.106326,1102.812720,39932.754926,6802.842832,21499.919474,8505.263448,-138.104004,-895.479980,-437.248016,-5740.000000,3080.000000,-840.000000
10925.912669,16671.830913,7729.479102,-3607.236279,10999.360502,15454.264337,10157.817323,-17410.690178,15632.653610,17698.513591,7963.591273,1076.638827,39924.440077,6797.567820,21469.543453,8470.148858,-141.031998,-892.064026,-436.272003,-5180.000000,3500.000000,-700.000000
10931.299440,16672.143837,7733.748285,-3608.152700,11000.120461,15452.386791,10157.839675,-17406.465698,15632.452444,17703.922713,7963.546570,1075.029501,39923.925987,6798.506594,21465.922471,8469.657119,-141.520004,-892.552002,-434.808014,-4620.000000,3920.000000,-140.000000
10932.864062,16665.013631,7730.775503,-3613.360657,10991.045653,15451.448018,10155.895073,-17407.270361,15631.558374,17697.127783,7964.865323,1068.055757,39920.863798,6797.523117,21458.725209,8463.175114,-142.984009,-893.040039,-435.783997,-4200.000000,4060.000000,140.000000
10930.740646,16647.892195,7722.840634,-3625.855282,10976.315853,15446.843558,10146.015602,-17415.093471,15623.981133,17687.762402,7963.993605,1055.650539,39916.773429,6797.232544,21448.555165,8450.680488,-138.104004,-890.600037,-435.295990,-3920.000000,3920.000000,420.000000
10930.092446,16646.975773,7724.472311,-3628.783361,10979.847429,15444.384866,10143.422800,-17410.801936,15620.516613,17686.957739,7961.646671,1053.750641,39916.326394,6797.590172,21445.358866,8453.608567,-139.568008,-889.135986,-438.223999,-3500.000000,3500.000000,840.000000
10951.840693,16700.061166,7757.642300,-3595.747482,11035.659735,15452.409143,10171.921274,-17373.183951,15644.790607,17718.630161,7965.468820,1087.546478,39926.898769,6804.072178,21471.644517,8494.914591,-141.031998,-885.231995,-435.783997,-3780.000000,3220.000000,1260.000000
10965.899940,16755.560548,7783.279751,-3556.900150,11089.505087,15461.685116,10212.623800,-17333.576659,15668.304642,17739.730208,7970.363852,1120.872929,39938.253455,6809.034265,21507.809640,8539.886301,-140.544006,-885.720032,-439.200012,-4060.000000,3220.000000,1540.000000
10951.505417,16740.473120,7763.185532,-3562.041052,11070.662567,15458.421762,10214.367236,-17339.790444,15660.861511,17720.373597,7972.040233,1109.741760,39936.174743,6804.228640,21510.737718,8530.163292,-141.520004,-879.864014,-440.175995,-4200.000000,3500.000000,1820.000000
10932.104103,16683.297358,7730.976669,-3600.776625,11014.224412,15448.139959,10178.738556,-17373.630985,15636.453406,17695.004367,7969.693299,1074.403652,39926.988176,6797.411358,21478.864131,8488.030253,-139.568008,-881.816040,-445.056000,-4480.000000,3360.000000,2100.000000
10935.725085,16676.815352,7732.787160,-3604.710532,11011.922182,15447.670573,10172.211846,-17370.524093,15636.386351,17698.133611,7967.547532,1071.453222,39926.541141,6798.819518,21472.873863,8484.789250,-140.544006,-879.864014,-444.080017,-4620.000000,3360.000000,2100.000000
10935.456864,16673.082611,7730.328468,-3607.102168,11011.005761,15445.949488,10170.647224,-17363.818570,15635.000543,17693.171524,7963.904198,1067.049929,39922.271958,6796.830213,21465.989526,8484.588085,-142.007996,-879.864014,-449.447998,-4620.000000,3220.000000,2380.000000
10928.863100,16649.657983,7719.443169,-3625.564709,10985.457717,15442.440265,10154.844541,-17371.954605,15627.959743,17682.308576,7960.998471,1052.700109,39916.773429,6794.326817,21447.929317,8469.612416,-142.496002,-877.424011,-449.936005,-4760.000000,3220.000000,2520.000000
10931.187681,16648.227471,7725.791064,-3626.123503,10984.451888,15444.518977,10153.302271,-17363.952680,15631.021932,17686.220132,7958.539779,1054.801173,39919.835618,6800.272381,21445.850604,8475.222704,-145.423996,-876.936035,-445.544006,-4620.000000,2940.000000,2800.000000
10940.798931,16679.385803,7748.992175,-3604.151738,11019.745293,15449.257547,10172.502419,-17331.609706,15638.375656,17704.325045,7956.751639,1074.358949,39927.524618,6808.453120,21462.703820,8510.180832,-146.400009,-876.936035,-447.984009,-4620.000000,2800.000000,2940.000000
10962.860103,16747.245699,7781.402204,-3558.487124,11084.073613,15459.069962,10214.367236,-17280.513618,15666.672965,17735.013990,7965.222951,1115.217938,39940.019243,6813.862242,21500.813544,8562.170990,-148.352005,-873.520020,-450.424011,-4480.000000,2100.000000,3080.000000
10960.915501,16765.685888,7777.937684,-3545.165485,11092.388462,15463.875587,10229.566423,-17266.320260,15672.774991,17732.063560,7970.721480,1124.985650,39942.589693,6811.090626,21513.062300,8571.424612,-149.328003,-876.936035,-447.984009,-4480.000000,1960.000000,2940.000000
10932.417027,16703.860963,7735.916404,-3587.678503,11026.249650,15455.337221,10196.821117,-17303.178287,15644.187110,17698.535943,7967.033442,1085.154842,39928.776315,6799.802995,21477.388916,8525.357667,-150.792007,-877.424011,-447.984009,-4620.000000,1540.000000,2940.000000
10931.590013,16680.436335,7730.216709,-3607.705666,11005.127252,15452.923233,10182.448945,-17312.387206,15637.056903,17698.379481,7966.228779,1071.564981,39925.758830,6798.484242,21460.401590,8508.057416,-152.744003,-876.936035,-447.007996,-4760.000000,1400.000000,2800.000000
10941.827111,16688.728832,7739.090352,-3600.776625,11013.822080,15455.292518,10186.874591,-17304.295874,15646.712857,17705.375577,7966.653462,1076.303551,39927.770487,6803.423977,21463.284965,8509.845556,-154.208008,-879.864014,-444.567993,-4900.000000,1820.000000,2520.000000
10940.754228,16677.932939,7731.758980,-3607.482148,11003.383816,15454.845483,10180.593751,-17308.475650,15644.276517,17697.083079,7966.072317,1069.374510,39925.714126,6804.273344,21455.193633,8496.210992,-157.136002,-882.791992,-444.567993,-5180.000000,1680.000000,2100.000000
10938.608460,16663.761933,7724.986401,-3624.782398,10987.759946,15450.643355,10165.036936,-17315.158822,15639.113264,17691.495143,7964.842971,1059.048004,39920.416763,6800.384140,21435.680561,8484.364567,-156.160004,-881.816040,-443.104004,-5180.000000,1400.000000,1820.000000
10942.475312,16677.195332,7731.870738,-3620.870843,11000.612199,15453.034991,10169.551989,-17299.780822,15642.398970,17698.737109,7962.428983,1065.462955,39922.160199,6803.178108,21438.742750,8500.390768,-156.647995,-880.840027,-442.127991,-5600.000000,1400.000000,1400.000000
10966.414030,16744.764655,7769.309910,-3572.412261,11068.181523,15467.071887,10214.411940,-17245.063751,15670.070430,17731.705932,7965.960558,1105.159653,39938.186400,6814.309277,21483.133314,8556.515998,-152.255997,-885.231995,-442.127991,-5460.000000,1260.000000,1120.000000
10968.783315,16779.298100,7777.133021,-3544.584339,11098.892820,15474.425611,10244.743257,-17210.150327,15679.122887,17739.819615,7967.905160,1124.583319,39944.266074,6814.085759,21509.463669,8583.449850,-156.647995,-883.280029,-440.175995,-5600.000000,1540.000000,700.000000
10943.257623,16731.912402,7739.649146,-3576.033244,11045.740371,15464.792009,10224.202004,-17233.284382,15656.480569,17706.113184,7966.228779,1096.934211,39934.207789,6802.261687,21487.827180,8547.843522,-159.576004,-884.255981,-442.615997,-5460.000000,1400.000000,420.000000
10933.087579,16691.232227,7723.287669,-3604.911697,11005.976618,15455.091352,10195.032977,-17256.530196,15641.773122,17691.919826,7963.635977,1073.084900,39927.859894,6799.691236,21462.189729,8513.645353,-154.208008,-881.328003,-436.760010,-5600.000000,1680.000000,-140.000000
10939.793103,16692.483925,7730.395523,-3603.660000,11011.050464,15454.823131,10193.647169,-17247.365981,15645.997601,17698.312425,7963.635977,1074.917743,39929.022184,6801.926410,21461.005087,8511.499585,-156.647995,-885.720032,-436.760010,-5600.000000,1260.000000,-420.000000
10937.267356,16681.531570,7723.444131,-3612.086607,11003.495574,15453.504378,10190.674387,-17241.174548,15638.979154,17690.712832,7962.607797,1066.133507,39925.892940,6798.908925,21452.779645,8503.229440,-156.647995,-883.280029,-436.272003,-5320.000000,1260.000000,-420.000000
10930.673591,16662.197311,7713.274087,-3624.938861,10986.061214,15449.302250,10176.928064,-17246.516615,15628.317371,17683.046184,7959.143276,1053.080088,39920.975556,6797.031378,21439.189784,8489.885448,-156.160004,-884.744019,-436.760010,-5320.000000,1260.000000,-420.000000
10935.702733,16665.706535,7719.063189,-3619.775608,10990.598618,15451.939756,10176.659844,-17237.911193,15632.161871,17688.120030,7956.036384,1055.851705,39923.702469,6801.278210,21441.961401,8498.446166,-156.160004,-880.840027,-436.760010,-5320.000000,1120.000000,-420.000000
10959.105010,16721.720007,7753.686041,-3580.928276,11046.410924,15462.355669,10206.052387,-17197.812164,15661.599119,17722.474661,7962.160762,1088.954638,39936.979406,6810.598887,21472.382125,8544.602519,-154.208008,-881.328003,-438.223999,-5320.000000,840.000000,-280.000000
10975.399432,16777.845237,7777.267131,-3536.068325,11098.088157,15473.397431,10244.832664,-17154.315669,15688.018881,17742.948859,7970.073279,1124.024525,39947.864705,6814.845719,21511.520029,8589.350711,-154.695999,-878.400024,-436.760010,-5600.000000,560.000000,0.000000
10966.011699,16768.792780,7760.033937,-3530.838016,11085.481773,15476.772544,10254.399211,-17150.985259,15684.911988,17725.380388,7972.487268,1119.196548,39946.501249,6814.353980,21520.505431,8585.617970,-156.160004,-876.447998,-438.223999,-5600.000000,560.000000,140.000000
10944.486969,16708.331312,7729.300288,-3567.852505,11029.580060,15470.178779,10224.000838,-17179.371974,15658.358116,17697.127783,7966.452297,1083.344350,39934.587769,6810.554184,21486.754297,8545.049554,-152.255997,-878.888000,-438.712006,-6020.000000,700.000000,280.000000
10943.190568,16697.602474,7730.596689,-3578.424880,11022.293392,15470.424649,10214.926030,-17176.019213,15652.345497,17698.066556,7961.825485,1073.531934,39932.710222,6810.554184,21469.923433,8536.108856,-152.255997,-880.351990,-439.688019,-6020.000000,560.000000,560.000000
10942.028277,16696.283721,7729.143826,-3583.297561,11020.013514,15470.625814,10211.662675,-17168.576082,15649.082142,17696.054899,7958.137448,1069.776841,39932.263187,6808.900155,21460.669811,8530.833844,-154.695999,-880.351990,-439.200012,-6300.000000,420.000000,980.000000
10934.138111,16674.311957,7716.068055,-3601.380122,10997.661769,15465.954300,10199.548030,-17172.197064,15638.643877,17684.946082,7955.790514,1054.063565,39927.435211,6807.469643,21445.112997,8516.618135,-153.231995,-878.400024,-441.152008,-6720.000000,560.000000,1540.000000
10935.590975,16662.197311,7712.447073,-3615.148796,10987.737595,15463.227387,10191.300236,-17170.587739,15636.296944,17682.867370,7954.672927,1045.368736,39924.909464,6805.055655,21432.886592,8513.131262,-150.304001,-877.911987,-443.592010,-7000.000000,700.000000,1820.000000
10957.071001,16701.134050,7736.922233,-3590.114843,11024.305049,15467.675384,10211.416806,-17142.245727,15658.738096,17710.650588,7961.087878,1068.569847,39933.581940,6812.297620,21450.969154,8544.647222,-152.255997,-876.936035,-437.735992,-7000.000000,700.000000,2520.000000
10984.854220,16776.571188,7773.310873,-3537.856464,11091.382634,15480.952320,10255.270929,-17089.629720,15696.870172,17745.966345,7971.593198,1116.201415,39948.267036,6820.590117,21494.309186,8597.933781,-152.255997,-875.471985,-442.615997,-7700.000000,700.000000,2940.000000
10978.819249,16790.608083,7771.723899,-3523.104313,11099.697483,15485.221503,10272.705289,-17070.071944,15701.005244,17739.976077,7973.247227,1124.985650,39952.156240,6818.801977,21510.961236,8606.561554,-150.792007,-875.960022,-440.664001,-7840.000000,560.000000,3220.000000
10951.460713,16730.414835,7735.469369,-3560.208209,11039.884214,15476.392564,10247.783094,-17099.017453,15675.054869,17703.922713,7969.760355,1089.155804,39941.472106,6812.677600,21485.368488,8566.820153,-151.279999,-874.007996,-442.127991,-8400.000000,420.000000,3640.000000
10947.571510,16706.945504,7730.149654,-3576.703796,11021.153453,15472.995099,10234.327344,-17106.862915,15663.923700,17700.525248,7967.122849,1076.415309,39936.666481,6812.342323,21468.492921,8548.826998,-151.279999,-871.080017,-441.640015,-8680.000000,420.000000,3920.000000
10947.549158,16703.995073,7731.289593,-3584.973941,11018.895926,15470.581111,10231.309859,-17098.413956,15656.458218,17700.860524,7964.105363,1070.492097,39934.431307,6808.609582,21458.971078,8543.194359,-153.720001,-873.520020,-442.615997,-9520.000000,140.000000,4480.000000
10942.944699,16684.414945,7719.957259,-3598.273229,10997.482955,15468.949433,10220.066931,-17100.962055,15647.294002,17690.534018,7964.194770,1056.030519,39930.989138,6804.742730,21447.817558,8524.977687,-151.768005,-867.664001,-438.223999,-10080.000000,0.000000,4620.000000
10945.738667,16680.279872,7720.873680,-3596.373331,10991.000949,15469.463524,10218.524661,-17097.341072,15647.696334,17690.489315,7964.373584,1052.834219,39929.737440,6807.179070,21450.656229,8521.848443,-151.279999,-874.984009,-439.688019,-11480.000000,-840.000000,5740.000000
10954.209978,16696.708405,7731.468407,-3582.515250,11008.882345,15473.062154,10228.672353,-17077.537427,15654.938299,17700.860524,7962.607797,1063.630112,39933.045498,6813.236393,21461.832102,8540.042763,-147.863998,-881.816040,-444.567993,-13300.000000,-280.000000,5320.000000
10973.387775,16758.399219,7765.644224,-3538.750534,11072.741279,15483.813344,10267.586740,-17025.413159,15677.960596,17731.169490,7966.184076,1102.276278,39946.121269,6823.160568,21499.718308,8590.065967,-149.328003,-881.816040,-441.640015,-12880.000000,980.000000,4620.000000
10977.366385,16800.979293,7778.675291,-3500.976086,11110.985113,15491.614102,10303.640104,-16987.638710,15694.031500,17740.110188,7968.598064,1129.299537,39954.994912,6827.854434,21535.414044,8623.146549,-150.304001,-884.744019,-445.056000,-11900.000000,700.000000,4620.000000
10957.674498,16765.238853,7747.695774,-3518.186929,11070.841380,15487.255512,10292.039548,-17006.257714,15680.262826,17714.875068,7969.380375,1107.953621,39950.345749,6823.562899,21526.205126,8596.458566,-153.231995,-883.768005,-445.544006,-11340.000000,1680.000000,4480.000000
10948.040896,16719.887164,7730.909613,-3550.306386,11031.390551,15478.583035,10263.988109,-17026.843670,15664.147218,17702.447498,7968.039270,1081.645618,39944.422536,6821.283021,21498.086631,8565.032013,-153.231995,-882.304016,-440.664001,-10360.000000,980.000000,4760.000000
10953.606481,16710.857059,7734.843521,-3560.163505,11028.708342,15476.101992,10253.594548,-17018.752339,15666.516503,17707.454289,7967.234608,1076.035330,39943.997853,6817.349114,21483.759163,8560.315795,-148.839996,-882.791992,-443.104004,-9940.000000,-700.000000,5180.000000
10948.085600,16691.813373,7726.103988,-3572.635779,11018.962982,15473.017451,10241.748123,-17015.958371,15657.329936,17699.742937,7964.485343,1064.121850,39939.058118,6811.492957,21467.330631,8550.346917,-152.744003,-882.791992,-443.592010,-9940.000000,-700.000000,5180.000000
10939.077847,16670.221587,7713.743474,-3586.225639,11001.930952,15469.955262,10228.247670,-17016.695978,15646.042305,17687.963568,7962.004299,1050.129658,39933.470182,6809.503652,21453.629011,8542.859083,-153.231995,-882.304016,-443.104004,-10080.000000,-280.000000,5180.000000
10942.028277,16672.948500,7715.844538,-3583.744595,11004.344941,15469.664689,10226.861862,-17004.693091,15645.863491,17692.948007,7963.680680,1048.676795,39936.107687,6811.269440,21454.947764,8550.816304,-152.744003,-883.280029,-443.592010,-10080.000000,420.000000,5040.000000
10967.978652,16729.207841,7752.724916,-3546.752458,11056.916244,15478.225407,10257.148475,-16959.833140,15673.445543,17725.223926,7970.542666,1079.075167,39947.842353,6819.472530,21483.021555,8594.983351,-153.720001,-884.255981,-448.959991,-9940.000000,840.000000,5180.000000
10987.916409,16788.574074,7782.609198,-3504.127682,11108.682884,15489.378928,10296.241676,-16913.475622,15704.179192,17749.430865,7976.063547,1115.217938,39960.314627,6824.278155,21517.934980,8640.737372,-154.208008,-885.231995,-441.640015,-9940.000000,980.000000,5180.000000
10972.493705,16772.167894,7765.688928,-3513.113083,11086.599360,15487.523733,10293.380653,-16919.108262,15694.255018,17731.504766,7976.935265,1106.053723,39957.028920,6815.359809,21510.916532,8629.405037,-150.304001,-884.255981,-444.567993,-10080.000000,980.000000,5180.000000
10941.380077,16704.486812,7729.568509,-3560.431726,11023.522737,15477.219579,10257.707269,-16953.485245,15656.055886,17697.418356,7970.028576,1065.239437,39941.807382,6805.279172,21475.153741,8582.645188,-149.328003,-886.695984,-443.104004,-9520.000000,1260.000000,5180.000000
10945.090466,16699.055338,7731.982497,-3564.455040,11024.103883,15476.325509,10257.908435,-16947.785550,15655.541796,17700.011158,7968.128677,1064.390071,39941.740327,6810.196556,21474.013802,8579.091260,-150.792007,-887.184021,-442.127991,-9520.000000,1400.000000,5040.000000
10953.450019,16711.304094,7736.117570,-3554.575569,11035.793845,15477.756021,10268.749031,-16936.944954,15666.292985,17704.347396,7967.659291,1070.067414,39945.785993,6815.091588,21482.507465,8579.024205,-151.768005,-886.208008,-443.104004,-9100.000000,1820.000000,4900.000000
10946.275109,16690.293454,7722.840634,-3568.657168,11015.409054,15474.649128,10256.500275,-16943.538719,15656.011183,17691.718661,7963.434811,1051.738984,39942.880266,6812.901117,21471.197482,8559.555836,-149.815994,-885.720032,-446.520020,-8680.000000,1820.000000,5180.000000
10947.124475,16686.784230,7723.041799,-3571.942874,11009.128214,15475.029108,10250.711173,-16940.096550,15656.122942,17692.120992,7962.876017,1045.949882,39943.126135,6814.733960,21466.794189,8558.661766,-148.839996,-882.791992,-443.104004,-8680.000000,1540.000000,5040.000000
10960.513170,16721.384731,7746.019393,-3547.780639,11041.739409,15481.913445,10268.123182,-16912.492146,15672.283253,17712.952818,7963.278349,1069.061586,39951.865667,6823.540547,21482.932148,8586.623798,-147.376007,-885.231995,-445.544006,-8260.000000,1400.000000,5180.000000
10980.473278,16787.635301,7781.089280,-3500.998438,11104.145480,15494.184553,10310.613848,-16864.771171,15700.513506,17744.558185,7969.425079,1111.038162,39966.684874,6830.961326,21521.488908,8638.032810,-144.447998,-882.791992,-441.640015,-7980.000000,1120.000000,5180.000000
10980.607388,16808.981217,7782.877419,-3480.703054,11119.054093,15499.213695,10335.714857,-16844.028752,15709.275390,17745.116978,7975.303587,1123.488083,39972.272810,6831.274251,21546.388751,8656.920035,-146.888000,-882.791992,-445.056000,-7420.000000,700.000000,5180.000000
10957.003946,16750.039667,7744.186550,-3519.349220,11055.977470,15489.535390,10307.171679,-16879.009232,15687.080108,17711.924638,7975.527105,1087.792347,39959.532316,6821.730056,21518.292608,8610.853089,-144.447998,-880.351990,-445.544006,-7000.000000,140.000000,5320.000000
10955.081696,16725.117472,7739.023297,-3535.934214,11034.363334,15482.516942,10291.547810,-16893.046128,15681.291006,17711.879934,7973.224875,1074.738929,39953.877324,6820.612469,21502.020538,8588.568400,-143.960007,-883.280029,-446.032013,-6860.000000,-140.000000,5320.000000
10958.680327,16724.312809,7746.309965,-3533.497874,11040.443008,15481.354652,10294.945275,-16885.491238,15683.235608,17715.053882,7970.520314,1075.700054,39953.005606,6821.908870,21504.367471,8592.055272,-143.472000,-879.376038,-449.447998,-6580.000000,-560.000000,5320.000000
10951.103085,16700.664663,7736.944584,-3549.948758,11021.175804,15477.532503,10282.920037,-16891.012119,15669.645747,17701.620484,7968.083974,1061.730213,39948.065871,6818.243184,21491.850494,8582.756946,-137.128006,-880.351990,-450.424011,-6440.000000,-700.000000,5320.000000
10947.213882,16682.112715,7728.048590,-3564.812668,11006.803633,15473.911521,10268.078478,-16894.700157,15662.403782,17697.261893,7965.602930,1051.023728,39945.562475,6817.170300,21476.383087,8578.353653,-139.080002,-878.400024,-448.472015,-6440.000000,-1120.000000,5180.000000
10954.075867,16692.886256,7736.788122,-3556.408412,11020.862880,15476.549027,10271.833571,-16882.183180,15667.969366,17708.348359,7965.245302,1061.283178,39948.222333,6821.439483,21484.273253,8596.905601,-136.152008,-878.400024,-453.352020,-6300.000000,-840.000000,5040.000000
10981.121478,16761.662574,7775.344881,-3510.810853,11086.711119,15488.820134,10311.150290,-16836.160938,15700.133526,17745.228737,7972.956654,1104.958487,39961.119290,6831.497768,21522.472384,8649.454552,-134.199997,-880.351990,-453.352020,-5880.000000,-1120.000000,4900.000000
10989.033996,16803.773261,7789.493536,-3483.564077,11121.870413,15495.100974,10340.721648,-16805.136717,15715.556230,17754.750580,7978.365776,1128.383115,39968.696531,6833.755295,21548.288649,8680.277607,-134.688004,-875.960022,-454.328003,-6020.000000,-1260.000000,5040.000000
10963.061269,16762.310775,7757.932873,-3513.068380,11074.462363,15488.015471,10321.230927,-16825.275639,15692.779802,17719.211306,7975.705919,1099.906993,39959.375853,6824.613431,21527.546230,8654.975433,-135.175995,-874.007996,-458.231995,-5740.000000,-1120.000000,4900.000000
10948.733800,16715.059187,7737.749247,-3549.479371,11028.149549,15479.521809,10289.603208,-16853.014154,15670.226892,17700.726414,7971.123811,1069.508620,39951.418632,6818.757274,21493.996262,8622.833624,-133.223999,-875.960022,-454.816010,-5600.000000,-1260.000000,4900.000000
10948.577338,16710.834707,7740.811436,-3551.938063,11027.858976,15478.337166,10285.423432,-16853.483540,15665.264805,17701.888705,7968.866285,1065.954693,39949.921066,6817.215004,21487.313090,8622.274831,-132.736008,-871.567993,-453.839996,-5600.000000,-980.000000,4900.000000
10943.525844,16700.619960,7735.290555,-3555.179066,11020.952287,15477.599559,10283.344720,-16857.216282,15660.258014,17693.238579,7967.189904,1060.590274,39946.836525,6812.789358,21483.245073,8616.709246,-132.248001,-872.544006,-454.328003,-5740.000000,-980.000000,5180.000000
10939.569585,16681.308053,7727.310983,-3566.243180,11005.730749,15477.152524,10275.968644,-16864.748819,15654.625375,17685.259007,7964.395936,1049.056774,39940.935664,6812.498786,21474.304375,8607.746197,-132.736008,-873.031982,-455.304016,-6160.000000,-420.000000,5180.000000
10944.151693,16683.811448,7731.043724,-3561.012871,11012.883307,15478.560684,10281.221304,-16858.803255,15657.419343,17687.471829,7964.731212,1050.666100,39939.974539,6817.706742,21481.389878,8619.190290,-135.664001,-869.616028,-453.839996,-6300.000000,-140.000000,5320.000000
10966.682251,16736.516862,7762.514980,-3525.808874,11067.421564,15485.266207,10313.407816,-16820.559421,15682.274483,17717.110242,7970.833238,1084.126661,39951.262170,6827.742675,21512.145878,8664.854904,-136.639999,-869.127991,-453.352020,-6440.000000,560.000000,5320.000000
10985.301254,16798.565304,7789.560591,-3484.256981,11120.864585,15494.408070,10352.344555,-16778.381679,15709.856535,17740.646629,7977.404651,1121.968165,39964.941438,6832.883576,21547.618097,8713.067617,-140.056000,-870.591980,-454.328003,-6720.000000,980.000000,5880.000000
10976.964054,16794.810211,7777.065966,-3480.546591,11107.207669,15492.776393,10357.865436,-16784.640167,15709.543611,17728.017894,7979.304550,1121.632889,39966.327246,6830.670754,21550.836748,8708.083178,-144.447998,-871.080017,-455.304016,-6860.000000,1400.000000,6020.000000
10955.886359,16732.270030,7743.426590,-3522.009077,11046.545034,15482.248721,10322.996714,-16823.822775,15683.012090,17700.078213,7976.577637,1088.060568,39954.614932,6825.887480,21516.146841,8663.290282,-143.472000,-871.567993,-455.304016,-6860.000000,2100.000000,6440.000000
10959.708507,16719.842460,7743.828922,-3533.654336,11041.270023,15480.684099,10314.056017,-16825.476804,15681.358061,17704.190934,7976.309416,1084.640751,39953.027958,6825.999239,21505.373300,8655.400116,-148.352005,-871.567993,-451.888000,-7000.000000,2800.000000,6720.000000
10963.754173,16719.954219,7743.337183,-3533.363763,11044.354563,15480.527637,10314.413645,-16819.687703,15682.453296,17705.219114,7975.907084,1083.523164,39953.944380,6825.440446,21505.306245,8653.723735,-151.279999,-874.007996,-457.256012,-7140.000000,3500.000000,7000.000000
10963.530655,16704.822088,7733.837692,-3543.623214,11029.624764,15479.275939,10305.987037,-16826.236764,15677.312395,17695.697271,7973.001358,1071.609684,39950.345749,6825.865129,21497.885465,8642.704325,-156.160004,-871.567993,-457.744019,-6860.000000,4480.000000,7420.000000
10963.798876,16702.542210,7734.128265,-3550.708717,11027.121368,15478.493628,10302.790737,-16821.297028,15674.920759,17697.351300,7969.827410,1068.860420,39947.909409,6825.842777,21493.035137,8646.504122,-160.552002,-867.664001,-460.671997,-6580.000000,4760.000000,7560.000000
10969.722089,16718.411948,7747.785181,-3547.557121,11046.142703,15479.991195,10307.998694,-16803.147412,15679.368756,17710.807051,7970.922645,1078.270504,39950.904542,6827.183882,21495.024442,8667.112430,-162.992004,-870.104004,-458.720001,-6440.000000,5740.000000,7840.000000
10993.437289,16782.896731,7781.379852,-3499.925554,11109.353436,15489.066003,10349.952918,-16758.600385,15711.823489,17741.116016,7978.499887,1120.939984,39966.550763,6836.370449,21535.414044,8717.582669,-163.968002,-869.616028,-458.231995,-6300.000000,6160.000000,7980.000000
10987.558781,16800.420499,7780.664597,-3483.944057,11120.752826,15490.071832,10365.017994,-16747.692734,15713.745739,17737.226813,7979.528067,1131.422953,39970.015284,6833.196501,21548.869794,8728.803245,-170.311996,-871.080017,-462.136017,-5740.000000,6720.000000,8120.000000
10950.991327,16730.124263,7737.838654,-3531.620327,11051.529473,15476.414916,10324.963668,-16789.155220,15674.652538,17694.400870,7971.704956,1089.021693,39955.061967,6820.612469,21509.821297,8678.601227,-170.311996,-870.104004,-462.623993,-5600.000000,7140.000000,8400.000000
10953.450019,16711.818184,7734.552948,-3540.829246,11038.230185,15473.643300,10311.597325,-16802.476859,15671.322128,17695.764327,7972.420212,1080.796251,39953.162069,6823.495844,21502.847553,8662.619729,-171.287994,-871.080017,-460.671997,-5320.000000,7420.000000,8120.000000
10963.105972,16724.446919,7742.621928,-3527.351144,11052.177674,15477.443096,10320.493319,-16794.273769,15680.419288,17702.626312,7974.007186,1087.658237,39953.810269,6828.145007,21518.203201,8668.207665,-175.680008,-870.591980,-465.063995,-5180.000000,7700.000000,7980.000000
10962.480123,16713.449861,7736.229329,-3532.402638,11043.795770,15476.303157,10315.531232,-16801.985121,15679.167590,17694.356167,7973.381337,1080.773900,39950.211638,6827.765027,21516.437413,8657.724697,-179.096008,-871.080017,-466.040009,-4760.000000,7840.000000,7840.000000
10963.240083,16697.021329,7730.954317,-3544.807857,11029.557708,15473.978576,10301.717854,-16812.579848,15674.697241,17690.623425,7973.336634,1071.117946,39949.474031,6827.586213,21502.199352,8648.292261,-181.048004,-868.640015,-461.160004,-4200.000000,8120.000000,7140.000000
10967.576321,16699.725890,7739.537387,-3543.846732,11036.442046,15473.509189,10302.298999,-16807.148374,15673.937282,17698.535943,7972.934302,1074.358949,39952.044481,6828.569690,21497.952521,8662.016232,-183.000000,-872.544006,-459.696014,-3640.000000,8120.000000,6580.000000
10987.692891,16757.952184,7773.221466,-3504.172385,11096.165907,15479.879436,10339.648764,-16768.703374,15696.579599,17732.398836,7975.616512,1109.942926,39963.980313,6834.515254,21531.435434,8715.839233,-185.440002,-872.544006,-460.671997,-2660.000000,7280.000000,6300.000000
11003.160298,16808.444775,7791.281675,-3467.716690,11135.661439,15487.188457,10372.550532,-16740.651934,15722.731140,17749.028534,7984.110175,1140.967147,39971.199926,6839.365582,21563.934870,8751.914948,-184.951996,-874.007996,-457.744019,-1820.000000,5880.000000,5740.000000
10983.066080,16773.888978,7761.732669,-3487.006245,11095.607113,15483.925102,10360.078259,-16766.155275,15707.666064,17719.300713,7984.154878,1121.677592,39964.896734,6835.610489,21552.803701,8727.260974,-184.464005,-872.544006,-460.183990,-1820.000000,6720.000000,4900.000000
10971.219655,16733.968763,7744.678288,-3515.772941,11054.681069,15477.107820,10334.239642,-16798.453545,15690.566980,17705.912019,7980.377433,1097.671818,39959.286446,6835.386972,21526.987437,8692.369901,-183.975998,-873.031982,-459.696014,-840.000000,6440.000000,3780.000000
10972.650167,16731.957106,7748.276919,-3520.086827,11052.468247,15474.067983,10329.456369,-16803.460336,15687.437735,17708.705987,7977.248189,1091.748606,39960.024054,6834.805827,21518.940809,8684.613846,-184.464005,-876.936035,-461.160004,-420.000000,7000.000000,2660.000000
10960.423763,16709.471251,7738.240986,-3532.536749,11037.492578,15469.150599,10319.465139,-16815.418519,15670.070430,17694.959664,7971.414384,1074.738929,39954.167897,6828.703800,21508.234323,8673.572084,-186.416000,-871.567993,-457.256012,-280.000000,7420.000000,1960.000000
10960.580225,16692.305111,7734.731762,-3545.925444,11023.187461,15467.228349,10304.623581,-16832.517604,15667.187055,17690.869295,7970.676776,1063.898333,39953.430289,6828.301469,21495.292663,8665.972491,-184.951996,-870.104004,-456.768005,280.000000,6020.000000,1120.000000
10967.106934,16695.121431,7740.118532,-3543.913787,11026.763740,15468.211826,10300.980246,-16835.043351,15676.306567,17696.010196,7971.168515,1068.547495,39954.369063,6830.268422,21493.035137,8676.723680,-180.072006,-869.616028,-455.304016,560.000000,5320.000000,700.000000
10976.740536,16731.018332,7763.610216,-3520.690324,11067.108639,15472.346899,10319.666305,-16814.636208,15688.890599,17717.691388,7971.213218,1091.256868,39960.515792,6832.704763,21509.016634,8713.224079,-178.608002,-869.127991,-454.328003,1680.000000,4620.000000,-140.000000
10989.861010,16787.143563,7788.822983,-3480.635998,11118.897631,15481.667576,10358.312471,-16783.276711,15711.287047,17736.846833,7976.443526,1125.231519,39970.708188,6837.689202,21545.092350,8757.480533,-172.751999,-867.664001,-451.888000,2240.000000,3920.000000,-840.000000
10978.282807,16777.778182,7773.243817,-3482.155917,11102.871430,15482.204018,10360.905273,-16797.045385,15705.676759,17719.591286,7979.259846,1118.615403,39968.137737,6834.694068,21546.254640,8751.803190,-171.287994,-869.127991,-451.399994,2660.000000,2660.000000,-1540.000000
10957.696850,16714.522745,7736.966936,-3525.898281,11041.381781,15471.966919,10323.399046,-16846.442741,15680.888674,17690.377556,7974.901256,1081.287990,39956.246609,6826.379219,21505.127431,8701.802337,-170.800003,-870.104004,-452.376007,2800.000000,1400.000000,-2240.000000
10958.121533,16698.228323,7735.067038,-3539.666955,11033.245746,15466.200169,10309.496261,-16864.078267,15673.780820,17691.092812,7971.168515,1071.855554,39952.647978,6824.792245,21488.140105,8684.055052,-165.919998,-870.104004,-449.936005,3220.000000,840.000000,-2660.000000
10958.814437,16694.652044,7734.575300,-3545.165485,11032.105807,15461.618061,10302.991903,-16871.700212,15673.512599,17691.025757,7969.268616,1067.832240,39948.356443,6821.081855,21482.552169,8677.528343,-163.479996,-871.080017,-449.447998,2940.000000,0.000000,-3220.000000
10953.271205,16670.735678,7722.281840,-3562.219866,11010.715188,15456.767733,10285.468136,-16895.817744,15667.701145,17679.134629,7967.122849,1054.510600,39943.260246,6816.946783,21466.973003,8660.988052,-155.184006,-872.056030,-449.936005,2800.000000,-280.000000,-3780.000000
10951.483065,16654.083628,7718.079712,-3569.081851,11001.998008,15454.532558,10280.416641,-16912.089814,15662.895520,17672.362050,7963.121887,1048.140353,39942.969673,6816.566803,21464.827235,8662.485619,-151.768005,-872.056030,-444.080017,2380.000000,-840.000000,-4340.000000
10966.704603,16681.956253,7740.654974,-3548.495894,11035.682086,15458.242948,10295.302903,-16903.752614,15679.033480,17693.886780,7964.552398,1071.319112,39951.329225,6823.317030,21482.149837,8694.403910,-148.839996,-871.567993,-444.567993,1820.000000,-1120.000000,-4760.000000
10992.431461,16754.711181,7779.926989,-3496.125757,11107.766462,15472.279843,10339.157026,-16869.845017,15715.265657,17729.582516,7972.822544,1121.252909,39966.774281,6833.755295,21527.054492,8751.087934,-143.960007,-877.424011,-446.032013,1260.000000,-1400.000000,-4900.000000
10998.265266,16782.606159,7787.079547,-3472.812888,11126.586631,15477.353689,10359.653575,-16866.849883,15733.750550,17733.516423,7979.885695,1141.414182,39970.909354,6834.023515,21546.992248,8765.929492,-139.568008,-878.400024,-447.496002,700.000000,-1540.000000,-5040.000000
10969.677385,16717.182603,7748.858064,-3515.951755,11057.989127,15464.859064,10322.929659,-16916.493108,15700.781727,17695.585513,7976.465878,1103.326810,39957.028920,6821.819463,21511.229457,8714.296963,-132.736008,-879.376038,-446.520020,-140.000000,-1820.000000,-5040.000000
10958.635623,16684.549056,7736.899881,-3539.979880,11032.217566,15457.058305,10300.622618,-16941.415303,15679.592273,17686.443649,7970.430907,1083.880792,39950.099880,6819.584289,21492.185771,8687.251352,-125.416000,-874.007996,-449.447998,-560.000000,-1540.000000,-5600.000000
10960.535522,16685.219608,7736.676364,-3540.941005,11039.861863,15455.963070,10300.175583,-16944.812768,15675.099573,17688.075326,7966.921683,1083.478461,39949.183458,6821.506539,21491.515218,8684.658549,-119.559998,-873.031982,-448.959991,-840.000000,-420.000000,-5880.000000
10951.974803,16665.550073,7722.259488,-3558.263607,11022.651019,15453.102047,10289.044415,-16962.604757,15660.570939,17673.703155,7963.278349,1070.313283,39943.528467,6818.198480,21475.153741,8672.007462,-120.048004,-874.007996,-453.352020,-1540.000000,140.000000,-5880.000000
10947.616213,16644.919413,7712.648238,-3573.731014,11004.769624,15447.871738,10276.706252,-16982.386051,15651.674944,17666.841169,7961.400802,1057.595141,39941.114478,6816.186823,21459.485168,8664.050241,-118.096001,-876.447998,-447.007996,-2660.000000,1400.000000,-5740.000000
10958.479161,16655.983526,7724.740532,-3567.718395,11017.420711,15447.357648,10282.115374,-16981.894312,15663.990756,17681.190989,7962.876017,1065.708824,39943.863743,6820.567765,21465.006049,8680.970512,-113.704002,-876.447998,-443.592010,-3640.000000,1820.000000,-5600.000000
10980.383871,16717.227306,7762.045594,-3523.283127,11080.273817,15456.499512,10323.779026,-16941.907041,15692.332768,17714.673902,7968.039270,1103.393865,39954.100842,6831.497768,21505.373300,8732.200710,-114.192001,-878.888000,-444.080017,-4200.000000,2100.000000,-4900.000000
10987.514077,16757.393391,7772.908541,-3486.805080,11120.574012,15462.355669,10358.223064,-16916.582515,15708.448375,17725.022760,7973.314282,1129.523054,39959.934647,6834.872882,21541.225498,8762.263806,-111.264000,-878.400024,-443.104004,-4340.000000,2100.000000,-4340.000000
10972.426650,16724.826899,7744.208901,-3501.780749,11084.095965,15457.974727,10346.868378,-16946.176224,15696.959579,17698.915923,7972.777840,1112.647487,39953.698510,6828.524986,21531.390730,8730.658439,-109.312004,-879.864014,-445.056000,-4620.000000,1960.000000,-3780.000000
10960.714336,16676.211855,7725.858119,-3539.622252,11041.180616,15450.531596,10312.916078,-16980.888484,15678.966424,17681.928597,7966.519352,1085.735987,39944.355481,6825.418094,21493.079840,8688.681863,-109.312004,-880.840027,-445.056000,-5320.000000,1400.000000,-2940.000000
10968.515094,16672.434410,7730.149654,-3544.852560,11045.896834,15452.073866,10309.965647,-16981.603739,15680.553398,17684.677861,7965.692337,1084.193717,39944.444888,6827.742675,21485.144971,8686.625503,-111.751999,-879.864014,-443.592010,-5740.000000,1120.000000,-2240.000000
10972.896036,16669.796904,7727.355686,-3547.735935,11043.415790,15450.308079,10309.205688,-16989.873885,15681.738041,17680.922768,7967.592236,1081.980894,39943.372004,6826.714495,21481.725154,8682.401023,-109.312004,-879.864014,-448.959991,-6720.000000,420.000000,-1120.000000
10969.409164,16651.066142,7720.203128,-3556.743688,11028.440121,15445.949488,10302.120185,-17003.821373,15675.703070,17672.160884,7964.619454,1070.894429,39939.929836,6826.088646,21473.611471,8672.119221,-108.823997,-877.424011,-447.496002,-7420.000000,560.000000,-280.000000
10971.376118,16646.327573,7726.349858,-3559.716470,11029.289488,15445.703619,10300.443804,-17005.363644,15678.429982,17674.373707,7962.876017,1070.849725,39940.801554,6827.005068,21468.023535,8679.428241,-115.167999,-878.400024,-447.007996,-8120.000000,840.000000,280.000000
10987.849353,16690.472268,7755.921216,-3531.396810,11074.819991,15450.330430,10322.393217,-16979.748545,15699.798250,17699.407661,7965.759392,1096.777749,39950.032824,6831.162492,21490.554093,8719.929602,-115.167999,-876.447998,-450.912018,-8960.000000,980.000000,1120.000000
10996.588885,16745.502263,7776.685986,-3491.387187,11126.877204,15457.728858,10356.658442,-16947.964364,15713.566925,17717.937257,7970.654425,1127.109066,39958.057101,6833.732943,21526.987437,8762.777896,-114.192001,-875.471985,-451.399994,-9660.000000,700.000000,1820.000000
10973.767754,16727.911440,7752.791971,-3498.092711,11109.889878,15452.520901,10355.406744,-16961.196597,15693.875038,17694.378518,7968.016919,1114.592089,39950.569266,6825.976887,21525.825146,8750.842065,-120.048004,-875.960022,-451.888000,-10360.000000,1400.000000,2520.000000
10945.269280,16658.978660,7713.408198,-3544.517284,11048.064953,15439.981573,10319.599249,-17007.174135,15658.581633,17660.917957,7959.076221,1073.822507,39936.778240,6817.036190,21493.012785,8703.501070,-122.487999,-872.056030,-453.839996,-10640.000000,1960.000000,3220.000000
10949.739629,16646.819311,7713.497605,-3556.967206,11041.247671,15436.070017,10309.250392,-17016.584220,15658.603985,17664.471884,7956.572826,1066.915818,39935.593597,6814.823367,21481.434581,8691.922866,-128.343994,-872.056030,-455.791992,-10920.000000,2240.000000,3640.000000
10962.010737,16656.631727,7720.247831,-3552.273339,11046.097999,15437.791102,10309.160985,-17016.584220,15672.663232,17669.903358,7960.014994,1072.034368,39938.789897,6814.756312,21480.004070,8690.604113,-131.759995,-874.496033,-456.279999,-10920.000000,2800.000000,4060.000000
10956.623966,16637.453930,7711.530651,-3560.096450,11027.546051,15437.522881,10300.957894,-17030.822281,15663.029631,17657.252271,7956.684584,1061.283178,39935.057155,6814.085759,21474.639651,8680.881105,-136.639999,-872.544006,-457.744019,-11200.000000,3640.000000,4340.000000
10953.561777,16621.874764,7710.882450,-3566.109069,11019.141796,15437.589936,10294.855868,-17038.511281,15654.692430,17654.726524,7952.795381,1056.611664,39934.163086,6815.471568,21469.923433,8683.764480,-141.031998,-872.544006,-459.208008,-11620.000000,4620.000000,4200.000000
10968.179818,16640.583174,7730.708448,-3554.977900,11043.751066,15439.154558,10302.231944,-17027.223650,15669.533988,17673.367879,7956.192846,1073.062548,39940.935664,6819.897213,21475.846645,8708.910192,-146.888000,-872.544006,-458.231995,-11620.000000,6300.000000,3780.000000
10988.072871,16701.938713,7763.207884,-3508.150996,11106.090081,15449.279898,10341.123979,-16986.387013,15698.367739,17703.229809,7961.333747,1110.635830,39953.251475,6826.848605,21514.135184,8762.487324,-150.792007,-870.591980,-454.816010,-12040.000000,7140.000000,3640.000000
10984.831868,16719.462480,7763.744326,-3487.252115,11120.708122,15453.862006,10362.939282,-16975.278196,15703.195715,17700.324082,7965.312358,1122.862234,39955.285484,6828.726152,21538.990323,8780.860458,-152.744003,-868.152039,-459.208008,-12040.000000,8120.000000,3360.000000
10960.803743,16653.256613,7725.276974,-3532.447342,11053.965813,15441.099160,10327.265898,-17021.792176,15677.290044,17666.707059,7964.284177,1085.825394,39941.762679,6819.003143,21506.759108,8734.301774,-156.647995,-866.200012,-459.208008,-11900.000000,8540.000000,2940.000000
10963.240083,16626.792148,7718.370285,-3552.295691,11032.441083,15434.617154,10307.663418,-17043.071037,15672.663232,17660.962660,7960.238512,1072.347292,39937.627606,6819.941916,21487.938939,8711.279477,-161.528000,-862.296021,-462.136017,-11620.000000,8540.000000,2520.000000
10972.694871,16633.296506,7725.612250,-3548.831171,11042.521720,15432.784311,10311.731435,-17041.282897,15682.095669,17664.583643,7957.958634,1078.739891,39938.834600,6821.171262,21489.838837,8711.748864,-163.479996,-862.296021,-463.112000,-11620.000000,9100.000000,2100.000000
10970.616158,16619.818404,7718.839671,-3559.112973,11030.608240,15429.140977,10305.338836,-17054.291612,15680.061660,17654.145378,7958.048041,1071.542629,39934.364251,6817.773797,21481.792209,8699.097776,-166.408005,-862.783997,-462.136017,-11480.000000,9800.000000,1680.000000
10969.655033,16607.524944,7712.380017,-3564.611502,11020.840528,15427.308134,10297.068691,-17067.523845,15675.703070,17647.797483,7956.796343,1064.323016,39931.480876,6820.277193,21475.243148,8694.940352,-164.944000,-857.416016,-461.648010,-10920.000000,10080.000000,980.000000
10977.679310,16612.487032,7717.498567,-3561.884589,11027.948383,15427.956334,10295.660531,-17071.122476,15681.514523,17656.671125,7959.702070,1069.486269,39933.269016,6823.361733,21473.052677,8706.652666,-166.408005,-853.023987,-457.256012,-9940.000000,9940.000000,280.000000
10992.431461,16663.180788,7744.968861,-3526.233557,11084.073613,15434.617154,10329.746941,-17038.019542,15699.150050,17684.856675,7961.780782,1102.052760,39942.589693,6829.083780,21504.523933,8754.932434,-173.240005,-844.239990,-446.032013,-7280.000000,8120.000000,280.000000
10994.912505,16702.765727,7756.904692,-3494.717597,11121.177509,15440.383904,10360.525293,-17016.763033,15712.270524,17693.931483,7964.395936,1128.360764,39948.669368,6830.871919,21536.486928,8787.208353,-164.944000,-857.416016,-442.127991,-1260.000000,2380.000000,1120.000000
10974.035975,16664.007802,7726.349858,-3516.197624,11079.938540,15433.968953,10343.292098,-17050.469464,15694.009148,17665.500065,7962.116058,1108.981801,39941.695624,6823.272326,21517.666759,8758.262844,-168.848007,-836.432007,-443.104004,3080.000000,1960.000000,280.000000
10959.999080,16618.209078,7707.037950,-3547.020679,11038.811331,15424.849442,10314.078368,-17091.015529,15673.959634,17649.049181,7957.377488,1084.305475,39934.051327,6822.288850,21487.558959,8721.293059,-166.895996,-848.632019,-434.320007,8400.000000,1260.000000,-420.000000
10962.346013,16618.231430,7711.553003,-3547.780639,11043.527549,15422.591915,10310.792662,-17101.610255,15675.971291,17653.877157,7956.081087,1085.244249,39932.643167,6821.327725,21483.334480,8716.778006,-155.671997,-859.367981,-455.791992,10780.000000,1960.000000,-2100.000000
10957.965071,16605.803860,7704.355741,-3558.263607,11033.983354,15419.194450,10301.159060,-17117.994084,15669.869264,17646.322268,7953.041250,1076.080033,39928.552798,6815.628030,21473.007974,8705.199803,-163.968002,-880.840027,-475.312012,2100.000000,14140.000000,-7280.000000
10948.242062,16582.111011,7692.218744,-3576.524982,11014.246763,15412.690093,10284.283493,-17139.563518,15654.334802,17636.487500,7950.023764,1058.712728,39922.540179,6810.353018,21456.870014,8688.815974,-158.112000,-862.296021,-482.144012,-10640.000000,15960.000000,-9380.000000
10947.795027,16577.327737,7692.263447,-3579.833040,11012.838604,15411.840726,10281.422470,-17147.766608,15652.948994,17638.901489,7948.347384,1057.170458,39922.964862,6811.716474,21454.076046,8692.481660,-153.231995,-854.488037,-486.536011,-14420.000000,8820.000000,-7280.000000
10968.068059,16623.126462,7724.740532,-3543.466752,11059.240825,15418.412139,10309.160985,-17125.593677,15675.032517,17666.572948,7952.057773,1086.786519,39934.096030,6820.433655,21486.799000,8731.999544,-145.423996,-859.856018,-486.048004,-15680.000000,3640.000000,-5880.000000
10987.067042,16682.269178,7757.172913,-3498.696208,11114.829614,15428.045741,10350.556415,-17093.653034,15703.598047,17691.428088,7958.428020,1124.158636,39946.769470,6825.619260,21527.188602,8777.619455,-145.423996,-855.463989,-483.608002,-14140.000000,3640.000000,-5320.000000
10973.834810,16671.607396,7742.957204,-3504.217089,11100.748015,15425.788215,10352.053982,-17106.952322,15699.150050,17674.060783,7960.573788,1118.816569,39944.064909,6820.813634,21527.009788,8770.980986,-140.056000,-857.903992,-476.776001,-12180.000000,4620.000000,-5040.000000
10951.460713,16607.256723,7707.641448,-3548.630005,11039.101903,15413.405348,10313.877203,-17159.344811,15669.645747,17642.209547,7955.790514,1083.120833,39931.302062,6815.248050,21490.665852,8726.948050,-137.128006,-857.903992,-472.384003,-9380.000000,6300.000000,-5600.000000
10950.521940,16583.139191,7703.707540,-3568.210133,11025.310877,15407.348026,10296.934580,-17178.120277,15660.548587,17641.986029,7953.331823,1072.570809,39928.016356,6813.057579,21467.800017,8716.688599,-138.591995,-852.536011,-459.208008,-6160.000000,6300.000000,-5740.000000
10957.607443,16581.731031,7704.311038,-3571.540543,11025.802615,15407.616247,10294.609999,-17179.662547,15664.370735,17644.422370,7952.817732,1071.766147,39927.770487,6812.655248,21458.144064,8714.498128,-131.759995,-868.640015,-466.528015,-840.000000,4200.000000,-5320.000000
10963.418897,16572.723278,7699.237192,-3576.368520,11012.726845,15405.828107,10287.233923,-17195.867562,15669.198712,17640.332000,7953.085953,1067.385205,39927.524618,6813.974001,21448.801035,8700.930619,-136.639999,-863.760010,-466.040009,-2380.000000,7840.000000,-5880.000000
10968.403336,16566.353031,7702.947581,-3576.368520,11010.268153,15403.592933,10285.199915,-17207.199896,15671.255073,17640.086131,7954.583520,1066.647597,39928.038708,6815.583326,21446.632915,8701.288247,-136.152008,-861.320007,-473.360016,-8260.000000,11340.000000,-5880.000000
10982.842563,16587.542485,7722.326544,-3560.498781,11039.593642,15407.303322,10300.622618,-17194.213533,15680.843971,17660.515626,7958.852703,1082.562039,39933.112554,6822.490015,21462.770875,8730.680791,-136.639999,-858.392029,-472.872009,-11200.000000,9520.000000,-4620.000000
11012.413920,16664.119561,7765.823038,-3499.009132,11115.947201,15420.714369,10353.797418,-17154.002744,15720.384207,17700.815821,7970.497962,1135.222749,39950.681025,6837.510388,21521.555963,8791.522240,-135.664001,-858.880005,-471.408020,-11200.000000,6300.000000,-3080.000000
11018.091264,16696.775460,7777.736518,-3464.900370,11142.590480,15429.140977,10384.419308,-17142.491596,15735.739855,17707.119013,7978.589294,1161.575456,39959.062929,6845.333498,21557.050533,8812.488176,-131.759995,-862.783997,-471.895996,-10500.000000,5600.000000,-1540.000000
10996.544182,16641.007857,7740.654974,-3500.461996,11083.581875,15421.451976,10356.077296,-17187.239788,15713.678683,17674.105486,7979.438660,1127.667860,39947.954112,6837.979774,21529.334370,8772.143277,-134.199997,-860.832031,-470.432007,-10360.000000,7280.000000,-1120.000000
10997.348845,16613.582267,7730.820207,-3517.382266,11060.738392,15414.724101,10336.966555,-17214.106585,15708.448375,17670.193931,7978.008148,1111.373438,39942.969673,6836.258690,21513.934018,8750.797361,-130.783997,-864.247986,-467.992004,-8960.000000,7420.000000,-280.000000
11002.847374,16617.963209,7735.178797,-3511.012019,11070.617863,15416.266372,10340.609889,-17218.867507,15712.605800,17675.200722,7976.242361,1114.502682,39945.204847,6839.499693,21519.566657,8751.780838,-128.343994,-865.712036,-470.432007,-7000.000000,7140.000000,140.000000
10996.991217,16605.468584,7728.361515,-3518.209281,11059.799619,15415.417005,10332.272688,-17235.117225,15703.396881,17663.756628,7970.609721,1107.506586,39940.868609,6839.656155,21511.631788,8740.224986,-130.783997,-865.223999,-467.503998,-5460.000000,7700.000000,560.000000
10994.979560,16587.922464,7725.344029,-3531.240348,11051.663584,15413.986494,10320.448616,-17249.891728,15695.819640,17660.359163,7966.675814,1100.555193,39938.052289,6842.718344,21496.991396,8733.787684,-132.736008,-868.640015,-470.920013,-3780.000000,8540.000000,1400.000000
10998.645246,16587.922464,7731.691925,-3534.615461,11061.855979,15413.405348,10318.951049,-17251.098722,15697.496020,17666.103562,7965.915855,1103.304458,39939.303987,6844.081800,21492.789268,8745.052963,-140.544006,-857.416016,-465.063995,-2660.000000,7560.000000,2380.000000
11025.757912,16648.853320,7766.448887,-3496.013999,11118.830576,15417.875697,10348.589462,-17227.539984,15730.464844,17699.944103,7971.704956,1140.028374,39949.339920,6846.451085,21523.277047,8789.599990,-133.712006,-861.320007,-461.160004,-840.000000,3080.000000,5040.000000
11039.504235,16698.340082,7784.464393,-3455.870265,11160.874207,15424.782386,10385.648654,-17211.558486,15752.481312,17716.394987,7976.510582,1171.142002,39958.526487,6850.921434,21564.314850,8826.100388,-137.128006,-866.687988,-465.063995,3080.000000,1120.000000,5460.000000
11013.889136,16662.174959,7753.887207,-3474.153992,11122.585669,15418.725064,10371.723517,-17250.897557,15731.783596,17681.794486,7972.755488,1149.304348,39949.451679,6843.768876,21556.268222,8801.289952,-129.320007,-854.976013,-470.432007,4060.000000,2380.000000,6300.000000
10990.419804,16600.372386,7725.612250,-3519.460978,11068.047412,15404.822279,10329.322258,-17305.078185,15703.218067,17653.832454,7964.462991,1112.289859,39935.593597,6833.598832,21516.526820,8757.480533,-121.024002,-890.112000,-477.752014,2100.000000,7000.000000,5460.000000
10986.061214,16586.402546,7723.846462,-3533.766095,11060.760744,15398.630845,10316.581764,-17323.741892,15693.204486,17651.016134,7956.394012,1099.996400,39928.441039,6826.625088,21500.701785,8745.790570,-126.880005,-882.304016,-493.368011,-140.000000,12740.000000,3080.000000
10976.807592,16572.343298,7717.789139,-3543.645566,11049.495465,15395.076918,10310.457386,-17339.879851,15679.704032,17640.399056,7947.922700,1087.591182,39919.589748,6820.321896,21492.342233,8735.575823,-136.152008,-864.247986,-487.024017,-7700.000000,14560.000000,3360.000000
10967.084583,16546.012944,7706.032122,-3564.410337,11026.808444,15389.533685,10293.492412,-17367.417200,15663.968404,17626.049236,7941.552453,1070.156821,39913.130094,6815.717437,21472.136256,8718.990829,-128.832001,-864.736023,-481.656006,-9380.000000,8400.000000,5320.000000
10967.688080,16535.932307,7703.752244,-3572.009930,11019.499423,15383.766935,10283.612941,-17386.460887,15663.521369,17624.037579,7936.210386,1065.395899,39910.649051,6813.884594,21457.361753,8717.426207,-123.952003,-865.712036,-485.071991,-4900.000000,3780.000000,7000.000000
10982.574342,16572.388002,7728.965012,-3551.155752,11056.826837,15383.945749,10298.186278,-17377.453134,15680.821619,17647.037524,7937.238567,1089.044045,39916.773429,6816.835024,21470.124599,8748.115152,-125.903999,-862.783997,-484.584015,-4060.000000,7980.000000,6580.000000
10995.739519,16630.033151,7755.116553,-3510.833205,11112.594439,15393.244075,10334.418456,-17356.017811,15702.838087,17666.617652,7941.485398,1126.103237,39928.955129,6819.941916,21507.072032,8790.918743,-127.856003,-860.832031,-483.608002,-5880.000000,12880.000000,5600.000000
10983.602522,16624.512270,7741.414933,-3508.061589,11106.380654,15395.054566,10342.509787,-17371.664032,15695.305550,17651.217300,7943.340593,1125.499740,39926.943472,6818.645515,21517.532649,8790.471708,-124.440002,-864.736023,-478.239990,-6860.000000,12040.000000,5180.000000
10958.434458,16556.697077,7707.261468,-3554.016775,11042.655831,15382.336424,10303.885973,-17428.526870,15665.108343,17618.114366,7940.367811,1087.188850,39912.794818,6812.074102,21477.143047,8743.354230,-121.024002,-860.343994,-478.727997,-6160.000000,8540.000000,5460.000000
10962.658937,16541.430836,7707.686151,-3567.763098,11030.988220,15377.396688,10288.932656,-17454.186672,15664.840122,17618.673160,7938.467912,1080.192754,39910.023202,6811.872937,21465.117808,8730.434922,-122.487999,-858.392029,-475.312012,-5180.000000,8820.000000,5320.000000
10970.213827,16544.493025,7709.586049,-3569.730052,11034.385685,15375.720307,10284.238790,-17469.765838,15669.824561,17618.963733,7937.685601,1082.740853,39907.609213,6811.671771,21459.038134,8725.942221,-124.928001,-854.488037,-468.480011,-3780.000000,9660.000000,5320.000000
10961.250777,16517.581525,7694.051587,-3589.600753,11011.318685,15368.590101,10265.552731,-17500.879467,15656.324107,17600.903523,7932.388238,1067.787536,39899.853158,6804.161585,21440.665000,8706.004465,-122.000000,-853.023987,-463.600006,-2800.000000,9380.000000,5460.000000
10953.986460,16504.125774,7692.151689,-3593.355846,11008.547069,15365.952595,10261.551769,-17521.264258,15645.975250,17591.560494,7926.219157,1063.965388,39898.892033,6805.346227,21444.733017,8705.065692,-124.440002,-850.096008,-466.040009,-2800.000000,8820.000000,5180.000000
10958.501513,16518.922629,7708.870793,-3581.755290,11036.196177,15367.785438,10272.749993,-17521.644237,15646.735209,17602.266979,7924.051037,1076.772937,39903.340030,6810.129501,21460.088665,8728.937355,-121.512001,-853.023987,-466.040009,-3780.000000,8960.000000,4760.000000
10977.366385,16576.724240,7741.213768,-3540.896301,11095.003616,15376.793191,10308.892764,-17497.213781,15672.573825,17630.743102,7929.370752,1114.100351,39916.102876,6816.991486,21495.046794,8777.485344,-123.464005,-854.000000,-464.088013,-4760.000000,8540.000000,4760.000000
10977.768717,16596.751403,7743.672460,-3517.851653,11112.035645,15381.867037,10328.159967,-17497.034967,15678.921721,17629.603163,7932.120017,1128.852502,39918.047478,6817.930259,21515.766861,8790.315245,-124.440002,-851.559998,-468.480011,-5040.000000,8260.000000,4760.000000
10945.649260,16529.584411,7701.382959,-3554.776735,11049.540168,15371.831104,10294.386482,-17551.953203,15642.980116,17589.817058,7927.068523,1092.642676,39903.943527,6810.308315,21485.301433,8743.309527,-120.048004,-850.583984,-465.063995,-5040.000000,8260.000000,4760.000000
10940.083675,16489.060699,7689.089500,-3583.364616,11016.459586,15359.582348,10264.815124,-17593.348633,15628.987924,17582.910369,7923.022857,1070.894429,39896.321582,6805.905021,21453.517253,8713.469948,-122.975998,-841.799988,-463.600006,-4480.000000,8400.000000,5320.000000
10958.009774,16502.002359,7699.259543,-3574.960360,11027.143720,15358.531816,10263.675185,-17609.777166,15646.936375,17592.432212,7924.162796,1082.964371,39899.450827,6807.581402,21450.432712,8711.659457,-126.391998,-830.575989,-454.328003,-2940.000000,5740.000000,6580.000000
10965.944644,16497.442603,7696.331465,-3581.554125,11019.722941,15356.140179,10252.812237,-17641.203718,15657.978136,17589.884113,7926.979116,1083.992551,39900.546062,6807.179070,21438.765101,8699.455404,-135.175995,-811.544006,-427.488007,1680.000000,1400.000000,8820.000000
10955.953414,16470.084068,7684.149764,-3598.563802,11002.087415,15350.664002,10239.244728,-17674.105486,15641.169624,17576.964805,7922.978154,1068.167516,39896.232175,6803.267515,21428.438595,8688.793622,-118.584000,-826.671997,-425.048004,12460.000000,-8960.000000,13720.000000
10953.986460,16460.584576,7681.601665,-3606.275154,11003.450871,15347.177130,10233.142702,-17694.624388,15633.547680,17577.545950,7919.804206,1063.674815,39892.633545,6801.099396,21426.628104,8695.633256,-90.767998,-923.783997,-477.752014,14840.000000,-7980.000000,13580.000000
10984.250722,16526.477519,7720.001962,-3561.728127,11065.186389,15354.888481,10265.843304,-17682.152114,15668.818732,17612.884058,7926.286212,1104.153824,39902.088332,6807.626105,21463.262613,8744.494169,-114.680000,-890.600037,-495.808014,-140.000000,15960.000000,4760.000000
10992.073833,16576.254854,7740.140884,-3523.886624,11110.247506,15361.594005,10295.571124,-17677.972338,15686.789535,17624.372855,7928.700200,1135.580377,39910.202016,6813.035227,21499.450087,8779.117021,-129.807999,-872.544006,-488.000000,-9940.000000,20580.000000,4200.000000
10965.050574,16531.484310,7709.295477,-3552.005118,11066.996880,15352.474493,10275.163981,-17725.670961,15663.968404,17590.979349,7923.693409,1111.038162,39899.741399,6803.625143,21482.239244,8751.222044,-107.360001,-877.424011,-506.544006,-9660.000000,11200.000000,7280.000000
10951.438362,16473.928568,7685.602627,-3589.265476,11016.437234,15340.717475,10243.715077,-17778.443429,15642.331915,17570.795723,7918.686619,1079.522202,39889.392542,6797.500765,21450.097436,8711.570050,-96.624001,-862.296021,-517.768005,-14140.000000,9660.000000,8120.000000
10955.036992,16476.364908,7691.950523,-3581.107090,11025.668505,15341.186862,10244.676202,-17794.089650,15642.443674,17573.522636,7914.886822,1083.746682,39889.839576,6803.245163,21449.650401,8710.608925,-113.704002,-874.007996,-501.664001,-22260.000000,15680.000000,6160.000000
10944.732838,16470.240530,7688.418947,-3581.844697,11024.640325,15338.884632,10236.584870,-17818.140127,15628.026799,17560.670383,7907.644857,1081.243286,39886.375056,6802.686370,21436.954610,8701.489413,-116.632004,-876.936035,-482.632019,-17780.000000,14980.000000,9380.000000
10931.545309,16430.722646,7676.416060,-3618.233337,10993.727862,15331.508557,10207.393492,-17853.724105,15604.758633,17545.046514,7902.593363,1057.863362,39875.825033,6793.097471,21400.230694,8676.120183,-122.000000,-850.096008,-464.576019,-5460.000000,17500.000000,12320.000000
10923.364571,16401.575971,7668.861171,-3643.580215,10977.522847,15326.568821,10195.278847,-17871.002003,15590.855848,17538.050418,7899.218249,1040.540760,39868.940695,6786.190782,21386.037336,8676.298997,-128.343994,-850.096008,-447.496002,9660.000000,21280.000000,14000.000000
10955.014641,16453.990812,7701.785290,-3602.564764,11027.858976,15332.670847,10222.279754,-17858.909709,15628.563241,17568.672308,7906.460214,1076.325903,39878.596649,6796.539640,21419.564953,8718.320277,-124.928001,-842.776001,-451.399994,14980.000000,17360.000000,15120.000000
10981.412051,16525.426987,7733.569471,-3543.712621,11096.948218,15344.070237,10267.251464,-17835.887413,15667.365869,17598.713052,7914.931526,1125.276223,39891.739475,6806.016780,21467.665907,8769.751641,-123.464005,-854.976013,-466.040009,12880.000000,17640.000000,14280.000000
10981.054423,16524.711731,7723.287669,-3544.226711,11090.466212,15344.293755,10272.079441,-17857.233328,15679.368756,17589.280616,7918.731322,1128.986612,39891.493606,6801.747596,21473.164436,8765.370699,-137.615997,-865.223999,-461.648010,6020.000000,22400.000000,12320.000000
10953.293556,16455.153102,7685.401462,-3590.181898,11027.367237,15331.352095,10240.317612,-17917.583039,15648.098665,17552.959031,7910.014142,1088.261734,39875.757977,6791.979884,21445.872956,8719.884899,-126.391998,-885.231995,-485.071991,4340.000000,19880.000000,13020.000000
10949.672574,16443.329029,7688.754223,-3600.441349,11021.332266,15329.206327,10231.421617,-17942.795806,15637.302773,17552.981383,7904.225040,1082.718501,39872.964009,6794.393873,21433.914773,8710.653628,-140.544006,-875.960022,-487.024017,-3080.000000,27720.000000,11620.000000
10948.018545,16441.697352,7689.469479,-3602.788282,11022.628668,15328.133443,10225.610164,-17961.660679,15629.211441,17551.886147,7901.073444,1081.355045,39870.482966,6791.018759,21425.935200,8704.283381,-128.832001,-888.648010,-490.928009,-8260.000000,25060.000000,13860.000000
10935.345106,16419.435015,7673.823258,-3615.193500,11005.842508,15323.774853,10212.288524,-17995.255351,15610.860659,17531.434301,7894.390272,1066.155859,39862.570448,6787.084852,21415.742804,8687.854849,-131.272003,-875.960022,-486.536011,-9660.000000,23520.000000,14280.000000
10933.691076,16401.397157,7669.777592,-3634.863035,10992.565571,15315.817632,10190.629684,-18027.330104,15600.802374,17525.958124,7892.468022,1055.091745,39859.195335,6781.765137,21389.367746,8674.130878,-134.199997,-869.616028,-493.368011,-8260.000000,20860.000000,15960.000000
10939.256661,16405.420471,7680.908761,-3637.724058,11004.613162,15313.046016,10188.170992,-18039.064770,15601.092947,17535.077636,7890.813993,1056.701071,39861.743434,6778.859410,21385.478543,8686.625503,-137.128006,-861.320007,-483.119995,-5740.000000,21280.000000,16940.000000
10962.971862,16468.899425,7714.525785,-3583.074043,11072.070726,15322.791376,10235.735504,-18015.953066,15633.435921,17564.917215,7896.826613,1098.252964,39876.450882,6787.665997,21441.492014,8742.951899,-137.615997,-849.119995,-474.824005,0.000000,21280.000000,17500.000000
10967.151638,16496.325016,7719.376113,-3553.793258,11100.099814,15329.362789,10262.825818,-18021.451595,15645.192938,17566.124209,7902.191031,1120.023563,39884.184585,6791.085814,21476.539549,8764.029594,-140.544006,-854.488037,-469.944000,4200.000000,21280.000000,17780.000000
10942.855292,16436.981134,7681.266389,-3593.355846,11040.666525,15320.578554,10229.678181,-18084.930549,15618.773177,17529.601458,7898.860621,1089.222859,39872.472271,6783.553276,21444.733017,8718.208518,-147.863998,-870.104004,-462.623993,6020.000000,22820.000000,17220.000000
10934.942774,16401.911247,7670.962235,-3614.969983,11012.145700,15312.442519,10204.957152,-18128.851727,15603.439880,17519.766691,7893.093871,1072.436699,39863.732739,6783.128593,21419.430842,8691.721701,-135.664001,-869.127991,-467.015991,9520.000000,22400.000000,16240.000000
10937.781446,16390.400099,7670.805773,-3622.971907,11010.536374,15306.496955,10193.602466,-18154.131550,15598.880124,17521.599534,7893.518554,1069.441565,39861.162288,6779.284093,21405.371595,8684.502087,-167.384003,-824.720032,-433.343994,11900.000000,22540.000000,15540.000000
10936.552100,16372.630462,7662.803848,-3633.454875,10996.968865,15301.736033,10185.086451,-18188.597940,15597.069633,17512.547077,7894.412624,1059.673853,39857.720120,6776.132497,21396.162676,8673.125049,-148.352005,-836.432007,-434.320007,23520.000000,6720.000000,20580.000000
10935.546271,16354.637307,7659.518142,-3645.211893,10986.351786,15296.751594,10172.815343,-18227.154699,15593.001615,17506.802679,7893.183278,1053.303606,39855.194373,6776.668939,21381.969319,8662.731488,-155.671997,-847.168030,-445.056000,24220.000000,4480.000000,21140.000000
10941.693001,16355.374915,7665.731927,-3647.514122,10993.325531,15294.158792,10165.998061,-18251.182825,15598.902476,17513.731720,7891.529249,1059.942074,39854.970855,6775.797221,21378.080115,8666.643043,-159.087997,-880.351990,-485.071991,14280.000000,11480.000000,18900.000000
10962.211902,16415.702273,7699.795985,-3599.904907,11057.363279,15302.786565,10201.827908,-18237.727074,15624.517575,17544.130092,7894.479679,1101.248098,39866.258486,6783.262704,21421.531906,8716.465082,-161.040009,-834.479980,-478.239990,-700.000000,19600.000000,14000.000000
10972.516057,16459.511692,7718.571451,-3559.627063,11103.184355,15309.425033,10235.623745,-18233.770816,15642.555433,17555.752999,7901.051092,1133.546368,39874.595687,6787.420128,21463.687296,8752.160818,-139.080002,-861.807983,-499.712006,1960.000000,9520.000000,16380.000000
10952.310080,16420.105567,7689.089500,-3583.096395,11065.365203,15301.914847,10217.384722,-18282.788191,15626.216307,17525.868717,7901.296961,1113.161577,39865.520878,6779.306445,21448.599869,8723.058846,-140.544006,-874.984009,-515.815979,840.000000,14560.000000,16800.000000
10931.433550,16362.326308,7662.490924,-3632.069067,11011.452795,15285.642777,10172.569474,-18348.323506,15600.712967,17500.432432,7894.144403,1077.734062,39853.495640,6770.991596,21401.996482,8673.773250,-135.664001,-879.864014,-513.864014,-2380.000000,28560.000000,13300.000000
10933.266393,16358.168883,7669.084688,-3640.585082,11011.072816,15281.015966,10159.024317,-18377.917216,15596.309673,17500.208914,7890.411662,1073.576638,39852.266294,6769.181105,21387.445496,8662.820895,-133.223999,-882.791992,-518.744019,-1400.000000,29960.000000,11200.000000
10935.680382,16351.396305,7667.900046,-3645.614224,11009.552897,15278.646681,10153.838712,-18406.080414,15594.074499,17496.565580,7889.361130,1070.000359,39849.382919,6766.118916,21382.997499,8655.176598,-134.199997,-873.031982,-520.695984,-420.000000,31640.000000,10500.000000
10926.292649,16326.183537,7658.936996,-3653.996128,11000.411034,15273.751649,10144.763904,-18444.078379,15573.779115,17481.925187,7884.667264,1058.310396,39843.347948,6765.202494,21377.387211,8644.313651,-126.391998,-873.031982,-516.304016,-1960.000000,30660.000000,11060.000000
10925.845614,16323.166051,7663.832028,-3652.811486,11006.401301,15272.656414,10140.673535,-18471.839246,15568.817028,17480.271158,7882.432089,1060.880847,39842.051547,6769.449326,21374.615595,8650.482732,-126.880005,-872.056030,-501.664001,-1540.000000,29120.000000,10780.000000
10932.707600,16351.686877,7685.557924,-3635.220663,11045.516854,15276.657376,10154.196340,-18468.106504,15577.243635,17500.320673,7880.979226,1081.824432,39848.108870,6773.606750,21385.344432,8685.373805,-135.664001,-859.856018,-494.343994,6160.000000,29680.000000,10920.000000
10941.245966,16399.296093,7707.552041,-3604.263497,11091.561448,15283.809934,10182.605408,-18454.583699,15599.550676,17518.783214,7883.817897,1110.702885,39856.244905,6775.663111,21408.254970,8726.098684,-137.615997,-839.848022,-471.895996,11480.000000,28840.000000,11760.000000
10942.117684,16402.023006,7696.219706,-3605.291677,11077.837476,15279.049013,10178.403280,-18485.719679,15613.654627,17510.378958,7891.395139,1112.759246,39853.920323,6769.203457,21407.137383,8717.359152,-135.664001,-835.455994,-461.160004,18620.000000,23240.000000,13020.000000
10923.766902,16340.309839,7662.714441,-3647.894102,11013.464452,15265.637966,10139.667706,-18551.791436,15590.766441,17480.897007,7888.981150,1080.215106,39841.157477,6763.190837,21376.046106,8671.493372,-149.328003,-825.695984,-450.912018,22960.000000,22400.000000,13300.000000
10922.716370,16320.752063,7660.971005,-3658.578236,11005.328417,15260.385306,10127.664820,-18583.486209,15583.055089,17479.913530,7885.762499,1071.699091,39835.144858,6763.816686,21370.592281,8661.390383,-140.056000,-851.559998,-448.472015,25200.000000,19600.000000,15260.000000
10931.187681,16327.368179,7667.028328,-3651.202160,11018.538298,15260.541768,10126.435474,-18603.468669,15588.240694,17481.724022,7885.538982,1078.315208,39835.413079,6766.454192,21370.055839,8659.535189,-133.712006,-873.031982,-470.432007,19600.000000,20580.000000,14140.000000
10910.244097,16293.594693,7651.091534,-3669.284722,10999.539316,15255.244405,10109.872831,-18639.365570,15556.411809,17456.690068,7876.486525,1057.930417,39826.315919,6761.916788,21353.828472,8638.032810,-152.744003,-850.096008,-475.312012,10220.000000,27860.000000,12180.000000
10890.552210,16257.966013,7642.039078,-3693.424606,10983.267246,15247.890681,10093.421947,-18669.227501,15527.555707,17438.182823,7868.842229,1033.522312,39817.375221,6752.640814,21340.484481,8625.895813,-149.815994,-843.752014,-471.408020,4620.000000,24640.000000,14700.000000
10904.745567,16280.295405,7661.753316,-3685.087405,11006.848336,15248.382419,10094.025444,-18680.716298,15541.704362,17455.483074,7870.630368,1049.369699,39822.292605,6754.384250,21344.798368,8638.703363,-146.400009,-853.512024,-480.192017,6300.000000,19600.000000,17500.000000
10920.145919,16342.790883,7692.554020,-3630.973832,11079.267988,15261.122913,10143.869834,-18654.229481,15561.128028,17482.953368,7873.871371,1090.876888,39837.312977,6765.940102,21404.321063,8693.442785,-142.984009,-859.367981,-483.119995,7280.000000,19600.000000,19460.000000
10925.845614,16364.852055,7700.019503,-3610.343171,11102.759672,15264.296861,10166.936835,-18659.705658,15576.170752,17485.881446,7878.900514,1108.378304,39842.275064,6768.465849,21430.427901,8710.765387,-148.352005,-845.216003,-483.608002,7140.000000,21280.000000,20440.000000
10915.832033,16316.594638,7671.208104,-3651.805657,11045.539206,15252.405733,10128.268317,-18723.855165,15567.565330,17456.175978,7880.085156,1084.171365,39831.725041,6758.854599,21393.033432,8660.898645,-149.328003,-855.952026,-472.384003,8120.000000,23240.000000,21560.000000
10906.936038,16270.818266,7655.763049,-3686.316751,11012.436272,15242.012172,10096.193563,-18770.167979,15548.052257,17442.362600,7875.614807,1059.986777,39824.952462,6752.260834,21363.573833,8627.013400,-151.279999,-853.023987,-466.528015,12740.000000,25060.000000,22120.000000
10916.055550,16259.530635,7653.304357,-3704.444016,11003.719092,15233.786730,10072.321900,-18798.979378,15558.110542,17443.010800,7875.324234,1053.594178,39823.499599,6741.263776,21338.964562,8609.064950,-150.304001,-856.928040,-466.040009,15960.000000,22820.000000,22960.000000
10917.486062,16249.181777,7648.185807,-3717.184510,10992.878496,15229.294029,10056.049830,-18833.781044,15557.685859,17432.125501,7874.184295,1050.375527,39821.443238,6738.536863,21322.804251,8589.842449,-152.255997,-854.976013,-459.208008,17640.000000,22540.000000,23520.000000
10904.477346,16226.628867,7640.697973,-3725.409952,10985.681234,15226.120082,10049.031383,-18863.799437,15538.239841,17418.178012,7869.132801,1040.406649,39817.531683,6741.196721,21320.390263,8580.655882,-142.007996,-884.255981,-457.256012,19460.000000,22960.000000,23520.000000
10907.919515,16233.557908,7647.716421,-3718.995001,10997.751176,15226.321247,10049.411362,-18882.843123,15542.151397,17422.469547,7867.344662,1050.040251,39819.722154,6744.728296,21320.770242,8590.825926,-155.184006,-874.984009,-462.623993,19180.000000,25200.000000,21140.000000
10923.029294,16287.090336,7684.730909,-3681.354664,11055.150456,15233.384399,10078.692148,-18870.415553,15559.831626,17451.638574,7870.295092,1089.155804,39831.054489,6752.886683,21349.134606,8635.216491,-149.815994,-887.671997,-473.847992,16520.000000,22260.000000,21140.000000
10917.351951,16319.545069,7703.439320,-3646.620053,11097.775233,15242.235689,10112.331523,-18861.273689,15560.010440,17457.248861,7870.362147,1118.123665,39837.782364,6758.139343,21385.836170,8671.158096,-151.279999,-873.520020,-478.727997,11900.000000,23940.000000,20020.000000
10874.637768,16272.248777,7672.660967,-3662.333329,11066.102811,15238.860576,10104.508412,-18903.138507,15515.932800,17415.607562,7862.673147,1095.861327,39827.925244,6753.825456,21382.237540,8648.359316,-154.208008,-886.208008,-483.119995,7700.000000,28000.000000,18060.000000
10847.927433,16198.644483,7641.748505,-3719.397333,11003.607333,15224.175480,10059.022612,-18968.025621,15480.013547,17384.270416,7854.917092,1054.801173,39813.620128,6742.023735,21332.013170,8599.453700,-150.792007,-879.376038,-473.360016,4620.000000,24780.000000,18060.000000
10859.997375,16182.126544,7642.664926,-3741.927891,10990.553914,15216.262962,10042.482322,-18999.251008,15489.982425,17388.830172,7855.945272,1044.117039,39810.379125,6734.178273,21313.170649,8585.349749,-153.231995,-880.840027,-471.408020,6720.000000,22120.000000,18200.000000
10882.416175,16187.468611,7642.575519,-3749.035746,10985.882400,15213.290180,10030.747656,-19029.202346,15518.704417,17394.105183,7860.683842,1045.882827,39810.222663,6728.523282,21303.291178,8573.302159,-148.839996,-885.231995,-464.088013,8820.000000,20020.000000,18340.000000
10880.784497,16176.404497,7637.680487,-3747.962862,10976.874647,15212.373759,10025.964382,-19062.640555,15511.350693,17384.717451,7857.152266,1041.233664,39807.272232,6731.272546,21307.515658,8562.573321,-156.160004,-874.007996,-461.648010,9800.000000,20300.000000,17360.000000
10869.563922,16165.206273,7639.692144,-3749.460429,10977.411089,15211.680855,10023.103359,-19089.216779,15493.134021,17378.950701,7850.737316,1036.964481,39805.707610,6733.910052,21308.767356,8564.540275,-152.744003,-885.720032,-462.623993,10500.000000,18480.000000,17080.000000
10890.462803,16199.538553,7669.218799,-3738.552778,11012.682141,15214.608933,10029.495958,-19093.776535,15516.782167,17408.253838,7856.347603,1061.126716,39815.184750,6735.474674,21308.275617,8591.384720,-159.087997,-885.231995,-458.720001,8820.000000,18760.000000,16100.000000
10919.341257,16267.577263,7704.735721,-3695.168042,11070.997843,15225.158957,10059.827275,-19082.935939,15557.596452,17439.456873,7865.623577,1107.841862,39829.601625,6740.012078,21338.338713,8634.411828,-163.479996,-883.280029,-455.791992,10500.000000,19740.000000,14700.000000
10895.603704,16269.991251,7698.186660,-3676.392576,11082.061956,15233.585564,10073.171267,-19102.069032,15536.898737,17415.674617,7862.248464,1117.520168,39834.139029,6745.242386,21356.957717,8640.267985,-160.063995,-907.679993,-457.256012,12460.000000,18480.000000,14280.000000
10846.809846,16174.214026,7647.850531,-3740.318565,11009.485842,15219.727483,10024.891499,-19167.112609,15475.699660,17364.645584,7852.301938,1062.467821,39814.894177,6729.640869,21314.310588,8588.344883,-163.479996,-894.992004,-465.552002,10780.000000,17920.000000,13300.000000
10841.668945,16155.259747,7641.904967,-3749.751002,11002.534449,15214.743044,10019.460025,-19194.381737,15465.708430,17359.683497,7846.669298,1052.901274,39810.312070,6729.350296,21318.445661,8583.539257,-166.895996,-882.304016,-461.648010,8120.000000,16380.000000,13580.000000
10844.373506,16156.466741,7638.440447,-3749.192208,11007.205964,15212.999608,10021.717551,-19211.927856,15468.860026,17356.755418,7842.690688,1052.834219,39809.641517,6726.668087,21323.295989,8584.723900,-165.432007,-901.335999,-462.623993,9380.000000,16380.000000,14280.000000
10842.339497,16129.667000,7623.174205,-3781.222258,10980.585036,15206.763471,9993.755519,-19247.847110,15465.194340,17342.472654,7838.376801,1035.981004,39802.712477,6717.034485,21289.433097,8560.695775,-161.528000,-909.143982,-465.063995,9380.000000,17780.000000,13720.000000
10841.981869,16133.735017,7633.724229,-3776.014301,10985.591827,15208.551611,9987.877010,-19273.171636,15462.758000,17340.170424,7835.985164,1045.905178,39804.791189,6723.494139,21286.527370,8558.840580,-165.919998,-902.312012,-461.648010,9940.000000,19600.000000,12740.000000
10832.504729,16126.291886,7644.162493,-3786.474918,10997.728824,15208.059872,9983.250199,-19281.486485,15450.106913,17345.065456,7832.699458,1043.602949,39804.679430,6721.683648,21279.397163,8574.643263,-174.216003,-895.968018,-450.424011,11200.000000,19600.000000,12460.000000
10843.144160,16160.110075,7665.709575,-3765.240760,11041.270023,15212.194945,10014.520289,-19257.994802,15469.508227,17369.697078,7834.979336,1059.629149,39810.714401,6718.017962,21315.294065,8622.699514,-171.287994,-900.359985,-455.791992,12600.000000,16240.000000,14000.000000
10862.903102,16217.174079,7681.042872,-3712.602402,11082.352529,15221.292105,10051.646537,-19258.955927,15504.131079,17383.421050,7842.198949,1098.834109,39822.963157,6726.399866,21366.636022,8652.673203,-172.751999,-900.848022,-453.839996,9660.000000,15120.000000,14700.000000
10826.805034,16157.003183,7644.497769,-3744.677156,11029.244784,15216.441776,10024.824443,-19313.360073,15461.394544,17340.170424,7834.688763,1069.508620,39814.760067,6721.795407,21341.199737,8616.597488,-172.264008,-900.848022,-455.791992,8960.000000,14700.000000,14700.000000
10833.532910,16106.599999,7627.890423,-3793.180441,10984.340129,15202.650750,9982.132612,-19357.370658,15464.792009,17338.628154,7836.163978,1042.239492,39809.865035,6708.362008,21295.199847,8578.443060,-164.456009,-905.728027,-461.160004,7140.000000,16520.000000,14140.000000
10864.914759,16128.303543,7639.803903,-3794.946229,10990.352749,15200.437927,9966.642853,-19376.771972,15501.471222,17357.917709,7843.294185,1057.349271,39817.196407,6705.053950,21281.386469,8569.301196,-167.384003,-905.728027,-463.600006,6860.000000,20580.000000,12180.000000
10843.233567,16114.668979,7630.147949,-3795.639133,10989.548086,15201.823735,9963.714774,-19396.262693,15468.345936,17335.096578,7834.085266,1049.079126,39813.329555,6705.880965,21285.812114,8567.401298,-169.824005,-895.479980,-467.503998,5320.000000,23800.000000,10780.000000
10836.952726,16085.857580,7619.173243,-3825.031677,10965.452905,15195.297026,9931.371800,-19431.310228,15460.031087,17326.714674,7831.179539,1031.175379,39807.004012,6698.326075,21248.529404,8550.123400,-168.360001,-883.280029,-466.040009,4760.000000,23520.000000,10080.000000
10851.190788,16089.746784,7624.001220,-3838.398020,10963.105972,15191.608988,9911.143471,-19453.684324,15480.281768,17336.325924,7835.046391,1035.913949,39806.311107,6694.347464,21225.171831,8550.749248,-170.800003,-874.496033,-456.279999,4480.000000,22540.000000,10500.000000
10860.802038,16154.209215,7660.143991,-3782.406900,11036.397342,15204.148317,9957.657451,-19422.704807,15489.624797,17359.482331,7833.749990,1081.287990,39818.761029,6709.747816,21278.503094,8609.735502,-170.311996,-885.231995,-453.839996,5880.000000,19880.000000,11200.000000
10839.456122,16188.161515,7676.192543,-3731.422571,11092.254352,15217.805233,10012.709798,-19391.837048,15464.568492,17355.459017,7826.195100,1106.076074,39828.260520,6720.364895,21343.256097,8661.055107,-169.335999,-886.208008,-458.231995,7140.000000,19040.000000,11060.000000
10818.467834,16143.323915,7646.911758,-3754.690737,11052.401191,15213.156070,10003.076196,-19424.358836,15445.345991,17328.882793,7826.977411,1079.432795,39821.622052,6710.463072,21339.836280,8640.044467,-168.848007,-891.575989,-462.623993,6300.000000,20440.000000,10640.000000
10827.475587,16092.876028,7621.676638,-3807.016171,10992.163240,15200.102651,9954.729373,-19483.702717,15460.344012,17323.831299,7831.559519,1047.626263,39812.748410,6699.153089,21293.992852,8590.043615,-172.264008,-879.864014,-461.160004,4900.000000,19880.000000,10500.000000
10844.932299,16109.550430,7632.785455,-3794.990932,11005.797804,15201.421404,9956.852789,-19500.958264,15480.885265,17334.962468,7831.917147,1058.980949,39815.765895,6703.578735,21300.050175,8589.015435,-166.408005,-883.280029,-458.231995,5600.000000,18480.000000,11060.000000
10829.800168,16100.006235,7632.696048,-3792.375778,11010.379912,15207.165802,9960.071440,-19510.837735,15459.941680,17321.327903,7823.043504,1057.371623,39814.603605,6705.679799,21300.251341,8590.848278,-167.872009,-882.304016,-453.839996,6580.000000,19040.000000,10780.000000
10825.374523,16063.550539,7619.530871,-3828.227976,10979.266283,15201.331997,9929.226032,-19542.398398,15451.313907,17309.012092,7820.897737,1038.149123,39808.143950,6695.822679,21262.946279,8567.557760,-166.895996,-883.768005,-454.328003,9100.000000,17360.000000,10360.000000
10843.814712,16071.150133,7627.197519,-3831.021944,10980.115650,15199.655616,9918.720713,-19563.029058,15473.062154,17317.908087,7822.976449,1043.692356,39810.401477,6696.694398,21256.397218,8568.675347,-169.335999,-874.496033,-455.791992,8820.000000,18200.000000,9520.000000
10844.641727,16105.840040,7652.075011,-3801.919973,11028.529528,15206.674064,9940.804236,-19548.701590,15467.340108,17333.084921,7818.662562,1068.033405,39819.252767,6707.445587,21281.811152,8610.696627,-169.824005,-873.520020,-460.671997,7840.000000,18480.000000,8960.000000
10849.112075,16152.264613,7674.672624,-3766.872438,11082.687805,15216.285314,9975.829420,-19519.465508,15472.771582,17352.083904,7819.802501,1099.974048,39828.774611,6711.580659,21311.360158,8657.434125,-174.216003,-864.247986,-454.816010,5320.000000,19320.000000,8820.000000
10839.590232,16132.572726,7659.138162,-3776.327226,11066.058107,15212.262000,9976.835248,-19533.792977,15471.117553,17338.561098,7821.568289,1089.312266,39823.723116,6700.561249,21315.025844,8650.952119,-172.751999,-860.343994,-456.279999,6440.000000,16100.000000,9240.000000
10828.950802,16078.749726,7630.729095,-3811.508871,11007.228316,15202.829564,9943.799370,-19592.354547,15462.400372,17312.096633,7820.048370,1060.992606,39815.005936,6692.961656,21287.913178,8601.867688,-165.919998,-875.960022,-462.623993,7420.000000,14140.000000,9520.000000
10816.187956,16062.477656,7630.058542,-3812.559403,11006.513060,15203.969503,9941.228919,-19615.868582,15437.411122,17304.988778,7809.990085,1055.248207,39812.949576,6697.275543,21285.655652,8591.675292,-166.408005,-881.816040,-471.895996,8260.000000,15400.000000,8680.000000
10812.522270,16051.748818,7630.684391,-3823.578814,11009.664656,15201.734328,9933.048181,-19634.979324,15426.101139,17302.641845,7806.816138,1052.297777,39809.999145,6692.805194,21270.344707,8580.164144,-162.016006,-890.600037,-468.480011,7140.000000,16380.000000,7840.000000
10806.196726,16008.319379,7613.250031,-3866.516515,10975.064155,15190.379642,9907.187212,-19667.635222,15419.149747,17287.912045,7805.340923,1024.559262,39800.700820,6677.650711,21238.694637,8555.420763,-167.872009,-886.208008,-477.264008,6720.000000,15260.000000,7140.000000
10828.280250,16015.695455,7617.698028,-3867.499991,10970.973786,15187.630378,9901.286352,-19689.629339,15444.854253,17294.908141,7811.040617,1031.845931,39804.970003,6680.243514,21234.179584,8550.570434,-163.479996,-878.400024,-476.776001,7140.000000,12880.000000,7140.000000
10840.350192,16041.712885,7636.361734,-3853.708965,10999.494612,15190.983139,9906.606067,-19691.193961,15455.069000,17310.040272,7813.052274,1048.922664,39811.899044,6684.825621,21236.682980,8569.882342,-165.919998,-857.903992,-473.847992,7420.000000,11200.000000,7700.000000
10855.325860,16096.228790,7666.424831,-3817.186215,11057.899720,15200.147355,9942.726486,-19662.069638,15474.962053,17337.756436,7818.483748,1080.393920,39822.225549,6688.580714,21269.964727,8620.710209,-157.624008,-874.496033,-474.824005,9800.000000,9660.000000,8960.000000
10855.817599,16127.342418,7674.203238,-3782.429252,11086.554657,15208.931590,9976.678786,-19653.732437,15481.667576,17341.690343,7821.121254,1104.354990,39827.120582,6693.945133,21309.728481,8650.192159,-159.087997,-873.520020,-476.776001,9240.000000,10080.000000,8400.000000
10799.871182,16068.423220,7635.087685,-3800.578868,11043.035810,15205.802346,9964.877065,-19696.670138,15413.517107,17288.627301,7805.855013,1075.588295,39814.424791,6692.134642,21304.207600,8624.375895,-161.528000,-868.152039,-479.216003,8400.000000,12320.000000,7280.000000
10754.452438,15998.797536,7610.321952,-3848.545712,11003.383816,15198.470974,9934.545748,-19731.851784,15349.546415,17257.513673,7790.722882,1035.757486,39802.131331,6683.551572,21268.489512,8601.800633,-162.016006,-867.664001,-471.408020,10220.000000,14560.000000,5880.000000
10788.360034,15988.560437,7616.289868,-3890.477585,10985.502420,15191.318416,9898.358273,-19756.863386,15392.618226,17279.999528,7801.563478,1029.677812,39804.344154,6668.955883,21221.260276,8582.086394,-160.063995,-860.832031,-461.160004,13860.000000,11480.000000,6440.000000
10832.996468,16010.666312,7623.822406,-3896.199631,10978.327510,15189.217352,9880.745099,-19783.238445,15450.755113,17298.260903,7813.812234,1040.585463,39807.294584,6665.469011,21207.178677,8563.914426,-164.456009,-854.000000,-470.432007,19880.000000,7700.000000,8260.000000
10829.733113,16004.094899,7622.011914,-3888.756500,10978.327510,15190.491401,9885.170744,-19796.917712,15444.071942,17289.566075,7809.900678,1037.679736,39804.634727,6670.341691,21224.970666,8565.099068,-146.400009,-873.520020,-466.528015,18060.000000,5880.000000,8960.000000
10821.172395,15999.244571,7624.984697,-3879.435823,10989.190458,15192.301892,9888.747023,-19806.148983,15432.225517,17286.861513,7804.446853,1040.138428,39804.791189,6675.393185,21240.147500,8577.906618,-165.432007,-876.447998,-471.895996,15260.000000,12180.000000,6440.000000
10838.897328,16057.247348,7658.154685,-3833.860616,11051.685935,15202.963674,9925.694457,-19779.818628,15454.644317,17316.119947,7805.855013,1080.080996,39818.559863,6687.664293,21281.542931,8624.554709,-158.600006,-869.127991,-473.360016,13160.000000,14700.000000,4760.000000
10836.505692,16105.348302,7680.260561,-3788.441871,11105.955971,15215.704169,9969.950911,-19756.282241,15457.527692,17323.876002,7806.771434,1112.803949,39826.986471,6697.320246,21328.436891,8664.832552,-159.576004,-865.712036,-468.480011,12600.000000,12460.000000,5040.000000
10811.941124,16067.752667,7651.627976,-3819.220223,11067.890950,15211.256172,9949.901396,-19791.866218,15437.880509,17296.986854,7805.810309,1090.183984,39816.458799,6687.507831,21304.654635,8636.199967,-150.792007,-865.223999,-467.992004,13160.000000,8260.000000,6160.000000
10807.426072,16016.209545,7626.325801,-3867.276474,11011.117519,15199.074471,9903.901506,-19848.170262,15434.795968,17283.262883,7805.050350,1058.109231,39806.065238,6677.740118,21263.303907,8586.266170,-151.768005,-865.223999,-465.552002,14280.000000,7840.000000,7000.000000
10816.143252,16024.122062,7635.110037,-3859.408660,11024.059179,15201.935494,9903.990913,-19861.000164,15442.015581,17289.230798,7804.648018,1064.412423,39807.383991,6682.925723,21271.752867,8587.495516,-148.839996,-868.640015,-460.671997,16940.000000,7420.000000,7700.000000
10804.810918,16012.566210,7631.757275,-3873.825535,11019.141796,15200.415576,9889.596389,-19877.316937,15427.263430,17279.843066,7798.501289,1058.109231,39802.153683,6676.287255,21254.072637,8578.800688,-149.815994,-870.104004,-455.791992,19460.000000,7980.000000,7980.000000
10777.586493,15968.756791,7609.360827,-3904.268611,10988.944589,15191.273712,9869.479819,-19904.250789,15393.109965,17255.390257,7786.140774,1030.080143,39789.614354,6665.804287,21243.164986,8562.930949,-149.815994,-868.640015,-454.816010,20720.000000,7560.000000,7980.000000
10781.207476,15969.896730,7614.188804,-3898.971248,10994.018435,15193.553590,9872.162029,-19920.098176,15395.769822,17254.786760,7784.263227,1033.835236,39790.620183,6672.688624,21255.324335,8574.509153,-149.815994,-871.080017,-452.864014,21140.000000,7000.000000,8120.000000
10798.015988,16011.158050,7642.352002,-3875.323102,11033.983354,15200.393224,9888.232933,-19911.716272,15412.757148,17280.468915,7785.179649,1062.736042,39800.745523,6679.774127,21275.262091,8611.367179,-149.328003,-873.031982,-459.696014,20440.000000,7000.000000,7980.000000
10802.888668,16073.720583,7671.878656,-3822.505930,11098.311674,15213.446643,9934.433989,-19880.580292,15421.004942,17298.640883,7786.856030,1101.829243,39814.178921,6687.887810,21328.727463,8665.234883,-145.912003,-871.080017,-454.328003,18060.000000,7140.000000,8400.000000
10784.292017,16063.394077,7653.550226,-3827.535072,11089.795660,15211.882020,9938.703172,-19891.957330,15411.393691,17279.798362,7786.833678,1093.447339,39808.345116,6678.947112,21335.209469,8663.133819,-147.376007,-872.056030,-458.720001,17640.000000,5880.000000,9100.000000
10774.479601,16005.279542,7618.122711,-3879.905210,11023.880365,15201.041424,9890.535163,-19950.630659,15407.683302,17255.233795,7788.398300,1060.791440,39796.990430,6667.503019,21292.137658,8610.115482,-145.423996,-863.272034,-456.768005,17500.000000,4620.000000,9660.000000
10786.750708,15989.946245,7619.106188,-3903.508652,11007.250667,15196.794593,9864.227160,-19983.063040,15417.853346,17265.180321,7792.600428,1055.963463,39797.571575,6662.697394,21264.779122,8588.568400,-143.960007,-869.616028,-457.744019,16800.000000,3780.000000,10780.000000
10801.100528,15992.360233,7623.732999,-3917.053809,11008.122386,15193.955921,9850.726706,-20000.206828,15433.521918,17273.629281,7797.093129,1059.472687,39799.918509,6657.444734,21241.957991,8578.554818,-146.888000,-862.783997,-456.279999,16240.000000,4060.000000,11060.000000
10790.259932,15972.020146,7613.741769,-3932.498864,10992.274999,15190.223180,9841.316621,-20022.826794,15420.915535,17255.278499,7791.527544,1044.675832,39793.570613,6653.332013,21233.173756,8566.618987,-147.863998,-862.783997,-450.424011,16100.000000,3500.000000,11760.000000
10774.546656,15956.888015,7610.858394,-3935.449295,10989.905714,15191.229009,9840.690773,-20038.405959,15400.173116,17240.928679,7783.190344,1035.846893,39790.843700,6658.159990,21239.186375,8570.239970,-147.376007,-861.807983,-449.936005,15120.000000,3640.000000,12320.000000
10760.889740,15957.983250,7619.285002,-3921.032419,11013.665618,15195.140564,9855.621738,-20037.109558,15380.056546,17240.124016,7773.892018,1039.266710,39789.882575,6664.865513,21260.331125,8598.134947,-146.888000,-869.127991,-446.032013,15120.000000,3780.000000,12320.000000
10787.577723,16017.796519,7651.225644,-3888.689445,11069.746145,15202.628398,9884.634302,-20009.080471,15419.552078,17275.216255,7780.150507,1075.454184,39800.901985,6667.637130,21289.723669,8645.498293,-146.888000,-878.400024,-449.447998,15400.000000,4200.000000,12180.000000
10806.464947,16053.559310,7660.300453,-3873.825535,11091.069709,15207.925762,9901.487518,-20003.716052,15454.510207,17287.509714,7790.141736,1096.151900,39806.825198,6663.904388,21311.807193,8660.183389,-148.352005,-884.744019,-445.056000,16100.000000,4760.000000,11900.000000
10789.432918,16014.868440,7631.801979,-3892.690407,11046.477979,15205.355311,9886.020110,-20048.643058,15440.450959,17255.077333,7789.247667,1077.331731,39798.599756,6661.512752,21308.387376,8627.661601,-148.839996,-880.840027,-444.080017,17500.000000,3640.000000,12320.000000
10776.334796,15973.025974,7617.407455,-3923.513463,11010.670484,15198.448622,9857.164008,-20086.506913,15416.735758,17242.314487,7784.687911,1055.941112,39790.329610,6657.087106,21280.335937,8596.972656,-147.376007,-875.960022,-440.664001,18620.000000,2380.000000,13020.000000
10781.498048,15975.864646,7624.112978,-3925.323954,11016.839566,15197.308683,9853.006584,-20095.916998,15416.780462,17245.980173,7784.464393,1059.651501,39789.144968,6656.371851,21272.758695,8590.289484,-151.279999,-876.447998,-440.664001,19320.000000,1540.000000,13440.000000
10769.428106,15959.681983,7612.713589,-3938.355021,11008.927048,15194.090032,9843.037706,-20112.323178,15397.915590,17229.864565,7778.563533,1048.252111,39781.925354,6651.633281,21263.750942,8577.906618,-147.863998,-875.960022,-443.592010,18340.000000,1120.000000,13580.000000
10760.442705,15939.006619,7603.594077,-3957.130487,10994.733691,15191.273712,9830.163101,-20133.490280,15384.169267,17218.129899,7772.282692,1033.857588,39776.292715,6648.816961,21255.234928,8568.407126,-149.328003,-869.616028,-440.664001,17780.000000,560.000000,13440.000000
10766.432973,15938.872509,7609.561993,-3962.494905,10998.913467,15191.608988,9824.798682,-20142.989772,15390.472459,17223.091987,7770.315739,1036.472742,39778.483186,6648.258167,21254.340858,8576.945493,-151.279999,-863.272034,-445.544006,17500.000000,0.000000,13440.000000
10795.601999,15995.936512,7642.843740,-3924.161664,11057.452686,15200.952017,9858.907444,-20113.977207,15425.743511,17259.502978,7776.864800,1073.084900,39793.056523,6658.808191,21293.299948,8627.862767,-150.792007,-856.928040,-438.223999,17640.000000,-560.000000,13860.000000
10810.644723,16054.006345,7665.664871,-3880.575762,11107.922925,15213.111366,9896.547782,-20092.072498,15453.392619,17279.641900,7786.073719,1108.400656,39806.132293,6666.720708,21332.974295,8668.431183,-156.160004,-847.656006,-429.440002,19040.000000,-2380.000000,14420.000000
10778.614673,16024.390283,7638.060467,-3899.284172,11076.049337,15210.764433,9887.003587,-20122.269705,15423.888317,17244.996696,7781.692777,1090.049874,39796.744561,6659.657557,21325.441757,8648.627537,-157.624008,-839.848022,-422.608002,22260.000000,-5880.000000,15820.000000
10746.226996,15961.224253,7608.466757,-3939.874940,11023.433330,15203.388358,9856.091125,-20171.465894,15381.688223,17213.614847,7772.774431,1053.147144,39783.847604,6652.974385,21296.898579,8609.444929,-148.839996,-857.903992,-435.295990,24220.000000,-7140.000000,16380.000000
10757.022888,15950.450712,7610.523118,-3957.733984,11017.554822,15198.985064,9837.136845,-20189.816676,15389.444278,17224.746016,7775.031957,1044.228797,39784.495805,6646.626490,21274.569187,8598.112595,-146.400009,-888.648010,-445.544006,21560.000000,-3220.000000,14560.000000
10762.722583,15955.144579,7612.713589,-3957.935149,11020.818176,15198.381567,9832.532386,-20199.338519,15394.875752,17225.125995,7773.176762,1043.893521,39784.629915,6644.815999,21268.668326,8592.256438,-154.208008,-873.031982,-443.104004,18340.000000,700.000000,12880.000000
10739.163844,15928.724817,7598.564935,-3972.553190,11005.686045,15196.951055,9825.044551,-20216.705825,15366.690203,17201.254332,7764.169009,1027.152065,39775.890383,6642.111438,21262.096913,8582.041691,-152.744003,-881.328003,-447.984009,18340.000000,-1540.000000,13720.000000
10736.369876,15911.893953,7592.261743,-3993.250906,10992.498516,15194.514715,9808.817185,-20234.967200,15362.711592,17196.359300,7760.883303,1017.339649,39771.665904,6637.797551,21245.556622,8576.856086,-149.815994,-896.944031,-461.160004,18900.000000,-4060.000000,14980.000000
10755.905301,15956.776256,7616.938069,-3967.591103,11032.061104,15200.884962,9825.469235,-20219.052758,15385.376261,17222.600248,7763.878437,1043.848818,39779.645476,6643.787818,21265.293213,8609.757854,-148.839996,-890.112000,-470.432007,17220.000000,-1260.000000,14420.000000
10775.172505,16025.262001,7645.593005,-3919.758370,11092.299055,15211.993779,9865.724726,-20189.324938,15415.461709,17249.310583,7771.053347,1084.573696,39792.028343,6649.487513,21308.052100,8657.523532,-154.695999,-881.816040,-469.944000,16100.000000,1680.000000,14140.000000
10764.823647,16034.292106,7637.054639,-3909.253050,11093.148421,15212.239648,9877.258227,-20200.634921,15410.812546,17238.849966,7773.847315,1088.932286,39794.017648,6645.128923,21323.519507,8659.222264,-148.839996,-894.992004,-473.847992,17080.000000,1260.000000,15120.000000
10739.074438,15974.411783,7598.609638,-3950.804943,11031.010572,15201.644921,9838.992040,-20258.592994,15379.631863,17203.333044,7769.064041,1052.901274,39782.998238,6634.042458,21292.048251,8607.612086,-148.839996,-883.768005,-478.239990,16100.000000,2940.000000,14840.000000
10753.491313,15965.918120,7598.497879,-3967.769917,11017.599525,15197.912180,9817.154386,-20285.772715,15389.824258,17212.139632,7771.969768,1049.012071,39782.662962,6630.376772,21273.116323,8586.132060,-151.279999,-882.304016,-474.824005,17220.000000,4760.000000,14980.000000
10770.322176,15978.680966,7608.019722,-3971.547362,11020.125272,15200.884962,9812.482871,-20293.819343,15408.085633,17223.337856,7774.473163,1055.941112,39783.042941,6630.063847,21267.662497,8584.947417,-152.744003,-879.864014,-472.872009,19880.000000,4900.000000,15260.000000
10764.622481,15958.787913,7595.189821,-3989.562868,10995.784223,15197.912180,9795.964932,-20318.585076,15400.106061,17208.183373,7768.639358,1042.686527,39774.169299,6625.437036,21255.972535,8568.161257,-155.671997,-877.911987,-464.576019,23800.000000,5460.000000,15680.000000
10765.784772,15959.614928,7597.670865,-3983.572600,11003.406167,15199.297988,9797.864830,-20324.284771,15396.686244,17207.177544,7762.827905,1042.999452,39772.470566,6626.822844,21266.611965,8579.739461,-158.600006,-881.328003,-459.208008,26880.000000,6300.000000,15960.000000
10762.856694,15968.421515,7605.985714,-3969.759222,11023.656848,15202.561343,9810.471214,-20324.642399,15388.930188,17207.758690,7757.888169,1048.430925,39775.800976,6630.644993,21289.768373,8605.041636,-162.016006,-866.200012,-458.231995,28420.000000,5320.000000,16100.000000
10781.207476,16030.112330,7638.529854,-3924.049905,11087.694596,15213.580753,9852.872473,-20294.288730,15411.058415,17235.385446,7759.966881,1085.914801,39791.849529,6640.189188,21336.639981,8656.897683,-168.848007,-862.296021,-457.256012,29680.000000,4060.000000,16940.000000
10780.134592,16052.329964,7640.139179,-3910.482396,11106.403006,15217.402901,9868.250474,-20287.426744,15417.138090,17236.279516,7762.514980,1099.169385,39794.464683,6637.126999,21354.029638,8673.214456,-174.703995,-858.392029,-456.768005,29540.000000,2660.000000,17780.000000
10756.486446,15991.712033,7601.470661,-3962.003167,11039.973621,15206.025863,9826.810339,-20336.935858,15394.875752,17200.829649,7760.503323,1062.043138,39779.310200,6621.056094,21312.723614,8625.068799,-176.656006,-859.856018,-460.671997,28420.000000,1120.000000,18900.000000
10756.397039,15961.715992,7592.395853,-3988.691150,11009.508194,15200.125003,9801.329351,-20369.301184,15389.421927,17194.213533,7757.798762,1043.558245,39771.934124,6618.195071,21289.611911,8596.883249,-171.287994,-862.783997,-449.447998,27300.000000,1680.000000,19040.000000
10764.466019,15974.590597,7603.236449,-3977.738795,11026.339057,15203.120137,9810.314752,-20370.262309,15392.752337,17199.086213,7756.144733,1048.833257,39773.364636,6623.000696,21301.972425,8604.192269,-167.872009,-877.911987,-448.959991,27300.000000,840.000000,19180.000000
10756.888778,15969.561454,7598.319065,-3980.644522,11021.645191,15203.321302,9807.520784,-20380.186484,15383.476363,17187.686823,7751.160294,1042.060678,39770.369502,6620.989039,21300.854838,8599.632513,-166.895996,-888.160034,-455.791992,27440.000000,1820.000000,18480.000000
10754.094810,15954.965765,7591.792356,-3996.089577,11002.780319,15200.661445,9794.042682,-20399.878371,15375.250921,17181.070707,7749.841541,1032.941167,39766.726168,6617.949202,21291.020070,8588.434290,-163.479996,-897.919983,-449.936005,27020.000000,3920.000000,17220.000000
10757.984013,15961.939509,7596.642685,-3994.368493,11008.301199,15203.120137,9796.523726,-20403.812278,15377.284929,17186.569236,7749.215692,1040.116076,39768.871935,6621.391370,21299.893713,8599.811327,-170.311996,-893.528015,-446.032013,27860.000000,3360.000000,15960.000000
10777.362976,16021.283391,7627.778665,-3957.465763,11065.879293,15213.312532,9827.615002,-20373.927995,15400.821316,17215.134766,7752.568454,1075.454184,39779.086683,6629.437998,21335.365931,8647.621709,-172.751999,-894.992004,-447.984009,28000.000000,2380.000000,15400.000000
10784.917865,16072.357127,7645.101267,-3926.061562,11111.499204,15221.627381,9860.896750,-20350.503367,15418.814471,17232.032684,7758.804591,1104.869080,39786.954497,6632.902519,21372.268662,8685.999654,-170.800003,-886.208008,-443.592010,28000.000000,1400.000000,14980.000000
10767.148229,16049.088961,7622.503653,-3944.948786,11080.743203,15218.989875,9851.106686,-20376.789019,15405.783404,17209.591533,7762.470277,1091.413330,39784.205232,6626.733437,21367.954775,8666.821857,-168.360001,-884.255981,-445.056000,26880.000000,1680.000000,14000.000000
10746.025830,15991.622626,7594.273400,-3988.691150,11026.316706,15208.931590,9812.929906,-20427.750996,15378.223703,17183.127067,7759.363384,1057.595141,39773.655209,6620.564356,21334.293048,8625.940517,-171.776001,-885.720032,-437.735992,24780.000000,1960.000000,12740.000000
10749.535054,15982.436059,7593.424033,-4004.672647,11020.237031,15205.511773,9800.479984,-20445.408874,15377.620206,17185.697518,7759.721012,1048.945016,39771.822366,6616.094007,21322.580734,8617.066874,-169.335999,-883.280029,-436.272003,22820.000000,1820.000000,11060.000000
10751.770228,15988.851009,7597.424996,-4001.141071,11026.450816,15208.484555,9804.637409,-20452.315563,15381.688223,17182.657681,7760.503323,1049.995548,39772.179994,6616.652801,21328.772167,8617.983296,-170.311996,-883.768005,-431.880005,21140.000000,1120.000000,9660.000000
10741.108446,15974.456486,7591.077100,-4010.282935,11015.297295,15208.976294,9798.423624,-20472.208616,15367.964252,17168.397268,7755.295367,1039.222007,39766.860278,6617.748036,21325.799385,8607.925011,-169.824005,-883.280029,-427.488007,20160.000000,-140.000000,8960.000000
10738.158016,15963.235910,7586.942027,-4020.721200,11007.876516,15207.165802,9788.141821,-20485.753773,15364.544435,17166.899701,7753.484875,1031.108323,39762.032302,6614.372923,21319.295027,8606.181575,-174.703995,-887.671997,-427.488007,17780.000000,-980.000000,7700.000000
10759.302766,16002.999664,7613.630010,-4000.694037,11046.522682,15212.887849,9799.787080,-20471.940395,15390.584217,17194.146477,7757.083506,1056.097574,39769.922467,6620.229080,21337.824623,8636.892871,-174.703995,-880.840027,-421.144012,14840.000000,-700.000000,6860.000000
10776.468906,16065.673955,7645.771819,-3959.209199,11106.559468,15224.108425,9837.963860,-20440.670304,15415.439357,17219.426300,7762.000890,1094.721388,39782.081816,6626.912251,21382.930444,8685.574971,-175.680008,-892.064026,-420.656006,12600.000000,-1960.000000,5880.000000
10760.599167,16067.238577,7636.652307,-3951.274330,11107.230020,15227.461186,9851.643127,-20444.961839,15405.291665,17203.444803,7759.944530,1097.358894,39780.986581,6625.660554,21399.291921,8689.486526,-173.240005,-890.112000,-420.656006,10640.000000,-1820.000000,4760.000000
10729.977278,15992.315530,7595.636856,-4005.566717,11034.385685,15213.848974,9807.789005,-20500.438869,15374.558017,17168.263157,7757.485838,1053.884751,39766.614409,6611.936583,21358.745856,8635.350601,-174.703995,-888.160034,-420.656006,9940.000000,-1820.000000,4200.000000
10740.549653,15978.412745,7596.888554,-4020.430627,11023.366275,15208.931590,9790.868734,-20519.929590,15382.314072,17175.728640,7760.503323,1047.939187,39765.541526,6610.886051,21345.714789,8621.559575,-173.727997,-889.135986,-415.776001,9940.000000,-2520.000000,3360.000000
10754.340679,15994.126021,7610.724284,-4013.121606,11037.470226,15213.044311,9795.048510,-20519.214334,15394.540476,17185.652815,7762.827905,1058.757431,39771.375331,6615.691676,21350.118083,8628.175691,-175.680008,-881.328003,-413.824005,9940.000000,-3220.000000,3360.000000
10739.744990,15973.048326,7598.967266,-4026.979688,11020.952287,15213.133718,9787.873600,-20535.665218,15377.664909,17169.313689,7756.882341,1043.245321,39765.295656,6612.294210,21340.596240,8617.558613,-173.727997,-876.936035,-410.407990,10360.000000,-3920.000000,3780.000000
10737.867443,15961.738343,7594.183993,-4039.630775,11011.519851,15212.150241,9777.167115,-20552.227861,15376.882598,17165.245672,7753.440172,1036.651556,39761.585267,6609.679056,21328.571001,8612.216546,-167.384003,-886.208008,-419.192017,9800.000000,-5600.000000,3500.000000
10750.093848,15981.005547,7609.785510,-4029.214862,11032.128159,15217.157032,9781.928036,-20546.259945,15388.661967,17183.194123,7757.239968,1052.163667,39769.542488,6614.730551,21334.225992,8633.942441,-169.824005,-896.455994,-417.727997,8400.000000,-4900.000000,2520.000000
10763.303728,16036.996667,7639.759200,-3989.316999,11090.197991,15226.723579,9814.628639,-20508.105517,15407.035101,17210.530306,7759.899826,1085.534821,39778.773758,6618.820920,21371.128723,8688.815974,-167.384003,-892.552002,-422.119995,9380.000000,-6440.000000,2380.000000
