0.98469,11.568,4.57467,14.1274,8.1576,3.01299,7.08946,0.464106,5.4954,-0.18826,-1.19637,5.56065,2.33576,3.3335,13.2516,2.48091,141.032,-601.704,-780.8,-21280,420,-6720
11.3165,23.2024,9.44707,23.9801,15.5437,5.53737,8.8682,3.49493,17.9454,5.43985,0.701339,16.3433,3.88259,9.07325,19.286,5.98271,141.52,-598.776,-779.824,-21700,0,-6440
2.85533,7.83643,1.61325,5.09032,4.18343,2.06209,-1.94204,0.158588,5.27562,0.216553,-2.02015,5.88661,-0.415222,2.25522,-0.46209,-1.34667,139.568,-599.264,-778.848,-22120,0,-6160
-4.11287,-11.2845,-4.96656,-13.0649,-8.30175,-2.30913,-11.6713,-3.04948,-6.02273,-3.80345,-0.554622,-6.03605,-2.80657,-3.30669,-14.881,-6.79844,139.568,-594.872,-777.384,-22680,420,-6160
2.8603,-5.33168,-2.68781,-8.61605,-4.73926,-2.96206,-5.38422,-3.15341,-0.258983,1.36688,2.10904,-2.82391,-0.530862,-1.893,-8.63926,-3.60656,138.104,-596.824,-780.8,-23800,420,-6020
3.71017,1.56145,1.12456,1.75667,3.29431,-0.317183,4.39742,-0.552784,-0.0407775,2.40155,2.19065,1.01467,1.34415,3.25085,4.0665,4.85929,136.64,-597.312,-783.728,-24500,840,-5880
7.72132,10.4986,6.9897,13.7296,9.59966,3.12753,7.32438,0.90904,6.15663,6.66227,7.11919,7.91016,4.04467,7.68312,12.8655,7.13411,134.2,-592.432,-786.168,-25340,980,-5740
6.08721,11.2179,4.77156,12.9142,6.13694,1.62912,4.35095,-3.08147,3.10733,4.32531,3.81455,6.02503,2.26527,3.27567,5.00383,1.60673,134.2,-592.92,-784.704,-26180,1260,-5600
1.77694,-1.97635,-0.869293,-3.87224,-4.41144,0.443655,-3.08124,-1.05531,0.292736,0.140398,0.545735,-2.50254,-0.345679,-1.85725,-3.88003,-1.08595,132.736,-591.456,-781.776,-26740,1400,-5460
3.52315,-6.64754,-4.97836,-11.6699,-9.71078,-1.40442,-4.02411,-3.72818,-0.428993,0.918283,-1.08787,-5.12891,-0.377186,-6.78468,-7.76894,-2.76416,130.784,-591.456,-782.752,-27300,1400,-5320
3.94006,-5.53877,-0.832529,-4.70674,-4.85155,1.48124,1.45427,-1.47388,2.85731,1.98416,0.536481,-1.83482,2.96566,-3.84293,3.74346,1.05134,129.32,-589.992,-784.216,-27580,1820,-5320
3.12163,0.250748,3.41728,2.39251,-1.21809,0.430439,0.106597,-1.35907,0.372493,1.25786,0.638913,1.63312,3.19916,-3.13134,0.894625,-0.537755,128.344,-593.408,-788.12,-28000,1260,-5180
-0.459339,-3.55063,2.26446,-6.56749,-6.61683,-0.164747,-9.00839,-1.60948,-1.43706,2.16861,2.42404,-1.07221,2.00531,-4.12596,-9.974,-6.31594,125.904,-592.432,-786.168,-27580,980,-4900
-4.32906,-10.7647,-2.6115,-18.4335,-12.897,-2.31246,-15.3285,-4.43744,-3.09703,-0.124901,0.66702,-6.34543,-0.596283,-7.64712,-20.6504,-12.7,126.392,-594.872,-789.096,-27440,700,-4760
-0.834233,-4.65061,-2.43938,-9.76951,-6.64451,-2.52675,-5.42856,0.0297444,4.04781,-2.10854,-1.7174,-3.65971,-2.19652,-4.57654,-9.71812,-8.17526,125.904,-592.92,-790.072,-26880,420,-4620
3.02032,4.73791,-3.71948,2.54332,3.41934,-1.32779,3.24883,3.60121,6.31129,-0.346214,-2.3678,1.55867,-3.23248,0.440487,0.856781,-2.39388,127.368,-590.48,-787.144,-26460,0,-4340
4.25478,12.7203,2.93463,15.6255,12.7118,2.4227,6.69709,5.99609,7.96468,2.61163,1.21856,9.06126,0.311542,9.43852,13.8835,5.37026,122.488,-589.504,-795.44,-25760,-700,-4060
-0.906068,13.9802,6.48553,16.5013,13.4396,2.49502,7.39703,1.67535,-2.06138,1.70793,1.20175,9.36161,1.85029,8.48946,9.20638,5.94394,122,-591.456,-792.512,-25060,-1120,-3640
-10.6469,-9.62494,-1.92643,-8.97301,-4.44284,-0.336841,-8.38409,-1.86653,-14.1747,-6.09951,-0.770921,-7.93008,-2.53506,0.540399,-12.1453,0.594858,120.048,-591.944,-789.584,-23940,-1680,-3220
-8.21296,-10.6876,-4.73619,-11.774,-7.11339,-1.82796,-5.93434,-1.93182,-13.4911,-5.58417,-3.7857,-8.25105,-3.48745,-2.75349,-12.6185,-0.477484,121.512,-590.968,-795.44,-22680,-2520,-2940
-6.21692,-5.85089,-2.15759,-3.52562,-0.088513,-0.443845,1.668,2.46531,-7.98038,-4.45111,-4.42706,-4.84575,-1.18779,0.391503,-1.25216,4.77259,122,-590.968,-797.88,-22820,-2660,-3080
-3.52713,-3.04949,-1.41671,1.68703,2.4832,0.556598,7.95539,5.20702,-4.35542,-3.29491,-4.86251,-3.4938,-0.93351,0.811709,7.16143,7.46726,123.464,-592.432,-799.832,-22400,-2660,-2940
-1.95903,1.1098,-1.25325,6.93709,4.96214,1.75219,9.6749,5.7065,-2.31437,-3.48141,-3.7907,-0.538726,-1.49091,2.83244,13.455,7.65667,119.56,-595.36,-800.808,-22820,-2660,-2940
-1.25477,5.09917,-0.394248,11.6878,7.88278,3.63395,9.97181,4.51231,-0.0793048,-0.405349,-1.81161,3.51483,0.350518,5.66078,17.5144,8.08597,117.12,-592.432,-801.784,-22960,-3220,-2800
-3.36644,0.344312,-1.43405,4.62805,2.59308,-0.330828,4.01365,-1.86434,-4.08579,-0.818649,0.168867,1.52782,-0.257905,0.979143,8.50294,1.55237,118.584,-594.384,-800.32,-21980,-3640,-2660
-1.99692,-5.45939,-1.83331,-5.24833,-2.62615,-2.3705,-1.77841,-4.60707,-3.16574,0.270273,2.77874,-2.38342,0.35094,-2.84037,-2.28196,-2.81059,119.072,-597.312,-798.856,-21420,-3920,-2520
1.93358,-0.476043,1.53406,0.108177,-1.37909,-1.37972,-0.666211,-3.59887,5.08944,2.39173,2.78706,1.17771,0.983531,-0.303269,-0.953571,-0.975223,116.144,-592.432,-799.832,-21000,-3640,-2380
8.44464,8.24806,4.56611,5.61474,1.15809,-1.07969,2.88263,-2.8854,13.9523,7.88983,3.50639,6.36463,2.76311,-0.219985,3.96811,0.47805,117.608,-593.896,-798.368,-20580,-3360,-2520
7.94799,5.30871,3.23894,4.44802,1.04515,-1.38431,2.45911,-1.86246,13.1495,6.20253,2.67808,5.21724,2.10581,0.428669,7.29969,1.80339,115.168,-592.92,-799.344,-19880,-2940,-2240
4.41134,6.11121,2.89202,3.76922,1.56205,0.0289568,0.175058,-1.92151,6.94828,2.63412,1.84868,5.46925,2.20862,-0.388323,4.01225,1.23012,117.608,-593.896,-796.904,-19040,-2940,-2240
-0.115094,3.83529,3.18333,2.11313,1.14695,1.19034,-1.44822,-1.93643,0.305909,-0.277972,0.219571,3.79805,1.09674,-0.41709,-1.55577,-1.25053,116.632,-590.968,-796.416,-18340,-2940,-2240
-8.95675,-6.08217,-0.0496588,-6.69667,-5.00067,1.90719,-7.86468,-0.0449906,-10.4955,-5.03608,-1.2721,-3.82863,-0.271437,-1.73278,-10.4522,-4.39159,117.608,-590.968,-793.976,-17500,-2660,-2380
-11.1285,-9.35175,-4.29805,-10.1785,-7.11014,0.311645,-9.08178,-1.91427,-16.7083,-6.85795,-3.80511,-8.25807,-1.08598,-5.26029,-18.3699,-7.91098,118.096,-588.528,-797.88,-17220,-2240,-2520
-2.11664,-8.86965,-3.24008,-11.6783,-9.21838,-2.10026,-11.3337,-0.282276,-2.63273,-4.71486,-2.24729,-7.19172,-2.37061,-4.72493,-16.5824,-9.59466,116.144,-587.064,-795.928,-16940,-1960,-2660
0.0279589,-12.5113,-7.16989,-18.5879,-13.3088,-4.97562,-12.4397,-0.503769,-3.94063,-4.15805,-1.44486,-10.249,-5.29978,-8.08599,-19.866,-12.208,121.512,-584.624,-794.952,-16240,-1260,-3080
3.17166,-7.34866,-3.75188,-11.5307,-6.28887,-1.56799,-4.45057,2.74397,0.967488,-1.22208,2.7189,-6.22386,-3.26714,-3.44845,-5.09119,-4.87602,118.096,-582.672,-793.976,-16100,-560,-3220
5.72976,2.00192,0.452763,2.76392,3.77056,0.0764501,7.8356,3.70539,3.7167,1.9048,2.3421,0.809891,-1.29227,0.526855,12.2219,2.1359,120.536,-582.184,-792.024,-15120,700,-3500
5.26832,4.24955,2.79347,7.75417,7.18155,1.89151,10.0317,3.79438,7.18694,2.27547,2.26889,3.01448,-0.155937,2.95426,17.6425,2.68702,118.584,-583.16,-790.56,-14840,1540,-3780
6.06539,12.8212,4.69189,16.2207,12.3375,2.2784,13.0325,3.96395,12.2123,2.53863,0.488471,9.55861,2.14449,7.25682,20.9981,5.72698,120.048,-583.648,-788.608,-14140,2240,-3640
1.30587,7.24139,3.01942,12.2435,8.62144,1.63112,9.69018,2.25981,4.65254,1.94506,-1.64639,5.75077,3.55013,6.98332,14.1774,4.33317,120.536,-579.256,-791.048,-15540,3220,-4760
1.58612,1.00848,1.35857,-1.5524,-1.91916,0.00512113,-2.85254,-2.33236,2.87133,3.89613,0.443816,0.979037,2.97141,-0.280549,-7.73716,-1.40745,121.024,-582.184,-793.976,-16800,2380,-5180
2.45982,0.0363515,1.26663,-5.7186,-6.03958,0.00374743,-12.0094,-3.27895,6.75239,4.01736,3.29929,0.305076,0.970948,-0.5756,-16.1934,-4.19174,122.488,-579.256,-793.976,-17220,2520,-5460
8.65462,14.6018,4.02385,6.70709,3.54975,1.03539,-3.04175,-2.40498,11.5406,9.10025,4.39126,8.52736,1.53087,3.06308,-5.91366,-1.02632,123.464,-581.208,-790.56,-17780,2940,-5740
5.42114,13.4006,3.00843,14.2242,9.42551,0.891405,5.4807,1.69708,10.7862,3.75804,0.830506,9.12509,1.00266,7.21662,8.80124,7.90896,122.488,-579.256,-791.048,-18620,3220,-6300
-3.00077,2.90128,-2.85974,5.85641,3.86974,-1.37522,1.57032,-1.91424,-5.80286,-1.96858,-4.00887,1.30654,-0.220681,1.5888,-0.0341447,4.20225,124.928,-581.696,-790.56,-19460,2800,-6300
-11.698,-10.6493,-4.13764,-5.53234,-1.15468,0.791317,-1.43703,-0.0761521,-20.4172,-6.78593,-4.23489,-7.11668,0.291868,-0.0159799,-5.39676,2.92253,121.512,-583.648,-792.512,-20020,2800,-6580
-9.95426,-11.8457,-3.91781,-7.71225,-2.98373,2.34135,1.30049,1.07543,-18.9247,-6.09318,-3.11347,-7.75114,0.0396258,-1.67766,-4.9825,2.68214,124.44,-583.16,-793.976,-21000,2380,-6860
0.356242,-0.268864,0.326131,0.649885,1.39485,4.9417,5.71122,3.91552,-3.3094,0.992648,0.848782,0.288223,1.09654,0.125261,3.74437,5.24058,122.488,-585.6,-794.464,-22120,2100,-6860
-1.35743,-3.21808,-0.924875,-4.4547,-2.64261,2.8271,-2.22674,1.43194,-2.5864,0.399927,0.216262,-1.21649,0.271866,-1.8573,-0.895533,1.3512,122.976,-585.112,-793.488,-22540,1680,-6720
-0.235302,-1.67729,-0.490162,-5.53429,-3.65885,0.256456,-4.93496,-2.30036,-1.42619,1.21403,-0.641805,-0.632024,-0.189909,-2.07693,-2.65085,-0.793787,124.44,-583.648,-793,-22540,1120,-6440
4.4148,0.374849,0.751542,-5.16435,-3.96191,-1.51871,-4.63293,-3.32826,6.12352,4.33049,1.88691,0.158651,-0.0491163,-3.25298,-1.86103,-2.32453,125.904,-586.088,-795.928,-22960,700,-6160
5.23044,1.33633,-0.168945,-1.05061,-1.31252,-3.13355,-2.75861,-4.79245,8.6813,4.27336,2.85935,0.411648,-1.59501,-4.09915,1.68945,-2.83786,126.88,-588.04,-797.88,-23100,280,-5740
1.42889,-0.0135678,-1.49333,2.09973,2.21106,-2.00642,2.85876,-3.15059,2.15818,0.920964,0.684395,-1.07916,-1.92812,-3.11573,6.65514,-1.42717,127.856,-592.92,-799.344,-22960,140,-5460
-1.01559,1.6269,1.07095,7.07081,5.74043,-2.90464,8.76244,1.59321,1.06228,-2.39822,0.218132,1.01108,-1.15252,2.50424,12.2447,2.52962,126.392,-592.432,-799.344,-23100,140,-4900
-2.22877,0.104335,0.0258334,6.37264,2.56871,-4.21276,6.97912,2.34041,-2.89133,-3.81724,-0.483114,0.368177,-0.0776583,1.62557,7.79409,1.16452,124.44,-590.48,-802.272,-22820,280,-4340
-2.8545,-4.22811,-1.85083,2.29758,-0.933137,-3.93342,1.41029,1.50771,-6.14021,-4.55881,-1.4578,-2.32833,-0.296254,-0.963021,2.86271,1.54787,123.952,-589.504,-798.856,-22260,420,-4200
-4.34025,-6.70319,-0.531183,-2.38306,-4.08567,-2.02408,-3.47144,1.62913,-4.50245,-5.32198,-1.30475,-3.75472,-0.805934,-0.79358,-2.73078,0.907797,128.344,-589.992,-801.296,-21700,0,-3780
-5.70257,-7.9419,-2.33872,-9.32748,-9.33254,-3.36014,-7.79489,-1.35458,-7.23435,-5.21627,-4.05663,-6.35182,-3.96716,-5.88785,-14.4705,-5.26681,125.416,-591.456,-799.832,-21420,-280,-3640
-3.72874,0.734114,2.56926,1.78449,-0.511476,2.13052,1.28418,4.65123,0.916314,-4.36418,-2.56019,-0.582676,-1.11209,0.599489,1.87523,1.15412,126.392,-587.064,-794.464,-21000,-280,-3640
-1.80244,7.38897,1.79235,8.89715,3.85437,3.92092,6.39649,3.42028,1.74197,-4.37227,-3.04061,1.7549,-0.849013,0.51297,6.17951,2.71324,124.44,-591.944,-796.904,-21000,-140,-3640
8.39189,12.6493,7.64433,7.01433,5.37273,5.58904,1.38777,0.448885,11.61,3.63013,3.35438,6.67821,1.71206,2.29362,3.42385,0.864341,127.856,-588.04,-799.832,-20720,0,-3920
1.94227,2.57688,4.71667,-1.86963,-0.179045,3.44547,-4.45222,-3.0179,0.243589,1.93029,2.68064,3.49526,1.15608,1.5525,-7.03372,-3.60794,127.856,-587.064,-799.832,-20440,140,-3780
-3.06037,-2.00213,2.52139,-0.888249,1.70137,4.06575,0.0144783,0.625227,-6.40197,0.279513,0.744219,1.18132,0.880461,5.37084,-0.123039,1.99301,131.272,-588.04,-799.832,-20440,140,-4060
-0.166792,-3.47295,2.19144,-4.74075,-0.823023,0.857359,-4.11742,-3.16331,-5.03325,3.29201,2.79975,0.0642246,1.71857,2.67764,-8.69358,-1.50118,130.296,-585.112,-800.32,-20020,-280,-4060
-4.12655,-11.1143,-2.49795,-13.0269,-5.83765,-1.81296,-5.95311,-3.97397,-8.15262,0.11109,1.38679,-6.19094,0.850016,-0.907013,-12.7363,-4.12466,129.808,-586.088,-801.296,-19460,-420,-4060
-0.0577106,-13.1081,-5.37508,-20.5419,-10.8082,-2.75306,-9.19041,-5.19309,-3.11012,2.97751,4.33872,-8.14104,1.82941,-5.18287,-15.9609,-10.8483,131.76,-582.672,-802.76,-18480,-560,-4340
3.17786,-7.38187,-5.79271,-11.6196,-6.49408,-1.26859,-5.2611,-1.93788,5.68243,3.01521,3.65948,-3.77272,1.53998,-2.18109,-7.80738,-8.74506,130.296,-578.768,-804.712,-17640,-560,-4480
4.54711,8.2688,-4.12016,7.18763,5.14379,-0.0912154,5.92417,1.27602,8.28316,2.99717,-2.20564,5.68752,1.80753,1.51704,4.77928,0.521208,131.272,-574.376,-807.152,-17080,-280,-4900
10.1031,16.9516,3.91064,17.1109,10.9351,2.1032,8.47166,6.44777,19.0706,6.65266,-1.36232,14.1067,4.68738,7.68192,15.2933,7.63459,134.2,-576.328,-807.152,-16520,-140,-5040
6.49422,5.84355,-0.0713095,3.1964,1.22136,-1.21369,1.24179,0.792942,9.54594,4.80203,-2.14129,4.80084,1.73481,0.199807,4.91433,0.202841,134.2,-572.912,-811.544,-15820,-420,-5320
-0.919266,-4.5914,-3.79281,-1.35649,-3.11044,-2.41546,-0.344127,-0.261593,1.01943,0.0091142,-0.785255,-3.90481,-2.58989,-1.83106,6.80671,0.21866,137.616,-574.376,-810.568,-15400,-560,-5740
-5.475,1.98543,-2.62512,9.26397,5.55113,0.0750638,6.32843,2.43304,-5.77363,-3.75175,-1.24182,-0.851516,-2.34201,2.57312,13.9104,5.2084,136.152,-570.472,-810.568,-14980,-560,-5880
-8.24487,-1.46778,-3.7748,3.18247,0.888095,-0.227729,-0.954682,0.120703,-9.19094,-5.99173,-3.46739,-2.93479,-4.21432,-0.891788,1.41483,1.07586,137.616,-570.472,-812.032,-14140,-700,-6160
-3.08377,-0.0924133,-0.873766,1.62954,-1.2868,0.0114971,-2.91575,-0.699492,-3.95572,-3.87821,-4.05579,-1.20342,-3.47899,-2.69935,-3.25528,0.0484758,133.712,-570.96,-811.056,-13580,-840,-6160
-1.19759,-2.84796,-2.61497,-2.84794,-3.96496,-4.36388,-2.83019,-0.527196,-5.11241,-2.61338,-3.4796,-4.36378,-5.27247,-6.56262,-5.3398,0.184768,138.592,-571.448,-813.496,-13160,-700,-6020
-1.23096,-4.38389,-2.16584,-3.83014,-2.00781,-3.69385,2.58685,2.35897,-5.89424,-2.58658,-1.94774,-5.21629,-5.32276,-4.56808,-0.866195,3.18479,137.616,-570.96,-813.496,-12600,-1120,-5740
-1.81152,-4.73396,0.300298,-3.70012,0.399722,-2.20798,2.95524,1.50773,-5.5979,-2.8991,0.200429,-3.56427,-3.17402,-1.36516,1.07932,2.56088,135.664,-570.96,-813.496,-12320,-1400,-5180
3.614,6.20387,5.32705,6.43817,7.77332,1.12982,7.78562,3.41957,3.53785,1.89093,2.25794,3.70092,1.81629,3.84465,10.5144,7.02964,136.152,-571.448,-815.936,-11900,-1960,-4620
5.38669,9.07009,6.51187,6.21847,5.64348,2.29451,-1.92191,-0.592245,6.85765,3.13625,2.74415,5.8118,3.94479,3.941,1.23627,1.89749,136.64,-570.472,-813.496,-11200,-1960,-4060
-0.0441056,4.77583,2.55558,-1.86481,-1.93593,0.993572,-10.9745,-6.19297,4.37727,1.40347,-0.206809,3.33729,3.5725,-0.0131921,-12.0649,-7.18549,133.224,-570.96,-813.984,-11200,-1400,-3500
3.20812,7.82461,3.20948,0.488679,-0.116841,1.02899,-8.41234,-5.9126,9.72477,5.40039,3.48729,6.1892,6.21093,0.939974,-10.1118,-6.73484,134.688,-571.936,-807.64,-11200,-1820,-2940
8.03136,9.60454,4.30125,5.01839,3.18245,2.66861,-0.0817693,0.322808,15.5244,8.39722,6.10265,8.00379,6.61221,2.84965,-0.0296852,-0.951426,132.248,-571.448,-808.616,-11060,-1960,-2380
4.04065,4.79739,1.49818,4.34814,2.99716,1.90715,6.77296,0.46025,4.01522,4.22901,2.30233,4.1602,3.75584,0.681779,3.5173,0.976099,131.76,-567.544,-810.08,-11200,-1540,-1960
-5.67801,-11.0993,-1.18038,-5.48982,-3.50145,1.96897,3.50697,2.51855,-8.49633,-3.41422,1.48166,-6.28535,0.632265,-1.13737,5.22314,3.58563,133.224,-570.472,-807.152,-11900,-980,-1680
-9.92905,-12.7803,-3.41129,-6.37143,-3.71429,0.426527,4.16891,2.31912,-16.7976,-7.18309,-1.97458,-8.95195,-1.99232,-3.17955,2.94799,1.40382,131.272,-570.96,-806.176,-12180,-840,-1260
-4.56944,-3.93767,0.00935792,4.02519,2.23956,2.5384,8.647,5.31956,-5.33783,-4.04162,-2.12679,-3.06013,-0.576741,2.90698,12.3787,4.17194,129.32,-568.032,-810.08,-12180,-700,-840
0.302078,-1.95082,-1.28414,2.19605,0.0774747,1.13574,4.14478,-0.688164,-1.53857,0.361577,-0.830793,-0.474127,-0.892922,1.99585,5.44211,1.30745,132.736,-568.52,-807.64,-12600,-560,-840
7.71598,-0.270112,2.39533,-4.36741,-3.86318,0.638595,-6.59461,-4.82053,5.3631,5.47828,2.21671,0.935971,0.0444066,-0.69595,-6.35449,-5.42173,130.296,-570.472,-808.128,-12320,-280,-280
4.43373,-3.67563,2.48567,-9.71457,-8.64703,-0.274164,-12.7984,-6.21655,0.234355,2.26387,2.38413,-1.6343,-0.795741,-3.05954,-16.984,-9.84888,132.248,-572.424,-804.224,-12320,-420,0
-0.148403,-1.33249,0.971139,-1.79908,-3.78653,1.07702,-4.8633,-1.57774,-1.0816,-2.36603,1.73757,-0.729752,-2.12168,0.284979,-7.8033,-3.92258,131.76,-572.912,-804.224,-12460,-280,140
-3.73708,-1.08808,-3.64232,3.26062,1.15174,0.461535,8.10843,4.19454,-3.39433,-6.60506,-3.45136,-3.29341,-4.30006,-0.0777164,4.63515,5.68522,129.808,-571.936,-807.152,-12600,-280,140
1.93385,3.99088,-1.57202,10.9772,7.99406,0.104573,13.7201,5.96545,4.41689,-2.15249,-2.01242,1.33588,-2.86008,3.47686,14.9813,11.9297,128.344,-571.448,-804.224,-12740,0,140
4.20083,13.1247,1.32525,17.4129,12.6934,0.222011,12.8498,2.23588,5.57437,1.04786,-2.28847,8.26821,-0.524813,4.84896,10.694,7.69507,130.296,-572.912,-804.712,-13580,0,280
-10.5998,-7.61147,-5.23291,-7.80943,-4.25742,-2.28148,-8.20695,0.110193,-11.2406,-5.44601,-3.62332,-4.33398,-3.10672,-0.224089,-13.1045,-1.84282,128.344,-569.984,-803.736,-14280,140,140
-7.29083,-10.1847,-6.43203,-17.1226,-10.4378,-3.36355,-12.7567,-2.36381,-10.1301,-2.77364,-4.19201,-7.24559,-2.40872,-5.89823,-20.242,-7.06297,130.296,-571.448,-804.712,-14980,-140,-140
-1.0901,-5.73775,-1.0795,-11.7008,-5.51462,-0.940575,-8.66757,-1.45961,0.555093,0.935547,-0.839998,-2.7788,0.36213,-3.85985,-8.59635,-3.48599,128.344,-568.52,-804.224,-15260,-140,-280
-5.24047,-3.18566,-1.67604,-3.16894,-1.2657,0.380973,-0.528224,-0.122414,-4.12994,-2.05542,-0.967512,-1.73447,-0.730504,-1.88509,1.70695,1.96094,126.88,-571.936,-808.128,-15120,-420,-560
-1.21203,-0.608505,0.753096,-1.09602,0.317562,-0.453338,-1.9859,-1.91516,-2.73324,-0.392707,1.19439,0.683316,0.37004,-0.405589,1.12457,0.348718,126.392,-573.888,-809.104,-15540,-560,-840
2.2689,1.8045,3.17512,-0.211648,1.07323,-0.474282,-1.77212,-0.712536,3.93779,3.12243,4.67399,3.64107,2.97934,1.76079,5.53234,-0.162175,127.368,-571.448,-808.616,-15540,-840,-1400
-3.48136,3.81304,1.98279,5.38456,3.78415,-2.20617,5.0287,0.296468,-2.99162,-1.80053,0.346039,2.26743,1.72337,0.985921,10.0419,-0.101631,127.368,-574.376,-811.544,-15260,-700,-1680
-0.0889274,5.38418,3.42727,3.30782,1.20398,-3.39804,-2.2246,-0.79534,0.236944,0.726744,-0.0123818,2.642,2.08842,-0.944811,1.45414,-3.67556,128.344,-574.376,-808.128,-15260,-560,-1820
2.53579,5.57812,1.76317,8.26314,2.27033,-3.22074,0.457826,1.54409,4.25427,1.90661,2.12899,4.01896,0.850577,-0.053613,7.45139,-2.05767,126.392,-576.328,-810.08,-14420,-560,-1960
-0.647347,2.38129,-0.0335207,10.641,5.15175,-0.694876,7.64376,5.90073,0.223714,0.505322,-0.033104,1.21919,0.438671,2.56186,13.8809,3.07098,130.296,-578.768,-807.64,-14000,-420,-2100
1.49805,-3.27737,-1.42315,-3.07467,-2.85127,-0.973978,-3.61077,2.5335,2.07593,0.950866,0.881682,-2.54818,0.0432301,-0.441808,-5.46942,-2.90106,129.808,-579.744,-810.08,-12740,140,-2240
9.29162,-0.0504627,0.52062,-5.1643,-2.89809,0.553821,-3.84633,0.610969,9.72406,6.00246,2.02756,1.54037,2.28547,-0.842474,-8.23048,-4.53573,128.832,-578.28,-812.52,-13020,420,-2940
12.066,6.12636,2.96496,3.89316,4.62262,2.13567,5.15194,0.458314,11.918,7.0234,0.808384,6.70653,2.63148,1.65179,5.30497,1.57818,130.296,-580.232,-816.424,-12880,560,-3080
10.3514,9.85263,4.47724,8.41345,8.29005,3.18504,7.99637,2.0324,9.51706,4.44459,1.993,6.86642,2.40122,3.61636,11.1157,4.38815,132.248,-579.744,-814.96,-12460,420,-3220
7.05858,3.83093,0.3963,-1.29226,-0.0908551,1.08912,-2.10927,-3.37088,0.781581,2.92036,1.21281,0.799158,2.0069,-0.763519,-7.62674,-3.28104,129.808,-584.136,-811.544,-12180,140,-3220
3.05956,-7.07057,-2.206,-16.8239,-11.6557,-0.888083,-16.7908,-7.57372,2.34092,1.02512,1.89362,-7.2205,0.698883,-4.66735,-22.9566,-10.5714,134.688,-583.648,-815.936,-11340,-140,-2940
-4.58148,-12.2129,-6.88988,-18.2772,-13.5895,-2.33338,-13.1588,-9.60574,-5.86959,-3.75983,-1.24766,-12.2645,-3.18738,-8.38561,-23.4945,-9.89222,134.688,-583.16,-815.936,-11060,-420,-2940
-9.18409,-11.1866,-5.57635,-8.58203,-6.23646,1.38479,-3.89195,-4.37407,-6.54199,-5.73724,-2.13241,-9.31456,-3.4319,-2.8642,-6.87713,-0.893438,138.104,-584.624,-816.424,-10500,-980,-2800
-4.13439,3.9884,1.54377,11.1879,7.71134,4.62527,11.0256,0.497853,-0.811952,-1.36317,-3.48404,2.75809,-2.102,5.72068,10.8938,7.97218,138.104,-582.184,-813.008,-9660,-1400,-2380
1.01297,11.0531,6.66835,16.916,11.8385,4.50201,12.8511,3.09877,5.0034,3.02953,-1.17639,8.21962,0.423176,9.01314,16.5492,11.0892,136.64,-577.792,-812.52,-8960,-1400,-2380
-8.13842,-0.873398,0.433984,1.60969,1.47042,0.671839,3.13777,1.56746,-6.8612,-2.79357,-2.86534,-1.21604,-0.973007,1.62616,3.02918,4.19304,134.688,-576.816,-809.104,-8820,-1260,-2100
-9.85199,-6.40188,-2.67999,-1.71145,-1.24735,-0.893043,4.14627,2.58152,-11.1665,-5.50602,-3.38446,-4.12779,-2.59038,-0.835508,4.27265,3.19732,136.152,-573.4,-812.032,-8680,-1120,-1400
-5.3063,0.15436,-0.18948,3.81396,2.10024,-0.313828,6.82415,2.52643,-4.75496,-3.3086,-2.11018,0.588,-1.649,0.115784,7.72151,6.33968,137.128,-573.4,-808.616,-8540,-1120,-1120
-4.06563,-0.706995,-0.218817,1.61237,-0.506646,1.00558,1.7397,2.06295,1.2209,-2.5975,0.855471,2.043,-1.87019,-0.0561075,5.10761,5.64133,135.176,-569.008,-810.08,-8820,-1260,-420
0.275211,4.02594,-1.26202,3.60871,1.55298,0.450502,2.62081,-0.524832,2.32981,0.276107,-0.63718,3.38048,0.665193,-0.493969,3.98925,1.89531,135.176,-568.032,-813.984,-8680,-1540,-140
6.23683,8.38718,2.67962,9.56382,5.35663,0.41406,3.91833,1.72339,9.06018,1.96341,1.02055,5.36836,2.84625,3.37075,9.05939,2.61147,130.784,-563.64,-811.056,-8680,-1400,700
5.582,6.28377,-1.24043,2.9491,-0.190358,-2.3985,-4.66285,-0.380446,4.09884,0.301728,1.03931,3.09119,0.719859,-1.37889,-3.98776,-3.78896,128.832,-564.616,-809.592,-9100,-1260,1120
-4.14624,-4.6818,-2.70165,-3.97139,-2.56606,-0.710746,-6.73862,3.41719,-9.10269,-4.61035,0.673181,-3.70181,-0.293333,-1.26764,-5.52802,-3.22697,126.88,-561.2,-810.568,-9520,-1120,1540
-2.81079,-6.09177,-0.683401,-4.00098,-0.841595,-1.07069,-0.795802,4.83245,-8.74411,-0.849824,1.28126,-4.68178,-0.0216789,-1.14696,-1.43563,-0.60438,123.952,-564.128,-811.056,-10080,-1120,2380
5.43853,-2.32768,-0.00499592,-4.25367,-2.40954,-2.16012,-0.392745,0.476643,3.61301,6.57002,3.9318,-1.79576,0.85258,-1.82338,-1.48683,-1.48375,123.952,-564.616,-810.08,-10220,-1120,2660
2.08805,-6.54559,-0.901107,-6.48088,-4.02999,-0.672427,-0.503443,-0.597609,1.4892,3.93489,2.98832,-3.86676,0.714136,-1.49992,-0.477147,0.0271334,119.56,-559.248,-814.472,-10920,-980,3080
-1.36771,-6.64216,-2.04273,-7.73777,-3.91214,-0.930185,-2.999,-2.17237,-5.13903,-0.40309,-0.129511,-3.70536,-0.301145,-0.879212,-7.50154,-2.14436,117.608,-563.64,-815.448,-11060,-700,3360
2.8718,1.28953,0.218402,2.04076,2.12119,0.773669,3.38039,-0.454173,1.08098,0.829823,-0.260852,2.24937,1.30013,1.85212,4.87321,1.18944,113.704,-566.08,-813.008,-11060,-280,3220
6.0006,2.00644,1.40363,-0.231604,0.885224,-0.794383,-4.14544,-2.2151,6.78014,1.66808,1.25411,3.07084,0.180299,-0.630597,-3.20724,-3.70479,111.752,-568.032,-819.84,-10920,-140,3080
3.18505,8.03474,5.43704,3.42098,4.59321,2.61592,-0.940784,1.72598,6.46858,2.33629,1.80708,6.77798,1.92203,1.95412,-2.20035,-2.59979,108.824,-567.544,-818.376,-10920,-280,2800
-9.81047,7.60864,3.88218,13.2194,10.2913,3.6241,7.80798,5.11397,-7.3364,-6.49249,-2.91651,5.75955,0.279733,5.53973,9.7487,4.21737,109.8,-570.472,-815.936,-11200,-280,2520
-6.77835,2.43462,1.04241,3.21446,1.63238,-0.447614,-3.88835,-0.844049,-6.64539,-4.70768,-0.934074,1.91421,-0.590956,-0.195065,-3.95382,-4.18533,108.336,-572.912,-817.4,-10500,-560,1960
0.546447,-6.63409,-3.16403,-13.8276,-11.6182,-4.48421,-18.2955,-7.38928,-2.41279,-1.16324,0.283672,-4.63038,-1.91504,-7.81865,-24.6575,-13.1116,104.432,-574.376,-818.376,-9800,-700,1260
4.85633,-7.04319,-0.263978,-15.3254,-11.2837,-3.29904,-16.1769,-6.50277,3.48742,2.36227,1.04983,-4.04206,-1.0984,-5.2918,-20.6275,-9.52387,104.92,-574.376,-820.328,-9520,-560,560
7.85454,2.85542,3.99336,-2.29026,-1.2251,-1.57585,1.04691,-4.40017,6.78195,5.60809,-0.368329,1.88297,0.223413,-1.07112,-1.69662,-2.01924,105.896,-574.864,-820.328,-8960,-420,-280
5.53474,1.28029,4.1543,2.34665,1.09335,0.625738,6.83089,1.55015,10.5902,3.6038,0.714646,0.964073,1.19432,2.70964,11.7677,4.33407,107.36,-573.888,-820.328,-8400,-560,-1120
-0.689998,-1.15613,-1.01251,4.62541,2.14427,2.04634,11.7081,3.93867,-0.366537,0.299002,-3.57499,-1.30232,0.349085,2.67632,14.8079,6.68781,108.824,-574.376,-821.792,-7560,-840,-2100
-1.77612,-1.93577,-2.07755,3.69401,2.22463,4.27869,9.81789,5.82575,-1.13038,-1.45412,-2.68474,-1.65401,0.653608,3.43914,15.578,7.31112,110.776,-572.424,-821.304,-7000,-1120,-2940
-1.75527,-1.01416,-4.09332,1.5099,0.56986,3.12353,7.11745,2.9852,-1.98534,-2.05488,-0.464291,-2.35226,-0.250027,0.882746,8.77804,3.67652,113.704,-572.424,-818.864,-6440,-980,-4060
0.403391,2.40998,-2.27913,3.70044,2.52893,2.03214,6.41633,2.84263,2.06307,0.227422,1.15847,0.51104,0.610389,2.12075,8.38338,3.15992,115.656,-568.52,-819.352,-6160,-1260,-4900
-7.82719,-10.9113,-6.15083,-10.0846,-6.78677,-2.62096,-4.03465,-1.2472,-9.30236,-4.63681,-0.266174,-8.51869,-2.60076,-4.51957,-5.57073,-2.50086,118.584,-568.032,-821.304,-5320,-1540,-5740
-6.92535,-8.66598,-5.38505,-8.1594,-6.43471,-4.09421,-6.69348,-1.66212,-8.67062,-4.49998,-0.396622,-7.76329,-4.02207,-5.58377,-9.64866,-3.36594,119.072,-568.52,-819.84,-5040,-1540,-6580
1.31052,11.5326,1.85669,12.0664,6.62289,-1.98293,-0.519755,-0.983255,1.79455,1.78539,1.06029,5.63933,-0.880893,0.073266,-0.892657,0.734267,124.928,-565.592,-818.864,-4480,-1540,-7280
3.1657,15.4985,6.05796,14.887,10.0179,0.613044,-3.6267,-1.80686,5.69367,3.64528,1.61842,10.367,0.844797,4.02336,-2.75301,1.07613,127.368,-563.64,-820.328,-4060,-1400,-7700
2.83311,12.4088,4.4635,6.13568,4.96272,-0.0174574,-3.66832,-4.74465,5.52673,2.80674,-1.53031,8.42157,2.18689,1.54649,-9.14073,-0.614087,129.808,-562.664,-819.352,-3640,-1260,-7840
-3.48023,-5.75776,1.17672,-5.32712,-3.02346,-0.581795,-2.08911,-2.54592,-2.02061,-3.57722,-2.67768,-3.70401,-0.566067,1.16079,-5.13091,1.65168,131.272,-564.128,-819.84,-2660,-700,-7980
0.834176,-3.7692,1.06888,-4.06387,-1.90664,-2.34866,3.4268,-2.19566,-1.20453,-0.0848836,-1.17674,-3.85654,0.731029,-1.44525,2.064,2.61123,133.712,-565.592,-822.28,-1820,-560,-7840
7.0686,4.13741,3.68453,5.5514,5.28741,0.79027,8.07531,2.09791,7.92354,4.97537,3.23948,4.13874,2.80954,2.96325,13.547,5.70814,137.616,-565.104,-823.744,-980,-420,-7560
1.91582,0.0114993,-1.87317,5.17171,4.03028,2.08072,10.8081,3.56139,-0.414353,1.43603,0.728188,0.486336,-0.240073,2.14039,15.1455,6.06328,139.08,-562.664,-823.256,-140,-140,-7140
-5.45609,-9.41982,-5.71407,-2.72044,-1.98031,-0.267895,5.21387,2.31352,-9.48997,-4.3683,-1.601,-7.81255,-2.55298,-1.67721,8.31121,4.34144,140.544,-567.056,-824.232,420,140,-6720
1.22572,-6.50977,-0.961719,-5.52609,-3.17843,-0.402146,-1.84114,-0.327189,-0.473391,0.144093,2.82644,-2.92409,0.50441,-0.500634,2.47473,0.599667,142.008,-565.104,-820.816,1680,420,-6020
5.73429,-3.60218,-2.09601,-8.59242,-6.36546,-3.80284,-9.07259,-6.19204,2.34558,3.58135,4.01707,0.874569,1.23514,-4.10119,-8.80717,-7.92691,141.032,-562.176,-819.352,2240,700,-5320
6.28719,-2.20125,-0.595258,-7.69346,-6.06572,-1.98359,-8.44229,-2.49854,5.62083,4.61431,5.15677,2.29511,2.0047,-3.34354,-9.86018,-6.47998,141.52,-562.664,-819.84,3080,980,-4900
-4.22003,0.00015885,-1.26511,0.254021,0.298323,1.36887,-0.721723,2.1048,-2.92719,-2.46684,-0.540068,2.76493,0.328479,0.210186,-2.54229,-0.467753,142.984,-562.176,-819.84,3640,1120,-4060
-11.4275,2.38543,1.01974,2.65097,4.628,3.84141,-3.13333,3.29585,-9.57856,-5.44813,-4.84738,3.72211,1.31309,2.51396,-8.10574,-3.37922,142.008,-562.176,-818.864,3500,1260,-3640
-18.9357,-12.156,-5.33671,-9.05133,-4.65941,1.59089,-8.62399,0.811942,-18.0638,-10.7114,-7.13799,-8.55435,-3.12481,-1.17858,-15.2682,-6.59299,140.544,-562.664,-813.984,3360,1260,-2940
-0.226875,1.84665,0.981785,4.08027,2.33481,4.30711,3.92211,3.80853,4.41585,-0.225829,-1.56829,-0.377248,-1.28153,2.87509,2.66537,1.24563,141.52,-563.64,-814.96,3500,840,-2240
13.6071,21.4539,12.4095,24.8423,17.6951,7.77074,18.1767,7.87999,17.1271,8.3837,1.69318,13.7814,4.24573,10.5877,20.593,9.46593,140.544,-566.08,-811.544,3500,140,-1680
12.4133,15.9973,8.31405,17.9455,10.8561,3.74834,6.33795,4.29902,14.5471,6.82943,2.36005,9.79861,3.089,6.90233,11.5256,2.76107,142.008,-566.08,-813.496,3500,140,-980
17.2024,19.0859,5.83441,10.6253,4.00946,-0.270276,-7.19233,-3.40615,18.6613,10.2016,4.21843,11.5854,3.21619,1.95749,-6.75038,-4.85131,141.032,-566.08,-809.592,3080,-140,-420
8.08207,5.66081,2.54194,-2.34089,-2.41457,-0.520495,-12.0476,-2.07473,9.95905,4.55048,3.51216,4.39009,1.63799,1.02621,-8.49153,-4.61283,139.08,-567.544,-813.008,3220,-420,0
-7.54753,-18.4566,-10.2377,-27.535,-19.3905,-7.30044,-15.7151,-6.78329,-13.4466,-5.55741,-3.05971,-15.4886,-5.25308,-11.7524,-22.2844,-11.2652,137.616,-570.96,-816.912,3220,-700,280
-14.5532,-26.9975,-11.9112,-27.2095,-19.7553,-6.57503,-4.58327,-2.59285,-20.0338,-11.4373,-4.48159,-20.8954,-6.19073,-10.526,-9.4403,-4.03587,133.224,-570.96,-812.032,3220,-1400,560
-9.97658,-12.7289,-6.0894,-6.87704,-6.27773,-2.27532,9.21179,0.918911,-14.763,-7.90475,-3.19143,-9.68528,-3.06295,-4.43062,5.03322,4.57951,134.688,-570.472,-809.104,3500,-1260,840
-10.0943,-7.91218,-4.4305,-1.85976,-1.36391,0.197319,8.49732,3.69914,-12.7692,-6.09572,-2.36285,-6.71505,-1.70751,-1.81733,6.73226,6.5568,131.76,-569.008,-812.52,3500,-1680,1120
-5.62588,-2.27974,-2.62852,2.66316,1.46858,-0.0365199,6.56281,2.06702,-4.77325,-2.5537,-0.636653,-2.37906,-1.75044,-0.986915,7.65536,3.37689,130.296,-571.936,-810.568,3640,-1960,1120
3.15086,8.11185,3.68721,7.82453,6.2093,0.758392,3.05893,-0.0943322,8.31751,4.74748,2.47637,5.57412,1.07029,1.6697,6.50578,2.83084,129.32,-570.472,-808.616,3640,-2100,980
3.63455,7.66272,5.7669,4.5673,5.00765,0.336284,-2.57135,-1.97283,7.82164,6.15872,2.11803,5.54017,2.90955,1.85064,-0.359599,0.0646833,127.368,-572.912,-808.616,3780,-2520,840
-5.1732,-9.78825,-0.865605,-10.5105,-7.484,-1.11038,-12.1597,-4.80413,-2.61405,-1.18719,0.479957,-6.32723,-0.531961,-2.56422,-11.6038,-5.27309,125.904,-572.424,-810.08,3920,-2800,560
-1.60628,-14.1449,-3.59255,-19.2916,-14.1385,-3.3474,-13.8351,-6.25706,-2.23433,0.240619,1.68913,-9.73338,-0.84008,-8.05912,-18.7151,-7.68138,123.464,-574.376,-810.08,4060,-2800,560
5.04651,-4.00602,0.878035,-4.42618,-4.29368,-1.98094,-1.20006,-0.855663,7.04661,2.48432,4.23978,-1.21274,0.433868,-2.07982,1.69342,1.83795,125.416,-573.4,-811.544,4060,-2940,140
1.95953,4.14588,1.39327,12.6595,8.32324,0.657796,17.4219,5.0032,-0.423222,-0.645448,-0.0915246,3.96088,0.0330604,2.88384,24.2179,10.1822,125.416,-573.888,-808.128,4060,-2800,0
7.90577,13.7137,7.97877,22.014,15.9095,1.74484,15.9274,5.2669,7.97538,2.40419,0.0419886,10.8872,-0.209082,8.17369,26.6677,9.19762,125.416,-574.864,-809.592,4340,-2660,-140
12.701,15.9427,8.53192,14.074,11.8117,0.988919,5.65193,0.592661,13.0653,6.52653,2.48805,12.0686,1.71397,5.68517,8.49403,2.91619,124.44,-574.376,-811.544,4620,-2660,-280
9.98889,11.1721,3.33268,2.20204,4.19774,0.482635,-1.54674,-2.50215,11.7175,5.52203,0.325027,8.21834,0.732504,1.95111,-3.60318,-1.24254,122.976,-577.304,-813.008,4900,-2660,-280
5.84947,12.2024,2.79048,9.75982,9.1229,4.01493,6.99245,1.57644,9.37366,2.30507,-3.14356,9.85224,1.77445,6.44883,11.4509,5.40411,121.024,-576.816,-811.544,5460,-2800,-420
-3.21794,14.6122,2.62875,24.5046,17.5788,3.91233,16.1192,3.32065,-5.62209,-2.10593,-5.2628,10.6553,1.57064,8.90136,22.5112,8.83121,121.024,-574.376,-814.472,6020,-2940,-280
-9.10635,10.6883,3.60299,15.402,11.6431,3.14643,0.225826,1.50183,-12.9561,-4.82719,-3.61015,8.10987,1.68567,7.52188,3.74302,1.26033,122.488,-573.4,-818.376,6020,-2940,-280
-16.1202,-7.77193,-4.46035,-7.94607,-4.64028,1.23006,-13.2326,-1.36178,-20.9766,-9.90897,-3.50505,-4.8023,-0.183057,0.411232,-20.6008,-7.01271,122.976,-574.864,-813.984,6300,-2660,-280
-3.8925,-9.57826,-7.28739,-15.234,-11.1928,-0.921204,-16.653,-3.41072,-3.52818,-3.51299,1.18875,-8.50668,-1.01675,-6.25965,-27.2537,-10.5614,122.976,-568.032,-815.936,6860,-2520,-420
-0.655239,-15.5471,-8.71559,-20.5908,-16.7532,-4.66043,-17.5915,-3.81898,-0.845559,-2.4782,2.45108,-13.2912,-2.05535,-10.5285,-28.7243,-13.6245,122.488,-572.912,-815.936,6860,-2520,-420
-3.54364,-15.2915,-8.21687,-13.9357,-11.2712,-2.81012,-5.61408,-0.168433,-5.93022,-3.5342,0.251335,-12.5775,-0.336726,-6.33121,-11.6577,-6.07681,123.464,-571.448,-810.568,7280,-2520,-420
3.12051,-0.420839,-0.919809,1.64035,1.88243,-0.178324,9.14035,2.85702,1.85904,1.08006,0.431414,-0.477114,2.31109,1.9612,7.47268,6.0786,121.512,-569.008,-812.52,7280,-2240,-280
6.16381,1.85283,0.418088,1.18369,1.06848,-1.05667,6.98566,0.817441,8.32369,4.35586,2.56287,2.18422,1.62329,2.83494,6.93875,4.03856,124.44,-568.52,-812.032,7280,-2100,-560
0.852123,-10.1604,-5.50851,-13.5368,-9.10448,-2.4614,-2.18998,-3.17583,-0.267405,2.34845,1.08488,-6.02167,-0.794149,-4.54842,-8.62226,-2.7798,124.928,-566.568,-810.08,7280,-1960,-700
-0.21443,-12.2613,-3.44964,-14.2423,-10.1012,-2.05111,-3.57232,-0.642164,1.04542,1.30851,2.55647,-6.93842,-1.53597,-2.90308,-3.28556,-0.855907,123.464,-567.544,-812.52,7140,-1540,-840
-1.80461,-11.6603,-3.91763,-14.9436,-11.9178,-4.79624,-7.72806,-4.89943,-4.5411,-0.0807899,1.30508,-9.48447,-2.93492,-6.62181,-9.67195,-6.85189,123.952,-567.544,-806.664,6580,-1400,-1120
3.40847,-5.42886,1.7318,-10.454,-8.72724,-2.17458,-10.8062,-3.14841,3.24135,2.70501,2.36388,-3.65967,-0.590284,-2.88475,-10.5066,-7.73387,124.44,-568.52,-809.592,6580,-1120,-1260
7.50999,5.99882,6.2058,3.21013,1.76947,1.38929,-2.52649,-3.09495,7.35397,6.20824,2.17479,5.86518,3.02981,1.16227,-1.54855,-2.46596,125.904,-571.448,-811.056,5880,-980,-1400
2.87211,16.8065,9.0853,24.2156,15.9954,5.92329,16.902,6.49875,6.48257,2.17027,-1.39497,11.6247,1.89566,6.67883,27.6918,11.5527,130.784,-572.424,-810.08,5600,-840,-1540
-0.646799,22.6626,8.10502,33.7921,21.1653,6.69163,23.0672,10.1114,1.87837,-0.670077,-2.85341,14.5105,-0.069232,8.63947,36.4639,14.683,127.368,-572.912,-809.104,5320,-560,-1540
-8.86687,4.34006,1.30399,9.82933,5.28834,3.35769,4.47637,4.55299,-10.511,-5.12278,-3.09001,2.16173,-2.1955,0.429528,7.74264,2.42401,128.832,-573.888,-810.568,4760,-280,-1820
-6.37738,-7.05818,-2.11386,-16.0586,-10.0479,-0.204594,-14.3014,-1.9441,-8.76551,-3.11135,-2.65593,-5.15436,-2.09519,-6.40563,-20.6438,-8.79183,128.832,-569.008,-811.056,4340,-280,-1680
-5.37163,-12.7847,-2.99165,-19.0838,-11.1242,-1.15237,-12.2145,-2.53657,-5.32679,-2.50017,-1.44774,-9.16643,-2.36152,-4.88304,-15.5142,-5.12942,131.272,-569.984,-811.544,3780,0,-1540
3.9144,9.40852,2.22485,13.0746,8.7718,0.765433,12.0437,2.39716,6.634,2.98449,-0.529087,4.82836,-0.443889,1.1729,18.6421,6.54479,133.712,-567.056,-806.176,3500,0,-1260
10.7322,30.1517,12.0456,40.1535,27.1778,5.25134,20.5416,6.18179,18.6378,7.66411,2.72586,21.586,3.7973,12.3752,35.2612,14.5678,135.176,-565.104,-806.664,3220,-280,-1120
7.28009,18.8408,5.93534,19.0808,14.7651,2.17855,7.87501,3.2773,13.8281,5.41437,1.57606,12.8464,2.18622,5.05356,7.70324,6.57635,135.664,-562.664,-809.592,2800,-420,-980
4.73565,-4.80353,-1.65419,-11.5375,-5.95091,-2.53235,-9.63091,-2.37512,8.94797,3.18444,5.09072,-2.06364,0.109228,-3.23892,-16.6733,-5.06968,135.664,-564.128,-808.616,2520,-980,-700
3.94669,-10.8681,-4.10562,-18.6385,-13.2485,-3.74144,-12.2835,-5.37958,2.50566,0.339082,4.08078,-7.42426,-0.368225,-6.68279,-19.8695,-8.88934,135.176,-563.64,-810.08,2100,-1260,-840
-6.77344,-25.3115,-10.9735,-26.8687,-20.8166,-3.98901,-11.5185,-3.54199,-11.2519,-5.86495,-1.25122,-19.1907,-2.89947,-10.4829,-19.2906,-8.91723,132.248,-560.712,-806.664,1680,-1540,-700
-1.37684,-14.7488,-5.29682,-18.088,-12.9425,-2.51869,-7.58308,-2.13094,-0.931659,-0.294502,-0.376859,-10.629,-0.305649,-5.2698,-9.97249,-4.34635,133.224,-563.152,-805.688,1120,-1960,-700
-1.28483,-5.09543,-2.38885,-10.8703,-6.6106,-2.75345,-6.417,-5.38194,-3.19097,-1.60398,-2.10211,-2.95015,0.459606,-1.9871,-10.6403,-4.28295,132.736,-560.224,-806.176,700,-2100,-980
-17.9278,-9.99891,-1.95416,-4.20108,-0.192369,1.49524,-2.11938,0.069831,-24.1817,-11.0901,-7.68502,-4.3202,-0.317477,5.56522,-5.28225,0.875609,133.712,-562.664,-811.056,280,-2240,-1120
-25.0148,-15.2205,-2.21563,-3.65329,0.429975,0.161572,-1.31294,0.503115,-34.9143,-14.3227,-8.79495,-9.36645,-1.15714,4.56847,-3.62062,2.49229,133.712,-561.688,-809.104,-140,-2660,-1400
-9.91461,-0.796188,1.61592,13.3958,10.1792,2.05333,14.83,5.05023,-13.8663,-6.42131,-3.13333,-0.814706,1.32652,7.82921,23.3715,10.4699,137.128,-566.08,-813.008,-420,-2800,-1680
10.4534,26.9873,7.81156,39.2718,28.6759,6.53995,33.1465,10.7107,14.0139,3.15978,-0.357835,20.1885,3.37214,16.3684,45.1878,22.8567,135.176,-565.104,-816.424,-420,-2520,-1820
8.68375,11.9635,0.631125,13.6679,10.0196,1.65439,9.15061,1.35339,10.3854,2.70304,0.252341,10.0343,0.524082,4.61862,11.501,7.71201,136.152,-565.104,-820.328,-420,-2380,-1680
6.73617,-1.81693,-3.21263,-11.4677,-8.62579,-5.05108,-14.585,-8.92163,7.00687,4.51581,3.01489,-0.469716,-1.34711,-6.07311,-19.1418,-8.93058,132.736,-562.664,-817.888,0,-2100,-1540
13.3897,6.59316,4.14064,-4.06099,-3.51114,-4.42992,-11.6363,-9.47929,17.5611,9.92897,9.11283,4.40339,1.61259,-3.2011,-10.5232,-7.7214,133.712,-562.176,-817.4,560,-2240,-1540
10.5974,2.73043,0.619231,-4.3847,-5.37555,-4.3862,-7.95283,-5.82934,10.7811,6.33206,6.3186,-0.759169,-0.22872,-7.05962,-8.25215,-8.74406,134.2,-561.2,-818.376,1260,-1820,-1260
3.70521,-9.23703,-2.83072,-14.0692,-12.2344,-2.90139,-12.6231,-1.69418,2.86066,0.446659,4.69091,-8.21792,-0.790337,-8.33769,-14.865,-9.48118,131.76,-560.224,-808.616,1400,-1540,-980
-1.78471,-13.2149,-7.86556,-21.0147,-14.7366,-2.70571,-14.1233,-4.25406,-6.25906,-2.44381,-0.319846,-10.24,-2.60105,-9.9108,-23.5253,-13.242,131.272,-560.224,-818.376,1540,-1540,-560
-2.05068,-14.5207,-9.43802,-21.8079,-16.4295,-2.12605,-14.7726,-0.447678,-1.51857,-2.4041,-0.997626,-13.0111,-4.85014,-9.62436,-20.477,-11.22,128.344,-556.808,-817.4,1540,-1540,-420
-0.164732,-7.30946,-7.82767,-13.9093,-13.5722,-4.34669,-10.8985,-1.20505,-2.19773,-1.54593,-2.48832,-8.85497,-2.95598,-11.056,-16.85,-10.1089,128.832,-557.784,-821.792,700,-840,-140
-2.5853,-5.07436,-3.08932,-8.46993,-6.91977,-1.39361,-3.79004,0.204086,-2.57913,-1.5923,-2.98594,-5.06612,0.640307,-5.45324,-5.51907,-4.06957,131.76,-559.736,-813.984,420,-420,420
2.0936,18.2574,9.29311,22.4536,17.7209,7.05097,19.3346,5.26091,6.19063,4.62818,-3.19213,13.2825,4.73874,10.1622,24.5038,11.1169,130.296,-559.248,-810.568,700,-420,700
-5.96644,22.9392,13.7499,36.7794,30.6224,11.4323,31.7131,10.4047,-5.45857,-0.174376,-6.54664,21.0055,4.49327,19.5574,38.8492,21.1749,127.368,-563.152,-811.056,700,-280,1120
-15.5383,6.72437,6.66205,27.8684,22.3552,9.2459,29.9912,10.5789,-20.4078,-6.7191,-4.48131,8.59222,1.37521,15.0557,33.723,20.3881,127.856,-562.664,-810.08,280,-420,1400
1.15935,18.693,7.67656,37.4737,23.6793,6.54777,28.7906,8.60059,3.87126,1.10664,2.20123,13.7459,0.289329,15.1308,37.8435,17.5808,130.784,-562.176,-812.52,-140,-700,1680
20.7027,28.6945,10.7182,30.6291,16.3467,3.22342,13.4155,2.63149,25.394,12.8102,7.93349,19.2656,2.64665,9.08467,18.2206,6.36127,130.296,-564.128,-811.544,-560,-1120,1820
15.4189,5.68563,3.26733,-2.08925,-3.35619,-0.439994,-8.84778,0.671504,18.6028,9.40222,7.91149,4.3087,0.974957,0.253178,-10.5606,-4.1355,129.808,-559.736,-809.592,-980,-1540,1960
17.4884,-3.65959,-3.00653,-22.037,-16.3402,-4.91149,-20.7616,-4.24181,20.7869,10.4501,8.04204,-2.90492,0.62891,-8.10436,-25.1057,-12.0855,131.76,-560.712,-813.984,-840,-1960,2100
26.628,10.2675,4.65741,-8.97114,-7.62485,-3.25143,-15.1904,-4.49873,37.005,17.2049,9.7972,7.63126,3.70407,-2.33261,-9.97484,-7.10932,130.296,-562.176,-814.96,-700,-2380,2240
6.85026,-0.12703,0.606065,-8.09631,-5.11808,-2.82712,-9.98381,-3.29974,10.9903,4.75167,0.0501364,0.707872,0.0304902,-3.31259,-4.42829,-4.45848,133.224,-560.712,-812.52,-420,-3080,2240
-27.058,-27.4821,-8.99095,-26.3143,-14.7724,-2.3914,-22.1424,-3.00739,-35.2057,-15.9761,-8.62195,-17.5227,-3.5992,-7.6226,-24.0249,-10.779,134.2,-557.784,-811.544,140,-3500,2940
-43.7428,-34.4101,-8.70671,-28.4504,-13.6109,1.42799,-21.2873,-1.64241,-52.9916,-26.0373,-11.6708,-20.7901,-2.55886,-3.06974,-27.2085,-9.14902,130.784,-562.176,-813.984,420,-3640,3080
-53.4272,-48.0378,-17.2225,-30.4426,-16.0274,-2.19655,-4.37054,0.0917251,-64.294,-31.6235,-14.5494,-33.6725,-7.48479,-7.7054,-12.1133,-0.960908,134.688,-563.152,-817.4,840,-3920,3220
-22.8459,-29.0957,-13.1335,-15.9392,-9.50474,-3.96711,6.02558,2.59982,-20.7083,-14.7018,-5.03982,-25.3642,-6.53076,-8.71863,7.94409,5.03649,133.712,-568.032,-820.328,1260,-3780,3500
14.0469,4.93589,-0.922802,0.21899,-1.61502,-4.8257,0.840546,-4.11728,22.6493,5.74138,3.30045,-0.1208,-1.97381,-7.51827,0.631466,0.132046,133.224,-564.128,-824.72,2100,-3500,4340
9.14156,2.27631,1.73038,-5.92989,-4.74717,-3.49541,-5.43323,-6.16054,13.5856,4.65048,2.99295,0.849052,-0.0974641,-5.52332,-10.7641,-4.1699,133.224,-566.08,-825.208,3360,-3500,4900
-0.575426,-3.22227,-1.24021,-0.210396,-3.39045,-1.61522,3.38439,-3.29092,-3.29054,-2.26536,-0.457007,-3.65149,-2.01663,-3.14604,-0.330844,-1.69604,136.64,-567.544,-827.648,4480,-3360,5320
6.97415,8.60253,3.22705,13.438,6.26967,1.76527,13.1512,2.65019,3.20963,1.76872,0.913579,5.02477,0.285424,3.85587,11.0691,6.68615,132.736,-567.056,-825.208,6300,-3220,6020
22.5806,30.0908,9.32556,28.1778,16.362,2.51684,14.232,2.30364,23.7558,12.4541,5.08881,21.1755,4.60819,10.1491,17.0351,7.35432,132.736,-567.544,-826.184,7560,-3220,6720
18.9123,30.5108,7.46856,34.3162,18.7584,0.874004,16.5927,1.53851,23.6048,9.76837,3.49764,21.5438,2.48681,8.99259,26.3055,6.72625,132.736,-568.032,-827.16,9240,-3080,7560
12.5183,18.2901,2.34875,15.0197,7.07887,-0.836821,3.37651,-2.55966,12.3993,6.53531,-0.470322,12.5314,1.31574,1.40919,1.89165,-1.97474,131.272,-568.032,-823.256,10920,-3220,7980
9.05752,4.56474,2.81341,-7.43867,-3.33875,0.323058,-9.76652,-0.869289,8.8846,5.0719,0.0788638,4.42249,2.94072,0.481757,-15.0421,-6.33503,131.76,-564.128,-820.816,12460,-3220,8260
6.3595,-2.32285,0.175946,-13.876,-6.05402,0.135667,-9.59034,-2.52113,0.536894,5.44993,0.471242,0.0801403,4.20744,-2.15672,-16.4459,-8.65374,128.344,-565.592,-813.984,13860,-3220,8540
13.2673,6.91056,5.89244,-1.70252,3.22632,2.3303,-5.92219,-0.811572,10.7599,10.4944,5.207,8.82847,6.95606,3.07697,-1.3353,-4.62506,125.904,-563.64,-813.008,14560,-3500,8540
7.63199,8.13838,5.05369,6.3365,6.43292,1.3179,2.0036,-0.0583451,4.56995,6.41066,2.78685,8.16355,3.91534,2.51102,6.36289,1.4382,127.856,-565.592,-807.152,14700,-3920,8680
-13.9145,-4.47651,-3.73514,6.76008,4.5268,2.77498,11.8187,7.83636,-17.6471,-7.84386,-4.96398,-4.1461,-0.293003,3.02112,14.4098,12.0812,127.368,-566.568,-808.128,14420,-4060,8120
-19.0343,-13.5772,-7.4032,-3.17879,-1.12746,-0.0354947,6.23873,5.22993,-22.2767,-10.6801,-3.66541,-11.1573,-3.61254,-0.717129,3.77366,8.14358,128.344,-566.08,-806.176,13860,-4060,7840
-12.1468,-15.0683,-6.37421,-10.6954,-6.71152,-1.61501,-2.96727,-0.770407,-14.0564,-7.26501,-0.185227,-11.7619,-4.69306,-4.63415,-6.70282,0.988821,131.76,-565.592,-806.176,12740,-4340,7560
-6.75964,-4.56248,-0.180109,-2.88998,-0.358365,1.62663,0.458612,2.18049,-6.72115,-4.09985,-0.218583,-4.76212,-2.3791,-1.59751,0.236551,3.05277,129.808,-569.008,-809.104,12320,-4200,7420
-13.3279,-12.8565,-2.80402,-8.43832,-4.79457,0.966781,-8.22484,0.153678,-13.377,-6.78838,-3.57299,-8.83528,-4.18419,-3.40025,-6.59461,-3.39731,133.712,-568.52,-809.104,11480,-4200,7280
-2.0876,-6.6939,-0.0426702,-9.61989,-6.10772,-0.668507,-8.76555,-3.5318,-2.09982,0.268147,-0.559597,-4.43737,-1.38282,-3.96758,-9.30695,-7.22025,133.224,-565.104,-807.152,10920,-3920,7000
13.6031,13.0701,8.25952,10.6996,6.16272,2.65236,0.121447,-1.51793,18.4919,8.63861,5.83972,9.07329,2.3617,6.18074,7.09068,-0.964178,129.808,-568.52,-805.2,10360,-3780,7000
8.86988,20.5894,6.12051,25.2658,15.5597,3.49423,12.417,-3.19061,13.0787,4.78648,1.43465,11.3865,1.68259,8.68548,20.6386,6.44659,132.736,-565.104,-811.544,9800,-3780,7280
6.62698,4.77564,1.03453,-0.157123,-2.51935,-1.09618,-8.36748,-9.56097,12.6666,5.8502,5.82972,3.04491,-0.0994261,0.497484,-6.97279,-6.16545,132.248,-565.104,-810.08,9660,-3640,7140
-3.12202,-8.36005,-1.59719,-15.2236,-10.6605,-1.47356,-13.9717,-9.07431,-1.43766,0.495304,2.62425,-2.64753,0.819885,-2.43237,-20.8234,-9.23516,132.736,-563.152,-810.568,9100,-3500,7140
-5.213,-7.29359,-1.25489,-3.21605,-1.85143,0.309834,4.92158,0.160726,-6.59767,-3.19523,-2.04086,-1.96191,2.00648,1.8015,0.97244,3.47756,130.784,-562.664,-808.128,8960,-3360,7140
-0.0411471,-4.15653,-2.80849,0.223763,-1.8771,-1.7344,7.63124,7.4321,4.53062,-1.16523,-1.22913,-1.94852,-0.635508,1.27719,8.53547,6.91172,131.76,-561.2,-811.056,8540,-3500,7280
4.68139,0.52778,-3.42171,-2.30911,-4.00373,-4.10964,3.67177,6.30346,8.68762,0.535151,-1.1178,-0.379472,-2.4619,-2.24183,0.594023,3.45645,132.248,-560.224,-806.176,7840,-3080,7140
-0.730117,-4.10623,-2.64417,-4.62067,-3.12152,-0.939823,2.23049,10.0306,0.978249,-3.34737,-3.24306,-2.78363,-3.11339,-1.19795,1.90592,4.27752,129.32,-559.248,-809.104,7280,-2940,7000
-7.01399,-4.99638,-2.7608,0.465639,0.846606,-0.417181,7.86679,9.46711,-7.64464,-6.1525,-5.97496,-2.96957,-4.19824,-0.125992,9.08157,5.89956,129.32,-559.248,-807.64,6580,-3220,6720
4.05353,8.8158,4.46785,10.2079,7.18026,2.90921,10.2933,9.13599,6.89622,2.12311,-1.12833,5.69352,0.154742,4.3508,15.6348,6.4964,129.32,-557.296,-804.712,5600,-3360,6440
-0.880957,9.40224,6.17621,14.4921,11.5509,5.12517,12.7325,8.61419,-2.06597,-1.27816,-1.07192,5.36471,1.95489,7.37678,16.4228,9.0364,130.296,-556.32,-801.296,4340,-3360,6020
-8.41793,-0.0893711,-1.53005,5.90278,4.51478,2.30467,3.07136,2.88629,-11.9644,-6.98016,-2.18516,-2.99587,0.539526,0.00412582,4.08683,0.284807,127.368,-557.784,-801.296,2660,-3780,5460
-0.241339,-2.45434,-3.07226,-6.8431,-5.43305,-2.05432,-15.5469,-7.12005,-3.8029,0.171357,2.09666,-3.17046,1.62501,-6.50999,-19.8752,-13.2951,130.296,-557.296,-803.248,1400,-3500,5320
2.28279,-10.5771,-4.64672,-18.5307,-12.1113,-4.36501,-20.1545,-8.86781,-3.2673,1.21882,1.72562,-8.01364,1.31268,-8.52706,-26.5729,-16.7501,129.32,-558.272,-806.664,-700,-3640,4760
5.5088,-4.04031,-1.68624,-16.3466,-9.90585,-5.74432,-15.7376,-10.5401,0.139465,2.49283,-1.52401,-3.92114,1.29917,-9.25669,-22.3739,-15.4979,128.832,-556.808,-806.664,-2240,-4200,3920
10.4082,2.88231,4.34329,-9.41922,-4.46549,-1.01627,-14.6263,-10.3326,10.3114,7.78454,5.08003,4.90962,5.15368,-2.37697,-15.0788,-11.9873,130.784,-558.272,-809.104,-4200,-4620,3500
3.43,4.47172,-0.140369,0.438783,0.684289,0.054686,-1.89187,-9.74641,2.14463,4.54967,2.60254,4.12066,2.60202,-1.16357,-1.6027,-3.78051,129.808,-563.64,-809.592,-5460,-4900,3360
-0.985733,4.07022,0.133206,8.24961,4.69984,0.8787,8.05374,-3.57087,-0.218493,1.57203,1.6687,3.42009,-0.866392,1.74878,13.2021,6.08981,129.32,-560.224,-810.568,-5880,-4760,3500
-8.43983,-3.98332,-2.92822,0.473283,-0.434225,-2.10302,3.50694,-2.76738,-12.45,-4.11314,-1.05067,-4.96768,-4.37374,-3.26471,-0.348203,1.38228,127.368,-559.248,-811.056,-6580,-4060,3360
-7.70663,-2.2044,0.102099,2.91603,3.07345,-0.896634,5.00504,1.75848,-6.38678,-4.79487,-1.15511,-3.22468,-3.06776,-0.265917,4.01386,5.02582,127.856,-560.712,-813.008,-7560,-3500,3360
0.422408,3.4271,4.24843,5.76177,5.44747,2.64161,7.29047,3.94647,3.92437,-0.745995,0.477332,2.83518,-0.581067,2.36431,8.9155,7.8308,123.952,-558.272,-813.008,-7980,-3080,3360
-1.52839,-3.18984,-0.22531,0.554344,-0.242343,0.862322,5.79064,3.43127,0.597088,-1.64364,0.706352,-1.44979,-1.87916,1.12251,7.15857,5.6715,124.928,-561.2,-807.64,-8400,-2660,3220
2.82409,-3.07517,-1.06096,0.605498,0.392664,0.582441,7.1092,3.58901,4.00407,1.79429,2.26097,-0.799707,-0.589198,2.72998,8.4886,4.82415,121.024,-559.248,-811.544,-8680,-2380,3360
3.7343,5.34121,2.95444,9.66853,6.34272,2.18172,8.91887,3.64985,6.52442,2.73786,1.64859,5.68372,1.21574,7.10274,12.217,5.48514,119.072,-561.2,-804.712,-9240,-2380,3360
-4.3767,4.38343,-0.24282,7.07124,4.48152,3.2021,4.29426,2.38673,-2.68329,-2.68641,-3.65889,3.8135,1.04725,3.69823,4.54982,2.92592,118.584,-560.712,-805.2,-10360,-2240,3080
-11.2426,-8.43036,-0.125133,-7.09255,-5.28066,1.75852,-15.4463,-3.00236,-13.6936,-5.91058,-3.24216,-2.4436,1.76311,2.41648,-18.6265,-4.73757,116.632,-562.664,-807.152,-10780,-2240,2940
-13.5954,-13.8044,-3.35369,-13.2462,-8.47888,-0.409962,-14.0353,-0.930856,-20.7652,-7.85875,-4.94038,-7.72833,0.285092,-0.830072,-18.7464,-5.85988,117.12,-569.496,-810.568,-11900,-1960,2520
6.86094,0.339548,0.524284,-5.43601,-5.68131,-2.39991,-8.0305,2.17354,7.94113,3.34796,1.15555,-0.324108,-1.03377,-2.68168,-5.05694,-3.37283,115.168,-568.032,-813.008,-12180,-1680,2240
17.6998,10.0578,1.4007,-1.00969,-3.98557,-5.84133,-5.57325,-1.34208,22.2017,9.30174,5.08739,4.53461,-0.124244,-5.40833,-3.67202,-5.8974,116.632,-573.4,-817.888,-12600,-1820,1960
1.75291,0.0477132,-3.25676,-0.215782,-1.7567,-3.76008,1.80414,-0.212099,3.56105,-1.49446,-2.31064,-2.44993,-1.71979,-4.40656,2.11365,-1.37645,117.12,-577.304,-817.4,-11900,-1680,2100
3.31132,7.4976,0.733495,15.2353,9.30678,1.79817,14.0401,3.12599,8.3372,0.297057,-1.6594,3.18666,0.796711,3.63549,20.6132,9.19409,118.096,-575.352,-823.256,-11340,-1680,1680
8.15162,10.1838,-3.01833,14.4788,7.14004,0.718261,14.6416,1.07616,12.6747,2.90529,-0.908655,2.90075,-1.19733,0.736723,18.4401,8.65426,118.584,-579.744,-825.696,-10220,-1820,1820
12.4202,9.54714,-1.14838,10.7473,4.71214,0.42201,14.5197,4.03713,19.9737,6.83822,2.3696,3.46367,-1.18531,1.21262,19.7444,9.97928,113.216,-579.256,-825.208,-9240,-1960,2100
10.0451,11.5313,3.47362,13.8238,8.15836,1.84365,13.0604,3.24378,13.2233,6.93073,3.7347,5.88863,0.442617,3.59783,15.4106,8.31954,115.168,-576.816,-822.28,-7560,-1820,2380
-5.11212,2.82898,4.31777,1.2446,3.01552,3.5422,-4.76681,-0.0374126,-8.62146,-1.10519,-0.663648,3.71951,0.838925,3.82766,-8.48255,0.0104252,113.704,-577.792,-820.328,-6300,-2100,2520
-32.552,-31.7377,-8.23668,-32.9387,-17.0541,0.291425,-21.6304,-3.07392,-46.3422,-17.26,-10.5971,-18.4283,-3.86661,-2.87407,-31.7911,-9.92525,112.728,-577.792,-829.112,-5600,-2240,2520
-26.5919,-22.1731,-4.53271,-16.1191,-5.24106,3.01865,-4.7001,0.79725,-38.2415,-11.2089,-6.6257,-11.6262,-0.128036,2.78055,-7.12624,-2.38317,114.192,-576.328,-828.624,-4620,-2240,2380
-3.46248,8.33995,9.04786,9.32884,12.3424,6.07928,3.57719,0.111523,-9.08709,3.7234,2.11573,9.4604,6.46568,9.97662,3.46983,1.65448,115.168,-579.744,-834.48,-3640,-2100,2240
-0.90088,-1.99138,4.26576,-9.33065,-4.95577,1.56092,-15.9262,-5.64104,-2.63986,2.00123,3.5898,0.239673,3.02866,-0.539872,-19.771,-12.5569,116.632,-581.696,-837.408,-2100,-1820,2520
17.5256,0.648955,4.21371,-15.6589,-11.8532,-1.73444,-18.6444,-7.41399,18.7066,11.7766,10.919,2.17155,3.70339,-8.74596,-26.4659,-17.3232,113.704,-584.624,-844.728,700,-1540,2520
28.6993,8.34858,6.70718,-2.88839,-4.19632,-1.83025,-4.61646,-0.150882,36.3728,15.9739,14.3205,7.42942,3.37042,-4.78717,-4.29942,-6.74685,115.656,-584.624,-846.68,2800,-1680,2940
9.71616,12.5568,1.91819,20.5823,15.2273,0.562266,27.5964,10.4689,11.8209,2.56877,1.71381,6.54196,0.274683,2.91861,30.0309,12.6711,113.704,-581.696,-849.608,6440,-1400,3500
-8.25584,-1.45768,-2.55163,13.8016,11.2945,1.32412,25.0419,13.7852,-6.64809,-8.17772,-4.49726,-4.40628,-2.4739,2.39912,31.7724,15.154,116.632,-580.72,-842.776,9100,-1260,3920
3.69641,11.6846,-0.231745,20.9311,12.7751,-0.382357,19.8192,6.93746,7.11101,-1.18294,-2.96731,4.69442,-2.45552,0.110001,25.6908,10.8968,115.656,-574.864,-837.408,12600,-1400,4620
16.0854,20.9263,4.55086,24.5112,14.8445,-0.131009,15.3631,3.31943,23.6168,6.60173,2.62272,13.9411,-0.406737,4.2652,24.9401,10.9537,115.656,-574.864,-833.016,15400,-1400,4900
6.50456,3.51259,-0.738983,-2.64364,-1.50118,-3.28987,-4.97598,-2.43275,8.29463,1.76535,1.19865,4.35123,-1.43276,-2.42304,-4.21658,-0.260744,112.728,-573.4,-830.576,16800,-840,5180
0.00561136,-6.88725,0.434328,-14.9658,-6.23735,-0.840461,-16.1917,-4.18553,-2.32987,0.826742,2.41217,-0.102468,1.85577,-0.256865,-23.2887,-5.71848,114.68,-570.96,-820.328,18060,0,5180
-9.40175,-11.6037,-1.70829,-10.0357,-4.0993,1.22106,-5.54888,-2.33471,-11.3883,-3.97676,-0.327172,-5.85963,1.41507,1.96845,-9.06195,0.0692195,110.776,-571.936,-819.84,18900,140,4900
-17.9225,-15.4711,-5.26505,-5.95428,-4.75764,-0.400019,-2.17129,-4.43786,-22.5843,-10.1312,-6.22825,-10.1086,-1.14351,2.06607,-1.68061,1.80229,112.728,-572.912,-819.352,19180,280,4480
4.16779,0.150022,-1.02005,-15.0755,-17.4487,-8.1397,-30.9564,-19.5959,1.77904,2.89801,-1.37468,-1.9739,0.193006,-9.52045,-35.0561,-21.5206,113.704,-573.888,-814.472,19600,1260,4060
-14.8297,-30.5081,-15.0581,-52.0834,-43.2623,-13.8786,-54.1223,-22.5165,-21.0135,-10.0204,-6.94554,-25.1681,-7.81071,-23.4257,-66.4581,-35.0186,115.656,-571.936,-810.08,19740,1820,3640
-27.0332,-29.3489,-17.5339,-33.5903,-26.6729,-8.29178,-22.7722,-7.30891,-32.7734,-18.7143,-13.038,-24.8936,-9.18485,-13.9947,-31.9536,-14.9721,117.608,-570.96,-809.104,19180,2240,2660
4.31659,16.7702,6.0253,13.6964,9.46958,1.87783,3.55589,-0.325043,7.70205,2.23775,-1.99529,12.2811,1.84214,7.56786,6.65399,3.1918,116.632,-572.912,-811.056,18200,2940,1960
6.43721,16.6364,7.14624,26.0634,16.9813,3.79683,22.6445,4.22979,8.67864,3.49816,-1.23978,12.1017,2.24211,10.4321,32.1102,10.0987,114.68,-569.984,-814.472,16660,3640,700
-1.77424,17.0169,3.11836,46.2904,29.8497,8.46052,53.8068,15.9871,-0.230305,-4.54922,-6.05953,8.06082,-1.47042,13.7165,69.4778,30.4163,119.072,-563.64,-807.152,16100,4200,-420
9.02377,11.0585,0.247184,27.5718,16.836,6.8893,34.8259,13.5474,13.6152,1.63039,-1.24293,4.03083,-1.313,6.73157,44.8455,23.6648,114.192,-560.224,-805.2,15120,4340,-1260
17.0893,10.2606,4.0327,8.0821,6.30881,4.49969,8.69997,4.57999,20.2086,9.40634,3.09999,7.39296,2.85482,0.976129,6.02845,6.78302,115.656,-551.44,-795.928,14280,4340,-2100
-2.53097,-1.47616,3.47655,-2.1076,1.8421,3.95754,-7.08071,0.690144,0.0835552,0.640849,2.0035,2.35954,3.02756,2.1142,-8.11484,-1.85971,116.144,-550.952,-791.048,12880,3920,-2800
-3.85438,-0.174326,-2.23363,-3.30819,-3.62024,-3.55387,-13.7094,-4.36933,0.171851,-2.07593,3.04987,0.559622,-1.72241,-4.60408,-13.8858,-10.6018,118.584,-546.56,-784.216,10080,3500,-3780
-6.96454,-12.3534,-8.16105,-20.7863,-15.6741,-4.98684,-24.7089,-6.88039,-1.46978,-2.18394,3.8374,-8.83925,-2.92085,-10.7142,-28.1133,-17.8192,121.512,-543.632,-783.728,7280,3500,-4900
-42.9265,-54.2985,-21.9496,-54.1348,-34.656,-5.65785,-39.9912,-7.10236,-54.4206,-21.8624,-6.37952,-39.1862,-8.10589,-17.4147,-54.9731,-23.7861,121.512,-540.704,-786.168,3360,3920,-5600
-52.1031,-65.5762,-21.5873,-62.6272,-36.2664,-2.44261,-36.1023,-2.22937,-71.414,-25.7916,-8.06451,-46.3352,-6.36736,-14.4022,-54.2093,-18.7054,120.048,-540.216,-779.336,-1400,4480,-6580
3.57455,8.74993,4.09705,13.6468,11.9253,4.48928,23.1005,11.8512,7.3469,5.1458,2.12628,3.28544,2.85665,8.31926,24.8405,14.3549,120.048,-538.264,-773.48,-5460,4900,-7140
52.8138,64.2019,28.9669,63.5274,44.4825,10.3976,47.5943,14.2469,66.6602,35.4561,17.8799,47.3221,13.7355,24.1101,62.1116,31.1166,122.488,-540.216,-766.16,-10920,5040,-7980
45.5146,34.9135,21,16.699,12.9289,0.87894,2.71676,-3.77332,48.7109,33.2575,19.0961,29.9826,12.5362,7.52548,2.2088,0.899037,127.856,-545.096,-767.136,-15120,4480,-8820
33.1578,20.3417,17.7166,9.02735,10.888,3.66725,2.70752,3.47062,35.7614,23.2286,15.5797,20.3751,9.88503,10.8517,2.85476,5.54084,128.344,-549.976,-773.48,-20300,4760,-9100
25.6956,19.1076,16.8073,8.81683,11.5511,5.47984,3.41976,1.56771,23.4499,19.47,11.7874,20.3341,8.71113,9.12906,0.600804,3.65541,127.368,-553.88,-776.408,-24500,5320,-9660
18.4521,25.5568,16.1336,23.5477,18.3069,4.51056,16.4006,4.12936,19.7585,12.2075,6.82069,22.4308,5.95745,11.9065,24.0664,9.09708,128.832,-555.832,-779.336,-26880,5600,-9800
6.98304,22.868,7.34216,35.597,23.7982,3.03348,36.7722,8.58257,7.93439,1.36617,-1.7304,16.093,1.72848,10.4701,45.7262,18.9153,127.368,-555.832,-783.728,-29680,6440,-9800
-16.2915,-5.34023,-6.97668,11.6543,7.03768,1.28589,22.969,10.2646,-14.4602,-16.497,-12.9223,-6.93765,-7.63875,1.44831,26.4876,15.5476,124.44,-559.736,-785.192,-31500,7000,-9520
-24.8146,-24.5746,-15.6566,-21.0424,-16.8045,-4.56861,-12.5444,-1.95437,-26.1739,-21.9005,-14.864,-19.4464,-10.2713,-10.9176,-15.8299,-4.54207,122.488,-557.784,-785.192,-33600,7280,-9380
-24.9046,-25.8405,-18.3403,-33.481,-29.3637,-10.1929,-34.0395,-11.5818,-24.8516,-21.5783,-13.0073,-21.1904,-9.85908,-18.1018,-37.0021,-22.3409,119.56,-560.224,-779.824,-35700,7140,-8820
-23.8335,-3.77161,-12.2731,2.63619,-4.64656,-4.93477,-2.31407,-2.04172,-19.9765,-22.08,-16.2991,-8.75626,-9.47979,-6.95095,9.05781,-6.94535,120.536,-562.176,-785.192,-37940,6580,-8820
-6.84109,15.4312,-1.45684,22.9758,10.0135,-1.22689,6.95664,-2.73365,-3.47292,-7.99325,-6.88771,5.74819,-3.43158,1.35348,19.8982,0.0337887,117.12,-566.08,-789.584,-40880,5880,-8820
9.02977,3.94009,1.29949,-2.07417,-3.67034,-1.09348,-6.78163,-7.21948,7.84097,8.36847,6.41804,1.68127,2.71503,-3.69207,-7.41707,-6.52334,119.072,-572.912,-796.416,-42840,5600,-8960
-7.04935,-21.1854,-2.49548,-15.4618,-8.56583,0.934323,-9.96063,-4.5801,-13.9201,1.55287,4.78243,-12.4723,2.65373,-1.59366,-15.7887,-4.47316,122,-572.912,-801.784,-44520,5460,-8960
-26.4538,-55.9863,-16.4046,-69.648,-46.1095,-8.53064,-57.8884,-21.2129,-43.2216,-8.62954,2.17216,-37.0066,-1.70947,-21.4548,-80.595,-35.1258,121.512,-569.496,-805.688,-45640,4900,-8960
-45.3095,-80.2829,-28.4416,-94.0148,-66.203,-14.0789,-71.8228,-25.5634,-64.0212,-23.1607,-4.84501,-56.0064,-10.0568,-32.8104,-94.3344,-45.3343,117.608,-567.056,-803.248,-45920,4900,-8820
-11.3864,-6.35874,-10.5414,13.1733,5.36451,-0.0359716,26.4679,8.65393,-10.2942,-12.8851,-9.29947,-11.149,-7.51493,-0.0200864,32.1396,12.8663,119.072,-564.128,-800.808,-46480,4200,-8400
43.9001,70.4376,22.792,90.1373,63.1759,12.1473,80.6147,27.8299,61.9861,17.4977,0.210864,47.0684,6.47586,30.1329,100.767,49.7191,116.144,-561.688,-807.64,-47040,4200,-8260
24.0493,40.0819,16.778,48.9784,39.755,9.07094,42.6236,16.9521,34.7232,8.17398,-3.35223,29.7914,5.2345,20.8641,54.4208,31.3671,120.048,-561.688,-812.032,-47040,3640,-8260
21.9343,11.4178,4.30892,-5.58574,-1.75849,-2.4722,-10.4068,-6.56945,25.2984,10.0562,1.79838,9.04153,1.37738,-3.81882,-15.4859,-7.70601,116.144,-557.296,-815.448,-46620,3500,-8680
30.4619,11.0583,7.37647,-9.10149,-4.82288,-0.664721,-15.7202,-4.9844,35.9586,18.8005,12.2958,10.1275,4.0515,-1.92954,-20.5547,-8.90621,117.608,-553.88,-817.888,-46060,3360,-8540
24.5272,22.3612,9.04602,14.7478,9.81085,1.94999,8.97509,0.930417,26.5623,15.8618,9.38193,16.6364,5.47133,6.26565,7.3797,4.13241,117.608,-553.88,-825.696,-45220,2520,-8680
2.41467,13.1119,7.83127,18.4988,15.0845,5.17962,18.4056,6.72919,-0.357889,4.3716,2.11502,11.1492,4.8185,11.0939,19.6382,12.8659,114.68,-552.416,-833.504,-44100,2240,-8820
-8.5284,16.8202,13.7167,31.6919,29.2781,10.8015,31.0675,13.6856,-15.6706,-0.417122,-3.03555,16.751,6.51529,20.8976,34.2173,23.063,114.192,-550.464,-833.016,-42000,2380,-8820
5.91854,30.8807,23.3786,36.9361,32.5761,11.8247,17.4109,8.58242,1.74329,12.229,6.63201,29.296,13.4452,24.4147,21.172,15.4055,114.68,-552.416,-838.384,-39480,2660,-8680
22.6939,2.76211,12.8319,-30.4912,-19.0669,-3.38971,-56.179,-18.7097,21.0397,23.6277,18.6836,7.46017,9.56382,-5.52322,-68.2528,-31.7399,114.68,-552.416,-838.384,-37380,2660,-8400
3.3873,-45.6964,-11.804,-83.0963,-61.4828,-14.5484,-84.7901,-28.8189,0.441463,8.65042,14.4084,-30.5515,-2.38462,-30.7612,-102.927,-53.0863,117.608,-552.416,-845.704,-34160,3080,-8120
-34.5059,-47.4223,-28.5631,-53.13,-44.6387,-14.1403,-42.0908,-14.8987,-39.1443,-20.1725,-5.10665,-40.0665,-12.7431,-29.0573,-49.7558,-28.3907,116.144,-557.296,-846.68,-31640,3220,-7980
-58.1918,-43.1402,-33.9644,-27.0819,-27.9182,-11.4519,-16.7874,-4.1227,-59.3396,-40.2587,-20.6594,-40.4338,-19.221,-20.7932,-14.0414,-10.7544,118.096,-556.808,-844.728,-28280,3500,-7700
-48.8476,-50.6702,-37.182,-28.4232,-27.2379,-9.5592,2.35755,4.09763,-49.5957,-36.9068,-20.0568,-45.677,-19.2829,-20.6312,2.75896,0.0943225,119.072,-557.296,-843.264,-25340,3500,-7560
0.790144,-5.01643,-7.56928,9.08791,2.43641,1.10003,28.0063,13.8513,11.1832,-4.94113,-4.17316,-6.76055,-5.83221,0.027655,37.1029,19.4896,120.048,-557.784,-841.8,-22960,3500,-7140
17.047,32.4177,8.58879,47.4669,31.7308,5.66693,46.6499,13.6268,28.0163,6.54923,-3.6829,21.348,1.63976,14.7395,58.6618,27.5391,122.488,-556.32,-841.8,-20580,4200,-6860
9.41964,21.86,3.71434,29.9781,19.986,1.66388,26.7987,9.5454,18.8606,-0.245734,-6.44639,12.9655,-0.771183,7.03646,34.0873,15.9287,123.952,-558.76,-833.992,-18900,4480,-6860
-23.0503,-21.1894,-10.03,-13.4578,-6.84483,-1.68859,-3.15213,1.18422,-29.7665,-15.7963,-11.0219,-15.7607,-6.14774,-6.12258,-8.23205,-2.47971,124.44,-559.248,-827.648,-17500,4760,-6580
-29.3565,-39.2683,-13.8472,-29.9754,-15.4554,-0.567236,-2.52794,3.10878,-40.9979,-15.9624,-9.58368,-28.8676,-7.22846,-7.48492,-12.1178,-2.48891,126.88,-556.32,-826.184,-16800,4760,-6580
4.98488,22.9144,10.573,39.4741,31.7515,11.9025,47.3976,19.821,4.76966,5.38732,-0.736368,14.8262,3.97959,17.2937,55.8957,28.4757,126.392,-554.368,-820.816,-16240,5180,-6580
21.5768,74.7636,35.8198,96.367,74.067,24.1237,76.4165,26.6445,20.8716,17.0381,4.66271,59.0425,16.5571,42.0089,94.6261,49.4152,123.952,-554.368,-818.864,-17080,4760,-6160
8.68901,33.1213,20.5858,34.6124,27.6512,11.7894,15.0518,4.37702,5.14771,10.6815,4.4449,30.0188,11.5269,16.6902,17.929,11.6749,130.784,-554.368,-814.472,-17780,4900,-6440
29.6419,8.96713,11.5467,-14.7255,-10.5426,-2.9665,-37.9261,-19.4594,35.0615,22.455,15.7181,11.6648,8.40107,-3.03243,-39.7342,-24.2246,128.832,-555.344,-812.52,-18480,4900,-6580
39.6462,4.95765,4.8524,-16.4704,-13.4742,-5.8021,-21.5676,-14.0504,47.92,23.9328,16.8296,4.60533,4.32673,-6.92807,-20.2911,-17.7086,134.2,-552.904,-813.496,-19180,4760,-6860
50.2342,46.2724,25.8974,18.1709,13.0856,1.9631,-13.8863,-9.85678,62.6291,31.3513,20.0275,38.2624,12.9957,10.5562,-12.2101,-10.0748,133.224,-552.416,-814.472,-19460,4620,-7000
23.0179,10.3147,18.7589,-28.1553,-13.0714,-0.641339,-49.2361,-17.7399,20.3922,17.3765,13.1816,18.2815,11.3558,1.03205,-66.5942,-27.9325,132.248,-550.952,-814.96,-19460,3920,-7000
-9.08535,-45.7658,-13.7795,-60.0461,-43.2139,-9.79071,-42.9037,-12.5519,-19.7141,-6.50089,2.16877,-30.3024,-4.22722,-20.5021,-54.9102,-28.1364,134.688,-549.488,-813.984,-19460,3780,-7000
-7.44502,-30.0694,-13.9178,-24.4108,-21.7343,-5.05128,-4.66827,0.628296,-12.3822,-9.20666,-0.522477,-23.2134,-6.16117,-9.74036,-1.61683,-6.68331,135.176,-547.048,-815.448,-19180,3220,-7140
-4.97333,-7.5379,-6.68237,-0.231791,-5.69042,-3.32914,5.39131,-0.762731,-10.1874,-4.20931,1.39026,-7.50596,-2.87071,-3.48044,8.23713,-2.19159,136.64,-544.12,-810.08,-18620,2940,-7420
0.395425,11.312,4.57537,21.5877,13.0934,2.06288,19.9482,2.98859,0.145589,1.5894,3.45874,7.61769,1.52676,7.26504,28.99,11.9317,137.128,-540.704,-811.544,-18340,2520,-7700
-31.7698,-15.1399,-10.687,20.5337,12.9472,2.61207,40.4686,11.0262,-37.4546,-22.3784,-13.4905,-16.0541,-7.63083,3.00086,51.9555,25.265,141.032,-550.952,-813.496,-18340,700,-8680
-19.1625,9.63059,2.79862,31.9792,21.6956,5.44037,28.0935,6.76407,-15.5342,-13.2634,-9.55471,3.57216,0.0831551,8.3213,38.7222,19.4124,134.2,-549.976,-805.688,-17780,-560,-9100
-3.81879,-8.70798,-2.28885,-21.3355,-15.6539,-6.2674,-25.3724,-11.3804,0.618986,-2.64349,-2.27724,-7.84489,-0.707671,-11.7998,-30.3482,-15.0279,132.248,-545.096,-809.104,-17220,1820,-9380
-7.90517,-21.3283,-7.9736,-28.567,-20.7518,-6.7297,-25.5467,-8.46134,-7.51768,-4.64182,-3.81146,-16.9409,-2.76877,-12.8484,-32.2362,-13.9958,135.664,-544.608,-809.104,-16940,-140,-10080
-9.43323,3.88666,-1.96063,-5.61138,-3.39345,-1.77918,-16.6603,-4.81887,-9.03993,-5.9521,-8.40601,1.05811,-0.884529,-1.19537,-27.6194,-5.81519,138.592,-543.632,-808.128,-16800,-840,-10500
0.875079,34.6217,11.15,11.4157,13.1552,2.6162,-18.9475,-5.14072,3.5303,1.56526,-6.50969,26.9714,5.22451,9.46863,-31.7802,-6.93573,137.128,-544.12,-813.496,-16240,-840,-10920
-21.2822,-16.4433,-7.07766,-19.3519,-7.03625,-0.676417,-22.0832,-5.06942,-28.8461,-10.9952,-11.3999,-9.26737,-2.55055,-2.34388,-36.4516,-11.5933,140.056,-546.072,-815.448,-15680,-840,-10920
-34.5972,-68.5848,-32.19,-42.7838,-29.2543,-5.54504,4.74537,8.43741,-38.4585,-25.5847,-14.2284,-54.4541,-16.8336,-15.9874,5.39404,3.11171,142.008,-546.072,-827.648,-14000,-700,-10640
-5.68552,3.17963,-7.77319,24.9983,16.2908,1.57754,45.6355,15.2296,-5.10429,-6.63415,-7.08581,-4.51713,-5.81124,3.01262,55.4249,23.6751,142.496,-547.048,-825.696,-11760,-980,-9660
7.46878,14.5574,1.20778,19.9953,11.7782,1.38293,15.1749,7.36959,10.0613,3.88651,3.96376,8.13356,-0.106888,3.25415,22.715,8.89867,141.032,-544.608,-827.16,-9800,-980,-8680
23.9707,6.35697,2.62159,-8.98841,-6.42607,-1.65343,-17.0013,-6.51497,26.6058,15.1235,11.0373,7.03922,3.12839,-4.37909,-21.5701,-11.0322,138.104,-542.656,-827.16,-7560,-980,-7560
47.0987,26.4627,11.5827,-11.0831,-8.82932,-3.59513,-32.3388,-10.5994,57.6258,29.6697,19.0904,22.9314,7.48425,-3.09779,-39.5702,-19.8933,137.128,-546.56,-828.624,-6020,-1120,-6580
-11.5808,-3.51731,-5.4416,-11.3732,-6.32511,-0.469649,-6.03438,6.1511,-15.5746,-8.29029,-4.45986,-1.34297,-4.13543,-0.421403,-13.461,-0.838277,140.056,-545.584,-832.04,-3500,-1120,-5320
-84.2656,-37.7322,-24.9559,11.7418,8.55982,3.42807,30.5315,16.7045,-104.763,-54.8289,-31.4701,-29.8238,-16.355,4.42076,35.6388,19.4458,137.616,-547.048,-831.064,-980,-840,-3780
-67.0457,-49.6898,-37.2238,10.7086,2.11271,-1.98146,44.5824,21.3617,-77.8947,-49.2812,-25.7082,-45.697,-23.6546,-6.23934,59.4008,24.8154,137.616,-549.976,-832.04,1120,-1400,-2520
33.7191,0.120317,-10.9429,7.17889,-6.27098,-8.92006,18.3764,4.51731,45.384,16.1759,13.725,-9.53762,-9.22327,-14.7538,32.1359,5.83743,136.64,-550.952,-832.04,3780,-1820,-700
109.683,80.6542,37.1372,27.1197,15.7236,-0.721447,-9.11928,-5.47326,132.855,72.0515,41.7184,58.999,16.6286,3.28019,-7.31651,-6.36862,134.688,-552.416,-840.336,6160,-2240,420
77.5295,33.4925,24.8769,-29.8025,-17.778,-4.21302,-45.8614,-12.0107,90.1739,54.0043,33.47,31.385,11.953,-7.0288,-62.136,-24.7723,132.248,-562.176,-834.968,8820,-2520,1960
10.2759,-23.2417,-8.44302,-32.3765,-24.2495,-5.40149,-6.20798,0.059183,12.8027,7.90799,9.255,-17.6375,-1.92609,-11.4849,-12.1314,-5.35619,129.808,-555.832,-836.92,11900,-2800,3360
-1.83513,12.8953,6.27813,47.7226,33.7726,12.8168,61.2287,22.8424,1.10977,-1.4934,-0.708217,8.82708,5.33231,23.1754,74.4318,41.6144,123.464,-555.344,-833.504,14140,-3220,4060
6.68509,30.1383,22.1537,45.376,33.9466,15.0945,33.4303,6.70446,8.78683,9.78197,2.40083,27.259,16.1641,24.9264,43.3544,24.9418,125.416,-559.248,-832.04,16940,-3080,4760
3.13062,16.3773,23.1339,11.3929,10.8298,5.62251,-13.7582,-17.9839,-0.743991,12.2539,7.38087,20.1648,17.5392,9.67198,-9.73033,-11.2529,121.024,-557.784,-833.992,18760,-2520,5460
16.3823,40.6555,39.195,23.8305,26.3741,11.4097,-13.7374,-11.6032,16.0762,20.5302,9.33391,41.7978,23.8648,23.0567,-14.5514,-5.33204,122.976,-560.712,-832.04,20720,-2240,6160
-19.0004,43.0335,34.3271,44.3409,46.515,19.7256,20.4636,10.3345,-29.3568,-6.94051,-15.7174,42.8694,18.3297,37.1729,14.4697,21.9303,124.44,-561.688,-835.944,23100,-1540,6860
-90.9557,-47.9987,-14.5576,4.24388,12.2286,13.1016,27.4032,20.0725,-110.434,-62.0625,-43.6194,-32.3878,-7.83714,17.8819,28.8189,25.7911,124.44,-567.056,-840.824,24500,-1260,7280
-43.9013,-50.0204,-25.3535,-27.4219,-26.8301,-8.92398,-18.2826,-16.01,-51.9603,-31.3501,-16.4279,-41.7042,-13.3398,-17.272,-9.6425,-19.3341,123.952,-565.104,-842.776,27580,-560,7980
33.4658,5.35521,0.190628,-33.0559,-34.5418,-17.5646,-63.7563,-40.1038,38.3197,23.6435,19.7707,2.08471,-1.94263,-27.0373,-60.0032,-51.8605,123.952,-569.008,-839.36,29680,-420,8820
12.3982,-20.8614,-4.26721,-50.7338,-38.5479,-14.2274,-54.3304,-26.3096,9.10043,14.8553,16.0266,-12.7316,-2.79051,-23.2919,-65.0412,-40.6013,123.464,-570.472,-842.776,32060,-980,9660
-8.08949,-40.9354,-12.6207,-50.1496,-38.3705,-12.926,-28.1458,-18.7976,-10.3976,-2.75772,7.94024,-30.3346,-4.4035,-22.525,-31.7665,-26.4881,122.976,-574.376,-841.312,33740,-560,10640
-27.1213,-42.8209,-24.8598,-37.1437,-26.7837,-5.8268,-7.83002,-1.97458,-24.5588,-28.299,-17.1831,-38.1561,-12.5415,-16.7098,-13.2344,-8.21994,118.584,-572.912,-840.824,36680,-700,11060
24.2178,-2.15444,-7.6664,-36.9421,-27.4849,-6.98467,-39.8154,-11.0464,35.2011,6.5659,3.20161,-5.69487,-3.31213,-15.8486,-56.5734,-21.9314,114.192,-568.52,-832.528,39060,-1120,11480
30.5937,13.1664,0.167492,-27.5486,-19.4161,-5.10581,-41.8475,-12.7488,35.0635,13.2837,4.36428,7.64565,-0.00856214,-10.6047,-65.5755,-23.7199,101.504,-568.032,-800.808,39620,-2100,11760
-11.1498,-7.39601,-10.4882,-4.55368,-3.64293,-2.20983,-5.7422,2.82102,-13.7721,-11.2691,-7.66585,-8.30637,-7.1388,-3.19409,-13.5075,-3.68136,90.28,-564.128,-739.808,37660,-5600,10500
-62.5218,-23.5404,-29.9715,35.9089,25.6969,4.48366,77.3168,39.7416,-71.8388,-46.0331,-30.713,-26.1722,-17.7377,8.71304,86.3503,49.7149,70.76,-571.448,-673.44,33320,-12600,6720
-67.7266,3.09155,-12.5327,90.6235,72.6244,24.4976,128.265,70.0856,-74.97,-48.9597,-36.4907,-0.477747,-10.8531,41.3272,148.195,92.4319,71.248,-566.568,-697.84,22820,-16380,2240
-13.8608,24.5796,7.71235,53.9896,41.2297,10.9996,47.6571,25.3814,-18.7349,-6.6885,-6.75067,19.8481,2.23397,20.6602,57.3082,35.1061,81.984,-570.96,-744.2,11620,-14980,-3080
0.520067,-29.7816,-9.22834,-36.7852,-30.2368,-10.3268,-36.4072,-13.6357,-5.34386,5.48906,8.70411,-19.6782,-3.40154,-19.815,-37.1035,-23.3444,94.672,-583.16,-796.416,7420,-12320,-5180
49.7066,-15.7263,-3.04325,-39.9463,-36.4638,-14.7669,-35.7683,-20.0506,57.8262,36.7158,29.6187,-12.9834,1.37268,-25.3652,-33.6346,-27.8175,92.232,-589.992,-819.84,7140,-10500,-5740
110.4,58.4144,23.6698,6.0044,-4.40662,-8.84326,-18.8491,-13.6458,136.445,69.9724,43.1786,39.3919,11.5643,-9.37876,-13.3071,-15.8409,87.352,-593.896,-824.72,8120,-9940,-5040
88.3251,70.6674,29.6315,31.161,18.5898,2.65128,0.518339,-1.17018,109.74,53.2752,27.8961,51.6213,12.47,8.14194,6.26789,-0.260509,85.888,-599.264,-823.256,10220,-9520,-4480
1.18165,54.4095,22.9875,69.3602,53.5179,14.8637,50.9751,17.6798,-0.274551,1.17039,-5.01263,40.6542,8.68291,30.1756,66.7828,32.7409,79.544,-606.096,-814.472,12320,-10220,-3640
-62.1751,15.1523,8.3288,58.7056,52.1462,18.0034,49.0908,21.3781,-84.0149,-34.9498,-22.6878,13.8289,3.01854,31.5522,59.1402,36.7964,79.056,-610.976,-802.272,13580,-11340,-3360
-30.1584,-25.9452,-1.79277,-15.5149,-2.95042,3.70852,-12.8079,-4.26629,-41.4612,-16.3873,-8.48844,-13.5996,1.69644,3.63876,-16.4019,-5.59474,81.496,-615.368,-800.32,15820,-13020,-3220
49.8019,2.25562,8.60811,-36.2936,-25.4185,-2.89425,-35.6612,-16.8504,64.8822,29.28,15.3173,5.33259,10.2585,-9.72594,-45.3005,-25.1554,82.472,-629.52,-788.608,18620,-14000,-3220
42.6565,20.6811,4.14546,-13.97,-17.0262,-4.21827,-29.6483,-12.4019,64.9867,18.9652,8.01385,12.5127,3.99758,-9.50312,-33.4157,-21.4576,85.888,-637.816,-799.344,23380,-15820,-3220
-16.9006,-10.6849,-19.4452,-20.8876,-26.1243,-10.9499,-31.0601,-15.4229,-7.62424,-18.8029,-9.72208,-14.3503,-10.5623,-20.585,-32.4544,-26.4877,88.328,-635.864,-805.688,27300,-15540,-2380
-64.7575,-42.529,-28.9732,-22.0676,-22.0236,-7.49946,-11.7648,-4.87944,-77.8562,-41.0655,-19.6246,-34.8288,-16.2751,-16.219,-18.0008,-9.8453,97.112,-640.256,-810.568,30240,-16660,-1260
-69.5239,-74.7764,-28.9874,-63.3834,-41.0288,-8.95488,-33.3125,-6.40622,-93.7482,-34.2099,-13.1019,-51.3537,-13.6177,-18.3502,-54.2221,-14.9293,101.504,-620.736,-837.408,35140,-17780,0
-34.2432,-66.3044,-21.7764,-74.2417,-50.9428,-14.4719,-46.652,-19.728,-52.6872,-10.6736,0.41716,-45.5828,-7.46277,-24.2973,-67.7685,-29.5658,119.072,-543.632,-891.088,36120,-14700,1540
47.2391,16.5868,21.7914,5.615,2.61447,-3.2549,0.949064,-14.88,51.823,39.9446,27.9352,18.0422,14.4901,4.09404,10.3337,-8.01098,124.928,-586.576,-766.16,34860,-17220,1820
25.6085,58.9228,37.985,80.9927,64.1301,17.1509,74.9068,18.1136,26.5215,21.5083,6.33196,48.8312,18.1837,40.1863,88.7501,44.2432,118.584,-598.288,-813.984,41720,-24360,-140
-75.1698,-18.5309,-3.73759,36.2706,35.417,15.2385,54.1538,32.274,-93.9368,-45.4785,-29.9696,-12.7725,-7.73807,24.2684,59.8657,43.5229,133.712,-630.984,-889.136,44940,-20860,1680
-63.2462,-54.1705,-25.3175,-17.7437,-11.4753,-1.01008,10.7058,13.2467,-75.4806,-41.3644,-21.6704,-43.4667,-17.5905,-6.69451,14.5166,12.1579,101.992,-607.072,-849.608,51800,-7840,8400
47.8138,47.8432,23.5861,30.3159,22.6449,3.75695,10.9045,1.76398,62.1663,28.4157,14.9527,36.4176,8.19583,12.1723,20.0814,8.62084,131.272,-546.072,-730.048,58380,-13440,12040
78.1948,50.7317,27.8135,7.78927,6.96422,-1.37089,-18.8243,-8.97417,98.7089,47.864,26.666,41.2472,12.6843,5.64391,-21.7786,-10.1687,156.16,-506.544,-856.928,59360,-26880,4480
25.9799,-6.9395,-2.34866,-26.8091,-23.8517,-7.84887,-24.2305,-11.7706,39.1249,9.79073,6.72214,-7.81081,-0.84611,-12.7469,-25.7179,-17.3496,151.768,-553.88,-825.696,54040,-15400,5460
14.9799,-3.70109,-4.25869,-8.6496,-10.6409,-2.97375,-2.66083,-5.49123,21.9442,5.04406,5.41552,-6.32811,0.899221,-9.40633,1.33006,-7.24352,148.352,-583.16,-819.352,55720,-21140,6580
34.0779,31.9658,13.6228,19.1832,16.7592,7.12644,7.54706,6.94442,42.1311,18.3405,7.78959,26.3909,7.87159,9.98209,5.28189,8.62862,148.84,-574.864,-833.504,56000,-26040,6720
-5.87995,9.1762,4.80473,8.74067,14.7071,10.6008,11.8082,11.3777,-14.2501,-5.07838,-9.29523,11.155,4.36118,12.6409,0.95901,13.1023,161.528,-514.84,-834.968,57680,-23940,7420
-33.3349,-4.97904,-5.29215,19.4113,17.1691,12.2379,22.4967,17.8705,-36.6248,-24.2732,-16.4789,-6.80252,-2.25819,14.6807,22.0927,22.3437,165.432,-544.12,-835.944,59080,-23520,5880
14.0185,6.76755,-4.4707,-23.5971,-22.9352,-7.94174,-49.0095,-20.0028,22.3285,7.14048,3.94783,-1.60173,-1.0764,-17.8748,-60.2668,-33.4103,139.568,-610.488,-803.736,59220,-24360,6720
25.1047,-16.0615,-13.7195,-47.0914,-45.2869,-17.2774,-60.3845,-28.1461,34.0627,15.9275,11.2279,-17.8832,-4.62187,-34.066,-66.8698,-47.4517,125.904,-645.624,-794.464,60900,-26460,8400
6.82247,-13.9225,-20.0614,-23.0552,-26.7472,-14.384,-24.1434,-11.6943,6.7445,2.67799,0.88072,-16.8958,-11.1511,-25.2025,-21.4457,-21.8843,121.512,-635.864,-789.096,63420,-24360,10080
-47.9337,-6.00901,-15.3015,37.1387,24.6395,1.05419,44.0116,12.9129,-66.5315,-29.8316,-19.6533,-8.38642,-10.0959,6.08624,65.6133,24.5104,127.856,-618.296,-794.464,64540,-21420,10500
-78.572,-12.0644,-10.1194,53.7749,46.1712,15.7287,66.9283,29.6993,-103.031,-50.0826,-32.0631,-9.66511,-5.23969,26.2789,86.6179,48.2389,129.32,-596.336,-814.472,62020,-19740,10080
-32.3152,-30.3287,-3.24672,-14.776,-0.0496884,7.93528,6.60663,8.7126,-47.4926,-17.2732,-8.93866,-16.3041,2.88455,9.3405,4.28268,9.75379,127.856,-596.336,-817.888,58940,-18480,10500
22.7178,23.5159,18.4744,10.6024,12.4471,6.56267,10.0861,1.65968,27.5633,16.1217,9.42648,21.169,11.1357,13.7546,9.9904,8.1377,126.392,-596.336,-830.576,58520,-17500,10920
11.4828,18.5785,12.1109,9.13309,7.82064,2.20049,3.48541,2.5267,14.3148,6.56062,1.90072,17.6979,6.03782,7.88907,2.38116,3.74068,130.784,-606.096,-836.92,61600,-16240,12040
28.5566,4.13153,11.6378,-9.38572,-4.53948,1.30007,-10.5997,-2.51847,32.8997,18.8292,7.99176,10.0651,7.8539,0.808908,-16.4905,-5.30573,132.736,-607.56,-851.072,65380,-15540,12600
45.8007,5.42762,9.40004,-28.912,-20.5464,-4.42468,-32.6601,-10.7818,55.9094,29.2702,18.581,9.17705,4.04225,-9.49249,-46.0296,-19.6564,128.832,-609.024,-849.12,69860,-14420,13860
24.9696,10.8274,12.288,-0.369902,-1.1044,0.128285,-5.28541,-4.57629,29.6568,18.6369,16.0498,11.6158,6.57182,-0.499701,-9.65543,-5.62395,130.784,-604.144,-854,74480,-15820,16100
21.9431,14.7208,3.78844,4.08041,-4.8048,-4.11487,-8.20645,-6.53376,35.7774,10.7553,10.8756,6.81652,0.909892,-8.07742,-7.07789,-10.2839,136.64,-593.896,-864.248,77000,-16240,17220
7.89871,-10.442,-8.31052,-15.4947,-20.3885,-10.6997,-18.4454,-8.29875,15.4411,5.96932,11.7063,-11.6602,-6.87294,-19.1954,-17.1742,-17.2526,136.152,-594.872,-862.784,79660,-16240,19040
-32.089,-16.1864,-12.906,0.340131,-4.86196,-8.11136,4.3496,-8.17923,-39.9942,-15.0302,-2.02323,-15.3076,-8.48503,-13.6063,8.47603,-5.26106,138.104,-599.752,-868.152,83300,-17220,20300
-57.3851,-24.5042,-12.5014,11.7254,11.9697,5.86781,23.9611,10.379,-65.5098,-34.8771,-20.3291,-17.8116,-7.5929,6.4363,30.4193,15.5051,138.104,-591.456,-874.984,87780,-14700,21700
-15.2683,-13.4374,-9.64007,-18.4143,-9.99356,-0.283834,-22.9137,-3.66554,-15.8311,-12.1991,-11.869,-9.71706,-5.18966,-2.53309,-31.5348,-9.87657,140.544,-592.432,-878.888,94080,-11200,24080
-19.3708,-14.2314,-15.6857,-22.7395,-16.0259,-4.96227,-15.1283,-1.44019,-14.0825,-17.7399,-14.312,-14.0734,-10.469,-5.97206,-21.2093,-6.24853,135.664,-586.576,-872.544,99260,-10080,25900
-15.4757,3.47136,-4.72385,31.9015,24.5647,5.02708,51.9551,19.0639,-14.974,-13.7575,-13.0444,-0.739545,-6.74206,16.3404,60.3006,32.7339,140.544,-589.016,-865.224,106680,-9380,29680
52.4079,46.8461,14.6452,38.835,24.9173,1.1518,30.7671,9.01472,65.6036,29.6041,11.716,29.7792,2.70927,13.3072,40.7624,18.5687,141.52,-567.544,-874.008,114380,-8540,31220
29.181,7.55217,5.71565,-7.81866,-6.1526,-4.68463,-4.47024,-1.51274,28.8466,21.5022,12.9861,5.64697,3.16772,-0.889688,-7.63795,-5.03836,137.616,-566.08,-865.224,115640,-4900,31640
-26.8761,-22.6951,-4.9013,-4.5787,-3.56035,-1.28493,8.0296,3.83284,-44.0966,-10.2422,-2.30503,-15.6465,0.547059,1.08556,9.29192,0.169952,132.248,-565.104,-856.44,116060,-4480,32760
-14.1113,-7.27514,2.08303,0.96114,-0.897569,0.0446377,-2.29057,-1.62108,-20.9057,-6.61085,-2.48823,-4.68973,4.55562,2.34901,-2.9379,-4.47654,133.224,-554.368,-853.512,118160,-4340,32900
16.1316,-16.2678,4.54634,-48.5898,-33.389,-6.1338,-63.123,-20.0303,16.531,10.4429,9.36516,-6.64033,5.6813,-12.0743,-76.4668,-37.5873,134.2,-546.072,-844.728,117880,-2380,32060
19.0223,-5.55537,13.1371,-44.091,-23.3736,0.035271,-57.687,-19.113,15.8882,15.465,9.14206,3.96543,11.81,-5.48329,-79.6385,-31.663,131.76,-541.68,-836.92,117040,-560,30940
7.12502,11.3032,16.1442,5.79949,8.92855,4.74025,-4.64046,-7.6489,6.32103,9.67882,8.4949,13.2549,12.5977,9.35468,-3.90313,1.09394,121.024,-546.56,-768.6,116900,-140,29400
-24.2051,25.8676,11.4291,64.358,50.1019,13.3236,64.1962,17.8471,-38.5846,-11.3233,-8.95338,19.8567,5.31893,26.2896,77.6142,43.7269,125.904,-530.944,-828.624,114800,-5880,26040
-34.3974,-4.04272,-9.95595,33.0428,23.7478,7.30308,42.9206,19.768,-40.7347,-24.1823,-17.4975,-8.61261,-7.62105,9.44498,57.2405,33.009,121.024,-541.68,-828.136,108500,-280,24640
36.4201,17.9921,-0.142806,-0.947086,-4.01613,-2.83653,-6.82882,-0.717357,52.032,19.5368,7.28829,7.96194,-2.14286,-6.89994,-3.17223,-0.599392,110.776,-551.928,-813.984,105840,1960,23940
67.1491,43.93,15.7615,1.40831,1.43782,-2.06841,-10.5281,-7.67292,92.3782,39.8318,16.9252,31.5528,6.79152,-2.75469,-12.2717,-5.9089,112.24,-566.08,-797.88,108500,-2660,24220
23.1339,25.5522,6.37638,19.6304,14.8443,0.707538,21.7021,3.3238,37.9386,11.9864,5.06538,16.3677,2.08004,1.82767,29.6654,11.3439,106.872,-570.472,-803.736,113260,-8260,24920
-73.6017,-34.3949,-23.6011,12.8843,9.97089,2.19369,33.7111,15.733,-87.4426,-48.8305,-26.5916,-29.4658,-13.2177,-2.38012,38.0296,19.9544,108.824,-587.064,-797.88,116200,-10220,26040
-86.2416,-68.7225,-43.82,-32.0562,-28.9442,-7.52816,-7.71576,1.55012,-98.8566,-58.7918,-30.4461,-57.8521,-21.3136,-25.5282,-8.82507,-7.96425,104.432,-606.096,-794.952,117740,-10500,27020
11.8677,-28.6502,-15.7644,-51.8192,-45.624,-12.9786,-55.3265,-23.9738,14.2797,5.24195,8.74803,-20.7823,-5.23893,-30.3229,-60.7315,-40.5132,116.632,-568.032,-822.768,121240,-9380,27860
44.1432,4.27732,7.64955,-32.3373,-28.3247,-6.3766,-51.1652,-28.1482,46.1838,28.3024,22.9292,8.11215,9.11265,-15.5831,-54.9275,-38.8806,102.968,-559.248,-735.904,113680,1680,24360
37.8324,17.0853,18.5389,-6.38462,0.467304,6.60828,-14.2922,-6.86881,44.4273,22.7521,14.7307,21.8163,12.261,10.1131,-19.9917,-6.04514,124.44,-586.088,-813.008,105560,-1120,18340
16.6529,21.2185,12.8228,22.159,23.0939,13.6362,28.5553,21.0975,22.2811,6.31135,-2.1224,18.6894,4.07387,22.1474,24.8606,26.7899,95.648,-610,-778.848,103180,8680,16240
-14.9536,19.6584,11.0728,48.6774,38.8127,14.5739,46.9014,25.0262,-24.679,-8.24152,-7.74187,15.836,1.90855,26.0075,52.1428,34.5798,102.48,-607.56,-754.448,103320,1680,19320
-33.7292,-18.5285,-4.18571,2.98378,3.44028,3.54454,3.14065,10.4102,-46.4043,-18.8699,-9.19145,-12.3662,-7.31087,4.14317,4.34787,3.3672,108.336,-613.904,-752.008,110880,-10500,23240
-6.56042,-9.39281,-9.13658,-19.6625,-18.2401,-7.99926,-25.4406,-5.28354,-12.1712,-3.75246,-2.08754,-11.6136,-9.00191,-13.16,-32.7144,-19.0245,111.752,-627.568,-763.72,109760,-7700,21280
-1.05331,-16.2642,-11.3764,-31.0197,-28.3831,-13.7612,-35.4376,-12.5612,-1.37266,2.18008,4.32659,-14.7932,-7.26479,-18.2666,-38.8811,-25.134,101.992,-619.272,-754.936,104020,-5040,18060
-13.4672,-25.4792,-9.56479,-17.5429,-16.0082,-9.12933,-2.40922,-4.58533,-19.1225,-4.91064,-0.286599,-18.874,-5.9207,-9.44128,-4.55215,-7.34802,100.528,-618.296,-736.88,98420,-5180,16660
5.07099,21.0416,8.13598,44.5765,31.1884,7.33052,52.2258,17.1698,14.4309,1.33551,-3.49661,14.1376,2.59471,20.5055,66.0658,31.8382,101.992,-621.224,-747.128,93380,-5320,14560
36.7457,39.6309,14.0837,29.6741,21.0937,3.33734,23.1617,8.91531,52.2046,20.643,5.54757,28.2115,6.65985,13.5756,27.8304,17.4399,98.088,-634.888,-738.344,88340,-3080,13300
5.69263,5.6324,6.33897,-5.41961,-0.83108,-0.153394,-5.57011,-3.53891,4.01309,7.88688,5.41609,6.29556,5.78356,1.68001,-9.05293,-3.77001,100.528,-627.568,-752.496,84560,-2380,12040
-9.09813,1.46782,9.24049,15.6493,19.1063,8.05334,24.1697,6.84575,-20.027,0.623412,1.87641,7.15402,8.75766,14.9132,24.6173,14.4895,115.168,-647.576,-746.64,77840,-980,11060
52.9776,45.9802,28.0981,35.8489,29.4765,7.46847,21.2699,2.25028,59.6618,36.7642,20.9434,40.2187,17.8716,18.8087,28.7153,12.7112,104.432,-636.352,-732,73780,2100,8820
23.9992,30.7821,8.57825,23.3642,12.8508,0.643897,9.07803,-1.89821,34.8756,9.63066,2.50539,19.2078,5.12094,3.85464,13.1619,4.62479,104.432,-635.376,-747.616,67760,700,6860
-24.6902,-24.1212,-15.6212,-20.1179,-18.4357,-6.67678,-17.8044,-5.52913,-25.9398,-21.1552,-11.1686,-21.5583,-8.45853,-12.7334,-20.1357,-11.3916,106.872,-644.648,-746.64,63700,840,6440
-35.1287,-43.0819,-24.8181,-44.5349,-36.037,-12.5418,-39.0369,-16.5741,-44.253,-24.3926,-10.3478,-35.9742,-11.9797,-25.3743,-48.8799,-28.8752,106.872,-640.256,-743.224,61460,1680,5880
-6.41724,-19.8275,-11.5938,-25.0718,-18.2084,-7.02715,-19.7958,-7.30569,-6.92443,-5.09693,-0.107127,-16.0814,-6.26652,-12.7195,-25.4631,-12.2648,108.824,-640.256,-744.2,57960,980,4620
-2.90999,-9.96277,-3.95514,-22.3147,-12.0379,-3.60522,-19.8882,-9.1591,-5.86854,-0.427239,-1.49346,-7.1819,0.101902,-8.01199,-28.8012,-12.6713,107.36,-638.304,-744.688,54320,1960,3500
-26.9769,-19.1871,-3.69034,-13.6234,-5.11784,3.35055,-13.3005,-5.914,-37.6909,-9.90213,-4.73387,-10.429,2.16394,0.433447,-14.2409,-5.54383,105.408,-630.008,-737.856,51240,1400,2800
-32.0469,-11.2827,-4.90509,1.0962,1.7552,3.73687,-4.6225,-5.59874,-40.9255,-14.8018,-5.96878,-5.61016,-0.617929,2.59374,-3.52538,-3.53964,102.968,-625.128,-727.608,47040,280,1820
-48.5416,-23.159,-11.119,-8.5963,-5.82725,1.35097,-6.27069,-0.70987,-58.7937,-33.5065,-20.2753,-17.2301,-7.49228,-1.16494,-12.3271,-3.36229,99.064,-629.032,-723.216,45360,-2240,980
-31.445,-29.1125,-14.3452,-5.26659,-3.78716,3.02068,15.0502,14.5263,-35.1708,-25.0304,-18.4517,-22.8128,-10.2075,-0.114961,14.7668,14.2064,113.704,-634.4,-771.528,43680,-5040,-280
52.5734,30.7572,13.6912,17.1329,11.1368,3.89652,17.7144,10.8559,68.9445,28.5587,10.5806,21.2187,3.15311,5.85615,18.8547,16.9025,102.48,-618.296,-745.176,42980,-3360,-420
80.3612,61.8659,24.2435,34.7008,21.8044,2.85557,17.0381,10.3211,106.201,47.2799,22.8238,42.2673,10.1067,8.08271,27.6213,13.4173,106.384,-617.808,-740.784,40460,-5040,-280
38.9627,25.0949,7.93567,7.53618,0.839818,-5.35591,-5.40712,-0.728722,53.2922,23.8279,15.4387,15.2467,4.14147,-4.82479,2.68429,-6.81656,104.432,-613.416,-751.032,38220,-6300,-560
11.6588,-0.412676,5.2846,-13.9289,-10.1853,-3.74095,-19.2432,-8.93154,11.5549,12.3826,12.0201,-0.0264148,5.83123,-7.55117,-18.4173,-15.9763,111.752,-601.704,-759.328,38080,-5040,-420
-18.7238,-13.2289,2.74088,-10.499,-3.23568,2.32951,-10.0852,-4.67117,-25.0135,-7.54533,-0.0501282,-6.54602,3.44786,1.57969,-11.2429,-7.29722,106.384,-596.336,-750.056,36400,-3780,-420
-44.142,-14.2802,-0.856313,11.5549,15.7222,8.26908,23.6385,8.16007,-54.5237,-25.1909,-13.6934,-9.29717,-2.21533,11.0776,26.889,15.1988,106.872,-591.456,-750.544,35000,-4760,-840
-34.1237,-9.76535,-4.82536,21.2586,17.8277,7.85674,35.8326,13.6762,-39.3105,-21.1108,-14.0129,-8.47288,-5.2536,9.34533,42.4072,23.6273,108.336,-583.16,-747.128,33600,-5040,-1260
20.8514,11.4181,4.01396,6.22765,2.06702,0.282802,5.61051,-1.87619,28.0276,13.7061,8.88521,7.79552,1.37307,0.684661,9.3343,2.87169,111.264,-583.648,-748.104,32620,-4900,-1680
36.19,21.688,7.59918,2.81471,0.836848,-1.27853,-4.41351,-7.90177,43.1216,22.908,12.6322,16.8978,4.54218,-0.245522,-7.95025,-4.81335,107.848,-580.232,-753.472,31360,-5180,-1960
30.4492,9.73615,3.20586,-9.95918,-10.8052,-4.10934,-18.9262,-10.8229,38.9453,18.1782,12.7596,7.52847,1.52352,-5.42519,-20.3848,-11.9495,111.264,-580.72,-756.4,30240,-5880,-1820
8.87381,-7.92298,-10.4067,-23.7202,-22.3407,-10.7491,-24.1609,-15.7896,11.595,2.68716,3.79921,-10.3347,-6.28228,-17.4155,-30.3009,-18.2135,106.872,-582.184,-759.328,28980,-6020,-1820
-6.87953,-16.8024,-15.5298,-22.8523,-21.0495,-9.84928,-18.3453,-5.24992,-4.89437,-8.14431,-3.59327,-17.3947,-10.6714,-16.9092,-19.6931,-13.2843,102.968,-577.304,-761.28,27440,-5600,-1680
-46.1617,-23.8416,-18.1449,-0.671422,-0.435038,-2.40202,13.3585,8.65999,-55.9551,-32.6722,-19.4404,-20.9042,-11.5912,-4.09501,12.4313,7.25902,101.992,-578.768,-759.328,26040,-4620,-1540
-54.5794,-12.1863,-5.56978,29.7885,26.4101,9.18895,44.955,22.3017,-71.2052,-35.9684,-24.1592,-7.55816,-4.9567,17.1826,46.7987,31.7301,100.528,-578.28,-765.672,25340,-4480,-1400
-7.77302,-0.181301,1.53588,8.8251,7.07474,2.20569,10.0837,6.95212,-15.5781,-5.22643,-4.26517,1.20003,1.24371,6.7802,10.108,7.54325,101.016,-580.232,-764.208,24220,-2940,-1400
22.2836,10.7731,10.1075,-1.81967,-0.95741,-0.080757,-11.1846,-4.35044,21.5985,14.8139,8.27213,12.8668,8.43019,4.09791,-13.0226,-5.86515,99.552,-578.768,-763.72,22820,-1120,-1540
36.7423,23.7762,19.9057,4.43021,4.91223,2.43914,-13.6142,-8.03964,36.1972,29.4734,15.4764,25.6867,14.9198,9.23399,-16.8161,-8.18779,97.6,-580.232,-773.968,20860,140,-1680
6.49621,-2.55611,0.923724,-12.1358,-10.5457,-3.17464,-22.0196,-5.60729,6.92673,6.85756,5.40263,0.93819,2.41529,-1.32436,-26.0973,-11.533,96.136,-578.768,-773.48,18900,1820,-1820
19.2152,11.0519,8.16933,1.17454,-0.64992,-1.58906,-6.05887,0.46628,16.764,14.3462,11.2456,9.09055,4.8883,0.512556,-10.1977,-4.34585,100.528,-585.112,-779.336,17080,2660,-1820
54.1654,45.1851,35.4779,26.8838,24.0762,7.8015,9.93935,5.51171,60.3398,38.5337,23.3453,42.9255,19.8427,20.2701,13.4707,8.14988,101.992,-590.968,-780.8,15260,4200,-1820
6.97649,26.0243,15.039,39.6153,31.9376,9.96127,39.4411,16.91,6.26224,4.64387,-1.41654,23.4659,8.21287,20.8435,44.7655,26.505,100.528,-589.016,-784.704,14000,5180,-2100
-66.9899,-36.3863,-25.4431,1.3359,-0.221156,1.02143,18.3704,13.6115,-75.6775,-47.2833,-28.8539,-32.1842,-13.0691,-2.22557,22.051,13.1768,101.504,-594.384,-785.68,12180,6020,-2100
-81.6031,-71.2501,-42.7788,-44.4282,-35.3475,-7.82022,-20.5538,-1.48099,-93.3249,-57.5233,-32.8198,-60.1311,-20.512,-23.5277,-25.9117,-11.6777,101.016,-597.312,-789.096,10920,6720,-1960
-23.9794,-40.6414,-22.881,-37.7329,-26.05,-3.88276,-18.5574,-4.86909,-26.6839,-17.0108,-11.2152,-32.5028,-9.68346,-16.0291,-27.7205,-10.1895,103.456,-607.56,-790.072,10220,7000,-1820
36.6731,13.1868,3.85362,-9.71816,-5.25267,-1.33662,-12.9574,-8.84691,48.6312,24.524,12.2025,9.13612,2.66116,-4.86639,-13.2362,-8.80136,101.504,-608.536,-794.952,9380,6580,-1820
26.2499,9.37064,-0.473033,-11.159,-11.2246,-5.06821,-19.087,-13.7098,34.0236,15.8246,8.17744,4.14351,-1.11399,-9.3376,-20.5477,-14.5994,105.408,-612.928,-798.368,8680,7000,-1960
-5.49948,-8.6068,-6.40931,-23.3995,-20.1344,-4.36336,-33.3939,-16.1075,-3.02299,-2.04996,0.731966,-6.95744,-2.70829,-11.5653,-36.701,-22.5644,104.432,-616.832,-791.048,8400,7000,-2240
-36.9698,-37.5004,-18.9432,-35.9431,-29.2535,-5.92287,-34.34,-13.1861,-44.3797,-22.0364,-6.87225,-29.4376,-9.58078,-17.5578,-38.0992,-23.5986,108.336,-622.688,-791.536,7280,6300,-2520
22.5952,19.0827,5.5744,21.1733,12.8115,2.53568,21.7042,4.77457,27.9912,13.5546,7.92927,10.5501,-0.854118,3.17914,32.1568,11.657,106.872,-628.544,-800.32,6440,6440,-2940
53.7578,55.8995,22.676,53.8226,36.7833,6.24404,43.9112,12.6897,67.5995,31.4554,15.7113,38.9954,5.99888,16.3839,62.2804,25.7905,106.384,-633.424,-791.536,6440,7280,-3500
16.4204,17.5013,9.35787,16.0874,11.4827,-0.317702,12.1095,0.941942,22.3181,9.86929,4.77159,11.7924,2.579,3.32364,20.3491,4.58692,109.8,-640.256,-790.56,6160,7000,-4200
8.37866,10.9865,13.3686,6.77757,7.41583,1.61234,2.76252,-6.31224,11.5189,9.72008,6.48984,9.35378,7.66742,5.81374,4.29229,-1.79037,111.752,-646.6,-789.096,6300,6860,-4620
-6.59924,5.06129,11.5813,9.73256,11.6589,7.11475,9.25795,1.46132,-5.77889,-3.07513,-2.70284,5.99847,4.9378,12.3998,5.96593,5.8645,115.656,-648.064,-784.216,5880,7000,-5460
16.9399,27.149,20.7823,25.0453,23.924,7.07545,16.2398,0.169562,15.8739,12.7278,6.08468,25.1742,10.5355,15.1624,12.6505,6.77453,117.608,-649.04,-773.968,5600,7000,-6020
7.9086,12.1208,8.37612,13.0563,14.6019,4.92228,15.2989,7.6116,12.1245,4.15707,3.48316,10.106,3.86686,7.93229,16.6978,9.23018,115.656,-649.528,-769.576,4620,6720,-7280
-24.8943,-7.13958,-11.2966,8.05752,8.48736,3.50045,23.7164,14.8369,-28.134,-20.1464,-14.1565,-10.2001,-7.40841,1.07213,20.447,16.2395,122.488,-644.648,-768.112,3920,6300,-8260
-22.1475,-16.7143,-13.4952,-1.87208,-0.636424,-0.569956,11.1048,10.5406,-25.8077,-16.2528,-8.78316,-14.8434,-8.46602,-3.1766,10.1115,9.41672,126.392,-640.744,-766.16,2380,5600,-9800
12.9976,-6.9613,-2.23337,-18.0903,-14.6885,-5.79737,-19.2895,-7.99154,13.3619,10.152,7.48245,-4.36191,-0.480016,-11.286,-24.3968,-13.5657,128.344,-636.84,-769.576,1540,5040,-10920
15.0336,-8.24313,4.72415,-22.4362,-17.687,-4.15341,-29.1632,-13.2532,13.4409,14.3735,10.5553,-1.02676,5.31488,-8.20517,-33.5999,-19.3508,128.344,-633.912,-766.648,560,4480,-11480
-10.8698,-10.635,0.36119,-10.7787,-6.1173,0.309497,-11.9331,1.30027,-14.0508,-5.54709,-5.2737,-4.63504,0.296733,1.2702,-18.5432,-2.09142,131.272,-636.352,-773.48,0,4060,-12180
-57.1132,-41.2837,-20.2636,-26.5526,-20.5261,-3.24985,-16.496,5.70986,-69.7206,-36.8563,-19.467,-31.809,-9.96216,-8.16791,-23.013,-4.30785,129.808,-636.84,-768.112,-140,3780,-12460
-47.8757,-29.548,-18.1158,-9.7929,-9.57408,-2.43869,2.2764,9.71305,-61.2022,-31.1136,-14.9859,-24.6213,-8.95999,-4.60384,2.76742,3.56976,132.736,-636.84,-757.864,-140,2940,-12460
4.84414,6.25755,2.79884,14.3475,9.86388,0.161959,14.8166,7.59882,3.28471,2.26367,2.86898,5.78912,1.03617,8.19308,22.7681,10.9909,125.416,-642.208,-751.52,140,1960,-12600
29.4103,14.4341,3.25766,-0.664186,-4.33722,-6.34327,-7.9629,-8.9529,36.8811,16.355,8.63846,10.6594,2.77109,-3.56287,-4.71881,-7.31056,124.928,-634.4,-742.736,140,1260,-13020
28.0169,15.3198,4.20501,-3.80783,-5.35848,-5.18867,-17.375,-8.35073,37.7315,15.3671,8.51319,13.1736,3.37988,-3.46602,-12.8801,-9.51914,124.928,-632.936,-740.296,-560,840,-13440
0.124399,-10.1989,-12.4492,-20.8333,-19.5273,-8.09014,-23.4481,-10.3504,1.04711,-1.74117,0.9448,-10.57,-3.91044,-15.0611,-24.2557,-15.5334,122,-633.912,-737.856,-2100,-140,-13860
31.1057,19.8146,6.23758,3.67047,-1.38736,-1.87927,-7.10745,-5.13067,39.3729,20.1576,13.375,13.4801,5.42653,-2.80547,-5.00522,-4.36954,122.488,-631.472,-734.928,-4060,-840,-14700
10.4058,7.10974,4.68468,2.83702,1.31575,1.37976,-1.9045,-3.99182,7.92828,9.02557,7.00785,7.11064,5.02182,0.822033,-5.30856,-3.13428,121.024,-632.448,-735.904,-6160,-980,-15260
0.399409,5.66719,2.63089,10.4455,9.43483,6.85533,13.4484,2.43129,0.903139,0.478222,-1.41635,5.24875,2.56856,8.01992,9.29545,7.62142,119.072,-636.84,-740.296,-6860,-1120,-15400
11.0481,17.7545,6.34303,18.771,15.2065,5.53444,17.6913,4.7122,19.4237,7.66497,0.0699591,13.6614,2.64475,11.0813,19.9954,11.8437,118.096,-637.328,-740.784,-7700,-840,-15260
-4.81786,-1.3661,-3.59821,0.047594,-0.569311,-0.990931,3.20843,-2.70231,-4.44215,-2.30886,-4.40785,-2.76427,-2.33133,-1.01112,1.33023,0.608364,110.776,-641.72,-744.2,-7560,-420,-14980
1.54741,3.06832,8.62554,3.73991,6.39931,3.49824,1.96296,-2.3823,-2.0966,4.42303,-1.10302,5.43051,4.79339,6.02236,1.54358,4.07421,111.264,-642.696,-747.128,-7560,-140,-14280
-14.8015,3.45076,10.4065,16.0593,19.4903,9.38296,14.4556,5.26887,-24.4397,-5.63021,-8.90036,7.21228,5.05492,14.3539,11.8489,16.3032,108.824,-637.328,-747.128,-7000,280,-13300
-32.2312,-2.4323,-0.736049,26.3179,23.4853,9.24743,31.7625,14.4765,-43.9018,-19.5854,-16.868,-2.17972,-2.43665,13.334,34.5863,26.1148,105.896,-641.232,-749.08,-6580,560,-12600
-38.6231,-12.7843,-6.21273,23.4013,18.5489,6.48607,33.7186,13.0537,-52.8703,-23.755,-14.8548,-10.0248,-4.93344,9.64238,39.9623,22.8928,104.92,-637.328,-750.056,-6020,1260,-11900
-0.796704,-12.0024,-4.19142,-8.67913,-7.02127,-1.62212,-0.673027,1.77546,-1.67653,-1.99477,1.90895,-10.8624,-2.0215,-4.67232,0.752143,-2.22508,102.48,-638.304,-749.568,-5320,1820,-11340
46.9108,6.9443,1.43114,-25.7831,-24.1902,-11.0765,-31.0075,-12.9306,59.3981,26.3964,19.3187,0.00983534,0.103574,-17.0307,-29.9919,-26.2096,100.528,-643.184,-754.448,-5180,3360,-10360
33.5452,8.46376,2.65887,-18.4851,-16.5133,-7.63402,-28.4491,-12.6369,43.9098,19.4097,15.1423,3.44348,-0.0638087,-11.0345,-28.151,-24.2782,99.552,-643.184,-754.448,-4620,4620,-9520
7.33601,-5.42239,-5.54768,-20.7947,-17.3999,-6.48738,-20.2155,-8.77189,10.4305,2.01039,5.50356,-6.16331,-4.3938,-11.7465,-27.7049,-19.9627,98.088,-639.28,-762.744,-4340,5180,-9100
-19.6466,-8.34532,-3.32945,3.03829,4.51158,3.33886,11.7904,9.67951,-22.9673,-15.4673,-7.09411,-4.48344,-3.67782,4.75175,11.5952,6.43483,98.576,-642.696,-768.112,-3640,6300,-7980
-24.7047,-14.4579,-6.68195,1.89507,4.98187,2.60822,14.5967,8.08654,-33.711,-18.2743,-10.997,-9.608,-4.95548,3.14944,13.7179,8.4761,98.088,-640.744,-772.016,-2520,7420,-7280
19.7262,6.7139,1.51039,-5.34457,-7.76422,-2.38557,-9.97933,-3.84901,28.8352,9.50275,7.62062,2.33945,-0.174705,-5.3073,-5.29311,-7.10806,100.04,-642.696,-779.336,-980,8820,-6160
4.42112,4.09647,0.811073,-11.9188,-14.0776,-3.90368,-26.412,-9.88102,12.4722,3.27898,3.42158,1.87388,0.456386,-8.43997,-26.9909,-19.6791,95.648,-638.792,-778.848,1260,9940,-5040
-19.4382,-10.926,-5.86169,-9.49824,-6.49319,1.03704,-3.66218,3.37641,-15.7227,-9.92218,-5.0589,-8.11774,-3.48351,-2.71899,-6.42894,-2.08524,95.648,-636.352,-781.288,2660,10220,-4200
-9.27235,-2.97835,-4.19346,2.3092,1.32431,0.403129,3.58792,3.32632,-6.04152,-3.71903,-1.03314,-2.88977,-2.56752,-3.27474,5.32298,1.56238,99.064,-634.4,-778.36,3920,10080,-3640
8.33597,3.43931,3.91689,3.41842,1.86969,-1.3666,1.02901,-2.46123,12.485,8.42196,9.8738,4.18836,3.8517,-2.40144,3.82937,-0.339356,98.576,-633.424,-777.872,4900,9520,-3640
27.4549,15.586,19.1882,6.54611,9.38617,4.27127,4.78617,-1.05741,30.7261,23.1256,14.578,18.8649,14.5559,10.497,2.11438,6.54745,100.528,-632.448,-772.504,6300,9660,-3640
21.6447,25.3464,24.1848,25.4731,23.6929,8.80233,16.1451,3.38043,21.3945,17.8386,6.84274,28.4173,15.5116,21.1494,16.8889,14.4296,102.48,-633.912,-775.92,7000,8820,-3920
11.6561,30.8419,8.71329,40.5523,30.4222,4.69958,37.5971,12.1857,13.4316,3.8667,-7.43359,21.8951,1.54526,15.7084,41.5087,24.9482,107.848,-630.008,-765.672,7000,8680,-4480
-43.0612,-16.2446,-14.5628,5.44146,3.09499,-0.592413,9.33461,4.7778,-49.6015,-29.5082,-20.8327,-15.1927,-10.0919,0.828933,12.2957,6.14315,106.872,-629.52,-764.208,7280,7700,-5320
-82.6533,-55.6471,-32.7924,-25.5825,-16.5376,-3.75366,-3.92084,-0.429644,-99.6244,-55.4637,-33.617,-45.4586,-17.6602,-11.3977,-8.87754,-3.26009,109.312,-631.96,-763.232,7000,7140,-6300
4.88564,-13.0765,-9.34535,-17.7173,-12.5771,-3.9417,-11.4774,-1.7462,4.99246,-1.40936,-1.49409,-10.7577,-6.48874,-9.34805,-11.0641,-6.62072,115.656,-634.888,-766.16,6580,6440,-7700
46.7606,20.862,11.294,-8.73214,-9.1957,-4.53696,-26.1251,-13.1054,51.4262,29.5481,17.1143,16.5244,6.48267,-7.2618,-24.9125,-17.7062,117.12,-633.424,-763.232,5880,6440,-8820
15.7887,-6.96969,-6.6924,-26.1898,-24.4843,-9.64538,-35.1426,-13.6625,14.9556,8.9576,7.23941,-8.25932,-1.02023,-16.8384,-37.3239,-22.4268,122,-636.352,-763.232,5740,6160,-9660
-0.439721,-14.4267,-12.624,-20.0769,-22.0003,-10.2699,-25.3392,-8.25438,-3.05333,-0.270523,3.99941,-15.4922,-3.95945,-15.5121,-22.9208,-16.4729,122.976,-638.304,-766.648,6160,5460,-10640
-29.8438,-9.06278,-5.64849,9.11817,9.11019,2.63966,16.5065,9.54995,-38.8198,-17.2295,-10.8546,-7.93923,-1.28615,5.96537,13.4216,15.8801,126.88,-635.864,-769.088,6580,5180,-10920
-17.3515,-6.17138,0.238972,8.27528,9.32467,5.54906,17.6086,9.06182,-21.0717,-5.85923,-2.33422,-4.10425,2.37319,9.12047,16.1761,17.9262,128.832,-634.888,-759.328,7140,4340,-11340
17.8128,18.4868,10.6403,15.2972,8.85526,2.21995,6.64729,-1.57115,20.9115,16.8154,11.4497,13.0296,6.53055,6.26166,8.61038,3.91514,128.832,-630.496,-757.864,6580,3220,-12040
44.2001,27.4126,21.6402,8.38346,10.7162,6.45644,3.42637,-0.159036,48.9065,34.7346,21.5857,25.5032,13.2618,10.8153,-1.51623,2.23928,128.832,-630.008,-754.448,6580,2660,-12460
26.2806,18.28,15.8923,6.1885,8.99744,6.16977,3.25067,0.596689,30.3891,20.5377,13.4233,18.9919,9.37192,11.5722,-2.28268,2.98893,132.736,-632.936,-754.448,6160,1960,-13160
10.3874,17.0804,3.44464,22.6505,15.8951,6.89399,23.8542,10.5463,17.7638,2.32611,-1.33806,11.0667,-0.584088,10.5509,24.4949,14.4698,132.736,-633.912,-752.984,4900,2240,-13580
15.5967,15.6263,3.84312,18.4603,12.3864,5.21383,19.1032,8.12623,18.4157,4.32241,-0.0632887,11.2203,-1.53992,5.85833,20.7645,10.576,134.688,-633.424,-752.008,3780,2100,-13720
-24.4495,-18.1935,-11.5261,-6.10292,-6.29963,-0.943386,-0.202141,2.24625,-28.0656,-22.2491,-13.133,-15.7676,-8.41184,-6.49426,2.08881,-0.964289,137.128,-635.864,-750.056,2940,2380,-14140
-28.1072,-34.5684,-22.8428,-33.1208,-27.375,-10.7275,-22.4933,-8.88272,-34.3896,-25.0238,-14.8995,-30.9667,-13.7267,-22.1173,-26.6285,-19.3182,134.2,-636.84,-751.52,2240,2520,-14000
1.62771,-14.8612,-5.41719,-24.5447,-18.5387,-7.55169,-21.3499,-8.88802,1.0416,-2.50905,1.38335,-11.1863,-3.79414,-12.3666,-22.3852,-17.6022,135.176,-635.376,-754.448,1680,2800,-13440
6.18542,4.49018,7.53273,-4.14294,0.250416,-1.13451,-6.535,-6.49627,6.64295,4.37552,2.16457,6.61691,4.67803,0.640157,-10.7799,-8.08677,136.64,-631.96,-756.888,1540,3220,-13020
-16.6016,-5.91807,3.73912,-1.9623,1.1542,1.36547,-5.0166,-1.66469,-15.7549,-8.67098,-4.2613,-0.0682175,3.14559,4.38548,-2.79146,-2.15535,138.592,-634.4,-760.792,980,4340,-12320
-14.6392,-4.49523,-7.02038,1.0113,-2.30564,-3.34631,0.705625,-0.939285,-13.3816,-10.6781,-7.72283,-5.85805,-4.37567,-3.31758,6.60247,0.125516,138.104,-630.984,-757.864,700,5180,-11200
-2.25805,12.0217,1.46652,20.1674,15.3859,3.22084,18.119,7.04854,-2.26379,-1.733,-3.8446,8.52962,-0.534939,6.53002,28.3648,14.226,140.056,-629.52,-754.936,980,5740,-10360
-3.05997,16.7505,8.04008,28.0615,25.5158,8.90058,28.8094,10.262,-5.74744,0.864116,-2.12519,14.4013,4.13165,14.4296,35.2503,22.0093,139.08,-628.056,-756.888,560,5600,-9380
19.5512,21.2023,17.0803,14.5169,14.6212,7.0574,6.21541,0.789975,18.1671,18.3958,9.02271,19.4589,10.9685,10.2638,6.01253,5.25223,137.128,-625.616,-754.936,560,5740,-8680
14.0433,2.96637,10.8042,-7.72519,-2.65282,2.31683,-11.5006,-3.68173,13.6655,15.0138,8.50868,4.22663,7.26975,1.84914,-17.0752,-7.67926,137.128,-623.664,-754.936,0,5600,-7700
8.58022,5.74169,2.62871,2.84946,1.98006,1.97209,4.00839,5.82013,17.9526,6.76797,2.91309,1.76499,-0.591546,3.50903,2.7049,3.17581,134.688,-624.64,-756.888,0,5320,-6720
-6.21927,-6.2028,-5.17818,-3.23292,-3.67956,-0.204799,2.16694,1.95691,-4.24252,-2.72411,0.0661886,-5.39266,-2.84974,-1.85032,-0.816831,2.24439,133.224,-621.224,-757.864,-420,5460,-6300
5.50915,-9.59404,-1.69767,-11.2937,-10.7128,-3.76011,-12.7221,-5.91662,6.33091,5.24509,10.1492,-3.57514,-1.19189,-4.2848,-11.2059,-5.37378,134.2,-622.688,-755.912,-700,5320,-5740
-3.96025,-3.05271,0.0315687,-1.8208,-3.35296,-2.69825,-8.25549,-5.00719,-6.66756,-1.10765,1.74204,-1.74757,-1.96889,-2.57494,-6.23267,-5.37237,131.272,-625.128,-757.376,-840,5740,-5040
-34.6786,-18.1504,-12.5357,-0.77519,-1.18268,-1.34302,8.6211,7.57777,-38.4459,-24.172,-12.7176,-16.8788,-10.1007,-1.21623,12.3555,7.44235,132.248,-626.592,-760.792,-980,5740,-4480
-32.8596,-33.168,-25.892,-26.3419,-25.13,-11.2913,-15.5435,-5.4431,-33.7972,-26.5407,-13.1901,-31.8806,-14.8885,-19.2811,-14.9682,-12.8664,134.2,-625.616,-762.256,-980,6580,-3920
-3.31152,-18.3491,-15.9667,-25.3744,-23.5695,-11.2899,-21.0223,-9.89808,-2.02685,-7.41821,-4.53961,-17.7763,-9.58048,-18.1214,-25.2275,-18.0898,132.248,-626.104,-763.72,-700,6860,-3360
19.7206,8.05202,1.23993,1.24695,-2.2161,-3.10271,-1.07302,-1.13545,22.6188,8.89093,4.59783,5.25904,0.816067,-3.46909,-0.0240416,-2.49206,131.272,-628.544,-764.696,-280,7280,-3080
10.7511,5.24251,-1.19559,-1.57187,-5.19443,-4.78141,-9.70219,-9.14399,8.016,4.57989,1.07947,1.94727,1.91051,-6.98722,-10.8585,-7.94283,129.808,-629.032,-765.184,-140,7560,-2800
4.87281,-1.26931,-0.950288,-7.20095,-6.96545,-2.41607,-11.3256,-6.25177,2.95677,3.59108,0.0967921,-1.88091,3.30576,-3.33391,-13.2265,-6.63402,129.808,-629.032,-765.184,840,7140,-2380
6.01014,13.0145,4.56907,14.6387,10.2057,3.55578,15.4681,8.02966,7.22104,3.38602,-2.99476,8.0756,3.18469,8.29979,14.2082,8.74121,127.856,-630.496,-767.624,1260,7840,-2240
10.2398,26.0618,15.064,32.1524,28.4067,11.8731,32.4756,18.3061,11.0236,8.01243,1.59669,21.8215,9.88441,19.6717,32.7546,22.3043,124.44,-631.96,-766.16,2100,7840,-2380
3.22691,6.26057,12.4098,9.11819,14.3418,10.3094,7.69512,7.52011,0.906006,5.80988,4.78261,11.0276,11.9616,13.9227,4.25565,8.09155,124.928,-632.448,-768.112,2940,7980,-2520
18.283,15.9822,15.138,15.7176,18.2466,10.6351,12.0442,6.98214,18.6677,15.375,9.34887,19.7238,12.6525,16.6193,8.15468,11.3788,127.856,-632.448,-774.944,3360,8120,-2800
8.89233,11.6461,8.97795,12.9714,12.4921,6.00192,10.0415,2.56583,10.2224,8.45364,6.58903,14.7761,7.0622,10.4635,7.39869,9.43302,126.88,-628.056,-772.992,4480,8820,-3220
-16.0443,-11.9908,-9.21672,-9.14309,-7.5733,-3.48221,-6.90513,-4.8092,-15.5929,-9.56607,-1.96155,-8.56533,-7.19281,-5.8503,-7.17894,-3.39486,121.512,-629.032,-769.088,4760,9380,-3640
-26.4284,-26.5358,-19.6968,-27.3984,-23.7914,-10.6056,-21.9608,-14.6288,-29.1012,-17.961,-8.02002,-23.5105,-12.719,-20.2329,-24.0199,-19.1603,120.536,-625.616,-772.504,5600,9940,-4340
2.12769,-11.4451,-10.0904,-21.3533,-21.8692,-9.54684,-24.5164,-14.7145,8.35427,0.391752,2.7142,-12.282,-8.36027,-18.7264,-21.2232,-20.5215,121.512,-626.592,-776.896,6160,10640,-4900
16.858,11.8283,3.49595,2.58018,-0.426126,-1.13656,-4.59692,-9.82923,18.748,11.8111,3.44229,7.30612,-0.369137,-4.40973,-3.64057,-6.59371,120.048,-625.128,-772.992,6580,10920,-5600
3.44983,3.6008,6.83942,6.63736,10.1717,7.71324,12.7097,7.1283,2.42789,3.26148,-0.751173,5.19334,2.34294,9.2399,14.8682,11.7413,119.56,-623.664,-772.504,7280,11340,-6300
-9.74968,-16.7048,-5.50941,-17.5537,-10.6133,-2.80365,-11.5068,-0.552322,-16.7799,-7.6384,-4.00893,-13.206,-4.56455,-6.1598,-15.6932,-8.33404,120.536,-623.176,-771.528,7420,11340,-6580
-6.44868,-5.70389,-3.31531,-7.1641,-6.58892,-4.77696,-10.4369,-1.36986,-9.30708,-7.63306,-3.96484,-7.95078,-4.37574,-4.90607,-9.63345,-10.9676,118.584,-622.2,-772.016,7280,11480,-7420
1.84287,9.50506,3.39124,9.80215,4.98724,-1.50449,4.75523,4.20668,1.80367,-1.00951,-1.97205,3.58145,0.547588,2.16829,9.48493,-1.14436,119.072,-619.76,-772.992,7420,11060,-8120
9.04091,23.5909,14.243,27.4213,22.8031,8.11026,26.7883,13.7211,9.88273,5.26567,-0.126927,17.7016,8.2093,15.4469,32.6436,18.4923,120.536,-618.784,-772.992,7840,10920,-8540
14.2179,25.0854,18.3253,29.9918,27.6383,12.6605,32.5582,14.713,16.0644,10.8616,4.43661,21.3983,11.1006,19.0624,37.1528,25.1878,122.976,-617.32,-772.992,7560,10640,-8820
7.5591,6.61589,8.23475,6.70249,6.37194,3.92745,5.58233,2.3071,9.12096,5.24754,5.212,6.53332,4.58934,6.18639,7.85537,3.18772,125.416,-619.272,-772.504,7560,10500,-9100
6.82292,0.673483,3.12782,-3.20632,-1.91929,-0.299549,-3.14658,-1.1257,4.93595,3.91986,3.17321,-0.0596965,0.909642,0.00942847,-7.43242,-4.64266,127.856,-617.32,-773.48,7560,9940,-9240
-2.22948,-14.0859,-3.45721,-17.097,-13.5404,-3.47147,-15.1892,-2.87073,-0.91712,-1.92783,-0.237529,-10.7329,-3.3236,-5.57346,-19.8725,-8.6937,133.224,-616.344,-770.552,6720,9940,-9380
-4.33912,-8.5774,-5.35103,-8.90897,-6.76197,-1.75753,-3.26532,-0.106127,-5.63991,-1.49722,-2.26768,-7.68182,-2.23745,-4.00966,-9.28081,0.897395,137.128,-614.392,-768.6,6440,9800,-9520
-12.2078,-12.8607,-9.93575,-9.11312,-8.27965,-2.74503,-7.37589,-2.24295,-14.1381,-6.3329,-3.92358,-10.8565,-3.02348,-6.44328,-6.63937,0.502679,136.64,-613.416,-771.528,6580,9800,-9240
-18.06,-6.74307,-8.17471,0.815151,0.672558,-0.400031,1.38251,0.761835,-19.0143,-10.0226,-5.75877,-5.51581,-1.71699,-0.45031,3.86066,6.12605,141.032,-617.32,-768.6,6160,9660,-8820
-6.60107,5.99246,1.74108,15.9992,14.7846,3.65432,17.5792,6.33811,-8.31525,-1.74884,-1.31012,7.13315,2.7075,11.444,19.0797,17.1287,140.056,-615.368,-765.184,6300,8820,-8400
4.36439,1.6047,-2.08602,4.44535,2.56235,0.131451,7.89362,5.37375,10.9244,2.36556,3.58025,2.74273,-0.801675,3.57063,9.84367,10.7913,142.496,-619.76,-767.624,5880,8120,-7700
1.30354,-8.84357,-11.5995,-15.9122,-17.5621,-7.01615,-16.3439,-5.94809,7.68552,-1.64249,0.137458,-7.87691,-7.00434,-13.3348,-17.776,-8.69261,144.448,-619.272,-765.672,5600,7980,-7280
-13.1859,-17.0633,-16.3056,-17.8985,-19.1294,-9.74978,-18.1731,-7.97589,-6.61361,-11.9261,-4.94011,-16.3684,-11.0141,-17.0033,-14.57,-13.052,143.472,-619.76,-764.208,5180,8260,-6860
-19.5288,-20.6484,-16.9494,-19.6679,-18.0673,-10.4128,-18.9841,-12.4829,-15.8644,-16.0508,-8.63185,-19.0519,-10.4033,-17.192,-18.9527,-16.1068,146.4,-626.592,-766.648,4620,8680,-6720
-11.2569,-11.7093,-8.96934,-14.46,-12.5843,-6.68852,-18.5447,-11.8059,-11.6505,-8.12827,-4.83536,-9.09885,-4.9881,-10.0003,-19.4802,-17.0533,145.424,-627.08,-768.112,3920,9240,-6440
5.78907,3.36213,3.39937,-0.029592,-0.535588,-1.6361,-4.89132,-5.40493,3.74012,4.65181,2.99588,4.79172,1.34728,1.04506,-5.24027,-7.44377,145.912,-632.448,-767.624,3920,9520,-6160
21.7065,17.4457,18.4257,14.7971,13.1338,6.72839,12.6884,3.10584,17.0113,18.7695,10.263,18.7324,10.8246,13.2605,13.5787,7.4519,143.96,-636.352,-762.256,3360,9660,-5880
9.40303,12.5319,14.1958,17.1361,15.699,7.41002,17.8454,5.91864,1.83596,10.9768,6.91201,13.8851,9.10366,12.8356,18.2954,10.4229,142.984,-640.744,-767.136,3360,9940,-5600
8.38709,5.92802,6.04445,3.87794,3.64563,2.43567,0.0949879,0.821731,4.05857,7.30121,6.1212,5.57626,4.10044,2.63594,-1.3173,-1.91853,141.032,-644.16,-762.256,3640,10780,-5600
4.28048,8.43463,6.49754,8.85646,6.72722,2.75351,4.74166,1.40282,-0.187016,2.96007,1.34626,4.89034,3.0609,2.03728,0.541085,0.296743,140.544,-647.576,-762.256,3640,11060,-5460
9.93412,12.115,11.0204,13.9869,12.7135,6.02957,12.2772,6.77758,10.9596,5.55421,0.934536,9.71987,3.42343,8.38794,13.4479,9.10438,135.176,-648.064,-759.328,3640,10920,-5320
5.77907,4.35605,1.10127,0.923609,1.86302,-1.19213,1.70857,1.32096,2.17625,1.27445,-2.05447,2.11804,-1.17101,-1.19328,-0.461552,-0.599262,136.64,-648.064,-761.28,3920,10920,-5180
5.05128,2.21059,-1.24352,0.0300627,0.426641,-1.32762,-0.761131,1.62388,4.65126,-0.451625,-2.1633,0.538838,-1.91115,0.445431,0.912411,-2.17963,134.2,-651.48,-764.208,3920,10780,-5320
18.8051,13.3878,7.92663,6.96189,5.0151,0.885234,1.91358,-2.38041,16.6743,11.6754,5.55962,10.7623,4.7179,5.14502,1.20327,-2.11005,131.272,-652.456,-766.16,4760,10500,-5460
2.47974,4.80091,4.71621,4.85967,3.83787,3.03168,4.80027,0.614564,0.826205,0.65328,-0.985202,4.03189,3.32486,4.32085,5.58659,4.06896,129.32,-651.48,-764.208,5040,9940,-5600
-15.2489,-12.2244,-8.96613,-11.4177,-8.26768,-0.48629,-3.88453,0.776137,-15.7873,-13.3385,-9.66677,-11.862,-5.75228,-6.2071,-6.43969,-0.311877,127.368,-650.016,-764.696,5880,9660,-5880
-24.4837,-19.4805,-13.9013,-15.0576,-11.8275,-2.56356,-5.66681,1.81203,-23.2268,-19.2222,-9.76491,-18.6888,-7.55045,-8.33606,-6.11528,-2.67438,129.808,-646.112,-765.672,6860,9100,-5740
-10.706,-4.30149,-4.21809,-0.905926,2.04689,4.33779,8.46781,7.57375,-8.34357,-7.00656,-2.89199,-4.60632,-0.79424,3.23817,8.98897,6.7625,131.272,-643.184,-769.576,8120,8400,-5880
-0.715183,2.48871,4.62342,4.17148,6.91786,7.26956,7.97014,6.67038,0.770578,1.21609,3.22986,3.9195,3.42081,8.50836,9.72845,8.45519,130.296,-641.72,-764.208,8820,7700,-6020
2.20619,5.62746,5.56405,5.89845,6.66737,6.48229,6.10756,2.81077,4.89865,4.46965,5.98275,5.83293,5.59586,6.12283,7.26763,3.96207,130.784,-635.376,-767.136,9380,6720,-6580
1.39557,-3.05415,-0.00527856,-3.08356,-4.29408,1.31669,-8.28296,-5.81074,6.04454,2.68426,6.43996,-2.03967,2.2602,-2.67882,-3.16514,-7.67836,131.272,-630.984,-766.648,9660,6020,-7000
-0.918581,-7.00412,-5.60208,-10.4325,-12.1017,-3.25119,-15.7683,-12.4602,3.04701,-0.107678,1.11369,-6.95659,-1.46679,-10.1599,-16.1967,-15.261,128.832,-633.912,-765.184,10360,5040,-7140
5.92774,0.207537,0.606514,-6.20965,-5.73462,-1.31428,-11.2672,-6.99326,12.4357,6.43807,4.23535,0.527707,0.352302,-3.96764,-13.8322,-9.67579,130.784,-630.984,-759.816,9940,3780,-7560
8.84736,7.71496,4.77915,2.4003,5.07641,-0.268017,-1.06883,-2.26536,12.2281,9.1112,3.88691,7.95104,2.07056,1.64233,-4.1434,-0.347177,130.296,-629.52,-756.888,9660,3500,-7980
-7.08827,-2.85243,-6.70192,1.54896,2.2685,-4.42938,2.60152,1.35077,-3.1397,-5.17613,-7.17471,-3.41572,-6.3594,-2.83401,0.876475,3.47861,131.272,-630.984,-754.936,8680,3080,-8680
-16.9371,-11.3418,-14.0043,-3.91475,-6.66748,-8.68354,-3.79695,-1.39095,-12.1387,-14.274,-12.2649,-12.7252,-11.1841,-9.68495,-1.27204,-1.50343,132.248,-627.08,-749.08,7980,2520,-8960
-12.0683,-10.2118,-12.3578,-11.2511,-13.0906,-10.7997,-13.0655,-6.24461,-11.6792,-8.55269,-7.21011,-11.1493,-8.388,-13.3256,-15.6387,-9.17485,133.712,-625.128,-752.008,6720,1960,-9800
-1.69981,-0.954258,0.0199717,-0.735845,-1.59983,-1.42837,-0.655705,5.23573,-2.02001,1.06008,0.0579278,0.247555,0.0633597,-0.051517,-1.02629,4.6415,136.152,-627.568,-753.472,5740,1400,-10080
6.42528,9.83382,8.44498,12.1526,11.5373,3.96164,14.4448,10.7299,1.27966,5.08986,1.28058,10.5538,6.15727,10.5334,12.0814,13.6075,139.08,-630.008,-749.08,4760,980,-10220
8.66339,10.6751,7.31686,13.4628,11.0895,3.91772,17.6834,12.0043,6.08521,5.49387,2.2978,9.39314,6.07612,9.96023,19.0813,13.1025,139.08,-627.568,-745.664,3640,560,-10500
8.93233,5.28795,5.07327,5.30291,3.67577,-0.30614,6.75254,3.03306,4.86279,5.06358,3.66516,6.23957,3.57004,3.84157,8.74965,3.84363,142.496,-631.96,-740.784,2660,280,-10360
7.87491,-3.26295,1.17285,-7.39734,-8.11101,-7.31262,-10.4213,-7.00233,2.69496,4.7768,5.77579,-0.99808,0.795504,-5.16575,-8.57351,-8.28771,140.544,-631.96,-741.76,1260,-280,-10220
8.34825,0.886844,5.03899,1.7962,0.363643,-3.94229,-1.61692,-5.10884,2.31058,7.31224,5.79034,2.69084,4.61249,1.34558,2.14044,-1.08617,143.96,-633.912,-736.88,-140,-560,-9940
3.09192,-2.43792,4.17784,-1.21166,3.47709,3.36272,2.08754,1.87283,-3.41069,2.86013,0.596386,0.956504,4.68682,7.05374,1.44481,5.99499,143.96,-633.912,-731.024,-1260,-840,-9380
1.06296,-3.58716,-1.70441,-7.10275,-2.01872,3.32538,-5.11132,-2.30617,-5.56943,-0.0796649,0.269165,-2.0376,1.85781,0.956397,-11.4275,-1.72954,143.472,-637.816,-729.072,-2800,-1400,-8820
6.05607,7.88876,3.54209,8.66625,6.44815,5.57146,2.39286,-0.43741,7.48895,3.48825,5.53571,6.50529,2.73241,6.06946,5.71278,0.479747,149.816,-633.424,-726.632,-4060,-1680,-8400
3.71509,6.26356,1.61359,4.73175,2.04807,2.79308,0.299886,-3.96213,2.30673,4.08766,6.40749,4.88653,1.87461,1.49839,-1.41267,-3.73393,148.84,-633.424,-726.144,-6300,-2100,-7700
-1.84883,1.46054,-0.361787,5.78684,1.55681,1.05151,5.15946,2.20288,-0.0503915,-2.57486,2.85519,-0.15629,-2.65566,1.0581,7.85965,2.33112,148.352,-632.448,-723.216,-8260,-2240,-7000
-1.29403,3.88941,-2.62625,7.35652,3.11672,-1.74779,8.44389,1.34596,0.492542,-4.92048,-3.52135,0.206279,-5.19954,-0.694863,9.6123,4.28209,150.304,-630.496,-722.24,-9660,-2660,-6440
-6.68432,-2.56742,-0.779581,-0.552476,-0.0675411,1.60101,0.583103,0.528199,-3.38831,-6.18097,-4.47634,-2.00458,-1.82307,0.846396,2.38298,1.60296,149.328,-632.936,-720.288,-11760,-3500,-5740
-18.8777,-11.9307,-5.8284,-6.42302,-4.22325,1.93938,-0.471025,2.02833,-18.1647,-14.2498,-9.27219,-10.2503,-4.67334,-1.35931,0.245791,0.130466,148.352,-635.376,-722.728,-13300,-4060,-5460
-11.4292,-8.53263,-5.14075,-8.43476,-6.50227,-1.04161,-4.05888,-1.43323,-12.6783,-9.91356,-7.30789,-7.98309,-6.04369,-5.7115,-2.29977,-2.61565,147.864,-632.448,-723.704,-14980,-4760,-4900
-6.03995,-2.05328,-1.50283,-3.97595,-2.47683,1.12413,-1.07988,0.731436,-4.19885,-4.2852,-6.37703,-2.03372,-5.57082,-4.65271,0.195165,0.329362,148.84,-635.864,-726.632,-16660,-5460,-4480
-0.936367,-4.41891,-2.2349,-9.0471,-7.39131,-0.635411,-7.19413,-1.25425,2.96262,0.21433,-3.49624,-3.89502,-4.65861,-6.51393,-7.51133,-3.89109,148.84,-638.304,-735.416,-17220,-5740,-4200
4.58655,2.75077,3.39876,-2.29294,-2.17787,3.52111,-1.42439,1.9012,9.96392,3.74255,-0.831462,0.659418,0.0584687,-4.29743,-4.79826,-1.4888,147.376,-638.304,-735.416,-17780,-5740,-3640
-3.68113,-2.27321,4.48267,-3.01996,0.803409,6.89205,-2.36126,2.47955,1.41397,-1.52742,-1.63544,-0.209325,2.43934,0.718893,-4.01308,-0.0219247,147.864,-635.376,-740.784,-17640,-5740,-3080
-2.91009,-3.67895,-0.193256,-6.43175,-4.44769,-0.374388,-6.53792,-5.50893,-0.897641,0.489112,0.55129,-3.77083,1.29104,-4.42166,-8.55617,-5.4548,146.888,-636.352,-746.152,-17220,-5880,-2100
6.53136,3.89282,0.345992,-0.529036,-1.52231,-5.66127,-3.48722,-4.84124,11.434,5.96442,4.79364,0.283653,1.40476,-3.4638,-0.836665,-5.9023,140.544,-634.888,-749.08,-16660,-5880,-1260
12.088,10.6566,3.56597,4.62637,4.35845,-7.26211,0.963807,-3.98208,14.5979,9.47511,5.76099,5.06301,3.75036,-0.44007,5.00878,-4.97268,143.472,-636.352,-752.496,-16100,-5740,-420
4.18714,5.98509,4.88201,2.7949,3.20467,-6.03351,-4.17695,-6.55066,4.20474,3.73378,3.52342,3.4939,4.20399,0.778952,-3.83709,-7.41847,141.032,-634.888,-752.008,-15120,-4900,420
5.11687,7.33433,8.53587,10.0187,9.82164,-0.15343,6.94972,3.9572,3.13513,2.44453,2.87022,7.89531,4.64957,9.62606,5.99674,4.25116,135.176,-633.912,-760.792,-14000,-4340,1120
12.739,15.0187,10.5183,20.0302,18.3436,4.74357,21.1631,10.7286,7.52115,7.74583,4.50728,15.4016,6.73489,15.7495,14.6987,15.0554,130.296,-630.984,-765.672,-13160,-3780,1820
12.5093,10.2821,9.90317,10.9124,10.5452,6.84206,9.38644,8.19596,9.84507,11.9894,8.35835,12.1967,9.30201,14.1779,6.61696,10.0708,126.88,-629.032,-774.944,-11620,-2940,2240
3.26618,-3.4951,-1.48222,-5.22574,-5.72707,-0.454599,-6.9323,-0.92448,-2.88302,6.59176,4.58275,-1.12413,1.77272,-0.41462,-11.5817,-2.59971,125.904,-626.592,-780.312,-9800,-2660,2520
-5.90527,-10.3831,-12.8047,-11.1593,-10.0758,-3.37343,-9.68236,-2.62121,-9.38246,-2.72898,-2.00614,-10.9103,-6.26264,-8.32762,-12.649,-6.82557,125.416,-622.688,-783.24,-7980,-2240,2940
-10.719,-10.0403,-17.0946,-5.70154,-5.73913,-1.71576,-2.73548,-1.70927,-14.7147,-9.18908,-7.17994,-11.5978,-8.579,-6.07549,-2.95184,-3.76048,117.12,-621.712,-785.68,-6300,-2100,2940
-2.15635,-1.39544,-11.0465,2.99256,-0.25392,0.702236,2.77905,-1.59856,-3.66803,-4.97609,-3.94843,-3.90129,-4.76931,-1.59633,6.61262,1.22556,115.168,-621.712,-788.608,-4200,-2240,2800
1.31152,0.971484,-5.25959,5.51687,3.25114,4.25069,8.31238,1.51766,0.184925,-1.8323,-2.11301,0.742665,-1.70933,1.67822,9.38089,8.05882,108.336,-622.2,-788.608,-1960,-2520,2380
-5.05228,-10.12,-5.76194,-5.65221,-4.30513,2.2832,-0.519911,-0.0982118,-6.7033,-5.30304,-1.0334,-4.63366,-1.29277,-2.39931,-1.47604,3.5585,108.824,-622.688,-787.632,-420,-2800,1680
-13.3448,-15.5487,-6.53289,-15.6941,-11.0726,-2.13764,-12.5845,-5.26256,-17.1053,-8.19649,-1.48868,-9.60911,-0.478713,-7.97532,-16.7162,-6.50311,105.408,-624.64,-788.608,840,-3220,1120
-22.1258,-17.9842,-8.54702,-14.8361,-8.98879,-1.87932,-13.0789,-2.14496,-22.8092,-16.0019,-7.55963,-10.1113,-2.61723,-4.08859,-10.0326,-4.53253,103.456,-626.104,-789.096,2100,-3360,280
-15.1255,-10.1049,-12.5224,-9.64091,-8.50863,-6.60196,-8.11289,-4.95699,-13.4963,-12.8341,-10.8645,-8.6313,-6.68575,-7.37399,-6.58265,-7.2647,103.456,-630.008,-789.096,2800,-4060,-560
-2.88831,-4.03222,-5.26051,-4.68597,-7.3008,-5.61231,-6.52104,-1.11057,5.00032,-3.78975,-6.13161,-4.39806,-3.44121,-4.5688,-1.36764,-6.66393,102.968,-633.912,-788.608,3640,-4480,-1260
4.17065,4.90304,6.29559,4.01411,1.18243,-2.16712,3.05109,2.70613,9.15804,2.11341,-0.151882,4.1453,3.3767,-0.0361008,4.82929,0.327492,104.92,-638.304,-788.12,5460,-4620,-1960
10.3211,7.55249,14.8061,4.34075,3.33195,0.662612,2.31325,2.17321,14.7158,9.31449,8.53394,8.49901,7.72898,3.57276,4.08372,1.39154,102.968,-640.744,-787.144,7140,-4900,-2380
12.3429,9.61169,11.5743,4.43298,1.0101,0.771659,1.50653,0.406734,16.6834,10.2334,7.63443,8.38665,3.8909,1.98152,3.5275,1.39835,103.456,-643.184,-782.752,8540,-5040,-2660
13.4923,13.4235,9.10125,9.87653,2.97073,1.73162,5.44449,1.63136,18.169,7.34204,4.17529,9.46286,-0.528248,0.0395882,7.03465,3.41746,104.432,-645.624,-780.8,10220,-4900,-2660
9.37733,11.8865,7.34914,10.9486,7.28634,2.00238,7.45999,2.50893,10.9659,4.28123,2.86356,7.45781,-1.11221,1.61218,9.06596,4.51202,106.872,-645.136,-777.872,10780,-5180,-3080
6.04674,5.48591,7.46771,5.16166,5.7316,0.389398,2.57145,-1.29731,2.55127,4.75412,4.24662,3.98141,0.863494,1.85138,1.1183,-1.05719,106.872,-647.088,-773.968,11480,-5040,-3360
9.81634,5.9861,9.18662,1.36108,2.6665,0.224849,-2.52002,-5.40798,4.94744,9.18385,9.22023,4.43801,2.85628,-0.653527,-5.259,-6.12292,108.336,-649.528,-770.064,11480,-5040,-3640
0.868423,7.23628,7.68092,7.56342,7.43117,3.96371,4.52916,1.59611,1.01437,2.09577,6.071,5.66627,1.44043,6.16329,5.5424,4.98023,110.776,-646.112,-768.6,11340,-4900,-3780
-6.2593,7.60911,5.81495,10.9435,10.5357,5.91773,10.9163,5.04566,-6.75088,-2.10058,0.351899,5.73976,2.95475,9.74256,11.315,8.51017,111.264,-644.16,-763.232,11200,-5040,-4060
-13.004,-1.87776,1.29353,3.75908,6.30904,4.25318,5.81203,5.51003,-13.557,-6.87458,-3.74611,-1.12862,0.786733,7.86367,8.31243,5.77809,112.728,-643.672,-760.792,10640,-4620,-4060
-13.4168,-14.8258,-6.38926,-12.7946,-6.32026,1.83823,-4.97713,1.21574,-18.388,-8.68461,-7.64896,-11.9067,-3.18462,-2.15318,-9.34505,-2.15443,117.12,-640.256,-762.256,10360,-4760,-4200
-0.0898571,-8.00413,-4.596,-10.0547,-5.19648,1.22111,-3.02079,-0.654343,-3.94364,0.412215,-3.14099,-7.7663,-0.347991,-2.27026,-7.30416,-0.258052,119.072,-640.256,-763.232,10220,-4900,-4060
10.2186,7.5944,2.58491,7.15986,7.19457,2.47374,8.66508,3.5665,13.0752,8.51899,-0.384936,5.23407,4.08189,5.98719,12.4588,8.99101,120.536,-638.304,-762.256,10080,-5180,-3780
10.1586,7.96259,-0.539091,6.79403,5.16947,0.46147,9.22275,2.92607,11.6331,7.32144,-1.18422,4.40805,2.09368,2.22222,10.9049,7.6336,124.44,-630.984,-763.232,10640,-5600,-3500
8.27197,4.32955,-1.3668,2.97317,1.34813,0.0490089,4.28859,3.88513,12.761,4.46387,0.858609,3.20641,1.14536,1.35633,8.3161,3.81065,124.44,-632.936,-759.816,10360,-6300,-3220
4.71323,-0.735215,-2.56043,-1.91573,-2.11395,-2.1618,-1.9548,-1.59531,2.92505,2.74831,0.733177,-0.118108,0.146878,-0.99489,-2.43198,-3.32048,126.392,-628.544,-763.72,10220,-7000,-3080
4.96579,-2.5257,-2.02213,-2.48707,-1.06378,-0.455742,-1.47953,1.08201,1.72987,1.29998,-0.16131,-1.24879,-0.197951,-1.20066,-2.14726,-1.16093,123.464,-625.128,-760.792,10780,-7560,-2800
0.431611,-3.77678,-6.58806,-1.29291,-0.405824,0.159998,1.92688,2.38688,-1.85513,-2.16292,-3.10964,-3.03076,-3.21941,-2.8762,-1.42294,0.537062,128.832,-624.64,-762.256,10920,-8680,-2660
-3.89525,-6.61994,-6.19204,-5.97746,-3.70087,-2.37687,-6.44045,-3.32863,-7.76584,-1.82557,0.997804,-4.63497,-1.31822,-5.07922,-10.4075,-6.12433,125.416,-618.784,-765.184,11200,-9520,-2660
