Ch 1,Ch 2,Ch 3,Ch 4,Ch 5,Ch 6,Ch 7,Ch 8,Ch 9,Ch 10,Ch 11,Ch 12,Ch 13,Ch 14,Ch 15,Ch 16,Ch 17,Ch 18,Ch 19,Ch 20,Ch 21,Ch 22
-2.7036253834381894,-3.741406543431106,-4.514641671971955,-2.6079104372261424,-3.9395915795838383,-3.373781583947584,-3.3746485781517177,-3.1593739411792847,-4.271240143568301,-4.448184048932289,-2.838844779431021,-3.461975728996772,-4.527642681539494,-3.4341321238727045,-3.407380661740081,-3.3737790008333643,51.240002,-734.927979,-666.608032,20160.0,3080.0,4340.0
-60.05497355895607,-77.60630364657106,-104.8944358155834,-30.174102026785395,-87.38582824886342,-62.99183968421226,-62.84059723391661,448.1928432339822,-97.44931965745803,-106.18577806152736,-46.980849803888894,-86.25840046054172,-103.14225123650137,-68.92548657583227,-70.42449449574097,-63.86786273454898,55.144001,-736.880005,-668.072021,19600.0,2800.0,4340.0
-42.03290005147467,-53.81952962616002,-75.11619005396817,-9.323395465870592,-62.10131318345395,-40.5574274408327,-40.48731727321498,503.8136987986957,-66.56595497340975,-78.2749915999621,-26.542681327956007,-63.27463749294429,-74.43149037367907,-44.667547093408096,-47.09308171736325,-41.09905188588768,56.608002,-751.031982,-650.992004,-7000.0,-7840.0,-7700.0
25.69549014098232,34.16617958180954,42.369910430108725,32.8871145405666,35.86054756652888,32.778191213726345,32.65742345912592,125.74961395094648,44.819102708583856,39.08698223939837,30.86113198701469,32.157004645989595,40.620427368183016,35.6433899840728,34.00290924071758,33.399532040557,56.608002,-748.104004,-651.47998,-6860.0,-7420.0,-7560.0
56.28122812253971,73.56225357465638,98.38509611829666,33.78586407623793,81.76347525282942,60.56154841523396,60.4326832660887,-337.64655380095724,92.51153188595356,98.6567001289514,47.13200839726586,79.74192983890259,96.47451391378274,66.42999719586918,67.39068429765823,61.603212962788426,55.144001,-743.223999,-654.895996,-6440.0,-7000.0,-7280.0
17.758803300126033,22.71958349088014,34.58233326482681,-12.94486237542499,27.93605138499754,12.36066470306119,12.41946508174189,-481.4110116538554,25.471823763744613,39.39262217909587,2.3276342207682754,30.87688246717036,35.28066727873346,13.735679283523798,16.931013381856946,12.367548496283057,56.608002,-747.616028,-656.848022,-6300.0,-6720.0,-7000.0
-33.19046986122086,-44.52888881059989,-54.97796627356339,-46.52281095274365,-46.093724202291966,-43.10452451315521,-42.94810878468136,-211.64626198929264,-59.24655486255406,-49.9089553660012,-42.03932468135699,-40.87171494079397,-52.316735541187526,-47.49592703336569,-44.991122108634336,-44.32340892115638,59.048,-746.152039,-661.728027,-5740.0,-6580.0,-6860.0
-35.488401385617685,-47.800677687309005,-63.50263999825931,-23.60917425792488,-52.00577037756793,-38.63807010582245,-38.62060956293099,196.42023835379044,-59.39559643357116,-63.49628209105134,-31.21634980642045,-50.274393774681386,-62.1199199373554,-42.85300272566182,-43.58513147103277,-39.537483874248366,57.096001,-743.223999,-661.728027,-5740.0,-6020.0,-6860.0
0.4516831683023813,0.3350838716585821,-3.329310919263192,24.75961421700673,-1.9610873871870893,7.12332158184283,6.980363399308126,384.8506868171645,4.897049264456251,-8.483714471391714,13.167635277016725,-5.432285389616941,-4.843254098102267,8.092389243539497,4.903399352612423,7.8784716203616,57.096001,-742.736023,-667.583984,-5040.0,-6020.0,-7000.0
22.42007961412313,31.22580052554405,37.84386617923354,39.86789788785623,30.76165094067189,30.736366143001725,30.655867031879456,240.5586262378473,42.6758857663241,32.82989768739421,32.89237707771886,26.223968840595408,35.27603758252878,35.02426474580164,32.596704321133394,32.32856012261124,61.487999,-742.736023,-661.728027,-4480.0,-6020.0,-7000.0
11.91473675803948,18.35072417532369,23.70133936566622,11.720529854009486,18.156607476258948,13.648944490377453,13.752981122981357,-51.80736722734122,21.68683613907229,23.43726429336485,12.780759538936293,17.03767615117275,22.84955417316582,15.82572732069683,16.18125282875554,13.976524679129854,58.072002,-739.320007,-661.23999,-3920.0,-6020.0,-7140.0
-3.890406490251298,-4.392494589903814,-4.099200533857407,-19.27558827774956,-3.460370376925737,-8.044500941671267,-7.922188536611057,-235.7804380059873,-9.987624470689722,-0.2802269492143428,-11.848720466834596,-1.2433411592067998,-2.6632191858106635,-10.01610098123355,-7.8497735587607105,-9.560686144143917,58.072002,-736.392029,-661.728027,-4060.0,-5880.0,-7140.0
-3.520410923143303,-7.20971797146354,-7.391940979450642,-22.66598431065719,-4.054194165565201,-7.831694904002267,-7.887674154013743,-214.7186553990705,-11.842190311757207,-3.572669769461605,-13.678055703020116,-1.5821385486566837,-5.369765909277152,-11.02182129864324,-9.20792994901509,-9.301702584948307,60.024002,-738.832031,-659.776001,-3640.0,-6160.0,-7280.0
1.564759486310873,-1.4355044188777897,-0.3044688796017031,-8.319405869230076,1.515711879695242,-0.3056207323227224,-0.4594363884108068,-70.5023389410338,-0.6562979622660368,0.7187379368830867,-3.808748603077159,2.559188904343553,0.4759092119201258,-1.2282307451008894,-0.7226905268733246,0.2039566882756881,61.976002,-737.856018,-661.23999,-3780.0,-6720.0,-7420.0
-3.608158497126374,-5.417756177957834,-6.514431391376886,2.7597507314651946,-6.498822997204849,-4.115829755006831,-4.126433656008135,74.47057617712478,-3.699186952385538,-8.063742866420604,-1.038673635187236,-6.353042817218389,-7.40667175807851,-2.4943803164822125,-3.003003586627014,-2.2547478774332648,61.487999,-737.856018,-661.23999,-4060.0,-6860.0,-7560.0
-9.921406649752608,-10.185931999960294,-14.34265037434808,8.256109389655322,-14.883446576804284,-9.107805424097394,-8.94158612145032,154.6112545085434,-10.678143420180662,-16.85450990561879,-1.5030918036497447,-15.320206698180389,-15.99015223706645,-7.037968031183533,-8.2764204661935,-8.260799348489568,62.464001,-736.392029,-658.312012,-3780.0,-7280.0,-7700.0
-2.4984685210393764,-0.0308803424890885,-2.369353277524574,13.467095370001374,-3.3258851177622057,0.8867632962352909,0.9927974039462438,148.25218035595282,0.1551015760914411,-4.390241826260938,5.731895097339728,-4.914764881341363,-3.3419076965906256,1.7476687255352394,0.0296560403604097,-0.2508692307714325,62.464001,-738.832031,-657.824036,-3780.0,-7840.0,-7700.0
11.174851072629876,15.095377603534253,17.809816033270668,12.082323531432928,16.62814816391209,15.476023696810564,15.356942684317172,52.73746770741025,17.82006658259691,17.389118897560305,13.156539826167537,14.439137151020033,18.376198952523456,14.909505876187248,13.824102454636485,13.914664969722784,61.976002,-735.416016,-655.384033,-3640.0,-8400.0,-7840.0
11.606338226149637,12.990158076291712,17.14478984299365,-2.8068987314553926,17.036106336744613,12.28008537154896,12.088171573039537,-86.0700030219178,14.359914389948033,18.72365262554915,5.898714545702109,16.416389188645745,18.67300967141425,10.778750849392129,11.76066394105861,12.149197567515005,63.928001,-737.367981,-655.872009,-3920.0,-8680.0,-8120.0
-2.0970462205722,-4.942402032986102,-4.396942563171421,-19.15484219867941,-2.916258493881175,-6.5843000588967815,-6.589233403031034,-165.53496073126274,-8.281475993255816,-1.915277253427675,-10.868275749256226,-0.8843725253360271,-3.5370990664030333,-8.202353720423208,-5.411264811740524,-5.445106996775143,60.512001,-734.927979,-656.359985,-4060.0,-9380.0,-8120.0
-11.129079993985092,-14.926963572024164,-17.363475320210814,-17.013136141998938,-15.963066273949089,-16.35649479486366,-16.1657167087762,-111.97917280736507,-19.288301347697463,-16.028133200270616,-16.03431697010647,-13.191222005219672,-18.06057820937978,-16.86684127606174,-14.775518046852724,-15.490660912158916,62.464001,-738.832031,-651.968018,-4200.0,-9800.0,-8400.0
-5.380088377854822,-6.1309320974332016,-7.297073748031996,2.952220468621696,-7.768327226803596,-6.114267648096565,-5.9728111962032,26.145314111630245,-5.4624521760649,-8.106268959351056,-2.993104841223832,-7.01146524567923,-8.544776626388773,-4.67839454913477,-5.60614595128588,-6.2683464916781375,64.416,-740.783997,-651.968018,-4900.0,-10500.0,-8400.0
4.025219068702568,6.125021898757197,7.165510214739253,18.149263758115875,5.423075881751121,7.624404437850903,7.551155855667681,118.73845608742177,11.276250094983595,5.245126977305591,11.200507425807416,3.879238259115759,6.976277776400391,10.141632137185342,6.866001011114014,7.050338482969502,63.928001,-739.807983,-651.47998,-5320.0,-10780.0,-8820.0
4.40915035077614,6.330060279106495,6.585020383921091,13.347710709230263,5.654591899292632,7.966560781733933,7.787895783325642,98.55577037428918,9.39008201695798,5.245331937239484,10.651249585202434,3.829253554418483,7.482440278638804,9.234945324304396,6.828244250602197,7.629085153584543,61.976002,-743.223999,-651.47998,-5740.0,-10920.0,-8960.0
-0.6030836481168868,-0.1625772856961378,-1.887830574972532,-2.043938819125941,-1.1727773784833444,0.252301803894386,0.1766084787870386,23.12991607237773,-2.677314663668495,-2.033199937103206,0.4054084709541528,-1.8898820820416649,-1.3897721031751966,-1.2283751463622294,-0.4199315459188432,0.1207752188900971,61.976002,-744.200012,-653.432007,-6160.0,-10780.0,-8820.0
-0.9992371082881144,-1.0422564632421052,-2.014133557324592,-10.456973528821194,-0.6244509421396531,-1.822859936017989,-1.7455197869881478,-24.170336911613624,-5.377418599723288,-1.361731745822666,-5.444082524413669,-0.620156689919036,-2.638953154258316,-4.84762732784174,-1.7948979219374637,-1.835429175740579,60.024002,-747.127991,-650.015991,-6300.0,-10920.0,-8820.0
2.400262789093852,2.1555294998787846,3.966064218210541,-8.05790045395063,4.881453345862572,1.2607309926199295,1.3781526511089086,-41.45238219006527,1.074558599712642,5.036045313307859,-4.0206202873430765,5.172308272492547,3.3024118472614226,-0.414281729205774,1.8207770861065025,1.5943867978167556,58.560001,-745.664001,-649.528015,-6720.0,-10360.0,-8680.0
1.6421934327460492,0.2746980639439244,2.7516813191983007,-2.459971801808192,2.7118583837217325,-0.133701346512481,-0.0763709157489972,-67.95901751994894,2.498239805889248,3.921081120542487,-2.027303521219165,3.801169038548226,3.1642688896743403,1.1289096413881314,0.6487801782970892,0.4175995364766786,60.512001,-744.200012,-646.600037,-7140.0,-10080.0,-8680.0
-3.172130016476401,-5.036886535553488,-4.957161569055357,2.0763029260137387,-6.145539518372653,-5.353335833096979,-5.366225387284756,-79.35044186827935,-2.850907796816556,-4.484945192867082,-1.3693348627207775,-4.370892998507232,-4.08442470128398,-2.4661837707452965,-4.774038134024466,-5.287787227958572,60.024002,-744.687988,-646.112,-7840.0,-9800.0,-8680.0
-4.076682364542953,-3.952377289600415,-5.901320224274926,6.234895901610562,-7.807523400914452,-4.408945581033873,-4.476378019529576,-11.17044812996288,-3.3750292926143444,-6.822102772321455,1.654177067697796,-7.1134476602834615,-5.874512540764853,-2.582739383657209,-4.418362147675159,-5.04573353294595,57.584,-744.687988,-643.671997,-9660.0,-9520.0,-8680.0
0.7335677579653997,3.442143511275348,2.085419931186688,7.33937107917463,1.2055400454738765,3.5977733180771905,3.492106008918419,108.07983523910046,3.2153908898608874,0.4043410422801975,5.565312082098828,-0.5024824353176817,1.3581657290991287,3.021347548603459,2.9987366777553484,3.141040858134913,57.584,-739.807983,-641.720032,-10640.0,-9380.0,-8680.0
3.768467383506752,5.95058797474837,5.978300379013607,1.3261148244966403,7.775245672531533,7.371122334950664,7.300024779750733,141.52876895729986,5.151215488804354,5.161717380900491,3.787522554928431,5.152807884638056,5.691620132986693,5.280415296796753,6.609499739564408,7.829420867027243,57.584,-738.343994,-642.208008,-12320.0,-9240.0,-8820.0
0.9233647896105612,-0.311593552476115,-0.1698377120366776,-7.269912725199772,3.133392335448885,1.4455287011065614,1.5120189017696746,20.569312031198443,-2.195591442815994,0.5587791862684388,-3.28134105085592,2.453035405652243,0.1858238864178628,-0.4306399562330484,0.971137361828658,2.0792134725709266,59.535999,-739.320007,-639.768005,-14840.0,-9100.0,-9100.0
-2.0293767621121743,-5.082938019004732,-5.015716760815056,-7.883225736770765,-3.901872127590961,-4.900480749895314,-4.712160639205699,-128.42921782537542,-6.742384150578826,-3.809765816858705,-6.3066492249876,-2.095305522968566,-5.05395217717489,-5.514780583806154,-4.91549109177948,-5.305745931273153,55.632,-732.488037,-640.255981,-16800.0,-9380.0,-9380.0
0.1059015085304093,-0.7235527105670704,0.5568780499033029,0.8130926064524897,-2.392602105351044,-2.732557631363884,-2.6087296124254484,-125.75113916579971,0.4463411092465864,1.012160090624768,-0.9298152639892224,-0.4668587129813309,-0.0527925300560815,-1.879233990788569,-2.2568569133605774,-3.769418202399193,57.584,-737.367981,-635.864014,-19600.0,-9520.0,-9660.0
2.7911478326327184,5.009341347812585,7.091261462768258,7.169475897823513,3.022664855906317,2.4934775913568643,2.3890134604046622,18.276771436063783,8.725559157137264,6.971525665500148,4.71460874033914,3.166288542884928,7.279469492426431,4.520110887986909,3.4349840404675387,2.586104233612577,55.144001,-735.416016,-633.911987,-21840.0,-9660.0,-9800.0
-0.2492862709416582,1.630403185929783,1.6729672690925423,2.8947357254051047,1.1791321877370975,0.9373356467044364,0.687407201922998,108.47328622257226,3.660725676279577,1.7546277771842895,2.288684976476509,0.395611945495443,3.198986689062336,3.0684387249123404,1.916199145746272,2.5517935660610327,54.167999,-738.343994,-637.328003,-24920.0,-9940.0,-10080.0
-5.27857353002694,-6.296450384918927,-9.47414530879315,-4.581194419178014,-5.706156567561477,-4.521837713860799,-4.65096720121845,34.00339181641683,-8.969364807033918,-9.45425034768676,-3.6023957042051395,-5.829557649094554,-8.541177557504206,-4.1346408683859055,-4.446921653675783,-3.45445907969428,56.119999,-737.856018,-636.35199,-27860.0,-10220.0,-10500.0
-3.421014854406786,-5.527961826587792,-8.648315775174607,-3.443937026165902,-4.89705678451943,-2.7912619037740947,-2.656143704820032,-76.0793294659501,-10.088226864666598,-9.559555247770383,-2.7472446255047664,-4.805150149162906,-10.2529881297597,-5.183067970207213,-4.189917391447613,-4.102388036274869,55.632,-737.856018,-637.815979,-29820.0,-10220.0,-10780.0
4.64362807170931,4.678212207009696,5.6574983083672405,4.300191511923926,5.318151395868683,6.182897912722359,6.435666640712318,-43.87378581399196,3.791923903406505,4.245308763846455,4.066109854711342,4.206628615267764,2.934746938594365,2.664557797826435,4.205314699142323,3.783228924160344,53.68,-740.783997,-639.768005,-32620.0,-10220.0,-10780.0
7.93014102000458,10.019781150341114,14.290680620544132,5.865555539388311,10.643697861987048,9.102108502865372,9.21469688006673,89.49373585225862,13.91459958063754,14.150244508757671,5.680449984522537,8.994677643666861,14.007595824597889,7.929207843150741,8.483802570887285,8.664875332546895,53.68,-744.200012,-638.791992,-34860.0,-10640.0,-10920.0
0.9045019429118132,2.007161256114412,4.541983203830537,-2.4490326651170524,1.785352008393236,-0.7285697545177781,-0.8408592962912842,114.34477242686997,5.85227413467592,6.370360134056651,-1.951283528413162,2.085650421908269,7.536066285594989,2.048798858394297,0.9661841162599046,1.5334542139807577,53.68,-746.152039,-640.744019,-37380.0,-11200.0,-11200.0
-7.750685946084165,-9.157601800033538,-11.196574591737368,-8.983336092933028,-10.517855334800766,-11.613748769103436,-11.81464895520223,-40.07558135558429,-9.8209895719832,-9.164203484793068,-8.540571447137808,-7.693009264320646,-8.401888886536012,-7.423755837872086,-8.992698774544941,-9.3457645338976,57.584,-746.152039,-642.695984,-38640.0,-11340.0,-11200.0
-6.853661169239211,-8.851231774531225,-12.656457975129706,-3.738827605351723,-9.95669810591042,-8.86922923940103,-8.98744110697767,-183.7921659523089,-12.635013123528106,-12.66315979556877,-4.145280424603336,-7.490389073624042,-13.463336193598646,-7.4801590153711714,-7.831694485869049,-9.21977584866581,54.656002,-746.152039,-641.720032,-40460.0,-11200.0,-11340.0
2.04694831157339,1.8907126237272904,0.7822066974502534,6.791825779162801,2.540503615421069,4.570597146168362,4.594662774617842,-115.58175619967125,-0.2280753117950891,-1.200120459499522,6.048601558157873,1.7234080265399467,-2.515247564512236,1.90038490188728,2.999284361560137,2.3256963927617296,55.632,-742.736023,-641.720032,-42000.0,-11200.0,-11480.0
7.492339316700317,9.009957723902833,11.124565647591291,8.777994100308822,10.75703495633598,12.10607282313488,12.239808787197092,99.68154507939047,10.387261829407672,9.332701667636826,8.76237885449546,7.472658432480901,9.30404459291062,8.266968829969244,9.408005378988316,10.73088715880848,57.584,-738.343994,-641.231995,-43260.0,-11480.0,-11480.0
3.7789143628735418,5.011679652382253,7.138567858566525,0.2799149855957211,5.721519780385059,5.652852956828253,5.82568103536822,209.13512703350875,7.246578032166763,7.097476343511709,0.9392931619168235,3.438738825388659,8.420506001802597,4.202942746914574,4.213576841498885,6.254455197652275,58.560001,-733.952026,-639.768005,-44940.0,-11620.0,-11760.0
-2.919074335115245,-2.937804857283889,-2.979719379924492,-7.0548919143489,-4.0086830016261,-5.315164852011298,-5.217439400587218,92.96647879154816,-2.5015441738009296,-1.7675188300718871,-6.878436788201415,-3.3922008832863586,-0.7799115445733265,-3.700206447587663,-4.440482065944161,-4.162719697003975,59.048,-732.488037,-645.135986,-46760.0,-12740.0,-11900.0
-4.533332307260059,-5.1161178270499335,-6.175539942617006,-4.745881071754229,-6.462522033618174,-8.187722261316177,-8.283107838728368,-102.61190463313004,-5.801460826015539,-5.012473301661136,-5.553520036598432,-4.216447065071995,-5.448105433544019,-5.404721749954111,-5.870509030439256,-7.84979796593711,60.512001,-734.440002,-657.824036,-49000.0,-13580.0,-12180.0
-1.2107175186612211,-1.6530815847433475,-1.861782060939936,2.0651820158980443,-1.7796992301186692,-2.682276202183452,-2.945782194733702,-168.3607542622797,-1.5943801394688748,-1.3014606924655687,1.3820240808414903,0.0175280879880297,-2.35781685744545,-0.6751594782429491,-0.685774042905478,-2.68607489087986,63.928001,-735.416016,-662.216003,-50680.0,-14840.0,-12460.0
1.4541724351033662,0.9577058173487556,1.3282481476468204,3.728687990655021,1.717202542243908,2.5086134125900323,2.309939325607618,-73.07127988960838,1.3449228924399466,1.309764947226486,4.506734762917753,2.354795485149684,0.9090921838316424,2.7976589858366703,2.767196976593141,3.000729563410748,67.344002,-738.343994,-671.0,-52080.0,-15680.0,-12320.0
1.1226282380043882,0.4283117852198556,-0.0349014343365667,-0.3425671144773837,0.983336168504064,2.918376422213908,3.020585046529206,51.24509290852718,-0.6750232332494678,-0.757292859726521,1.4547995039223431,0.5274913000401064,-0.5038635365446715,1.0863430109129135,1.116829149649347,3.2088023523365297,66.856003,-741.272034,-674.903992,-52920.0,-16100.0,-12460.0
0.2700674045296556,0.1029957227994485,-1.0499343331506523,-2.619712309444337,0.3092511648637783,1.6331066312543927,1.9776290662319345,96.7612894769718,-2.042010239499847,-2.349212743163988,-1.9049685602077069,-1.388728423108316,-2.2422532781723765,-1.7122271420835904,-1.086616302817685,0.4788609247701625,69.295998,-739.320007,-681.247986,-52780.0,-15820.0,-12040.0
0.7148141804205498,1.805337838273896,1.6921903324281689,0.6353658130386165,2.0125266386815515,1.5328407219053386,1.7710993069720782,70.05069132751102,1.6251654664177302,0.8323564171394462,-1.0721437502194917,-0.3662318811828534,0.7969975102589316,-0.7476688798991703,0.0998567797099458,-0.4294904156253161,71.736,-740.296021,-682.223999,-51660.0,-14840.0,-11900.0
0.9782971439720428,2.746552635000415,4.381262141895891,4.3429113374497765,2.531357952897263,0.9097353801371482,0.7770649948854056,20.40995819225129,5.8635276145823365,5.017426329106913,1.5575478130522145,1.5459009949497424,5.584162650366016,2.596058254835832,2.3439903380307285,0.5216752034643964,72.711998,-734.440002,-688.567993,-50120.0,-13860.0,-11900.0
-0.3659261128665684,0.4112110824473686,2.174385507861029,2.3951943525643005,-0.7335182402070767,-1.8597688297605388,-2.2287502760034377,-32.37137549800935,3.751823988963319,3.876091976751697,1.4857251794537734,1.2941671881049146,4.88783287182272,3.160706557500302,1.526592584679117,0.399563359013836,70.272003,-731.512024,-692.960022,-48580.0,-12880.0,-11760.0
-1.9015028145639483,-3.170661683091984,-3.3354451213609355,-3.685955514201922,-4.22584053302405,-4.11958119297195,-4.334083027878228,-75.36784859659569,-3.8017171813995954,-2.296016635033321,-1.3430295235584675,-0.6734947279478437,-2.239039950460631,-0.7043027070706179,-1.8961588298856469,-1.3243700978234871,70.272003,-726.143982,-694.424011,-45780.0,-11340.0,-11340.0
-1.5180563544901535,-3.98654297749887,-6.050428465009076,-6.644864395792476,-3.2121282144220844,-2.480657765358084,-2.3340068692724505,-72.4512949176945,-8.457585972869092,-6.689314926630786,-3.055745991014214,-1.761460750682979,-8.274377562628832,-4.854379741494371,-3.7710609393489314,-2.285373982247368,69.784004,-723.703979,-700.280029,-44100.0,-10500.0,-10920.0
0.4257889666474512,-1.0651444001344046,-2.941110549966289,-2.522577248472672,1.222891851582358,1.845959983232664,2.166608467670857,-7.32068542056861,-4.572332741656599,-4.3849168610834885,-1.2704842762820068,-1.0080610573864592,-6.121795555593201,-4.281231720363125,-1.8417334581267355,-0.9855587679022696,71.736,-723.703979,-704.184021,-42560.0,-10080.0,-10640.0
1.7255536713789243,2.7216346758053813,2.854128168220385,4.6766888338682575,3.795508481537377,4.2779692155452285,4.43701396888691,69.79886084332165,4.108232443403941,2.1600678783768,2.142622945585002,0.3603581499121112,2.4039578805543576,1.0372059858817233,1.8856098612435483,1.3634185806096255,70.760002,-723.216003,-705.64801,-40740.0,-9940.0,-10500.0
1.2487501830894243,4.007463518407057,5.8965603852420925,7.513365762738625,2.187437982830982,2.5814819014795822,2.464123064590084,84.96704113394739,8.75066763587335,6.345244727142464,3.525354244876043,1.0872272266335856,8.564271390378678,5.836994968501506,3.858575323425682,2.609775755815136,67.344002,-724.192017,-704.184021,-39060.0,-9520.0,-10360.0
-0.1175582148417223,1.947545954459636,3.73398642650978,3.0581293459015417,-0.7712065140082803,-0.9681776103238487,-1.1897660132009502,26.612840736157217,4.939896256853488,4.45627799149921,1.4377704672470135,0.9809424359313644,6.274853330099561,5.007607816298406,2.4585397396483284,1.7739450549867606,66.368004,-721.752014,-701.744019,-37520.0,-10220.0,-10220.0
-0.994126787515032,-1.4932612145299866,-1.3856760864170556,-4.210548261011379,-1.7823061537404492,-2.9150358656988744,-3.0245437273911664,-43.34415105303172,-3.13298176954821,-1.149773757084213,-1.9968339815640512,0.3430280100373565,-1.6791778188332191,-0.8571018303995543,-0.9872754080142536,-0.4945228561227678,68.807999,-714.432007,-705.160034,-37100.0,-10360.0,-10220.0
-0.8586794846714447,-3.3521182373446967,-4.842492399854946,-7.13076079785596,-0.9314414962855132,-2.184688052067275,-2.13537231019961,-64.72983585723762,-7.479582837414947,-4.963691120307008,-3.3177251094109343,-0.4024846017994424,-7.107602272722262,-5.767763503992453,-3.456841901063927,-2.4087776285575524,62.464001,-712.47998,-702.231995,-36960.0,-10780.0,-10220.0
-0.0528334869213185,-2.188480623781379,-3.773067403498618,-3.1814108217776087,-0.1321761645224299,-0.1162565778340903,-0.0039504190205471,-36.72920728499028,-4.4865589815942855,-3.795442199129952,-1.293918098673407,-0.6932277797978406,-5.196817856516379,-4.67701276700052,-2.6960975494781265,-2.193386071401244,62.464001,-712.47998,-704.671997,-36960.0,-11340.0,-9800.0
0.6360003643302203,0.537467459727936,0.3095698493872411,3.1385573955503814,-0.0379998072565117,1.4659679162796788,1.549881344234475,4.087523034617375,1.9508030972786288,0.429555427354444,1.7078971249008283,-0.3912623543171576,0.9646760673062108,0.8916729543389911,0.5117413649268523,0.086415096936327,58.560001,-709.064026,-702.231995,-37100.0,-11480.0,-9660.0
0.4635090503056392,1.9870158491128296,3.1468931236713025,5.414198807734886,0.0487912357781953,1.5759432114046747,1.6060510874090006,32.361932542082656,5.172240545188825,3.10754615128637,2.350904886314964,-0.1486886686660239,4.5838686318086745,4.639605286133638,2.754875611441137,2.0086215037646302,55.632,-713.455994,-702.231995,-37240.0,-11620.0,-9240.0
-0.4418279674539373,1.199271382919309,2.400862182172261,2.262730383358249,0.4597551251098903,0.4767307999970576,0.4527929326616459,42.27939331896326,2.908829940490824,2.052426058758183,0.2985093265379633,-0.3848712361493454,2.853954365193043,2.920574683191222,1.7102622995199457,1.3885746574681297,30.256001,-747.616028,-610.976013,-37100.0,-11340.0,-8680.0
-0.8559125032373648,0.003030260693252,0.0038060726938795,-1.840503441843352,0.7773703642523034,-0.586771639315798,-0.6635551559150296,29.72344515946929,-1.0841598048866,-0.4404368267770587,-1.440341519406974,-0.3184604216853576,-0.7340647169560076,-1.2438189742582084,-0.899389614957257,-0.709169908799927,43.920002,-705.64801,-670.023987,-40040.0,-13300.0,-8540.0
0.1028816031254034,0.094202477447872,-0.8761022898807749,-2.5425829120575703,0.6535350457538127,-0.6108484452747877,-0.704982403135076,-4.870601576436885,-2.289238609678096,-1.0035051835364586,-0.606362139377885,0.8186983987084077,-1.6171644719694565,-2.5570591027669543,-1.4933276219401213,-1.1740958601874427,48.799999,-698.328003,-691.496033,-43680.0,-11480.0,-8960.0
1.416712420604354,0.4810071729653178,-0.1093205257967928,-0.596423125323473,0.0670503467535592,-0.0291713912598672,-0.063552655452683,-40.0429959516219,-0.6930225758612466,0.3518870099280105,1.184395383693387,1.916006503638456,0.1233230421777055,-0.2995091279725932,0.411394747479133,0.6596616996024288,51.240002,-718.335999,-715.895996,-46200.0,-11200.0,-8960.0
1.1530624809201349,-0.6204851756815377,-0.0836053651653857,0.3445415982094956,-0.8177021815699328,-0.0199866203414433,0.0546173484456559,-44.500453865241866,0.3845151151607208,0.728626968135848,0.8677361473951221,0.9964392242162744,0.7931003945971067,1.4620838162784588,1.5098676800864386,1.7506140061848428,56.119999,-731.023987,-717.359985,-45220.0,-9240.0,-7980.0
-0.7655059853484897,-2.2615815581788703,-1.4221307566339176,-0.6298654907882996,-1.3636936854571344,-0.5666902487535697,-0.434280316519748,-12.281785537275098,-0.4650590902506025,-1.0091713548440635,-1.3692472732458576,-1.5855956592394531,-1.096493738333748,0.1049313098945137,-0.3012030907579576,-0.1887276844054788,55.144001,-734.440002,-717.848022,-42140.0,-7280.0,-6860.0
-2.029208537706692,-1.578575330476173,-1.7395192884775306,-0.8424867931889615,-0.6752330856518809,-0.3691491602822308,-0.3018889651920627,26.899064514860743,-1.0584857597563204,-2.2804571537444085,-2.11588495526968,-2.776476709230894,-2.573115514407251,-1.9371194062346293,-2.4788442655481706,-2.826628281507312,53.192001,-730.536011,-714.432007,-38640.0,-4900.0,-5600.0
-0.954601532969157,1.5887667048568952,0.4478851573672388,1.176228873891895,1.0042403062613332,0.8404301385826312,0.7689450650697275,39.54963825094544,0.4385053006461486,-0.605465117750627,0.1926470582332211,-0.8130480668198776,-0.6722079954453594,-1.1206970584936529,-1.4216127194716628,-2.1602088669353283,53.68,-729.072021,-711.992004,-35980.0,-3220.0,-4760.0
1.0725888770171823,3.448402197462334,2.780633565071452,2.8546276579173955,1.7888878156667989,1.3058021239597937,1.1581006270751513,21.44993252518456,2.231837871162089,2.342480443085111,2.60097426750055,1.930227988923657,2.8444463167365006,1.7715496837062588,1.938349969857155,1.541545103727809,50.264,-725.16803,-706.135986,-34300.0,-2100.0,-3920.0
1.4883996807758595,1.2162218289863111,2.059861285016777,1.2524446614326434,0.3666411126391335,-0.1779499352384746,-0.2563135635692964,-6.355718259744758,1.437087768198979,2.698088677630231,1.6777403896021232,1.97081233979436,3.480467387965997,2.7071359442355307,3.081129501485524,3.651455793193773,51.728001,-715.895996,-705.160034,-32620.0,-980.0,-2800.0
0.1850192398437266,-2.535281877856552,-0.998684265104897,-2.208037992008564,-1.6745582466670823,-1.824169921212942,-1.7545524944487405,-23.94894726029867,-1.3330350175940655,-0.1368894715084105,-1.40079662224146,-0.3142980883695174,0.1466746545611557,0.273990364226182,0.3787814081516108,1.4950539937109366,51.728001,-715.40802,-699.791992,-31500.0,-280.0,-2380.0
-0.5493567357710437,-2.9684177155671625,-2.517099590384413,-3.2575148308244524,-1.4545114894289437,-0.9766940642860612,-0.8340915562583371,-25.32504179745205,-2.440079085164149,-2.479150030924912,-2.357973331252941,-1.2601388127393407,-3.161517105986175,-2.306604378781352,-2.45029004917513,-1.992521917580576,52.704002,-713.455994,-700.768005,-29960.0,1120.0,-2100.0
0.2583013854331649,0.3545437163870322,-0.8666288907313876,-0.6301114601862529,1.0587544073435793,1.6789398267784506,1.745864621857606,-12.689362416792203,-0.3940460781139698,-1.4636946858918511,0.0218056299299633,0.4660496062531555,-2.611575839664293,-1.8183264072709169,-1.7200739620839427,-2.531511882697738,56.119999,-708.575989,-697.840027,-29120.0,1960.0,-2100.0
0.6876477110234419,2.785892639036285,1.1945552339614207,2.201784433525659,2.424395831949554,2.404081697733561,2.3360874637077296,7.735494909827298,1.8653564998553311,1.04714685857085,2.098355148294588,1.6584333910287012,0.5423890930728914,0.5720849334248839,0.9611916267777832,-0.2954446714773245,54.656002,-705.160034,-697.35199,-29680.0,2520.0,-2380.0
-0.8352924220799426,1.1021151979282349,0.7799743760120084,1.9054899261009308,0.3336657308161334,-0.3506910917730343,-0.4650291124625081,23.71311523953851,1.1654317654498505,1.3829089113129458,0.7346209116380499,-0.456973727983831,2.066311005593967,1.4032121266153643,1.387012498669744,1.0924942843407348,58.560001,-704.671997,-700.768005,-31220.0,2240.0,-3220.0
-2.431667118452435,-2.0324944307503965,-0.8908801778891509,-0.3239087530147058,-2.7734463279350785,-3.1928411677405206,-3.2303189453540297,22.48099918430658,-1.2495504679157492,-0.55825051403255,-2.007643196541001,-3.363641052739692,0.6329254483803995,0.0252451586991292,-0.777053587297806,0.2374498265610685,59.048,-704.671997,-704.671997,-32480.0,1400.0,-3920.0
-1.0803891712496037,-2.01097813006946,-0.6124223627280817,-1.030001108456,-2.651261485004566,-2.1163984977000814,-2.060123662919074,4.129905377214582,-1.552002718928654,-1.4036304749102733,-1.8392709917343688,-2.3250954400452053,-0.8698496209396354,-0.8636916509769613,-1.6289301476638027,-0.4866551888461876,54.656002,-700.768005,-700.280029,-33320.0,280.0,-4620.0
2.523313111183956,1.1090579704112011,1.5912822926753072,0.289831973630498,0.9305198848972674,1.8149655498065385,1.8792876991568987,-15.77633460951332,0.8924279700410843,0.3959115065596397,1.365481849148197,2.465028697555358,-0.0774401681869365,0.3157780001540637,0.7147815979669669,0.6351190634277925,57.096001,-705.160034,-698.328003,-34160.0,-700.0,-5320.0
3.9602254467002354,2.7848915248735144,2.148715765372305,0.814596255113614,3.6414837970679312,3.640431434298295,3.64847576539852,-21.434358155978355,2.3709495791750674,2.0953238702876225,3.145803648949669,5.207984804020724,1.3207552999141126,1.543058933316277,2.8944763355518206,1.7086517594917747,60.024002,-708.088013,-701.255981,-34580.0,-1120.0,-5600.0
0.7978228109287616,0.5233204711582762,-0.6973068488642565,-0.8434856127332636,2.2165258313481853,1.1266130649684265,1.1022352622786455,-11.56500083392062,0.2700414256779426,0.7945682563917047,0.7609425862183972,2.009072194149728,0.4435572752078627,0.4213366553158081,1.2077173306769502,0.4085921350904702,61.0,-708.088013,-702.231995,-35140.0,-1960.0,-6440.0
-3.670583386558501,-2.6206187285599527,-3.655476576974049,-2.1773980897720344,-1.4708692652235602,-2.3897086369126552,-2.400044646461492,3.3692687566283865,-2.7497061640764446,-1.989439707144004,-2.809364203875549,-3.650449968040157,-1.984721992871209,-1.8956623621142863,-2.631356425105777,-1.9899354725585896,60.512001,-710.039978,-705.64801,-35420.0,-2380.0,-6860.0
-4.212049190762311,-2.3620535368276063,-2.4156798599823284,-0.5138797688360963,-3.175491279558767,-2.711312209406303,-2.7137446706341404,13.706375540379351,-2.253291480220355,-2.2887645081267456,-2.907338416822646,-5.199771884919894,-2.3122165488738533,-2.118074662641434,-3.56549165116648,-2.247691002320545,61.487999,-711.015991,-706.135986,-35560.0,-3220.0,-7420.0
-0.2134044147156511,0.9541764776425982,2.243566946160349,2.573454443621573,-1.5915259620162627,-0.1556811274977936,-0.1763251430014627,15.70665651474595,1.5056208954555204,0.5216323194482384,0.4761312953622257,-1.2243074053096477,0.618201742988454,0.4064634744628682,-0.205636228317665,0.0643249484935015,59.535999,-710.039978,-708.088013,-35700.0,-4060.0,-7840.0
3.663776155416768,2.9970663715705346,4.8157663591248845,2.9595605449833062,0.8845159151937342,1.662172981589044,1.6457927475258454,8.675126346648776,3.5550511965181912,2.638458807594472,2.9126517564580414,3.3096026708456887,3.292212606414104,2.5712538151910045,3.289976494144546,2.0066049021778096,60.024002,-710.528015,-708.088013,-35560.0,-4200.0,-7980.0
3.3803395479874,1.313636260155255,1.903643969290952,-0.285344129563109,1.88627888331177,1.0829636231560524,1.1127697225005329,-4.9125452719182015,1.021810807981533,1.1947068151108322,1.6511261636183068,3.746232159279624,2.111153902144186,1.7068090198964418,2.890535565226912,1.5454200432811116,61.0,-711.504028,-712.47998,-34720.0,-5040.0,-8260.0
0.0169908162573286,-1.7305928817444844,-3.308341701617234,-3.286837578284884,1.4362749497366878,-0.0725396193047426,-0.0224469031747002,-16.371914367383045,-2.782507603029826,-1.6851493999223386,-1.0836727535325248,0.8503728909578898,-1.6007129256097845,-0.92174628633221,-0.3446679552257958,-0.017339375616259,62.464001,-712.968018,-710.528015,-34300.0,-5040.0,-8540.0
-2.4777930390954586,-2.4469255873890385,-4.867350986042157,-2.4322540532508103,0.4786598243648899,-0.0832269109861917,-0.0907833013782582,-15.434169492358226,-2.9267276995457623,-2.0336510951923934,-1.7547519086339003,-1.6296387459467778,-3.313453249625152,-2.110944157594252,-2.473652712788828,-0.6922201738346584,63.440002,-713.455994,-711.504028,-33740.0,-5180.0,-8820.0
-2.284394062938467,-0.4827383847636519,-1.2537855623087752,0.8668002084913657,-0.8026798109911671,0.1521044193646997,0.0811444505869698,-1.7150647910121224,0.3866991426673437,0.2867058915328411,-0.3157443478215285,-2.039791193279895,-1.2962162715613017,-0.9954470674095184,-1.920066215293276,-0.6960818072792976,61.0,-713.944031,-709.064026,-33180.0,-4900.0,-8960.0
-0.7335540099631038,1.432169656144106,3.1809789803684443,2.376039263480055,-2.072600533952089,-0.6707806510276254,-0.7023875581031088,12.54608643795776,2.5016597433407743,1.707275118654214,0.5842311586741177,-1.4178586271439049,1.5341312676311936,0.4794904887380554,-0.3091510917769217,-1.0645851313398187,65.391998,-712.968018,-713.944031,-32340.0,-4620.0,-8680.0
0.655838935068299,1.454238618954346,3.893197914397055,0.946974688414134,-1.8452753852452752,-1.4618828123709888,-1.3869693538402237,15.025334166567095,1.1599401463767396,0.4631728807821741,0.0175096706153369,-0.4914682863824165,2.0758250618643976,0.8705638818538005,0.8765722640539584,-1.0378440488981788,65.391998,-715.40802,-713.944031,-31500.0,-3780.0,-8540.0
1.7791685978738323,0.4764905485460691,1.1782698944427938,-0.4302774771682229,0.6727142323189489,-0.2793741908475667,-0.1913812978822442,6.045531667960264,-0.7242215544638831,-0.9674202292241898,-0.1923126979312139,1.1273569142363176,0.8893726529490646,0.8598420046861555,1.7572166749114653,0.7082048203105427,57.096001,-707.112,-711.992004,-29960.0,-2940.0,-8400.0
2.3435259161583453,-0.0776357092988956,-1.4818101797893186,0.238826715248153,3.2967601306649343,2.055582535009216,2.0132281694750813,-4.422241166795948,-0.2375944365740026,-0.1287623911229709,0.935380624729238,2.7215671881100283,0.1350610028067428,1.07039364295449,2.063445145667291,2.8272563025180752,56.608002,-708.575989,-715.40802,-27580.0,-2100.0,-6720.0
1.0184915780653776,-0.4636259359237676,-2.2867087045114536,0.7039410314083714,2.5863953930033894,2.29479989597117,2.148948438918589,-9.3702644431672,0.798225088958682,1.268153572639641,1.4372098291471809,2.086727824563415,-0.256247147398255,0.4031202176912048,0.4550702398792046,2.116637924818785,57.584,-710.528015,-711.992004,-25200.0,-1260.0,-5320.0
-2.1996452902344523,-1.411646722058362,-2.113076653898089,-1.497255956664891,-1.524564969005322,-0.665272599839401,-0.7184478885735823,-9.21459704787054,-0.7706449805138302,0.1180953085067184,-0.4750402953465661,-1.2309854325924936,-1.6612796457134096,-1.7604346207057788,-2.707628173473862,-1.682824663847465,63.440002,-708.088013,-711.504028,-20860.0,-560.0,-4620.0
-4.224664534392005,-1.9001954895942383,-1.4224130324444355,-3.8431167635374046,-4.55584993230261,-3.470334001324996,-3.329826465482072,-5.484888684493194,-3.2590433535445205,-2.511923089414433,-2.8275080102087795,-3.998126391535559,-2.949242348677617,-3.1384884871605725,-3.997941297790204,-4.309758227912302,63.440002,-705.64801,-711.504028,-17920.0,280.0,-3640.0
-1.915401169254133,-0.1806438426078594,0.7756422429001962,-1.5171734073364984,-2.495204886383689,-2.2325063893755632,-2.0603680670215976,2.405707569987318,-1.7691321738778152,-2.1890844168111623,-1.976140265564562,-2.6734495945100085,-1.0975186364845495,-0.9544890987122616,-0.8314167730909809,-2.0848238561995784,65.879997,-712.968018,-706.135986,-16660.0,420.0,-3080.0
3.170838747105809,2.8939679226122803,3.861835921783897,4.604603694200051,2.8049543848518392,2.0860489024915743,2.0594814119058213,11.557628954861771,3.683245695017528,1.9848122531712755,1.9128013469454377,1.7681034683571482,3.4776414525920227,3.345106667852096,4.072321159575929,2.8201930475909767,70.760002,-714.432007,-711.504028,-15680.0,1260.0,-2520.0
5.430459267150424,3.6694273407399742,4.264799466474506,6.917371995410561,5.208873927117465,4.296117439801308,4.088244319253327,13.240713505017045,6.21588542439834,4.802156326187325,4.135471236646491,4.429858702822815,5.467290364713096,4.592141133827302,4.958069464946486,4.634985839306699,69.784004,-711.504028,-712.968018,-14840.0,1960.0,-1680.0
1.8221135833713304,0.2370458348218357,-0.1079481283296923,0.799980093001844,1.6572258985067283,1.4226583246200366,1.2933890032899558,2.547915305648049,1.109440334933455,1.7282004483039912,1.4525392103966426,2.350117473726146,1.2223900099599732,0.4792145887016378,0.3010952641919248,1.260207426959816,73.200005,-707.112,-712.968018,-14420.0,2380.0,-1260.0
-3.842240316282977,-4.124366288068449,-5.434935961998058,-7.576119157804367,-3.786650694707245,-3.236699449558369,-3.125555864080756,-12.04544686488113,-6.393897859553506,-4.089671553761571,-3.1640505042158256,-1.902934112864329,-5.193192650431785,-4.550765013499678,-4.668726823984512,-3.1274537297259832,72.711998,-711.504028,-713.455994,-14700.0,2800.0,-980.0
-5.173019424143641,-4.255481870753285,-5.430497222482602,-7.767135009890818,-4.707598096671397,-4.028214764382146,-3.828694290548374,-15.645411471535908,-6.874595659317829,-5.284494984081868,-4.05347283003017,-3.585522039032953,-6.132469646075378,-4.437956747613095,-4.290834631373895,-3.553715039929146,77.592003,-711.015991,-711.992004,-14980.0,2520.0,-560.0
-1.0126888041315725,0.2726045828018227,0.4366441940042172,1.1762940377877742,-0.253366818969847,-0.0991251953533839,-0.0682873225671996,-4.424317566346946,0.6587905408306767,-0.1887878992030499,-0.2747600179843123,-1.5331784036982392,-0.267749710640416,0.5922236659358157,0.4747783348116123,-0.3177246748115959,75.639999,-710.528015,-714.432007,-15120.0,2660.0,-420.0
3.3901939462298207,4.188645351190742,5.463691395460011,8.57350839883268,3.8796541634826576,3.5023991257442195,3.348750922841164,9.323447884829744,6.995913279107246,4.714012705018938,3.24845555926161,1.1282871212575052,5.368853257800465,4.2807157682814285,3.69324655565001,2.1806907796233044,74.664001,-712.47998,-716.384033,-15540.0,2380.0,-420.0
3.301196986604753,3.126181352915388,4.101851892325916,5.689201743397906,2.799005148665823,2.408096028534745,2.3013793504026445,12.072374168814042,4.828058471486104,3.542772556146787,2.437972870633165,1.60436588116293,4.483174088785913,2.620705860026884,2.288907540667769,1.5202763168292526,77.104004,-712.47998,-712.968018,-15680.0,1960.0,-140.0
0.1196379359321714,-0.8871883554323874,-0.9999698885162702,-3.026510109810334,-1.4054892323350805,-1.4148305112555788,-1.3310358922786931,4.302459243434321,-2.007673349957352,-1.315656939374278,-0.769773821679309,0.6709897595431664,-0.7061242609988199,-1.296947688805556,-0.7233196675418728,-0.2533167507812457,73.688004,-710.039978,-719.799988,-16100.0,1120.0,140.0
-1.544489095392215,-2.5918796800764192,-3.20675821982315,-6.469702492749137,-2.8030346195777978,-2.549704696778889,-2.4203377066971288,-3.2676554331850003,-4.722136205354653,-3.237429460270965,-1.8013359132872926,0.4762237436428626,-3.4499505911675867,-2.307519828194552,-1.3563014370989597,-0.3913943210537965,78.080002,-705.64801,-719.799988,-16240.0,980.0,140.0
-0.510792295134115,-0.7443915803868474,-1.1121485868348562,-1.8034694712176085,0.1837757098085558,0.3072523897122492,0.2655725802519767,-4.806387396074014,-1.564395837400306,-0.6983453284482632,-0.0434937040780308,0.8554384629821604,-1.712342229518527,-0.2821791922882449,-0.0599409136283512,0.6138598776657147,78.080002,-707.600037,-719.799988,-15960.0,700.0,140.0
0.1942842209508165,0.8831603155520479,0.6498543632032605,3.1080356087309973,2.7597061976546327,2.584541032044363,2.4103155653007047,-3.9827225893229534,1.5019724363182083,1.6147665023649465,0.9572630944868264,-0.1150178743131862,0.5547333583940082,0.8493624278287942,0.1181627360421488,0.3870746135027701,76.615997,-709.064026,-716.872009,-15960.0,420.0,140.0
-1.1330583480074632,-0.2206669568485313,-0.5575438986973489,2.0228094069288534,0.7493147271178824,0.5038762374800944,0.4573186507870431,-4.2271628937283445,0.7965795717141478,0.545297887898064,-0.5559332973643253,-2.337398227152849,0.4765338294883291,-0.2948654992003501,-1.1389774193156623,-1.299843315867149,79.056,-708.088013,-721.752014,-15540.0,0.0,280.0
-1.9359401035937929,-1.5164707272854612,-1.4404021307305594,-1.4332691598398493,-3.2027182647839254,-3.1744701832449023,-2.977477963037681,-2.3229115592584884,-0.4686130079730819,-1.2540504045879357,-1.820095925456684,-2.8569414173520333,-0.0772382452938876,-0.912697298152173,-1.1446694179572796,-2.0205156072625177,73.200005,-708.575989,-716.384033,-15120.0,-280.0,140.0
0.3348529787508927,0.1331345077385408,1.0337746487039368,-0.960519563282614,-3.1698364781946364,-2.8010819509721325,-2.5850871448328334,4.359401443568566,0.9123060363698754,-0.4456182989321904,-0.1480334286397886,0.072435395112439,0.8852247077285508,0.6227941265010726,0.9535625341048696,-0.3185744787518931,75.152,-703.695984,-720.288025,-14980.0,-700.0,140.0
3.450477875367197,2.8846637790053804,3.713373077777806,2.201051240252806,1.5311279456391251,1.914189262637913,1.8520086637649165,9.926308126313918,2.1916501292525465,1.434884744337966,2.473876434997698,3.696591055382658,1.446132379796951,1.707548629380389,2.3160620975701494,2.0008654254645144,74.664001,-705.64801,-715.895996,-14560.0,-700.0,140.0
2.9377633422912264,2.27808177199997,1.7765177797536071,2.0059902977204365,4.930293265412768,4.887006555389315,4.576515244791539,6.198487784628585,-0.2482252644453862,0.926556986490059,2.130019359876404,3.5903012940286194,-0.5007604979884941,0.0142719971713567,0.7473338073529601,2.233837440805009,69.295998,-702.720032,-717.848022,-14140.0,-980.0,420.0
-1.323922261896816,-1.7159778786656832,-3.086380877473316,-1.9475647265325908,2.39779386181732,1.8401801097330952,1.6362001210145511,-4.731856639937437,-3.594414040881744,-1.2095045528034558,-1.0177939111662822,-0.5420797949434589,-2.4698685096783284,-1.9990672275066743,-1.6255498847002283,0.3247044527445364,66.368004,-704.184021,-712.47998,-13160.0,-840.0,420.0
-4.269158955079298,-3.931256614813485,-4.2558258508960005,-3.5143727853698614,-3.0009524472384843,-3.594790121278676,-3.4399948558300304,-11.106489732012662,-2.167448152166456,-1.1435691969271211,-2.7449488095308228,-3.9979444486616806,-0.7185460383714022,-0.6768352625683294,-1.417936582596607,-1.3527481514572046,67.832001,-701.744019,-715.895996,-11760.0,-980.0,560.0
-2.2849635566180546,-1.2517086816900782,0.0454220323300011,-0.0440392913733691,-4.609501081231831,-4.587132625976776,-4.240724265085589,-6.140713530391224,2.980550284065124,1.317870648093452,-0.917360254640058,-2.8057372370573512,2.919149968938001,2.384933163904588,0.7581725045071178,-1.32291130232707,66.368004,-701.255981,-711.992004,-11480.0,-700.0,560.0
1.959802963167568,2.766522831783259,3.780546886706993,3.127297439873796,-0.9233751329246404,-0.2026373091572342,-0.0524131559606352,3.555617394149573,4.364243821195651,1.8445242678198024,1.5334264247972242,1.295763022499847,2.609608111672149,1.975326606486739,1.1870722270496004,-0.5389455173097021,66.856003,-702.231995,-709.552002,-10780.0,-980.0,560.0
3.278627317446756,2.900414192597687,1.9510415114334296,1.2383641115274044,2.993286001925388,3.683747383035536,3.491549790027682,7.37136781848436,-0.7217568408767755,-1.3064895130661625,1.2235209558577809,3.205298734953081,-2.349797271388105,-2.39904799119537,-1.0093717846887085,-0.298484318484325,62.952,-705.160034,-710.039978,-10500.0,-1120.0,420.0
0.8024910985948139,-0.4687699882106562,-2.1013595647123555,-2.1601393018873565,2.6799477890675774,2.5590289245269244,2.267444134925624,3.923656446017722,-5.213571241140434,-3.581341062648669,-0.7106867690945861,0.98391918736418,-5.06478024804439,-4.506582041287543,-2.165347440039263,-0.1599834126379883,63.440002,-699.791992,-715.40802,-10500.0,-1400.0,280.0
-1.6242980964864444,-2.4160063885517697,-2.150203456471579,-1.1196314930106717,-0.3513089795629864,-1.1309042655069217,-1.212557393804625,-0.0585914875481607,-2.3046796018763898,-0.7071237462499135,-0.8338618200127794,-2.0120483484719403,-0.6835755107007059,-0.1894398150745005,0.3116568659582066,0.8900610594277328,62.952,-700.768005,-713.455994,-9940.0,-1260.0,140.0
-1.2620138716941278,-0.7921011838259976,1.297572610129404,2.5919438592261,-1.7755680567401266,-2.2393063239692808,-2.0888443767507505,-1.048885292674248,4.072762276940865,4.0717468035843565,0.9652114911928428,-1.849729964802337,5.562398200949205,5.568578283307035,3.4170815588762613,2.095614534170162,59.048,-701.255981,-711.015991,-9520.0,-1540.0,0.0
0.293768392389351,1.291377266837571,2.235246009851456,2.046496188681363,-0.5105969692905361,-0.1154141783892244,0.0482534682871018,-2.076426085223186,4.669313307381114,3.9292359943224646,1.417011720943952,0.9559654478102958,4.923232584263757,4.739895550880464,2.4518369466834176,1.4787995347381264,57.584,-698.815979,-712.968018,-9240.0,-1540.0,-140.0
0.4452897583224602,0.8493129600527537,-0.959477320070589,-3.0758557770484223,0.8367288160603991,1.435433300346696,1.4682038118601397,-4.631247589128224,-1.3377324239727508,-1.4674999533070716,-0.6567169243090533,2.503881056407439,-2.2401840821625147,-2.3057788084447326,-1.973496882072345,-1.1324525483678891,57.096001,-700.280029,-706.624023,-8540.0,-1400.0,-280.0
-0.4453453243284733,-0.664958762809733,-2.881399785253373,-4.755700436970747,0.422034283254088,0.2766346990974347,0.2421882902028749,-4.287172100715488,-5.053297159342314,-4.943160461944142,-2.2102637633355062,0.7065874394703708,-6.419774588560086,-6.671077589796427,-4.289371112364181,-3.137796395029372,56.608002,-699.791992,-711.015991,-8120.0,-1680.0,-560.0
-0.3539549080635816,-0.4799334427643209,0.031387871342043,0.9755435350575068,-0.6532710749388927,-1.3517672518877957,-1.361614709092953,1.7975973428621217,-1.2112838299389654,-1.9564316256274752,-0.7051301618715864,-2.253154992910814,-2.2404760299343995,-2.9153895759642228,-1.5420348487689872,-2.142360602105045,53.68,-698.328003,-707.600037,-7840.0,-1400.0,-980.0
0.7369815976523719,0.7425885976142836,3.3867338044995665,6.592196623766009,-0.7379526098040267,-0.8254351179750403,-0.8542529047020618,7.915139237070995,4.025954875355434,2.9702211737645543,1.7745237305753978,-2.8315367660841053,4.101584527963017,3.7225090179501854,2.6265390155157693,0.9597027838418892,54.167999,-701.255981,-709.064026,-7840.0,-1400.0,-1120.0
0.938303223797996,0.3956733132932118,1.587718439680051,3.417838928053825,0.0338600190836263,0.9615310764910504,0.8454247926426668,6.1649693787742645,2.640552765538918,3.073161586825744,1.6381419011107343,-0.2776406287077338,4.038048424543298,4.922567984948848,3.17815381872617,2.989461231451146,55.144001,-701.744019,-709.064026,-7700.0,-1260.0,-1400.0
-0.2272372177759841,-1.2120535588720427,-3.021783559010412,-4.945329332159508,0.6444395664763992,1.4026377507509191,1.2906711472128487,-2.1585435163955258,-2.9939723371102493,-0.898146793273845,-0.6877976877814483,2.7582816318621624,-1.2481173690462033,0.4323960071648237,0.3308270556647804,2.189426085657919,54.656002,-699.791992,-709.064026,-7840.0,-1400.0,-1540.0
-1.0145890673841471,-1.1076055188287923,-3.348947381539979,-6.909691590268239,0.7934700664013169,0.1332114901749153,0.2008817418428073,-7.50426749518047,-3.8989964632971192,-2.485099993166936,-1.5261921531143026,3.178385693123754,-3.439211982044164,-2.8872613626443826,-1.6623319653995596,-0.1936005402506447,57.096001,-696.864014,-706.624023,-8260.0,-1540.0,-1820.0
-0.3787431698986253,1.1654838615838023,1.4443991216397034,0.4598466017848904,0.5328643174226347,-0.949503114013702,-0.7096321627078871,-4.658938523164177,1.602314449991029,0.3719732568732651,0.2185002637911014,0.4650648179447023,0.1816883723505787,-1.470676501108815,-0.9585082369718072,-1.924801960192161,58.072002,-697.840027,-709.064026,-8120.0,-1540.0,-1820.0
0.4127861336753156,2.186522043698893,4.288344141428022,6.953760024674801,-0.3833820058047857,-0.7928024080429291,-0.6296762445480409,1.208547134268549,5.191588489832441,2.539265443196125,1.4224525617730437,-2.889327613222717,3.2096633541184136,0.8769003668165881,0.0537981195989349,-2.0951659495182247,59.535999,-699.304016,-713.455994,-7840.0,-1960.0,-2100.0
0.1368662785437133,-0.0503867184185535,0.8553581796339718,3.787791874600029,-1.513115514271861,-0.1762389713860133,-0.293306062961886,3.1543730503569587,1.165311540321034,0.1379900074730832,-0.0934718283942105,-3.6075883492084473,0.5332218341140683,0.1588966064129787,-0.5037156889571972,-1.0404032146689883,56.119999,-699.304016,-706.624023,-8260.0,-1960.0,-2240.0
-0.2355593068097043,-2.4881076040146,-3.73876245018488,-4.051875949780652,-1.2500451555917471,0.2365416772510421,-0.0487057680248746,1.858222395857656,-4.842770986420598,-3.1755171478178923,-1.8726747197548048,-0.7103035755695726,-3.684147231140796,-1.533444882698558,-0.8810635963845681,0.7203380044813482,60.512001,-697.35199,-711.015991,-7700.0,-2380.0,-2240.0
0.5479089141797393,-1.34355727190816,-2.625040624179358,-5.490946998540386,0.9470623896782154,0.738262248208726,0.5932088276691188,2.013739671060581,-4.152748110290712,-1.873204033756029,-0.6748871490279621,3.1563504820125834,-2.5340178269019327,-0.1973208252074669,0.8438940242070149,2.3388913425000486,59.048,-695.400024,-707.112,-7840.0,-2240.0,-2520.0
1.2946476207326247,1.8700955468516005,2.3813325503477394,0.7172576755747556,2.6490814867578463,1.0632175347897987,1.1979527755066723,3.0535901134557006,2.2153517061895447,2.653562157338725,2.077059651253897,3.941467119194332,2.851573438281723,2.846208075138792,2.7108671469645023,2.2978751227274463,61.976002,-697.35199,-711.015991,-7560.0,-2380.0,-2660.0
-0.0426575923366501,2.2491018745677054,3.543106889154454,5.0300993278805,1.0505545190553836,0.0873124846659495,0.32781336269998,0.0896515360026815,5.217082541138328,3.8068509152674577,2.074065751000184,0.4887373947403716,4.715732752733231,2.569560345158195,1.3417577708980717,-0.111125773542974,61.0,-694.911987,-710.528015,-7280.0,-2100.0,-2520.0
-2.4486666705251894,-1.0328111542533145,-1.0122480863643604,1.5196195479444203,-2.5422945013710434,-1.846501465116665,-1.752678082244935,-6.305138111878272,0.953562723590338,-0.4359407274661611,-1.200530357632796,-3.6752268591372825,0.0847134308458057,-1.694934834794531,-2.4467171711573545,-2.963591902333936,62.464001,-697.840027,-708.575989,-7000.0,-1960.0,-2520.0
-2.302242760041471,-3.0695726764286504,-4.363699343225497,-4.007739474972399,-3.393548165612606,-2.129017504323488,-2.22810952419284,-8.092506744970109,-4.162999408725072,-4.324430835840038,-3.1798572685228343,-3.879273685960377,-4.8346370897962725,-4.465524578206008,-3.837742319416513,-3.0221840175527537,60.024002,-696.376038,-710.039978,-6580.0,-1540.0,-2520.0
1.3213874840798103,-0.3910468376782448,-1.1476493447585487,-3.2645742756769702,0.3441357494924144,0.6518276692147118,0.5119116336164651,-0.6712208919347181,-3.100122569328876,-2.4688137153290137,-0.7435248146932878,0.2554764017094511,-3.478197685041771,-1.7502680103621633,-0.5526572371031063,0.2943693580802238,60.024002,-697.840027,-711.015991,-6300.0,-1540.0,-2520.0
4.24553992847032,3.529450789917459,4.335150314155889,2.467257619066545,4.282085295439502,3.607238321005037,3.5557749219108405,8.96086735528609,2.0591378192473404,2.6238223839319788,2.972498888155488,4.0685035589157375,2.1209845657329605,3.1358330386749667,3.5755741130258767,3.4871373868246534,61.976002,-697.35199,-709.552002,-6020.0,-1120.0,-2660.0
2.2536823796725813,2.920624804432089,4.246980447872812,4.816062412198602,3.0930915116897286,2.511129993579516,2.5374829357248045,9.892786350055149,3.938055737481287,4.252997109071939,2.8146559218861174,3.2337043472200304,4.684957038395623,4.103202021662058,3.472546595321513,2.85480812317607,64.416,-694.424011,-709.064026,-6020.0,-1260.0,-2800.0
-2.813603649449675,-1.9196003353524376,-1.5604038886543312,0.5601711708116917,-2.141023839995474,-2.1516303183702465,-2.111930079333136,1.0606488339100664,0.4838371037593759,0.6716212326833064,-1.082578722980713,-1.0947708965701912,1.6324673620687395,0.4459867423801293,-0.4989744270479149,-0.8494541729497463,65.879997,-695.400024,-705.160034,-5880.0,-1400.0,-2800.0
-4.826144524540674,-4.681732849193674,-5.441400935351627,-4.356398590394014,-4.9201253650184045,-4.823089905620223,-4.786505274267362,-7.73551087397023,-3.056758895796481,-3.1998191022422144,-3.47406156854988,-3.797973325987512,-2.4706694957830497,-2.873975547630055,-3.289070011410283,-3.247792647806656,66.368004,-694.911987,-709.064026,-5880.0,-1540.0,-2800.0
-1.2394460982707096,-1.6378461484682425,-2.62729022601824,-3.6702488479458215,-1.7987482511288275,-1.83369180494983,-1.7923958496340888,-8.303076795093663,-2.2800490398632585,-2.916570225156037,-1.3353946674633486,-2.062044410330358,-2.9850032380501754,-2.36999601949564,-1.9928828670572083,-1.8270913597228264,65.391998,-694.424011,-711.504028,-6160.0,-1820.0,-3080.0
3.5126337575092594,3.296174083319861,2.74079261799763,1.0389290245628848,3.141100334357008,3.4221759611354106,3.4406884409964547,-2.607339055411297,0.7836071561752751,0.1458927034177966,2.161146546202554,1.513108860770894,-0.7560101313360994,0.0132938239573842,0.8452438053862784,1.126054943978531,71.736,-692.471985,-713.455994,-6020.0,-2100.0,-2800.0
3.787337756374704,3.940579271889184,3.970379780670513,3.6286171558151614,3.861300361998897,4.564739545908003,4.526622463203547,2.528333799984488,1.7764596598312832,1.8670078328720725,2.378971524755916,2.614223382557674,0.742929003282061,0.8726460720668953,1.4789675386068148,1.915009395840497,67.344002,-693.936035,-710.039978,-6160.0,-2240.0,-2940.0
-0.1444523159033073,-0.0262162878467594,0.6717459511636601,1.898125050663184,0.1631772919924644,0.4241063882915836,0.3562920227761219,4.532877971862882,0.3822014686576099,1.166870203082593,-0.4285286134945161,0.5900851557107035,0.7754967005474264,0.2933475520936134,0.0995009842742491,0.296933199409674,68.32,-696.376038,-709.064026,-5740.0,-2240.0,-2800.0
-2.997420968040548,-3.172934681476659,-1.9481902885008968,-0.7416414057405635,-2.743751069469796,-3.628325277469801,-3.656346980629684,5.170150867803222,-0.305063992359836,0.3103385270187216,-1.9796965377982951,-1.3410788099699067,1.1577450509589289,0.6200043120905941,-0.2752940785002267,-0.7792111883988906,67.832001,-698.328003,-710.039978,-5460.0,-2100.0,-2800.0
-1.6303684000674945,-1.830985944656156,-0.9504763068393872,-1.1424582212426346,-1.5771120349287124,-2.8405018023982205,-2.804918297438757,4.50376201564753,0.7840654042589775,0.6062590982137162,-0.2543656484275347,-0.7479976408047412,2.1042338464743446,1.9230714463295624,1.1662851988074798,0.2336045794559166,67.832001,-695.400024,-712.47998,-5180.0,-2100.0,-2660.0
1.33820575171479,1.4705375985206808,0.9218755097292344,-0.376890797601723,1.1558820392404914,1.0454030305872697,1.093789348486591,0.1892216969658028,1.1606063482375066,0.5458168724592283,1.869593843361023,0.9520299588286674,1.3619310711541213,1.5598797017557056,1.7206440963100609,1.2939356188390605,68.32,-693.936035,-709.552002,-4900.0,-2100.0,-2520.0
1.6948611954357704,2.03721359535462,0.149442527736148,-0.8326896940821622,1.3846590105057166,2.726524777206522,2.733425373703847,-6.842512743709036,-0.9744107758592933,-1.254836570807848,0.9688269554443958,0.837426450454934,-1.96381881255906,-1.5544035212736085,-0.6304796463461094,0.0127157376511618,71.736,-694.424011,-712.968018,-5460.0,-2240.0,-2520.0
-0.6966836531141136,-0.6309224593585994,-2.2215763168269937,-1.894442716157952,-0.8529302699353165,0.4873007612311083,0.4629374762083751,-10.399578413549138,-3.4156486466827416,-3.187286435902108,-1.995712815939476,-1.262982387442629,-4.877003675784571,-4.448418996489027,-3.688253522323884,-2.46630062577786,68.807999,-694.424011,-714.432007,-5600.0,-2800.0,-2520.0
-2.167942797209455,-2.551231478151273,-2.1956014753475075,-0.8381696228918695,-1.962663578850662,-2.0774348817359205,-2.082965481539376,-5.393540393583417,-2.4981581782523863,-2.2688933787890004,-2.8905736821770582,-2.375768196721557,-3.4443358644818334,-3.248763920157241,-3.339491305070379,-2.617371671136014,70.272003,-695.888,-713.944031,-5880.0,-3080.0,-2380.0
-0.425216742996429,-0.7970463240092557,1.3561119660401193,2.587400552094942,-0.0456221576937781,-1.3670291547826443,-1.3384552740689308,5.4299482314892975,1.9035310763497084,1.765419779868446,0.0617597936524331,-0.3674374058293272,2.170246506897401,1.8805413303426688,1.108894820094608,0.6534253856388659,71.736,-694.424011,-717.848022,-5600.0,-3080.0,-2240.0
2.4495948693619485,2.631547818649895,4.665157966347096,4.680106619714319,2.561192069141225,1.503455719364968,1.522544801420487,13.163534149775163,5.454355654630172,5.227646954059578,3.719433000507259,2.8896221122223964,6.879923414877978,6.160932685605769,5.391407733956391,4.021300618595808,68.32,-695.400024,-711.992004,-5740.0,-3220.0,-2240.0
2.7231723532350176,3.3213577855340244,3.388443770488008,1.969334012766029,2.420150430067624,2.538232242966058,2.500351021142655,10.84210521833907,3.864620690040065,4.021128426064008,3.620936177397141,3.4156507092149684,5.504621758586619,4.899873728689465,4.698340059309638,3.4566542857428857,71.248001,-698.328003,-712.968018,-5320.0,-3080.0,-2100.0
-0.3121602694698933,-0.0307173305977697,-2.0154227657205483,-3.888663260933656,-0.6496134070295899,0.2368468275280807,0.1599302729775514,-0.4972946025194996,-2.122735042218673,-1.627540434857817,-0.6547115266816128,0.0261510574114616,-1.578396626213152,-1.423174070478407,-0.8780479042679615,-0.8523179328915349,68.807999,-697.840027,-712.968018,-5040.0,-2800.0,-1960.0
-3.3885578184225924,-3.823387932437003,-6.170217579138997,-6.849462601449927,-3.3199711118736674,-2.579652895855779,-2.6110306145273463,-12.446172960548123,-6.782969608839286,-6.513453272439122,-4.686244135673718,-3.78152282267248,-7.9537190066464944,-7.0063774391970775,-6.00536592745205,-4.451999230118251,70.760002,-696.864014,-711.992004,-4620.0,-2940.0,-1960.0
-2.975872299255451,-3.623310946493827,-4.319905605699783,-2.893593354175637,-2.5763320121478,-2.4444225263200456,-2.365957871623932,-15.296096960990283,-4.966395663783554,-5.339451339138419,-3.9750348093524055,-3.649099997683921,-7.064888950734457,-6.138180765767586,-5.476090215917233,-3.5908136044580123,68.32,-697.840027,-711.504028,-4200.0,-2380.0,-1680.0
0.6556140566535757,0.5876523708972469,2.2255504576727425,4.765895483875971,0.8763814348288036,0.4805593136251587,0.6172158309807756,-5.81051386550326,2.14055341610353,1.3641885648687029,0.9548844466267346,0.3945287217281145,0.831528383299343,0.7775898535850072,0.2841472352845423,0.6321495844277083,69.784004,-696.864014,-712.968018,-3920.0,-2380.0,-1820.0
3.594934167639748,4.1552385326175125,6.824406571421775,8.172405033998487,3.325792182720269,2.7128714985536924,2.76135194954555,8.81014571021059,7.423948532525798,6.957243425747501,4.880676603222737,3.743102556327144,8.105250196515385,6.994278436266152,5.512261425905031,3.693223588674991,64.903999,-694.911987,-711.015991,-3920.0,-2100.0,-1820.0
2.622750743776112,3.060170800413488,4.381593043725162,3.122639350738216,2.1353334251825267,1.7303453117837366,1.6084754103720045,16.084886057904775,5.066370681845033,5.454159548331465,3.574801310335724,2.6895967955984705,7.29076520969546,6.172672442987344,5.143331552119598,2.8038585958071574,65.879997,-696.864014,-708.088013,-3920.0,-1960.0,-1680.0
-1.059339648798883,-1.2847167154378851,-2.708656205163322,-5.517902893652015,-1.218472219821915,-1.043863707425614,-1.2277342115374914,10.0381813076876,-2.668516534725497,-1.5931269811627944,-1.3680519093582746,-1.0674215116357026,-0.7151934298785655,-0.6374929218862532,0.1244091118914427,-0.2930880718200476,67.344002,-693.447998,-712.47998,-3920.0,-1820.0,-1960.0
-3.1533250017896206,-3.659877194784854,-6.687562291970449,-8.457962521599939,-2.768796665955872,-2.1228903046897294,-2.165331573903228,-2.6590532483915115,-7.297095115678441,-6.436097443837154,-4.29973625750723,-2.714768456243404,-7.295680222353692,-5.983426815501787,-3.974465162371323,-1.952942396169272,65.391998,-693.447998,-709.064026,-3920.0,-1820.0,-1820.0
-1.3847277305682284,-1.4130820163809088,-3.104671236603229,-2.2725158407873374,-0.8051479671813352,-0.354180723391028,-0.1996484356042682,-10.510097610004768,-3.613220754962784,-3.9401818147301033,-2.1293580859269503,-0.5946861309863867,-5.669145845509714,-4.47810322934738,-3.420873323895963,-1.114554795177731,66.856003,-695.400024,-710.039978,-3640.0,-1400.0,-1960.0
1.7262020209558762,2.265253111776468,3.7842438277563337,6.314402075215574,1.9406868335705307,1.6757342739291468,1.852154257670514,-9.815574648277355,3.951435232789672,2.425073947974647,2.0682628837096995,1.8130364497052496,1.4887552597211895,1.150993559082195,-0.1251518439731726,0.0243096534682016,69.295998,-693.447998,-710.039978,-4060.0,-1400.0,-1960.0
2.1145532524272124,2.487072485612013,5.816371929517792,7.720307349052991,1.7480493369959644,1.090602183447586,1.0965002660320589,-5.695976987087292,6.322904356211681,4.958021820737367,3.0083074697099907,0.9076556817506896,5.577248765421227,3.916821132003652,1.6015908223371995,-0.350119798374808,66.856003,-696.376038,-710.528015,-4620.0,-980.0,-2380.0
-0.5348335515927467,-0.9491947086577012,0.6903582330634234,0.4421588644183613,-1.1501059548774846,-1.381713117452503,-1.5174565186334492,-1.590000267187797,0.7666454353431532,1.1908730551629652,-0.1348927708924414,-1.906489867959561,2.5153761972273787,1.3893041203222658,0.7051274212351637,-0.9958815082750891,69.295998,-691.007996,-711.015991,-4900.0,-1400.0,-2520.0
-2.412166616142081,-3.279249110569741,-5.174891960797502,-7.110725356743882,-2.739612684414201,-2.2782043596486483,-2.3701630727731486,5.2558023646753576,-5.61449312668239,-3.4364803182367174,-2.8499846593606697,-2.2033998408697686,-2.798093376278272,-1.892286495504746,-0.0666729872916966,0.2347161883750184,69.295998,-693.936035,-712.47998,-4900.0,-1820.0,-2800.0
-0.7499048898456866,-1.069725872599815,-4.469741223457908,-6.285413071522931,-0.5653297752291091,-0.0326956409260199,-0.0080096882469998,14.571519982175449,-4.638759905865757,-2.8983835173322894,-1.3348534738879163,1.0518222227192986,-3.301992856701692,-1.1866380490446238,1.0591946324438135,2.5675140109506565,69.784004,-695.888,-712.968018,-5040.0,-1680.0,-2800.0
2.3826702599702108,3.1577074159190617,2.023390669709026,1.8295358221575035,2.858864791255011,2.785163796600272,2.815444454737394,16.34429624239355,2.6197631322131425,1.7530358568242792,2.464087956393306,3.726922547092754,1.1612935139626224,1.9855356924333951,2.015389628995349,2.703814722329424,67.344002,-694.911987,-713.455994,-4900.0,-1960.0,-3080.0
2.796402697127749,4.035048394974015,6.381528489883544,7.758152448823627,3.2215697779061427,2.667451403631381,2.631721306617841,1.986012492418346,7.001601661059722,4.138454966554615,3.412130670084732,2.036889532310173,4.083500810648281,2.3753578391950048,0.1740204485896645,-0.5521401298415989,71.736,-693.936035,-714.432007,-5180.0,-1820.0,-3220.0
-0.3085157345035004,0.0929800366678808,3.161410911853113,4.662106182770311,-0.1182199643337804,-0.4490577569983352,-0.4407714886026062,-19.705485341816505,2.6762374656807726,0.9749371270035616,-0.1019916852220348,-2.2706936032795992,1.0938733426003338,-1.3373911662896116,-3.1401486619706627,-3.9166110820795534,68.807999,-692.960022,-714.432007,-5040.0,-2240.0,-3500.0
-3.3750644380783807,-4.430010894501385,-4.117739502738365,-3.8664337804898055,-3.514657612758841,-3.2465458127929177,-3.1018232212418124,-27.362340403528144,-5.462506287969212,-3.873440266251986,-4.0495818185799335,-4.161671384933268,-4.263758396227631,-4.472171310122236,-3.782014958128038,-3.3702090856554685,72.223999,-692.471985,-711.992004,-4900.0,-2240.0,-3640.0
-2.974387744693025,-4.592792032810163,-7.176056772425982,-8.111981720538951,-3.514272929713904,-2.989911575508778,-2.864007402464857,-10.970989114714063,-7.65846396761985,-4.447734615114367,-3.73275448569571,-1.6871995034440477,-5.024998860293088,-2.556096125227363,-0.2967852971066376,0.6842470212951788,70.760002,-694.424011,-712.968018,-5180.0,-2520.0,-3920.0
0.3760235766885904,-0.1364193826556228,-2.442708211796898,-3.3403773042883107,-0.3309855962088903,-0.1349325187381997,-0.26293605553886,15.584246478658232,-1.064963675796972,0.0814615849399412,0.6749426798485701,2.1029423031128496,0.4045300771999351,2.7262997400334728,3.840136954271355,3.8379384860637313,66.856003,-694.424011,-710.528015,-5320.0,-2800.0,-4200.0
3.35881530682208,4.639338784149456,5.165521386825004,5.112537107256557,3.157237067585976,2.8316708236630888,2.5225645969196537,29.723960085599607,6.971228931477545,4.775975834085052,4.581686497110094,3.4499801259360425,6.145351364639589,5.548662554838627,4.328560671725033,3.0687743861330525,70.272003,-694.424011,-714.432007,-5320.0,-2800.0,-4480.0
3.464773248179468,5.340724813359771,7.748697199173704,8.117193790328704,4.234217081142424,3.7170330062530095,3.6082618995926654,22.2549186281608,7.630819367845802,4.741407671808428,4.134503369065071,1.880736431952417,5.684556545177676,2.859234070425884,0.9167841950245852,-0.130139152938951,69.784004,-695.888,-711.504028,-5460.0,-2940.0,-4620.0
0.7144678766297364,1.251412359722688,2.5969625346057605,2.7215601671294274,1.8650269964644968,1.673170636322889,1.9602491254447647,0.4016038772852636,0.4453590688398148,0.0914185438117393,-0.1441208526070421,-0.6668590652814441,-0.7728854900721807,-2.52469678336409,-2.9443885190014103,-2.427054347920644,70.272003,-693.447998,-709.552002,-5180.0,-2940.0,-4760.0
-2.925005496679386,-4.318839738344993,-5.340334126361906,-5.25306555048835,-2.688814287392032,-2.3083592235696595,-1.9412635920740484,-23.17911968760616,-6.9245257043162685,-4.75655648620662,-4.392522132081164,-2.586610213276494,-6.716731046815925,-5.497892844854881,-4.181052113364758,-2.56147559023762,70.272003,-692.471985,-713.944031,-5040.0,-2800.0,-5040.0
-4.634899228997234,-6.543457223522039,-8.419321256840117,-7.909731827247229,-5.73980829707103,-5.090102068112383,-5.105259532367345,-35.47299775261155,-7.414493059344617,-5.473470448073356,-4.962253777124319,-3.010136627420944,-6.333415015525969,-3.743848210151679,-2.401585613596928,-1.36154152456429,70.760002,-694.424011,-713.455994,-5040.0,-2800.0,-5180.0
-2.364337471873083,-2.888422376287994,-3.51677907214486,-3.1336094104263927,-3.573431034196814,-3.3306478703393303,-3.722061847984949,-24.026887415717425,-1.2444321697646643,-1.3423153530366532,-1.1833009799902845,-1.1504817685976048,-0.1158983001807223,0.9623333063241638,1.0069382786918075,0.5012022021401936,75.152,-694.424011,-711.504028,-5320.0,-2800.0,-5180.0
2.774736317322421,4.065131971578501,5.020288272806216,4.286540804231598,2.9571234058122235,2.4130178255286374,2.1343597811341306,11.29199240648374,5.622318961551918,4.338213014232151,4.056745618224814,2.4376779101063297,6.19002288421626,4.939505613399269,4.059031786417511,2.599037482701081,73.200005,-692.960022,-711.015991,-5180.0,-3080.0,-5040.0
6.1199897826357255,7.913277056088208,9.220064750429174,7.842650374281105,7.448389712635324,6.58413388642581,6.753735011784054,45.716285249939496,7.589476238923723,6.696405795624424,6.179086655415589,4.61527823686117,7.16625719749545,5.2250856377106745,4.474862929350495,3.3066010052904664,72.223999,-693.936035,-711.992004,-5740.0,-3220.0,-5040.0
3.639182301357438,4.305800270920281,4.858227602108375,4.730338251229761,4.346521634991924,4.112050305605358,4.482117681449829,44.86663978073821,3.4557084123472883,3.1794980821260586,2.69812186782247,2.3351375249328874,2.134477969584629,1.294290594871872,1.0476441238323813,0.9330554631255156,74.664001,-691.007996,-716.872009,-6160.0,-3640.0,-4900.0
-2.917039501131443,-3.892354041449324,-4.302211816757961,-2.5757347500055934,-3.7435510094418,-2.996307416289581,-2.9036110027934714,3.015778583578108,-3.624998343714487,-3.720540506289076,-3.813480064313301,-2.9068517362373765,-4.797725676655813,-4.216257898036388,-4.109187000801695,-3.115805236478767,71.248001,-694.424011,-712.47998,-6160.0,-3360.0,-4760.0
-6.902806022834327,-8.668168299379792,-9.75144847463054,-8.287876521434024,-8.039742342249955,-7.068710064186578,-7.32883100012809,-43.47495843572359,-8.358393794822804,-7.897261888156406,-7.275543340286767,-5.594281865196123,-8.104256869892794,-6.77026028424399,-6.221241467639715,-4.6102745928994615,73.688004,-692.471985,-714.919983,-6020.0,-3640.0,-4760.0
-4.045010998573305,-5.117968296994039,-6.290417593267224,-7.229518515772461,-3.861129158591589,-3.707091835654602,-3.938439223818029,-52.606166316095766,-6.50885626670534,-5.074589305329848,-3.931598965535154,-2.5376416426544086,-4.893304585138291,-3.5783594253006585,-2.598775472762376,-1.457568645372883,74.176003,-689.544006,-714.919983,-6020.0,-3640.0,-4480.0
2.5357931216860354,3.179116142871414,2.9202842648586724,0.7690939361994372,3.7331207016171097,2.956385046680188,3.045899124527842,-20.67501950050313,1.473444892502812,2.6440420985229087,3.350070266877765,2.956634455929472,2.7465049866780205,3.191956826562453,3.725962034434021,3.139463025958216,74.664001,-692.960022,-708.575989,-5880.0,-3780.0,-4480.0
6.084164561891298,8.075348799281162,9.434012977484564,9.237024196652364,6.502322463463579,5.672601634334132,5.918375012601348,20.90139300548085,9.286170744936006,8.279448759563865,7.587024973210934,5.040089154256236,8.758380383619166,7.615852207355095,6.696051387028418,4.344068807296785,75.639999,-691.984009,-715.895996,-6020.0,-3780.0,-4480.0
3.8936297671389495,5.458169596378856,7.556668244196387,9.7277791530852,2.902751673307501,2.788198844394368,2.8430519141024577,44.34349899561708,9.32932403486897,6.609986768160427,4.779943398861551,2.274636808503814,7.645996357240976,5.437914008510707,3.643631921131187,1.5287338337710288,78.568001,-691.496033,-715.895996,-5880.0,-3920.0,-4200.0
-0.7563533026236835,-1.311709501843089,-0.664999498764212,0.5029451680960796,-1.6689051144608842,-1.1887051332350884,-1.378274866105666,43.58104995178558,0.4633841834560808,-0.7867464425993951,-2.1530622564995894,-1.5568539950741438,-0.3601265321907049,-1.5851102373993615,-2.1886331458984585,-1.65481423274882,75.639999,-692.960022,-718.335999,-5460.0,-4060.0,-4060.0
-3.6487002796675423,-5.991502080011093,-7.893407069522511,-9.98830001040751,-3.074352333633841,-2.5849708638518285,-2.747268664612444,19.326110172923983,-9.417272140469027,-7.235300668857945,-6.715439316635556,-2.961968340678826,-8.511216342787158,-7.177033841756328,-5.583453729882225,-2.4984761747274447,75.639999,-688.567993,-716.872009,-4900.0,-3920.0,-3780.0
-3.85149330036732,-5.581931330574499,-8.283674183206674,-10.917995987453432,-2.58591672253462,-2.354402676014592,-2.281791246764932,-25.66322763724949,-10.63964285607372,-7.372945630387531,-5.305318474348587,-2.291054378557861,-9.282591782892435,-6.508419243856247,-4.427399254385682,-1.8859161898062595,76.127998,-689.544006,-717.848022,-4760.0,-3360.0,-3360.0
-2.3690577979800578,-1.5631607367853162,-2.129879279795623,-1.0577786197677708,-2.296035136914073,-2.2420761342260227,-2.0417828985710824,-66.84938223480052,-2.013596860998788,-1.7071165301266786,0.0763008022340718,-1.262101470601992,-1.865753017616854,-0.5724568116793111,-0.4853662477512017,-1.3003680329666474,76.615997,-691.496033,-718.335999,-4480.0,-3080.0,-3080.0
0.4870790099912057,2.903637648268486,5.123040972606588,9.29083703448317,-0.8571676611001011,-1.0117665707466,-0.931435442360083,-61.230787569772325,7.722674379041659,4.624802359772326,4.673296038832656,0.214754444046592,6.685027820520106,5.220371320585699,3.2745255467539254,-0.0519388571777469,78.080002,-691.984009,-718.824036,-4060.0,-2940.0,-2800.0
4.097316547582937,5.326006466192392,7.832220223551912,9.782377374760554,3.1335030032846887,2.659931805435051,2.541300108060028,3.1512947182979665,9.470212848215509,6.829177571624123,5.370724630256425,2.66306480464451,8.660551602549392,6.34929717842332,4.7989367298086805,2.577424302735104,73.688004,-690.52002,-717.848022,-3780.0,-2940.0,-2660.0
5.629777935859898,4.426954769576596,4.59038046955169,1.4045414539218746,6.359471510561468,5.841986950791915,5.672300548397348,74.57649366242522,3.19678319286853,4.124439768710534,2.444442924982228,4.250451126754676,3.482957504098112,2.856650990277974,3.350759843494095,4.394319720084564,77.104004,-688.567993,-718.335999,-3360.0,-2380.0,-2240.0
2.3470553897846056,0.5231548993331114,-1.3639201914614318,-6.071481908140677,3.865982533297148,3.878113787000075,3.835844097168655,84.46548664561021,-3.675408593743037,-0.7293999614961444,-1.7051210055603845,2.283760871151681,-2.8381687135552074,-1.8166946579062888,-0.3501178977788551,2.387349593535467,76.615997,-690.031982,-721.752014,-2660.0,-1820.0,-1820.0
-3.972740256978443,-4.061950246883119,-5.562862653273998,-6.3912285338750205,-3.43372461979188,-2.790466712950664,-2.6779724450867404,24.79216063968428,-5.722639970241059,-4.513624789383088,-4.590375602234881,-2.5636796363905088,-5.286217840259432,-4.625451019734145,-4.073842115745145,-2.624032919095591,72.223999,-689.544006,-722.728027,-1960.0,-1680.0,-1680.0
-7.481906706912616,-6.098063016457619,-5.891626493460548,-2.4871737857740728,-8.315896404911866,-7.712602088769838,-7.568085390596094,-47.28956571089013,-4.214080442229506,-5.662602950792455,-4.733572210445093,-5.885045722364229,-4.423687620413971,-4.806422640305354,-5.256450601938791,-5.978290155124841,71.248001,-689.05603,-723.216003,-1400.0,-1540.0,-1400.0
-4.411387447579811,-3.880950233983957,-3.017491191580272,0.3930001235677492,-5.573472215045502,-5.65075713940336,-5.614755374918617,-79.89809443264193,-2.284405288201218,-3.902208112087286,-1.888752644230832,-4.256701852243873,-2.8105421267802164,-2.6513220790394367,-2.8996036133374408,-4.344091867485735,69.784004,-691.984009,-720.776001,-840.0,-980.0,-1260.0
2.572403092867497,1.3386420570417177,1.4933932696448846,2.168476238782844,1.966725024883449,1.4398461848195012,1.3385825582777928,-67.8657698833113,0.4776990484542002,0.5543450607377709,2.757800377897165,1.033512358215522,-0.0638979735006074,1.586803809634672,1.7059668574970248,0.8375320218515346,69.295998,-690.031982,-721.752014,-420.0,-980.0,-980.0
7.225501439970133,6.144099713869148,5.904258559757698,4.932962086006294,7.2792180349246625,7.03076140559428,6.900351787056655,-20.94612757606772,5.33098891501059,6.048588596323896,6.389899404397777,5.584721453357537,5.059135531201559,6.269145333044033,5.789346498938404,5.453611848102883,67.344002,-692.471985,-718.824036,-140.0,-840.0,-840.0
5.932938674073776,6.965075457931913,7.407884309505266,6.069783692154793,6.664497350178239,6.861171915651411,6.839035292062004,58.12211348250078,8.632174582374034,8.46311898507464,5.6467083253364745,5.987201248615617,9.050404706949887,7.322325037458133,6.3487267314194105,6.415435818152952,69.784004,-689.544006,-719.312012,420.0,-560.0,-980.0
0.2314887455538602,2.3390201229659526,3.218160188509992,0.7829048292560753,1.6234164215324265,1.7182018200968414,1.8212530720493008,131.06053996460145,4.287593285449102,3.935007032192175,-0.3357799401845656,1.913584687747616,5.387669135365744,1.6844527567854553,1.8433315643643,2.851404533786274,68.807999,-690.031982,-716.384033,420.0,-700.0,-840.0
-5.471856100239094,-5.143788055811371,-5.237422056926545,-8.289430122950327,-4.356256477698378,-4.66068798773563,-4.559866049913096,109.83065314510192,-6.591851664901766,-5.6754141802413605,-7.415924903520072,-4.07833863395043,-5.796806435708914,-7.313887535140596,-5.492922483679162,-3.7402689259243456,66.856003,-690.031982,-715.895996,840.0,-420.0,-980.0
-7.157492187129053,-9.335225479159863,-10.745397032305526,-10.613189528936765,-7.826099190867745,-8.029158066077139,-8.049030969300079,-40.88572816404896,-13.18329819698483,-11.821231577868248,-8.715583628903474,-7.579938911466753,-13.835478291039362,-10.820512296781068,-9.473132752413129,-8.81733708363633,68.807999,-691.496033,-717.848022,700.0,-420.0,-1120.0
-3.348874654773313,-5.441649814944427,-6.609899279180448,-1.0086700406067854,-5.792331535160376,-5.367078623737515,-5.466768542976632,-199.8218106116113,-6.630504688155969,-7.154759756802679,-1.6027039444056743,-4.959100238986456,-8.412705940168282,-3.727653548799595,-5.014599061109842,-6.865072213822714,68.807999,-689.544006,-718.335999,840.0,-700.0,-1120.0
3.501178876109843,4.046389854417531,4.584001881534985,10.942292559077382,1.647796572915318,2.333921458145499,2.2971046244076803,-179.22472065813213,7.550168589887559,5.099805383123739,7.855093257431276,2.607805197889992,6.523142014203427,7.821762500608407,5.143403153336384,2.3689374862645645,67.832001,-691.496033,-716.384033,420.0,-560.0,-1400.0
7.747277492190841,10.106975994452414,11.697143309773422,11.016934903840548,8.711299945538078,8.794738919194202,8.867013605933504,40.951444207079625,14.046009648124352,12.722095010463663,9.954804637602582,8.424106210325576,15.136234275617568,11.718629716329142,11.122129687183062,10.731579324778084,66.368004,-688.567993,-716.384033,420.0,-980.0,-1400.0
5.145369936464685,6.343366216529529,7.084753711523755,-1.2451188389027614,8.042866304170175,7.35758377401372,7.4248962270166174,240.14161506680017,5.763952647208504,7.642886496801123,2.1062630044542923,6.374997300993469,7.962696635809376,3.671307349814573,6.1512037522711625,8.941692865976915,66.368004,-689.544006,-715.895996,280.0,-980.0,-1540.0
-2.153441601577209,-3.261463083357471,-4.006976502260732,-11.017637099708708,-0.4853931584817119,-1.167946347401601,-1.2133331413120854,194.22130037526628,-7.362048267993276,-4.413252280964696,-7.415609952024313,-1.7677282353070736,-6.475643787086939,-7.295579337746251,-4.844090929915996,-2.050811670210447,69.784004,-691.007996,-717.848022,0.0,-840.0,-1680.0
-6.937692718871513,-8.42977017184063,-9.410133600121029,-7.034928617147137,-8.063319524958082,-8.06958380141214,-8.168997308001325,-48.95151140323664,-10.697326864218022,-10.428328933627364,-8.568976289501284,-7.547430675442329,-12.136709801900896,-9.406710898532392,-10.132284737382696,-10.661452982044018,66.856003,-692.471985,-715.40802,140.0,-700.0,-1680.0
-4.6986294639866575,-4.565068062389179,-4.579033280497013,4.145135113971155,-6.862005686508616,-6.386417912850626,-6.395564107313019,-219.4086182192952,-2.584771140331192,-5.3166282925385255,-1.1490886231657726,-5.414789305330428,-4.743012124326008,-1.919263053447616,-4.8083757644991385,-7.876349870197234,65.391998,-691.984009,-716.384033,0.0,-700.0,-1820.0
1.293382530286148,2.386964792775704,2.927070523594425,7.75621658189583,0.5112585834866435,0.9042760196335832,1.0079405478415269,-150.03053063265074,5.370576450351676,3.167209998879817,5.6125753306061785,1.108831156098082,4.81998450583645,5.240776448199858,3.898922823724052,2.0991893768175496,68.807999,-694.424011,-715.40802,-280.0,-560.0,-1960.0
4.352511912106778,4.357472074898937,4.359619050612612,0.7156651449765778,4.979994535170398,5.15222409553413,5.235334587688785,41.47858805709514,4.481687945863257,5.423658427834392,4.840102612912879,4.604434389811809,5.95216644226535,4.7124429825580965,6.376913465645495,7.724998794171794,69.784004,-690.031982,-717.848022,-280.0,-700.0,-2240.0
2.5172599646197007,1.2297024840205342,0.6992802384199511,-5.5833532152946175,2.956539466238528,3.0549564426474203,3.013805793411584,133.33940364872623,-0.8917469245122638,1.6264898480852683,-0.2797040484464422,2.9313158252350044,0.8598428877929292,-0.116562531604422,2.1744079674182206,4.506663313809428,69.784004,-693.936035,-716.384033,-420.0,-700.0,-2100.0
-0.2684403031805051,-0.8348625098486491,-0.8796586303422677,-2.2937045882726737,-0.369716298586328,-0.5019104659359259,-0.6057601862635598,75.04709160156962,-1.8064969241620703,-0.979105721395744,-2.385512491744963,0.1674204882045584,-1.5220948043577207,-1.823961965480136,-1.6246369387669282,-1.2361747594253003,71.736,-695.400024,-715.40802,-280.0,-840.0,-2380.0
-0.6464094733127644,0.747321339865876,1.541028729991677,4.830737431170678,-0.0894166167593395,-0.7003108136615499,-0.7392202778010256,-4.569177601062742,1.97171326263074,0.5034131629000045,-0.2391704106620941,-0.5029865503025434,0.8123050809685192,0.3795570670063203,-1.2422706655182,-2.684580758354441,69.784004,-695.400024,-714.919983,-560.0,-840.0,-2240.0
-0.0875517973852498,1.7439036830763344,2.4103778662614666,4.707631529646539,1.3209401179786853,0.6450111321709703,0.6913831459822672,-14.990364616068293,2.875470591289785,1.4221258252207805,0.9694287141419696,-0.6449227841421441,1.639664738602077,1.0865065007872226,-0.1586444599336806,-1.0425865908264809,67.344002,-697.35199,-715.40802,-560.0,-840.0,-2520.0
-1.2066921843273783,-1.313608300891851,-1.724717833649262,-2.899354661749368,-0.7776621039281719,-0.6248506258668238,-0.5786954925440746,-8.731802439207959,-2.0494625944896483,-1.789761204400059,-1.4387967188842887,-2.19465857837323,-2.29560042203444,-1.8835398686673528,-1.718015224165292,-1.0400951353001813,65.391998,-697.840027,-717.359985,-280.0,-560.0,-2520.0
-2.7270584303937526,-4.835538500833687,-5.921536188887728,-7.38754234412015,-4.581703311402629,-3.475597169713444,-3.475024901580985,-49.564386273871655,-6.188266966738401,-5.1065203549946565,-3.354557654961346,-3.0387380241387216,-5.523371665817195,-3.862856037295007,-3.068815498524928,-2.332326701360119,67.344002,-697.35199,-715.895996,-420.0,-560.0,-2660.0
-1.3017902135622708,-3.042846235567693,-3.572833928057386,-2.437103978745935,-3.812768947024044,-2.9058468739410857,-2.902877012454489,-84.47409978223465,-2.920486031798993,-2.6348775766132206,-0.4881122117039413,-0.2496518438850744,-2.082760577045097,-0.6780436847203424,-0.0802655794231536,-0.6549840047435178,66.856003,-698.328003,-718.335999,0.0,-280.0,-2800.0
2.654101377549426,3.1301881056032745,3.6783061386303486,5.611265057595936,2.4177021519883874,1.997392158840468,2.0352264091794083,-26.440908840867312,4.5549347733872025,4.029906316720552,4.4089581364646335,4.147685865675624,4.966232953292166,4.448322353327964,4.836248335129944,3.853837348819052,68.807999,-699.304016,-713.944031,0.0,140.0,-2940.0
4.464038398753885,6.431018834039772,7.387425359002036,6.851980329314814,7.001987315113644,5.668932797887054,5.67988725499498,89.44490996165635,7.191869302742255,6.949909618429517,4.788037530460894,4.664115031929006,6.998923555292954,4.872527863850982,4.931246546292559,5.245699002289235,66.368004,-700.768005,-713.455994,420.0,280.0,-3080.0
1.3970136325565652,2.753357256748135,3.184476687871154,0.5481366724446299,4.013389795974669,3.295580009694767,3.2151313228641043,128.60298586299592,1.9399586625975105,2.262947489417155,-0.5081229245526762,-0.1237000667462439,1.308209523703769,-0.3315178547890394,-1.1056794672714407,0.3375234045182756,66.368004,-702.231995,-713.944031,700.0,280.0,-3080.0
-3.2595985204295475,-3.5483925034872774,-3.912255174361166,-5.313598444826408,-3.242903773445475,-2.609450002104802,-2.72222017014204,35.31549841242854,-4.805114856319442,-4.653053783566952,-5.33116972610911,-4.91726928272126,-5.44390721700227,-5.020538757582474,-6.291929066783948,-5.628772548319759,69.784004,-705.160034,-712.968018,980.0,700.0,-3080.0
-4.228220460605974,-5.490176804638967,-6.245821645539394,-4.835228457586427,-6.529079323311722,-5.423229834452632,-5.42896209194312,-89.27254608689871,-5.775356176777916,-6.123889527080049,-4.218126423393922,-4.228306284270433,-5.904666141139118,-3.969684330382065,-4.2461969361077445,-5.349230182328991,68.807999,-702.231995,-708.575989,980.0,700.0,-3220.0
-0.8409612681534787,-1.9372787249333263,-2.468367234834051,-0.1227013916020028,-2.985595202144763,-2.628119241986347,-2.4831550120651817,-115.61884539001204,-1.155265856657833,-1.4334185241831914,0.9256058377780774,0.7348665876570174,-0.5982554257225977,0.9296739531092532,2.3833736430833485,0.7994161212216933,68.807999,-702.720032,-707.600037,840.0,840.0,-2940.0
2.619731786692081,2.273569545620971,2.4202998308364423,3.3050108690712547,2.410787485943217,1.932198288605032,2.0987086091696843,-36.90125320528176,3.2507852569451163,3.4542492281199464,4.055729701046556,4.039418626361009,4.044070314415242,3.876074574122473,5.556165688017662,5.333417709879692,70.272003,-702.720032,-710.039978,840.0,840.0,-3080.0
2.6631309571081574,3.16450482228548,3.928872687366524,3.073096969439674,4.106801977785181,3.578252166015479,3.592407522808031,49.31951302439558,3.540595181590232,3.851702353478506,2.702259905521511,2.6322976573675296,3.8263201287657367,2.3860820555971665,2.2092520292648485,3.4914140741791826,71.736,-704.671997,-710.039978,840.0,560.0,-3080.0
0.3733204931665598,1.508659674225025,2.161072319376436,0.6799915095365956,2.0838402045177555,1.9033288306628733,1.7308187543485742,71.69562004862158,0.9358407179876844,0.9788259840964082,-0.2444073293370406,-0.7181131272146425,0.4199764142160611,-0.8093756505243903,-2.6612571799880915,-1.3438182684773796,70.272003,-698.815979,-712.47998,1120.0,700.0,-3080.0
-1.0707793673528303,-0.0351607458653992,-0.2764142477344605,-1.5042737453551325,-0.2520445190724971,-0.3483898962968582,-0.5613775230838783,43.37530685901476,-1.2898210530834495,-1.2712737576080206,-1.514681350969561,-2.01468026150354,-2.108540158706424,-2.095465372891482,-3.311862871489508,-3.176555266523988,71.248001,-697.35199,-711.015991,840.0,700.0,-2800.0
-0.72111166494255,-0.7636733293661875,-1.682126230818446,-2.019246117011184,-1.2737293967451635,-1.3578266480516732,-1.4150831277625773,5.572627250494795,-1.5556258058095016,-1.3902336408529812,-1.212491351403745,-0.9398364737581838,-1.880845089945708,-0.9552991434626892,-0.2287958617940856,-1.160970939012926,72.223999,-697.35199,-712.47998,700.0,560.0,-2660.0
-0.2023783519060997,-1.4850777377762616,-1.8874240607433856,-0.7040575334729072,-1.814100945534124,-1.467699706789822,-1.296865612458602,-27.2776156100698,-0.5564763451613137,-0.7561031991187407,-1.0058589959902864,0.0634003689583705,-0.1092446631488893,0.5554444106948612,1.885989233591072,0.7691377573862334,72.223999,-695.888,-711.015991,280.0,560.0,-2380.0
-0.6301972285148473,-2.006550145453544,-1.270083414315572,0.9233530460037328,-2.1132311431285715,-1.290434336307538,-1.0204916760476572,-51.03906762064368,0.1673530165306151,-0.688624244112487,-0.987676281875825,-0.1530734290181415,0.9004911593029924,0.6972348655125983,0.838748283072306,0.301035927098077,73.200005,-697.840027,-713.944031,140.0,420.0,-2240.0
-0.9915344676862023,-1.1177268416878816,-0.2785613122259739,0.764965236306062,-0.9587419553415508,-0.5049249739214465,-0.3795769886610253,-45.97134041817135,-0.238555657856149,-0.7863767179424174,-0.0515315860499052,-0.3414710242204789,0.0760878535104316,-0.3380743892253202,-1.003385755504367,-0.5825671920860901,73.200005,-698.328003,-713.455994,140.0,420.0,-1960.0
0.0499472060927352,1.210733956807602,0.7439887966139427,-0.9249273434491198,1.768068567287338,1.0785354696438192,0.9131871225721048,-2.112402779346874,-0.9551475269427016,0.0084612369287909,1.6952544669159255,0.5762929882952372,-1.2841967310716316,-0.9792521841908358,-0.8338527569046259,0.414865019630849,73.688004,-696.376038,-716.384033,280.0,560.0,-1680.0
1.8685537892204025,3.0997005491444334,1.7578003148205827,-1.073689371633198,3.695456513402212,2.3756756614758974,2.041426201073229,48.47127070477965,-0.1243469978663571,1.716238019707066,2.610377468253682,1.6540098071131673,-0.7188514919134915,0.0020385455154954,0.8758220495647411,2.060039221415303,75.152,-697.35199,-720.776001,280.0,840.0,-1400.0
2.321891672945977,2.62111193258381,2.4498490633153804,1.7503832511067718,2.4033191096298063,1.8597033757957209,1.6749364328901664,57.69335094974106,2.452901600528161,2.8759772235230026,1.5053557244372573,1.2708541209031814,2.121660193073584,1.899728868147833,1.5993984987615943,1.4987216676371435,71.736,-697.840027,-722.728027,700.0,1120.0,-840.0
0.3509826137619509,-0.1908734078180946,1.56886444645579,3.852156746813869,-1.398181509300113,-0.5262800141171865,-0.3544982985774702,17.743636086911547,3.7045233899361816,1.6827111641869223,-1.0450755359468706,-0.5922705539614864,3.85953814379022,2.2790488255672634,0.2849065250429042,-1.320121353385274,72.223999,-695.400024,-721.264038,1120.0,1260.0,-560.0
-2.451381251099961,-3.249909795272059,-1.6636459447101974,0.7219750381529806,-4.182328391177475,-2.790729370178756,-2.411092182126732,-30.565039024962704,0.4861573571937392,-1.9065457632230625,-3.278341643497975,-2.21295804721865,0.9718958896969032,-0.3072849029073336,-1.5615942138122016,-3.218444313777363,74.664001,-695.888,-722.23999,1400.0,1400.0,-140.0
-3.231960361544466,-3.975361549681409,-5.017394335421496,-5.392000197661598,-3.192634055820621,-2.646855947419078,-2.4413394052718425,-46.28016101611504,-5.164774376762758,-4.99064637394642,-3.4178465990904745,-2.004967430876359,-4.7072404417643074,-3.723896030191729,-1.9105857104052613,-1.8356562264415053,73.688004,-695.888,-720.776001,1820.0,1260.0,420.0
-0.8923700683105422,-1.3232045599420017,-4.207437693974216,-6.453010099160888,0.6890386465434765,0.0030316487113987,-0.1797593742062068,-26.75313260116765,-6.597699937173823,-3.8149485000649177,-0.7396757090727818,-0.0729067657551392,-6.542430520578887,-3.805485048223921,-0.4135871503626098,1.4142430571410487,72.223999,-697.840027,-720.776001,2520.0,1680.0,700.0
2.473703620741807,2.9023059674472567,1.7038894522055934,0.7629832092852715,3.7834139718925854,2.62158538153424,2.2429717377459832,4.235212717963381,-0.5052865895326665,1.7537693569311406,3.3219132358704084,1.9759719748539424,-1.007456383177502,0.5575274941807375,1.4718999506600283,3.1311780273443093,72.711998,-698.815979,-719.312012,3220.0,1820.0,1120.0
3.521580918368635,4.950053660895779,7.234067645861151,8.596282965557906,3.253363070824484,2.58243162453146,2.3993331981153387,26.57065539880487,7.428620121341088,6.624049339795988,5.313591289733218,2.4554995100259425,6.7005625491487,5.093154426061408,2.0343653064758307,1.8371969947733588,70.760002,-699.791992,-721.752014,3640.0,1960.0,1400.0
1.1903521467049332,2.5097138768570346,5.749513703590033,7.12246398624097,-0.1047567169936375,0.138459090522787,0.3180014834211917,31.9525811695134,8.094302201872457,5.279845183929107,2.656949737997706,0.971430887746002,7.867863861037694,4.601217988805189,0.8404112265182684,-0.7747392096239917,66.368004,-699.304016,-721.264038,4200.0,2240.0,1680.0
-2.060120555130524,-2.405218749379621,-2.056555527094516,-2.718426241888793,-2.789000285811344,-1.853188030482325,-1.5269923288474487,17.80025602283068,0.1012904237860894,-1.5610380832200768,-2.9113554600285063,-1.255802548725306,0.7970360657795827,-0.6873418198380941,-0.9873964307016688,-2.1618780327536857,69.784004,-699.304016,-721.264038,4900.0,2380.0,1820.0
-2.941965833235892,-4.966647455571204,-7.857129786965223,-9.491421627774692,-2.3663989505422043,-1.4335143234025334,-1.2973563802590375,-9.61596169246152,-7.889385421903468,-6.915256954885463,-6.134144559169062,-2.387606981746313,-6.834705665410187,-5.093402482820994,-1.845953183963192,-1.5685980950963057,67.344002,-702.231995,-720.776001,5740.0,2520.0,1820.0
-0.970003137461106,-2.6687394793525114,-5.313058805894783,-5.5160993351407335,0.0285388067535646,0.1466971868221803,-0.0065887565018536,-30.81301153152453,-7.357585637140952,-5.229553638821899,-3.6978254590181145,-1.5511256721840951,-7.108828071644299,-4.174054107568735,-1.0997212501842917,-0.1432232268453749,67.344002,-699.791992,-718.824036,6440.0,3080.0,1540.0
1.2907958417207372,1.7931438668926316,2.2627591387450283,3.7565188210355127,1.395320491148168,0.4754590789428943,0.2320175008504286,-27.245927670239407,0.1793307981002534,1.2589318590786902,1.869963477470656,0.4021847940754791,-0.8115875961891117,0.3633209484413854,0.4278629496898654,0.825356485121067,66.856003,-698.328003,-717.359985,6720.0,3360.0,1540.0
1.5446208185591883,3.706628037552983,6.233284153752279,7.393285958924319,0.6541188166625613,-0.4711035987404164,-0.5579599530413498,-2.2191641597755654,5.9346760250109,5.435525149857086,5.056452248876065,1.7479494446214534,4.7065630422031575,3.451210044993513,1.3470152841255212,1.0674776336902394,64.903999,-700.280029,-716.384033,7280.0,3640.0,1260.0
0.3274700240257799,1.7731656112902134,3.2184716523232173,2.7113225447821847,-0.3574587785129615,-0.4842073866575884,-0.3695180373420981,21.17408807526773,4.8125936079897045,3.698966250864681,3.546276593044555,1.514243073981808,4.736991806870137,2.816802761116247,1.010009086679075,0.8912115268254386,65.391998,-696.864014,-713.455994,7700.0,3780.0,1120.0
-0.3178801878113629,-0.9910110181616588,-1.8135360323438905,-3.019049982200297,0.1245264262871086,1.1685043536994886,1.3291805431377337,24.796618162700675,0.1628159994636852,-0.696753173688745,-0.035088612513173,0.2324498298546311,1.3288421256205047,0.5137845660582758,-0.0564230278003421,0.3728530205471312,66.856003,-698.328003,-715.895996,7840.0,3360.0,840.0
0.1482275900408321,-1.5784630907198782,-2.9998577553216488,-3.3838211873714834,1.1538237917129324,2.1656020227309423,2.210134118580912,11.19532997682353,-2.321386337680871,-2.7110580889386795,-2.27070171025255,-0.8239480978050867,-1.2713158448206094,-0.8970120486840508,-0.8282520341806938,-0.5158113608240475,63.928001,-697.35199,-711.504028,7560.0,2800.0,560.0
0.3456904988312011,-0.4504433986872367,-0.6873556835090784,-0.2733833997056583,0.6306600050695454,0.4507536380243975,0.3661575223635771,-5.80417334423746,-1.7441020541507992,-1.5204620003152869,-2.6333171987280344,-0.9304506705310536,-1.929530943776124,-1.2819312964273477,-0.7261271731828096,-1.27634865750363,65.879997,-699.791992,-711.015991,7700.0,2240.0,280.0
-0.5575443909931534,0.1055800485586177,0.756752336888852,0.9399481662215948,-1.2792080647251642,-2.3174213228277587,-2.414949446360372,-16.677111096605323,-1.0199052420340806,-0.0248650696126383,-2.216076720196134,-0.3857749465600654,-1.994582391374341,-1.5248726608157233,0.014478994751758,-1.0663051622619624,67.344002,-696.376038,-711.015991,7140.0,1960.0,0.0
-1.3750595799088683,-0.4165434116025399,-0.2415843790259223,-0.4630122147599613,-2.072386474339317,-2.6331703694164346,-2.637564589808794,-18.14632267448108,-1.2613013932145811,-0.0122274255609991,-0.9704357348472497,0.0863081184653098,-1.7751218617422992,-1.278952934201352,0.6653510610470607,0.2124704423279072,65.391998,-698.815979,-711.992004,6860.0,1540.0,-140.0
-0.6546785978748965,-0.4956287576025785,-1.0550704946290757,-0.8551239546001955,-0.4800875022681563,-0.0035448390214808,0.0738344148586827,-8.702202083067608,-0.584568541555921,-0.270685668325082,1.580664077480967,0.1496094103675392,-0.2787831063491621,0.2068729649824827,0.6200413894705736,1.3960042792186822,66.368004,-698.328003,-711.504028,6720.0,1260.0,-140.0
1.0063391573991844,0.540434213112511,0.2787326820732966,1.1315983592445746,1.563725368994864,2.2549389255755043,2.30926348692912,8.3256498200133,1.7651665972554378,0.5600016093807789,3.85474870271014,0.0371446835409251,2.115329328871802,1.9913460130797755,-0.1478497071690681,1.1510468870268424,69.295998,-699.304016,-713.455994,6580.0,1120.0,0.0
1.5992410005036384,1.307832079561431,1.9835233567923536,2.4709932295989883,1.5690242282467295,1.5789347769190794,1.536379680995972,20.77250239477173,3.266167880381801,1.5387926792217774,3.128367956289128,0.1041211410700451,3.1315093154190565,2.077615181825602,-1.0284661179873926,-0.3863040883088281,70.760002,-699.791992,-716.872009,6440.0,1680.0,140.0
0.4451658288658244,0.5981391043944478,1.5051736674451652,0.7365725411554048,-0.074547008021877,-0.4978188633110621,-0.5880846609263148,16.634758141143994,1.5594189964808527,1.0206208405740953,-0.5949374895599413,0.3762324883091911,1.451278519935877,0.203450351882734,-1.1396405868553965,-1.5114133772156877,71.736,-700.280029,-720.776001,7000.0,1820.0,560.0
-0.899757518471966,-0.6466944866483575,-0.612833481574718,-2.013059203382598,-0.8815254852277381,-0.9449428288630928,-0.961989249945636,-1.3482257291822457,-1.813495720262821,-0.6072844245148123,-3.75562024040251,0.5495426198644807,-1.3335440923761932,-1.5258382666859016,0.0055586254964787,-0.8188369255198203,71.736,-703.208008,-719.799988,7280.0,1820.0,1400.0
-0.8377282434720007,-0.766356779320268,-1.7370365360535387,-2.2482679527161418,0.0046108336273435,0.3119192868639243,0.4098179903437353,-16.6048073698535,-3.1296421748519068,-1.4033675511259385,-3.3945329817792547,0.325159557492155,-2.5860442747372963,-1.359395556121998,1.8134695890488008,1.027035573787057,71.736,-702.720032,-724.192017,7700.0,1960.0,1960.0
0.154295931666109,0.0626227936982403,-0.9727940779871216,0.0005240038109933,0.7256456757665758,0.6895908985916077,0.7937279832962324,-16.57682168619762,-1.2834453161113517,-0.690741094682817,-0.5913094993656393,-0.3041237113669655,-1.6428998752763024,-0.0953618377344844,2.5788692333120684,1.848978040842736,70.760002,-702.720032,-725.16803,8960.0,2380.0,2520.0
0.4263788345895558,0.197767908153559,0.0758737746799565,1.5001539301906477,-0.2470881537018222,-0.7808279214285568,-0.8101886274524256,-4.863565968482223,1.0801320396472722,0.1605692279759628,1.5834929139283114,-0.9926837605358672,-0.0216769288444791,0.357011660222358,0.8068349105155493,0.4368802038381374,71.248001,-700.280029,-729.559998,9940.0,2660.0,3220.0
-0.3770243696629773,-0.7246347304615454,0.1838871639067047,0.577011801159784,-1.6420035101167585,-1.8765187938278567,-2.0260742337857724,6.460067744747057,1.3815177237616878,0.0283883164594394,2.1258439939741502,-1.1743866037330384,0.8710362887116786,-0.2179306003533146,-2.741534940269886,-1.8611305560831075,71.736,-694.911987,-730.536011,11620.0,3360.0,4060.0
-0.8618138470835031,-1.0155750258059837,0.1387646921039045,-0.8264846984584391,-1.2033686892510695,-0.598008014084584,-0.6931580030335336,10.999954881186833,0.269973522233157,-0.276846746623486,2.129023534667408,-0.4162081899735467,1.0895031747905972,-0.2923341205337749,-4.716012759029006,-2.438145288590739,73.688004,-693.447998,-730.536011,13860.0,4620.0,4620.0
0.0118190217438329,0.4684712856422586,0.8476099609091704,-0.3539600942546521,0.9571641593235964,1.7373182869681143,1.8239741583627649,10.069634955321716,-0.0094865251260231,0.4707463270378509,1.7124183625033575,1.0474810419438711,1.1827661118352553,0.8196722032948995,-2.2050226194371945,-0.3379767648472228,70.760002,-692.471985,-727.608032,15120.0,4900.0,5040.0
1.3452744619771602,2.2100476801898976,1.4280957528922278,1.3367418672668687,2.384035082302029,2.3133877907893967,2.489042499402033,5.2487206162990026,0.8469180560543452,1.6330083290362924,-0.3132300022337384,2.102129300536204,0.9768230159339398,1.7111758450586436,3.375842138809128,2.484634372875382,71.736,-689.05603,-726.632019,16240.0,5880.0,5600.0
1.4317875430429137,1.778422691091681,0.5240253464915205,1.6511791990176614,1.497461541708139,0.6324192240828417,0.6847360882218104,-3.4651499497562663,0.9523500919109033,1.322640242472367,-3.368903984743547,1.5033226053984332,-0.012397652561889,0.8207415571561061,6.610950010799742,3.0896512728585974,69.784004,-690.52002,-723.216003,17220.0,5880.0,6020.0
-0.0387796448579168,-0.8175219553410348,-1.331971041138013,-0.3156602863994432,-0.6181314296985797,-1.2221963830377487,-1.3597601007981022,-12.268832621963533,-0.7036649723503835,-0.8142303205169117,-4.349492802864548,-0.7261472166734929,-1.4519728746106575,-1.276803692752256,3.640794974347008,0.6563781359361285,69.784004,-689.05603,-720.776001,17640.0,5880.0,6160.0
-1.618890089491135,-2.876235557786914,-2.158004328851076,-2.614967782157747,-1.9469556314320444,-1.6818415682867889,-1.8412745085573416,-13.34608354055879,-2.5064356894940154,-2.694667374985176,-1.466368351470832,-2.7799074105114623,-2.2072459401362057,-2.446917995131014,-3.07058997187316,-2.577281242416473,72.711998,-687.104004,-714.919983,17360.0,5600.0,6300.0
-1.802787440954041,-2.223023740983025,-1.1004526108700012,-2.7675420603934207,-1.8101121360294048,-1.1981468314586738,-1.1879345170713242,-3.6491289548168937,-2.1678317503666364,-2.1744938188118974,2.901462360976628,-2.5241104441509883,-1.4633274286213729,-1.514585405715896,-7.001150867506855,-3.5300737473981467,68.32,-683.687988,-716.384033,16940.0,5320.0,6300.0
-0.4827783655590503,0.4089506584615464,0.7283125947142235,-0.2746753812258176,-0.7266799750069967,-0.4969235400845369,-0.3406039875070203,9.516047655370134,0.453758527893927,0.4501484730262162,4.926877205873454,0.2058967989709197,0.530238774124529,0.6374625228959119,-4.632742369376107,-1.2952338467391424,72.223999,-687.104004,-719.799988,16660.0,5040.0,6020.0
1.2520000886762563,2.5712513090464606,1.9632511612434589,3.099230169476724,0.8389575216755771,0.7248300386207052,0.8308070155118754,15.161959595402694,3.174828928330447,2.85891446579396,3.579479870609619,3.031313079342868,2.6461235767840297,2.3300679258708543,1.2089904101298243,2.0727813078366983,73.200005,-683.200012,-715.40802,16380.0,4620.0,5880.0
2.1222739064473606,2.6736470441799414,2.1496016375800493,4.590539960009798,2.329152140013101,2.3056820465852583,2.246499318599519,9.439717970592,3.5998503140897133,3.04144616291115,0.3851555180529217,3.186680060781238,3.354794401463556,2.523322938156585,5.27457714968626,3.5858762017458785,71.248001,-685.151978,-711.992004,15960.0,3920.0,5600.0
1.365897501448881,0.8067662446625143,1.001836172058893,2.17659538947151,2.3865993739030125,2.4114368378535698,2.281094244999554,-2.248658681053382,0.967975951370696,0.747142587129429,-3.427650122917312,0.3430773972879695,1.4184277050811958,0.969273363168782,5.224162158296055,2.0206626856272454,72.223999,-683.687988,-712.968018,15400.0,3360.0,5180.0
-0.7492901493389003,-1.901253586228644,-1.666582880731362,-3.3200448839306005,0.0640655717921575,-0.23954831509842,-0.2835809303366248,-11.71070208660253,-3.2397811122191764,-2.57635879756003,-6.633505628136018,-2.908326901871578,-2.6843179616558044,-1.8110829249970464,2.1004476336593614,-1.1719829546920857,72.223999,-683.687988,-709.552002,15260.0,2800.0,4900.0
-2.6049984929202434,-3.6102010068689614,-4.197549421246589,-7.30788208912188,-3.028555991277598,-3.522417677710547,-3.455849722232984,-13.5168953222603,-5.667304607340589,-4.383122775347778,-5.9901761045684,-3.503320747546906,-5.739554700888895,-3.973770875019672,-2.245425023864084,-3.2805104035623995,70.760002,-686.616028,-705.160034,14700.0,2380.0,4900.0
-2.1674057831522395,-2.3554786871220696,-3.1679090783419825,-4.641844234221402,-3.4834095050213203,-3.5007001870004424,-3.4272041565851583,-6.284253874359385,-3.1500673626381923,-2.4227275139500213,0.9823075227923136,-0.8410513658728669,-3.81346600779141,-2.9720684778051387,-5.712365830380775,-2.618615679930222,67.832001,-686.616028,-709.064026,14000.0,1680.0,4620.0
0.7241497989027702,1.7822179157948168,2.293237885216,4.073497829303341,-0.1460006297779977,0.5172359239690821,0.5229999883009869,6.33679924475424,3.5687824972527658,2.68382454181614,10.051860678399516,2.6322505299255043,2.981552016156626,1.5496490169377442,-5.400409369414295,0.1921633410106674,70.272003,-687.104004,-710.528015,13020.0,1120.0,4340.0
3.295162095481684,5.150630488678679,7.111778888844189,10.518978448513344,3.6490475629810137,4.284436694334146,4.252069898751241,15.2975180916813,8.418683366611196,6.347648769544466,11.597584070647136,3.679620159001811,8.458080345455592,5.744687309424001,-0.1997177114927591,2.800042069945305,70.760002,-693.447998,-714.432007,12600.0,420.0,4340.0
2.400974658745653,3.437254605828936,4.681513436070261,6.421898108046854,3.514606087138553,3.389810720825076,3.3746030931698443,11.935485105253408,5.11108845786038,3.805718387872583,1.547898141591571,1.2684348217460644,5.782847449914706,4.591712665073902,5.807985520320565,3.0189494645415915,69.784004,-692.960022,-714.919983,12320.0,140.0,4340.0
-1.4519648136855046,-2.6976512705524085,-4.178268857648366,-5.749662589932459,-0.5575427846326905,-1.2329106688471458,-1.233158682962589,-2.2448474497309063,-4.767103631340574,-3.6853265651486975,-11.525333793482837,-2.400692404056451,-3.9468433916594328,-1.942275555549284,6.274823399828969,0.6180843533169968,74.664001,-697.840027,-715.895996,12320.0,140.0,4620.0
-3.930120851269839,-6.752529030758463,-9.869870303543124,-13.105558936242426,-3.87059179662148,-4.289954110119269,-4.307029285088844,-14.256913340269625,-11.085753138591953,-8.349033801485493,-14.590893943535532,-3.849105582325309,-10.816660845210862,-7.330205481340803,0.6041169799197701,-2.3803970665654965,71.248001,-698.815979,-716.872009,12600.0,280.0,4900.0
-1.829434114328508,-3.4320787906478087,-4.731765703424499,-6.418968257867224,-2.644969799837136,-2.485186059855045,-2.511537990959969,-12.331821448694376,-5.784079214597639,-4.132386431559584,-4.685582540278349,-1.6171478308150111,-6.484386985896975,-5.18856580055232,-4.298804683306257,-3.2921965696479942,70.760002,-700.768005,-717.359985,12740.0,280.0,5320.0
2.621912216802999,4.213179274989886,6.500982995588008,7.81082785894572,1.44951934440188,1.7788923310952578,1.7862581904393042,0.7295414451474482,6.516635181483567,5.198263811854087,8.515959282519788,2.205565712563971,5.283293315174365,2.8033291453713205,-3.040215876492453,-1.1505385004524031,70.272003,-702.231995,-717.359985,13720.0,980.0,5740.0
4.078906872478315,7.477469776110731,11.0459010136196,13.62596344703621,3.555379162231406,3.6702103284209406,3.725808744826077,10.64514293728328,12.284059353153047,9.2575265961908,14.0990552783683,3.9210335748048655,11.70368584573804,7.990122107070949,0.7002599896799836,2.182646664092236,65.879997,-703.208008,-720.288025,14280.0,1540.0,6160.0
0.6746038512173723,2.3905810070303914,3.3838710486325816,4.41225729590196,1.5554548671559016,1.5747821964692186,1.6343104411872191,8.24671802826671,4.736974056265832,3.204309095290097,9.53664139519283,1.8891920035198608,5.589783166274234,4.588212131358834,0.1324664351693605,3.51019501262558,63.928001,-705.160034,-720.288025,15540.0,2380.0,7000.0
-3.50976708213902,-5.192389677877201,-7.694154370694805,-8.894581975745496,-1.8478973109166497,-1.7296137513027765,-1.7307410030745012,-1.0128201328724944,-7.5892147537238435,-6.075668691733849,-0.9228317847948594,-1.8408475714267665,-6.0117400168534925,-3.448224907051624,-3.4045882361699533,1.3840778023507294,66.368004,-706.135986,-718.335999,16520.0,3220.0,7560.0
-3.5043544345396422,-6.691434210269884,-9.768044118494071,-11.176676338342084,-2.8904534703958524,-2.8533644758048404,-2.93574207739909,-5.746209198230883,-10.901479975955317,-8.179092327462625,-11.397466784754606,-3.684519076235843,-10.25137160222331,-7.184888109411666,-1.9542008067324053,-2.2021506898928016,62.464001,-705.160034,-715.40802,17640.0,4340.0,8120.0
0.4381586561888105,-1.0943844597508854,-1.6227569616913926,-1.3627849622220067,-0.979879554763824,-1.2618393402314831,-1.3663952569642213,-2.798629057989866,-2.596373902491328,-1.6347444518030887,-15.37401916307534,-2.113259181623706,-3.6088905075533138,-3.1976666696271243,5.658635743380434,-3.605807030470469,64.416,-702.720032,-714.919983,18760.0,5460.0,8680.0
3.4990622524109902,4.624081256012492,6.521527339387436,7.63478826463403,1.4934270437208026,1.1023293208475728,1.083080978526076,1.3551270644984783,6.665627514454165,5.20985174433002,-7.790883748218242,1.1188017432445938,5.106870702344272,3.1626048449672863,9.501776863881783,-1.3240057363662163,63.928001,-702.720032,-708.575989,19600.0,6020.0,8960.0
2.460704179611723,4.650108923866721,6.4419870291203845,6.1848120606841634,2.32308608038417,2.2823111948780825,2.40079979658603,1.3169835496943274,7.06025594240702,5.243771985576136,7.888620070470537,3.0575772223781224,6.623805579034937,5.025465484883986,2.138815101101615,2.270819801024651,61.0,-701.744019,-712.47998,20300.0,6860.0,9100.0
-0.8354527207005781,0.5643405393821269,0.7416925616298854,-1.01989948108218,1.2502267231729327,1.6465220878010254,1.8083787019875743,-0.720814925759315,0.7663795067220158,0.5239717651933203,18.27692691464492,2.329238461112704,1.713192320628873,1.814778032343652,-9.267353990571234,3.407498429918608,61.487999,-702.231995,-708.575989,20860.0,7140.0,8960.0
-2.580879010570153,-2.4447176014394416,-3.0435214884625847,-3.702102571283649,-0.7323790713569527,-0.2924455767547457,-0.269119630030215,-0.4480689552513645,-3.407200484155123,-2.43614053245728,12.872845995886705,-0.1091287278340588,-2.3515618500336086,-1.7461043598298551,-11.520955680274056,1.0126245176218425,61.487999,-697.840027,-707.112,21280.0,7840.0,8820.0
-1.6315387670371884,-2.459965140498902,-2.6542867181440086,-0.4999275302957443,-2.310938330592112,-2.208030758781466,-2.3842632720873143,1.312044117347753,-2.3626590789484,-1.7491355418285806,-2.7993795292846646,-2.2420103687710484,-2.260163638423654,-2.3933319693597714,-2.848298644247364,-2.200982303506602,61.0,-701.744019,-702.231995,21420.0,7980.0,8400.0
0.2514793565273985,-1.3441099994947563,-1.491919346219137,1.2568485046592135,-2.1306264466762217,-2.4004020625404685,-2.597545554482969,0.7625084573808868,-0.5613573302352703,-0.7545683251631393,-13.413405720516009,-2.545463010318855,-1.0679211336295729,-1.2155256207612664,6.329895136867201,-2.8536179335595127,59.535999,-699.304016,-701.255981,21280.0,8120.0,7980.0
1.4288615957969537,-0.2962409534820487,-1.264660172330266,-1.686221619117326,0.2540800312951694,-0.2039563912909635,-0.1826155571575718,-1.7513787967739267,-1.044313837329404,-1.1672986545727406,-12.356770593476536,-0.8199010406918842,-1.2567676159415464,-0.2518279159038893,8.815055748761718,-0.5511236961501077,57.584,-698.815979,-700.768005,20860.0,7700.0,7140.0
1.676056602622982,1.3864443660744346,0.2759334412708487,-3.420602062684684,3.017949373624626,2.641660625906212,2.8742295448875925,-1.730975263514625,-0.8821659107715121,-0.5229789005052042,-6.080601623864412,1.6373432749005186,-0.7650582235344567,0.5721677804896045,7.259911391246489,1.9988368906591447,59.048,-694.911987,-699.791992,20580.0,7560.0,6720.0
0.9390572853945188,3.082580696577081,3.586438259870467,0.9684141797025184,3.0102256930158124,3.069008609311831,3.2332525425098617,1.9501448372073176,2.3247104241985923,2.390349672993834,0.0303881223219442,2.710217904044657,2.084415763503184,1.7318990008866266,3.983156505727168,2.1590623874784085,61.487999,-697.35199,-702.231995,20300.0,6580.0,5740.0
-0.9357768668882406,2.089703437122317,4.349745800166277,6.223041250814706,-0.558721663681261,0.0871405117758902,-0.0234341659288014,4.053162881362788,4.576526166932815,3.8453460049127184,8.630617121533092,1.2143226260925355,3.9447122852368506,1.788566712294701,-4.500885710725038,0.0453905112604574,61.0,-699.791992,-703.695984,20020.0,6020.0,4900.0
-2.683834152620512,-1.9824364255434432,-0.3489456286878811,3.836674011109829,-4.130854454112923,-3.391412539236084,-3.629192037685902,0.3076104444543553,1.020591032600609,0.3990507477733939,18.127177612484555,-1.5644472578663615,0.951459592168224,-0.5395181808072079,-16.11281897550159,-1.9333056671097568,64.903999,-698.328003,-702.720032,19740.0,5460.0,4620.0
-1.9229094741855064,-4.725264182376494,-5.8658334902121005,-4.515636900250938,-3.3160579974305127,-3.3445492193327584,-3.394226178441741,-5.268927448716295,-5.129396730023217,-4.579406817267589,15.696464624754372,-2.7201905482352005,-4.10781099510196,-3.044636284368865,-16.76798975096864,-1.701279136061658,64.416,-693.447998,-705.160034,19040.0,4480.0,4200.0
1.5093287815618095,-1.994490964317671,-4.811418762351527,-7.752637698190719,1.508041524640361,0.5649162643491574,0.7592548848657368,-4.815923835726168,-5.355445156082672,-4.242676376526748,-4.956853451838959,-0.853889269542196,-4.238751486991292,-1.9540066418244888,2.024823419447157,0.4762069286787578,65.879997,-695.888,-709.552002,18620.0,4340.0,3920.0
3.974736966699232,3.6553971509078464,2.455465636555317,-0.796718982947931,4.947489650646582,4.10646731896845,4.264058550071853,2.199261199938888,1.858860813321683,1.8904004192570552,-26.39380458666957,1.992966186620837,1.6243890791020736,2.313967915023044,24.37218559022329,2.3002725031943765,66.856003,-694.424011,-709.552002,18620.0,4060.0,3780.0
2.0050618946931515,5.199111972971443,6.985529707380157,7.3676187490841745,2.908012991811571,3.180337364915036,3.0784598894762927,7.058247076274526,7.28751916569246,6.02942524941855,-24.28216342204705,2.461246016803273,5.789787836110322,4.32996268482015,24.2591741935936,1.6784818196225837,72.223999,-692.960022,-711.504028,18620.0,3920.0,3780.0
-2.658364214155652,0.3190447726390493,2.7422479146029226,5.5956713502714965,-2.2936295021044595,-1.2964431251991524,-1.5072871709681894,3.0928074170394493,3.0251082543051275,2.293327329273001,0.0702597958015548,-0.0476948920867012,1.983188520524098,0.599610126973048,-0.4678486494042412,-1.0279504135508986,71.736,-694.911987,-712.968018,18200.0,3920.0,3920.0
-4.48523031853718,-5.008963832282916,-4.950657938387438,-3.747720138882697,-4.774959543052328,-4.362789673075945,-4.375340487158294,-4.842813140822106,-5.8585560893631285,-4.751593673499475,20.532368083002336,-2.477999431445334,-5.228857564327548,-4.799802864733589,-23.168792630900665,-3.019029538420656,68.807999,-692.471985,-712.968018,18340.0,4200.0,4340.0
-1.149341568755839,-4.138296828670128,-6.199985269125725,-7.813365705499355,-2.219356510774737,-2.7677342290186657,-2.558817721218959,-6.370511423800964,-7.38678013971801,-5.778081091968878,21.232649796645195,-1.87192475895007,-5.940744626793986,-4.7232683171483005,-22.32916081751812,-1.8744525360751367,68.807999,-693.447998,-716.384033,18480.0,4340.0,4620.0
3.257708903762353,1.5457442742769092,0.3294477818837898,-1.1133558885761663,1.9405165756585128,1.4873064221615542,1.6249032790001716,0.4903049538990476,0.9507751016942184,0.6658365109491318,12.195137149633831,0.9097725990946168,1.42541317101791,1.4521776257825862,-5.862900384999626,1.4924674740304038,68.807999,-692.471985,-717.359985,18620.0,4620.0,5180.0
3.542085859885847,4.771618420598442,5.930419438029053,6.980151871693086,3.4532727465988744,3.856777432511312,3.733452991754465,6.548488515198836,8.352473783876844,6.136093520231149,3.7091164153164473,2.3909307669938413,7.454351472335394,6.324377428592488,7.306535117741937,3.455570297427332,68.32,-694.424011,-715.895996,18620.0,5180.0,5740.0
0.062896335058691,2.1455639332327,3.797036769799989,5.534781152374291,1.9936346044567168,2.420600725740426,2.212105826306039,3.839308915165225,5.199131767366041,3.790577184597198,-11.877589561054352,1.0100112752464794,4.298468574067714,3.839434957544885,14.446983841650852,1.8019300096166009,68.32,-694.911987,-716.872009,19040.0,5320.0,6300.0
-2.393857693307466,-2.07359058135198,-2.349728650068051,-2.9596602482455503,-0.0944120793127684,-0.7312940152592942,-0.7467494567133841,-3.8015708945683127,-4.103789043517529,-2.668524932228109,-34.9295230334324,-1.103227655699112,-3.827009697258047,-2.8299621451375523,21.03304461625748,-1.5080888063785205,64.416,-696.376038,-714.919983,19180.0,5880.0,7000.0
-1.4459778649298218,-2.6807228041448203,-4.364353379831788,-6.857103438223864,-1.606831280320088,-2.6315276766714386,-2.462677891420197,-6.354994376320797,-7.568801027434508,-4.777870224461874,-36.509322695550985,-1.3316185252716513,-6.664390352043524,-5.600271442222274,17.853159626055515,-2.7525323373684265,66.368004,-697.35199,-713.455994,19180.0,6160.0,7420.0
0.3308493486151018,-0.3711127232641076,-0.935218470574681,-1.8524291767664147,-2.6946467554621605,-2.385819030193647,-2.283517538865706,-1.1650196078736434,-1.8345164166519976,-0.994387713241468,5.696751149812417,-0.0730374811631777,-1.6690409336216363,-1.99348383890601,-7.747964979873042,-1.1219015438651712,62.464001,-698.815979,-712.47998,19180.0,6300.0,7840.0
0.1765666839320457,0.6801552588577764,1.943718886821696,4.099193229557377,-2.4890926911323974,-0.8311378850855807,-0.9077778873497444,4.401263793882433,4.452680932954151,2.308916851980168,58.021541062755006,0.3444184434054475,3.627682844328734,2.452674606373101,-39.13576153369125,0.6419680049926715,64.416,-698.815979,-709.064026,19180.0,6440.0,8120.0
-0.6676666487182776,-0.3368561768993248,0.6987765830481664,3.301420241756364,0.2948859917302171,1.1235610053338354,1.030998703833786,3.8974891921069887,3.631469259266544,0.9618706853690008,57.62436563951615,-0.5503152600891336,2.9352625115839306,2.4914897284903774,-38.095730193282414,0.4891911595892667,62.464001,-701.744019,-706.624023,19320.0,6860.0,8400.0
0.3230692769492017,-0.3098139448346765,-1.019857161146553,-1.097555205560619,3.989207141481876,2.655656554641192,2.6991444074698414,-0.0069115662053459,-0.9846981084556516,-1.2843099664939408,-3.158301686131692,-0.6791283300817965,-0.6554206603863316,-0.0458107705052892,3.330260466539423,-0.0595580609282139,62.464001,-703.208008,-704.671997,19180.0,6720.0,8400.0
2.194432158931844,1.877016111498029,0.8281741368340418,-1.487425523471409,4.28378968175583,2.513104348824785,2.590880198364878,-1.1849041202654198,-1.678552851727933,0.4259252520790514,-57.99508843043122,1.0865127196995532,-0.757567424977556,-0.2221624466296484,43.402458768944506,1.203318139795421,62.464001,-707.600037,-700.768005,19320.0,6720.0,8400.0
1.6716733206388832,2.8428623213808253,3.4446838280045853,1.8490085906749123,-0.2048008779425445,0.0827078814980575,0.0187573577307256,0.2235925260045252,1.6277915464774295,3.679121063832236,-52.55974255934011,2.5830550318176657,2.121953941973542,1.9399075089277,41.826549351197805,2.876424978807113,64.903999,-708.088013,-700.280029,19180.0,6860.0,8120.0
-1.4380392043351744,-0.1129058460846801,1.2542901760055765,1.7096557744819227,-4.8252131159241625,-2.943494568762746,-3.0882014781577856,-0.8706804736664597,2.0072927901242457,2.105183094629506,-11.731327678268611,1.0820162235663884,1.7455246385429397,1.5720740481154891,9.519136349343524,1.3079816018593082,60.024002,-709.552002,-699.304016,18760.0,7000.0,7980.0
-3.2800713046630223,-4.100505257134322,-4.60617245493482,-3.572513443227707,-4.088347672739172,-3.5016284021839934,-3.490237162787488,-4.710301586288447,-2.801649313735365,-4.21832904552504,13.531383675557414,-2.4794006248876963,-3.400193544802924,-2.9328044521363243,-17.350468646368668,-3.5136870173858914,61.487999,-708.575989,-698.815979,18760.0,7000.0,7560.0
-1.3277029453167692,-3.8902415390623286,-6.257623442762423,-6.058984313577288,1.0548583106874154,-0.6217855384668999,-0.407553016239197,-4.570903356313035,-5.889278748806853,-7.173746970304502,28.412897358252497,-3.978007357008737,-6.453762752483756,-6.109251373934465,-32.08758554183044,-6.215581401031679,63.928001,-706.624023,-697.35199,18340.0,6860.0,7280.0
