Ch 1,Ch 2,Ch 3,Ch 4,Ch 5,Ch 6,Ch 7,Ch 8,Ch 9,Ch 10,Ch 11,Ch 12,Ch 13,Ch 14,Ch 15,Ch 16,Ch 17,Ch 18,Ch 19,Ch 20,Ch 21,Ch 22
-2.7098240179964685,-3.64746089286336,-4.472821298139098,-2.413091213413691,-3.926488113112861,-3.3428968100829985,-3.341247308038841,-3.262323460398357,-4.224210936267395,-4.432931222392108,-2.793019014991692,-3.485969953857206,-4.451594337513313,-3.3334915020811624,-3.373509457834326,-3.538889567168394,74.664001,-709.552002,-699.791992,1540.0,-980.0,-1120.0
-27603.007456398394,36772.85123131473,27920.15848624488,-32243.47876748755,-18827.262077852072,-36081.415957903584,13410.11725318995,41903.83313624599,33880.62541512357,4129.450236756987,20028.596075817564,1571.7873550613974,16705.08738664603,-4383.587792178223,8644.519060935238,-31053.38926076821,73.688004,-709.552002,-700.280029,1540.0,-980.0,-1260.0
-24683.037778431422,32910.22781516058,24978.9597924093,-28839.49633825148,-16831.07469340288,-32713.539365957768,12185.597733706732,37496.96146691418,30331.649615154336,3698.552276232818,17942.397582726997,1421.573253898168,14965.22976328978,-3921.492863588608,7718.192484379361,-27792.74742736697,73.688004,-709.552002,-700.280029,1540.0,-840.0,-980.0
3529.9983242389126,-4660.33021157396,-3553.402747548751,4113.300220415964,2414.3427008105423,3873.4336125513314,-1396.117477223006,-5318.717700585683,-4278.136344324983,-520.5359695209568,-2508.995126230378,-176.24154885704934,-2093.874245577942,557.1680522373528,-1126.5274535429962,3931.333758057484,63.928001,-731.512024,-673.927979,140.0,-3640.0,4340.0
24436.798503542657,-32546.38261949364,-24713.123986094022,28545.614193551035,16669.263653420843,31853.058343569686,-11830.218419446852,-37088.41348830599,-29984.951687853674,-3653.54773378934,-17721.354950544304,-1387.57784143789,-14781.54648410245,3882.59716877848,-7653.07566421352,27487.793538639544,61.976002,-731.023987,-677.343994,140.0,-3780.0,4060.0
17685.12482358117,-23607.68047734988,-17903.49403542007,20673.364943528846,12056.1351744002,24100.12346489131,-9008.005425269152,-26891.28630696773,-21771.444102439644,-2650.9995607811816,-12894.363406003598,-1036.349640460788,-10752.542239512972,2817.6768445078296,-5504.95357664949,19950.48736066771,63.440002,-732.976013,-674.416016,0.0,-3780.0,4060.0
-4322.153551245652,5701.204330493775,4352.300783314098,-5036.144656649952,-2956.078914714641,-4572.740390366598,1638.740404187149,6507.496784324224,5231.087047361303,639.3967236256026,3062.2436687633062,213.06764954577864,2558.3626215772338,-680.1418704309286,1386.6031483472748,-4804.81629171846,63.440002,-735.416016,-674.416016,-140.0,-3920.0,3920.0
-16357.47835698936,21789.7060015844,16542.25879847895,-19114.238752944337,-11158.105186612442,-21498.78997067328,7988.796749834299,24828.19598915268,20079.30863933446,2445.0872467659883,11867.854866282698,932.9962248535116,9900.48277839128,-2604.2636826023027,5113.12896431389,-18411.90948260156,65.391998,-733.463989,-679.296021,-280.0,-3640.0,3780.0
-10253.736055046253,13713.902414343214,10385.798830493148,-11996.385591065691,-6987.561909460888,-14617.638126866752,5491.813900432296,15614.981885761425,12660.357450686235,1537.6353633277324,7513.095046700618,617.7200601705224,6263.053339793035,-1642.0214272835149,3166.762427044393,-11603.76324122282,64.903999,-732.0,-675.392029,-280.0,-3640.0,3640.0
1765.1136844780904,-2305.312837000248,-1772.1439817090454,2054.387083923167,1209.9834206917017,1391.9456087800666,-465.824215886334,-2635.2203461067074,-2106.787347979656,-260.373201904836,-1217.7096613325027,-74.34156615752845,-1021.847228170716,275.44713237206963,-581.476867495328,1938.2518652224344,63.440002,-731.512024,-679.296021,-280.0,-3640.0,3640.0
6964.74420477423,-9286.296183983955,-7045.744671903275,8147.857234797127,4750.748116481435,9417.627080092496,-3507.215132916255,-10577.64272561064,-8564.266310382578,-1041.8712596436826,-5063.721473335132,-404.3710447126172,-4226.671410220709,1115.6869937561116,-2164.493320755797,7857.5020707399935,63.928001,-735.903992,-675.392029,-140.0,-3640.0,3500.0
5161.99859362352,-6916.664426820094,-5229.575036929196,6044.913643751905,3517.3958111256165,7720.111972918435,-2913.327780183285,-7872.062373059602,-6392.384531915881,-773.2037903653869,-3801.404614268828,-319.2476157683168,-3167.4962786433803,832.4798628188744,-1578.966027681248,5862.3655846554175,63.928001,-734.927979,-674.416016,-280.0,-3640.0,3500.0
2285.339284731218,-3066.231240692207,-2313.654820952604,2669.3912117981927,1556.26909652627,3489.6689842777205,-1324.755768806289,-3490.5782158288453,-2832.6365580757706,-340.3363363028059,-1692.2341950963955,-142.0185725530486,-1404.685948334124,365.26171676090166,-698.4820856154004,2594.809679695356,62.464001,-731.512024,-673.927979,-280.0,-3780.0,3640.0
110.49206705288113,-138.1202995064315,-107.64512847365488,117.13538087091278,74.7793990098925,-108.77937777575934,45.79547418568106,-161.37997824629446,-119.66219477898252,-14.43639995236621,-70.95589579109868,1.0000808496728848,-54.940476610555976,9.469764720327689,-46.7547856839218,105.0937829082188,64.416,-733.952026,-672.952026,-560.0,-3640.0,3500.0
-2828.786421497892,3781.619217270076,2860.632971571916,-3311.3768698399813,-1929.8947573727824,-4128.10912797487,1549.1979653135809,4305.104210370053,3492.1684618045965,420.9449410119868,2073.391693828756,170.09444335399658,1727.431961068818,-457.5892051491121,866.2588587628336,-3207.148589750127,63.928001,-735.903992,-672.952026,-700.0,-3640.0,3500.0
-5102.280907583695,6797.238443691665,5152.867321737218,-5955.878622993536,-3480.3031252671312,-6841.989618050841,2549.9245439929014,7745.433551775666,6262.8509009513655,757.1670928914657,3709.933186108565,291.25928975091404,3088.3867844827205,-812.1716066946323,1587.980889524901,-5745.673996358074,62.464001,-732.976013,-676.367981,-700.0,-3780.0,3640.0
-3308.4562562605934,4407.098208291646,3342.331134299738,-3858.2466586007818,-2254.6747190492133,-4365.077218669907,1628.8560945282568,5022.992922833796,4059.309764282611,491.908171170488,2404.949259640304,188.3250266996628,2001.3967209339985,-522.2417932455166,1034.632828121293,-3719.967528363084,63.928001,-734.927979,-671.976013,-560.0,-3500.0,3640.0
1845.218715773164,-2447.1189322673645,-1858.203173787612,2155.8907303655974,1261.844601362921,2344.1913416409807,-860.059446810742,-2789.0715759476952,-2251.8026298234927,-271.2813658573392,-1327.2590887980923,-100.09622731831196,-1106.5995808984765,297.4985646881309,-574.7390427589334,2072.590798578993,62.464001,-733.463989,-670.023987,-560.0,-3500.0,3780.0
5155.809447751323,-6859.365079364628,-5202.642296356281,6019.861106141127,3517.5721053443503,6814.060323680212,-2531.005330185139,-7816.648571531083,-6318.5907951314575,-763.3395710962876,-3737.0044362296576,-291.3162635373123,-3112.9268006818875,822.5613055229929,-1604.555121256131,5801.633425455487,65.879997,-735.416016,-671.0,140.0,-3220.0,3780.0
3450.100933259981,-4606.5639992882925,-3487.998718889932,4029.887092661226,2350.227783049732,4842.193243571892,-1818.25374271049,-5247.252046685652,-4250.297921841985,-513.7678677112706,-2522.403339962694,-204.136796594668,-2100.246199970382,549.1543659710808,-1066.6620141981878,3897.2568716705728,61.976002,-734.440002,-675.880005,560.0,-2940.0,3780.0
-696.8066645315007,906.776336621329,694.0270786883834,-812.7611405124203,-479.0307992710884,-621.0054636587143,208.5093127282152,1035.4898552922878,827.9556907477772,98.8329927470037,478.9620552417956,29.6732924868508,400.3383224945892,-113.7425960837666,222.2864085405993,-768.175336698671,63.440002,-731.023987,-674.903992,0.0,-2660.0,3920.0
-2957.92721150454,3933.146847983289,2981.603654375746,-3456.576836715427,-2018.0646084329487,-3981.7467213520654,1479.06557924424,4481.158373499198,3624.9316794536016,436.0158867167623,2142.2640886132463,168.73113819447562,1785.4837688578662,-475.2782049695277,913.8858535637108,-3333.23079369684,66.368004,-728.096008,-673.440002,-280.0,-3080.0,3920.0
-2402.224591235258,3214.7081653783644,2430.499583468368,-2808.633218253545,-1635.8804638739946,-3550.898685183064,1340.754849212129,3660.3652299310047,2970.88889591166,358.5193417093253,1766.128502506956,146.66327852089142,1471.1995713608326,-383.9706445228301,735.7195986838691,-2724.68082493698,64.903999,-730.536011,-673.440002,-1540.0,-2940.0,3780.0
-953.5039820119298,1288.013177936281,972.2322651495406,-1112.8800544374678,-647.8533326082807,-1497.2418790697354,575.1151569060764,1466.2178825524018,1192.7086283191084,146.50861978999887,715.5364097270302,61.2162939602759,595.0786859288023,-148.1656016480367,295.1746341021259,-1085.9407841136976,64.903999,-732.0,-676.856018,-2100.0,-2660.0,3640.0
251.91349569585125,-333.0331149700004,-250.1846957022757,298.26475680453245,172.2163219277371,447.7735943474197,-167.04622131510553,-378.5088899802458,-309.9620044722514,-34.71509071272936,-180.8771057815308,-16.898461144155313,-152.15473909622577,44.926093356941806,-68.53178326624328,291.2930885707249,65.391998,-731.023987,-674.903992,-1820.0,-2800.0,3920.0
1496.6149888396335,-2003.4799821708848,-1515.0880545920045,1749.7541164818224,1019.856714008261,2214.3369517049887,-835.5009976630099,-2281.541140877108,-1852.4771322270365,-224.2324344524212,-1100.4102642338626,-90.959839512218,-917.7546686012604,238.6416035294544,-458.59839448957234,1698.867857285475,66.856003,-729.072021,-675.880005,-2240.0,-2940.0,3500.0
2344.2855739058373,-3130.851284132169,-2373.1093799829987,2735.2604190834927,1597.9287483805786,3187.3361942243127,-1193.7520403378858,-3567.1786019182373,-2886.76970588376,-351.81632359395365,-1713.756176535029,-135.04653596683374,-1427.306394685757,369.3782428905707,-732.9200999615861,2642.8294204197464,68.32,-730.536011,-679.783997,-2380.0,-3220.0,3640.0
1474.7489353871315,-1965.468912982824,-1490.954359724457,1719.3109423436356,1004.8814205348194,1917.156462972261,-714.75995128526,-2239.461840456481,-1808.7606520122915,-220.16607874284057,-1074.06864287321,-82.73335401578358,-892.9686329902775,232.1018604381166,-464.6589298569794,1655.59305999837,65.391998,-728.096008,-677.343994,-2100.0,-3080.0,3500.0
-945.8902023298338,1261.2170308092266,957.159458292191,-1104.294152756429,-645.9736737021112,-1260.9977615040218,468.72005018857845,1437.6203455058162,1163.492460388382,142.25792036560003,687.1787230761707,53.43177910237067,574.3055278867556,-149.3034571371098,295.3539590234877,-1066.9955154122315,64.416,-727.608032,-678.320007,-1680.0,-2940.0,3640.0
-2631.852036949928,3506.444810947712,2659.251301392213,-3071.594789401603,-1794.8284800671852,-3491.167611530024,1299.792140863229,3995.198198675895,3230.464596807449,392.5892607315523,1913.7851180024736,148.87418030596848,1594.5320979687044,-416.7075393485847,822.8213705607764,-2961.8727314761027,66.856003,-730.536011,-673.927979,-1540.0,-2940.0,3640.0
-1860.905978900418,2481.222362614582,1878.59131096141,-2172.9975047735834,-1267.6493658450224,-2569.6329084442605,962.3153946967047,2825.617258666304,2287.1532885787587,275.98018633557507,1358.9018081291083,108.07876648541618,1130.458384730351,-296.4400982439771,577.1794443855389,-2097.831170489117,68.32,-730.536011,-679.296021,-1400.0,-2940.0,3500.0
359.8408871153413,-475.4050855087719,-364.2272026573451,419.4136884850659,247.07818914642283,343.8386855576624,-119.7494259161593,-542.9846483472513,-435.5854253025124,-54.84910345040414,-252.9927383272529,-16.902532839460143,-212.7471243132323,55.68445396098463,-117.914505676843,399.2692958040353,64.416,-730.048035,-675.880005,-1400.0,-3080.0,3500.0
1738.4734178721217,-2314.56949408269,-1754.5953635717406,2031.201641960572,1185.9956083713046,2324.6959776120584,-864.1294866631198,-2636.5052950361783,-2132.6256015262065,-258.36718505588885,-1262.627502556641,-99.0159937339079,-1052.6451614970804,276.9045213196309,-541.5680474156553,1957.351033641146,65.391998,-731.512024,-679.296021,-1120.0,-3360.0,3360.0
1454.411029513928,-1939.888877784292,-1466.1099896475928,1700.2596971871565,990.83977188988,2109.279158134449,-793.0767170906073,-2208.4131662915183,-1791.157002286912,-214.4538313713391,-1065.439233847005,-86.52064045521736,-886.7249538953369,233.466670196288,-445.4966178336779,1645.4948894214635,67.832001,-729.072021,-677.832031,-840.0,-3360.0,3780.0
456.4714173739546,-609.9749223306119,-458.8144486515464,531.5455248334181,309.6009652186011,740.0092006025982,-283.62310779950656,-694.211549711843,-565.0994371284186,-66.23626215499085,-339.32339964047884,-28.01994952926804,-280.8937483173256,73.34417217260737,-135.74648210177952,520.0021828579867,64.416,-729.559998,-678.320007,-840.0,-3220.0,3500.0
-351.5139926115439,468.5678498695005,353.9922888951595,-415.27011061683726,-241.4025536801164,-518.2035442991889,192.13382783090125,533.1787179729694,433.4569481582385,51.70466726398266,256.12714416250685,21.839045264724835,214.792135999802,-57.97070036827651,107.39117960545082,-399.3305899608328,65.879997,-732.0,-673.440002,-420.0,-3080.0,3500.0
-929.8869764839112,1236.9515515411747,933.8214541336472,-1087.627939525309,-634.696614391237,-1373.1401687124014,515.4024138868934,1408.66653351924,1143.8836996629027,135.3658953671371,679.9004450832191,54.385543985107,566.3191336845676,-150.39805876389286,281.7401492472072,-1054.4585388739924,66.856003,-732.0,-679.783997,-560.0,-3360.0,3500.0
-1216.6409445875472,1615.3862691567435,1222.3902658473603,-1415.0743036091335,-827.5485576861882,-1674.3172157361223,626.7721313145255,1840.3418529358564,1489.486514393471,178.14517946578118,884.6160909668941,67.27153497482198,735.284059867949,-193.3791725638554,373.4511904709542,-1370.8729418560915,64.903999,-731.512024,-674.903992,-980.0,-3360.0,3360.0
-712.5920263354697,947.8466314998165,719.1697509549712,-824.3258915961019,-481.68435525798776,-913.460436510784,342.374159621244,1079.236410542482,870.4324219276373,106.53849354945034,517.1620587812877,38.90875309091724,429.0078156171822,-110.5417174350052,223.1173549354879,-796.8230708472915,66.856003,-730.536011,-675.880005,-840.0,-3640.0,3360.0
549.2155416464109,-722.4827585497868,-545.9426656454988,641.2697877291808,376.5976060067932,756.947778695914,-278.9042452077616,-824.2309243592216,-668.0073534258274,-77.46007546424751,-394.5302155005187,-28.119376881290147,-328.92534548466733,89.86829659151682,-165.28658277806065,621.0145257059636,65.879997,-731.023987,-675.880005,-560.0,-3500.0,3360.0
1477.631330367746,-1955.7628121497808,-1480.9161720003603,1715.5910279561642,1003.6601690152144,1961.3410899055425,-729.6947725420315,-2227.655633141296,-1800.5666902801106,-215.8053246242764,-1067.0174367732382,-79.21444111246174,-887.43541753743,234.5144667397807,-454.5070807641685,1658.972721420133,69.784004,-732.0,-674.416016,-280.0,-3080.0,3360.0
1089.435444996879,-1450.397897246091,-1098.1304462960038,1262.7151870227983,735.8342916633558,1477.566454175386,-555.864772738785,-1649.6497770977978,-1333.630213126287,-162.6278647560811,-793.2617798542475,-62.44761678398169,-659.2189553288341,170.08494715040388,-337.60829071676284,1221.479197779765,65.879997,-732.0,-671.488037,-140.0,-2520.0,3500.0
-204.05209351293385,257.0405411631139,194.89769903647692,-236.0048733123867,-140.99299791388617,-207.0342182229824,69.07424095914867,294.7267798448684,236.77862860347332,25.685395307775945,136.30717896785688,5.267602938963469,114.03523890893187,-35.085245086573245,59.72994957087763,-226.88405773100908,66.368004,-728.583984,-676.856018,140.0,-2660.0,3500.0
-1096.8028430338138,1444.94993154028,1093.0640798043637,-1268.0569855891297,-741.0536342344137,-1445.8723910704855,537.1855964724666,1644.0888382594997,1328.5637314446992,159.19675222454146,786.6301799555122,57.5282163168956,654.8078800068996,-173.6069746785364,334.70307743715165,-1226.1848198260975,67.344002,-741.272034,-673.440002,0.0,-2240.0,3640.0
-941.2963001806776,1252.7420169628,946.389288621266,-1089.2525933109746,-633.7310168589854,-1330.2086407925494,502.6866657574284,1423.0076398917802,1152.3776059213626,140.03461433303514,686.9752761817289,55.427092777638336,571.2612660261229,-146.22355681896997,288.8035753052231,-1055.8136729624832,66.856003,-729.559998,-673.927979,-140.0,-2240.0,3500.0
-225.62605396260776,314.6408472976342,237.5338189341828,-266.95741676353794,-154.5897178523836,-386.3783934231263,151.1083733775785,357.3938928858576,291.0049937936707,36.09838910904181,177.47350737662825,18.24742407598595,146.16704994593522,-33.746278321429,72.52370336248863,-260.6671780913143,66.856003,-730.536011,-672.463989,420.0,-2240.0,3500.0
353.4982178250623,-455.05008466229447,-342.1893412897257,399.4333138475554,231.91918798888275,471.1823302763676,-175.4310621816307,-514.7220024171405,-416.7942245063584,-50.05583363296948,-245.89698840031696,-17.036026735758448,-206.407212682323,54.58990614121061,-102.84055676576084,387.11419813801945,70.272003,-733.952026,-673.927979,420.0,-1820.0,3640.0
624.7614216919865,-826.4344995536946,-622.2303541267535,719.816671249468,419.8716970134415,903.0295675375244,-340.04197066724214,-937.5857190355712,-759.9727195333852,-90.31621196834422,-454.0677263828457,-35.553314191602624,-377.2081618553559,96.39826585920596,-188.22347903600087,700.1699102455196,68.807999,-730.048035,-672.952026,0.0,-1260.0,3500.0
645.9522004950503,-866.940943402573,-655.2023896577947,757.26214207462,445.0123387477686,914.9584486965896,-342.0065075091491,-988.32814984811,-798.8248236975048,-93.38412044987966,-478.4990527954317,-37.418200179491954,-393.96535434076895,102.54896725778724,-200.75089281630324,735.8157228248467,67.832001,-729.072021,-670.023987,0.0,-840.0,3500.0
309.12821700314805,-426.5893999757899,-325.4908346289732,372.8796803689481,219.8290545171552,413.0180679458168,-154.25623033288392,-490.0962185646256,-394.2293469402987,-47.02172481180322,-235.94838007444164,-19.543840692012186,-192.50951717881688,51.63208770540698,-102.45413693450134,359.79440978810845,68.807999,-730.048035,-676.856018,560.0,-560.0,3500.0
-353.68691728115994,455.7585235549354,340.6528108885541,-403.6128252123789,-239.49035850222808,-491.1944100393573,178.12080715152698,516.9729608636346,417.6327419005669,44.64953723021709,249.86706050005887,14.889884412262846,205.47065765923227,-55.50836773349155,101.30517717266564,-395.6141975949949,68.807999,-732.488037,-673.440002,0.0,-280.0,3360.0
-836.2476488644709,1109.938706922931,837.4978022579116,-977.3281212054432,-577.6405421950609,-1131.5954787604082,415.84348311986383,1266.4491403160312,1020.1317793243392,115.14558612750054,610.0460689062625,42.685387811007885,499.3583181476867,-135.8916802053131,255.7958891563412,-950.8014322822152,66.368004,-732.0,-675.392029,-280.0,-560.0,3220.0
-618.5128499992568,839.5780294107158,637.1788662112053,-731.3803962236992,-428.0323894186654,-851.1918300205646,321.0106176932895,959.5504249853824,773.4690011371415,93.18009199943032,462.51753952805774,38.20116603184916,379.7526965594682,-100.6620763529197,197.634744606948,-707.5386250624754,67.344002,-732.488037,-671.488037,-840.0,-980.0,3080.0
129.4292866452835,-146.24632065738206,-105.05182365996998,141.93162482307267,91.23191214673672,140.3847873880798,-38.15449070778868,-166.19779611107853,-130.692758403254,-4.838850631990427,-78.9077008911339,3.771814951315268,-59.961611432987496,23.4871528706143,-27.971135631164564,144.3571402332493,68.807999,-730.536011,-670.512024,-980.0,-1400.0,2940.0
680.7221218846915,-895.0890212401156,-672.2848218000466,792.8128450331365,471.936157200943,910.2082535376994,-329.86140513244675,-1021.6767617444788,-819.4260721976108,-87.41302166894816,-492.09463335430354,-30.73764480482528,-397.58121421092136,113.757586438331,-203.47240417197509,775.3820970382989,67.832001,-728.583984,-671.488037,-1120.0,-1260.0,2940.0
591.9561956551024,-806.7210017195126,-611.327461921368,697.3820638696844,405.96591880765135,841.5093192302111,-322.3317277801498,-920.4402065731869,-742.5900308581182,-91.28722385687,-445.3724158863888,-39.1275618773079,-365.92174643715015,94.8023316220474,-189.5728389513107,675.3073111716219,63.928001,-730.536011,-675.392029,-980.0,-1400.0,2940.0
109.92678613988018,-178.7852092662452,-142.58525320873622,137.46815445223783,69.5028634427871,198.42870091436671,-93.07357095753706,-203.2802756181236,-170.54214467644937,-35.02641109585704,-99.34227282571406,-20.39988215750154,-91.54320991572958,11.241336025563662,-49.45607287987362,123.51191654380288,67.832001,-730.536011,-674.416016,-1120.0,-1400.0,2940.0
-283.5920838652672,364.5062925352364,268.7030408268595,-326.64016855047373,-199.0840857709251,-383.6147172433987,134.66715765641885,416.1087476130652,328.9272996908799,28.00797012135205,202.09226329981087,8.7321273823042,155.0861623844379,-51.17659144875811,78.777602981109,-326.53408034586494,66.856003,-732.488037,-674.416016,-980.0,-1540.0,2520.0
-409.7778251668343,565.2747042270315,428.3878432362956,-482.37955802813934,-278.7704172551079,-598.8905411716219,234.7088857862869,644.1607618417303,520.1932692534115,66.50379489188425,313.0413409031768,30.28682966882619,257.6900939208807,-63.628236940177,134.09341707722126,-466.6788672984742,68.32,-731.512024,-674.416016,-700.0,-1540.0,2520.0
-343.7977193591416,488.2293062447505,377.6329543804461,-410.1771680691534,-229.51825417419204,-497.94597260467583,203.14812803570032,556.2659748660093,456.3836805469095,69.20674424377953,267.79840132276485,32.037443784634654,232.8617780067074,-47.35015976531948,122.05819910773276,-385.8583500123357,69.295998,-730.048035,-674.416016,-560.0,-1400.0,2380.0
-122.11092148483957,172.44692146927545,137.77432750638835,-148.08080596503237,-80.42998229280457,-157.88067791095818,63.74086362468419,196.92383238454852,165.7833711651264,28.803372311906983,91.80024850035254,11.42802581319078,87.54352901356759,-14.888270939452209,45.080685352155626,-133.22046290195567,69.295998,-731.023987,-673.927979,-280.0,-1680.0,2240.0
223.0350761595153,-313.5563745745193,-238.165435883937,263.1045784660492,150.74528967637153,323.8030161974001,-130.54995690197302,-357.167672336907,-288.5315787555241,-39.00096359668696,-173.75483197334043,-18.49333537297505,-143.7096258245571,32.80182384048771,-76.27246885818711,253.1855024527063,69.784004,-732.0,-673.440002,-140.0,-1820.0,2240.0
470.3274447343526,-647.5066271860222,-497.1898100216353,556.827365234395,318.2646693528687,644.7306669673042,-251.6273989607553,-738.7677456358828,-602.3516994518227,-82.62968435820186,-353.87648329087506,-34.048777380491806,-302.6518611329841,69.19914687753219,-157.2408465395204,528.7430235574118,69.784004,-732.488037,-670.023987,-140.0,-1960.0,1960.0
353.7727913819048,-476.43528117280977,-366.1096793265344,417.84735139396025,240.3534117373385,479.39377229756366,-181.0070769586448,-543.9648652960803,-444.5085230033218,-58.5553000091703,-259.24435143721354,-21.878982297019647,-223.02503586939665,53.9571170731133,-113.23857530764094,397.1801839083629,69.295998,-731.023987,-668.559998,-140.0,-1820.0,1960.0
-70.99463443133068,103.7294949647886,79.20374450953747,-85.11938649755547,-48.27432144387446,-89.03898810917579,37.78407483065297,118.59230956519188,95.15856877121392,13.695892037113218,56.93515783783772,6.193521204579945,47.07770015364247,-9.54593477344652,26.782637972109885,-80.33810487249792,72.223999,-727.608032,-673.927979,-140.0,-1820.0,1820.0
-414.0310343998288,561.0448203011586,429.0380853868148,-489.145217606672,-282.2931361891603,-556.9075033786078,212.105804268869,641.008641710681,520.6744564645162,66.94044656344924,306.30273195196344,25.21323414688834,259.0717646812519,-63.48652511606304,133.4204218046139,-466.778119092766,70.272003,-730.048035,-675.392029,140.0,-1540.0,2100.0
-379.45228064695897,508.3814094333311,388.0226503597838,-445.91256272160695,-258.26248559639475,-528.908256380767,199.3513778229828,580.3196820676577,472.0642423741612,59.31928866711507,278.4654641386542,22.496264753701706,235.2813718913996,-59.228563621305526,118.63672756848236,-428.0525437416502,72.223999,-730.048035,-673.927979,560.0,-1400.0,2100.0
-68.90850731057563,91.3243749359542,69.48845070584166,-78.48401722511653,-45.545668528745765,-115.06577260893955,44.0928944193559,103.13864457810948,85.08833094186555,11.478478863822795,51.11934976482507,5.903218767770643,43.871587375529685,-10.258664146439074,20.866354377882608,-77.1532188534541,73.200005,-731.023987,-674.903992,840.0,-1400.0,2100.0
206.8754363970997,-276.70670489048973,-210.67364651917572,244.8111436012332,142.0587839285559,278.6666308989368,-104.3598854984574,-317.0795175370933,-256.26552766374147,-30.470538277445023,-151.4275397477348,-10.098322532232466,-126.00851211288808,33.214596287185834,-63.8794254705585,234.7622124161852,71.736,-733.952026,-676.367981,840.0,-1120.0,2100.0
281.9553337679402,-379.277181058447,-288.78308319782894,329.93247247972323,191.2526225657036,402.84138885777605,-153.92926990711354,-432.7984022513968,-351.4842385958436,-44.36236339935303,-209.2891406020116,-17.84279540085937,-175.51990396829507,43.25533854526545,-88.40709719399874,318.5789805628156,70.760002,-731.512024,-676.856018,1400.0,-1260.0,2240.0
197.96771416214332,-269.5001369786015,-205.82624554902105,229.5800961922589,132.9284470747003,285.7981458739003,-111.11060773851432,-306.07723082570703,-250.02699531373435,-34.25298131915025,-148.7818345736796,-15.65403550793138,-126.83721118469278,28.396590266964985,-64.80526263550244,221.7792750005328,70.760002,-732.0,-675.880005,1120.0,-980.0,2380.0
33.812205528965336,-46.92800188037394,-36.4854718819471,38.50300544078484,22.40035499261105,42.929347269148,-16.184877644765805,-52.17412916786931,-43.92166108593265,-7.467070191661693,-24.59238831126499,-3.865524143735247,-23.148845926665235,4.221522056631707,-12.696607343789836,36.10133258291672,72.223999,-732.0,-676.856018,1120.0,-1120.0,2380.0
-157.60768815155834,215.5781420590768,164.3886071557997,-183.17198409623188,-106.09302814813348,-226.06575196842164,89.30105395479892,245.91518601553608,199.6064965026493,26.837272814292923,120.28581035715808,11.951692371465144,100.8397417699442,-22.17437071294962,51.497150386464,-177.89572145793906,70.760002,-732.488037,-676.856018,1400.0,-700.0,2240.0
-273.80817643807706,372.3221181699124,284.6032712101273,-318.6534567319279,-185.2225109675032,-376.4880043387855,144.9951555739169,423.56565506677856,345.3264883194805,46.58383843997407,204.41606358918204,19.74894840808847,174.20183621963048,-39.481544626201305,89.75796504363744,-307.0258025174304,70.272003,-731.023987,-673.927979,1540.0,-700.0,2520.0
-194.779786886162,260.34253282596507,198.754902457659,-227.96562108718297,-132.89908755986988,-263.3145341332965,97.31723175341226,295.9556772193228,241.6870079140566,30.7136327642836,140.690398080284,11.47784692544676,120.49170059270112,-30.49776871619196,61.49285011217511,-218.17812809288847,74.664001,-728.583984,-676.856018,1400.0,-280.0,2380.0
50.84443189357376,-74.1458876774003,-57.26279948825842,57.77075403068045,33.657956974844204,66.72666947535458,-29.495914589981663,-84.6230946645428,-68.67499435449623,-11.442344632792476,-42.58264062641439,-5.980405672954942,-36.19772028499916,4.4398716101105045,-19.540887494515083,57.20793420904742,74.664001,-731.023987,-673.927979,1400.0,-140.0,2380.0
254.11767680470632,-344.18950816096776,-263.1822252045927,296.03010689167485,172.87061001659305,342.092703543793,-130.23129852594238,-391.9369755604555,-319.42573657496524,-42.25128396131222,-188.3088417928313,-16.568221276406597,-160.57381397508087,36.9787468614972,-82.273925678339,285.6458928384547,73.200005,-732.0,-678.320007,1400.0,-420.0,2380.0
235.9103550208212,-313.1123927792716,-238.45242815737527,276.54216292065814,161.2259619353026,326.1843649853784,-120.12240495852544,-356.52694023887943,-290.6542328049687,-35.39885392231544,-169.62288184573555,-12.348281995131629,-144.04452178910546,37.92737733959337,-72.27187029379675,265.4165333628647,72.711998,-730.048035,-677.832031,1680.0,140.0,2240.0
38.71360971042359,-46.43072525144383,-34.38862322701286,46.910645412651554,26.55004880581508,63.97428289900801,-21.16315090207326,-52.80081502998254,-42.94690445433351,-2.900732600613349,-24.15531618761029,-0.3720357248915962,-19.615371275931857,9.222553710139902,-8.979530505370569,43.23503717368816,71.248001,-731.023987,-677.343994,1820.0,140.0,2240.0
-145.34269220925668,196.0557035698492,150.06852400929463,-169.0620945040045,-99.45934052935084,-194.62909071492228,73.25791941773608,223.44113666478924,182.4277751302104,23.654394351036125,106.94754687118876,8.076633205623148,91.61158302939826,-21.06988428994823,45.84048699148408,-164.3579012213007,72.711998,-731.512024,-674.903992,1540.0,0.0,2240.0
-189.7284111484806,250.6813086545372,190.79642512940603,-222.4209992985828,-129.459843157539,-267.7118153121607,98.92131102901456,285.69734917043144,233.08719604900497,27.997452903162937,136.11861662404635,9.405397056134367,115.37414709018594,-30.627006997076368,57.17847630764064,-213.65861621180707,72.711998,-730.048035,-674.903992,1120.0,280.0,1960.0
-114.42731777275188,149.80821854708032,113.50716739463152,-135.0945484994246,-77.43296592772515,-165.84570821047544,61.40623271491081,170.68432092914242,138.806166758281,16.264020403889,81.47244595019843,6.5040778782687445,68.10902703702214,-19.65275378133192,34.76138867410203,-127.469059894325,72.223999,-730.536011,-677.343994,1120.0,-140.0,1820.0
4.552074034830413,-5.895796615626341,-4.950940401351441,4.468316892384637,3.678912988360679,6.438310603420061,-2.1225408511291244,-6.9609524572285455,-6.500345357039629,-0.7552902536845947,-3.0533365900873606,1.3082650570565837,-3.627299036079902,-0.1636878105308612,-0.0524484224704408,6.595830575870807,74.664001,-731.512024,-674.903992,700.0,0.0,1820.0
112.53093488647266,-148.14025054052533,-113.06327676164643,131.69546446622306,76.48858272001985,159.69650804561945,-59.83522426178586,-169.20306219776802,-138.52085628730956,-17.035457380407422,-80.86682369133348,-5.619157359797838,-68.86314030238044,17.53407853374754,-34.08951473526171,126.25120550519156,71.248001,-727.608032,-679.783997,420.0,0.0,1540.0
160.34550216071742,-213.2920898859776,-162.50946197974008,188.29386567591067,108.4745122114305,221.43309334222147,-83.61661781325643,-243.17050334633487,-197.8589322600602,-25.0664874735472,-116.70630714505238,-10.447924833115383,-98.31310552402104,25.268282439497803,-51.35291926798823,178.3324304036756,69.784004,-731.023987,-674.903992,560.0,140.0,1540.0
101.93025802948668,-137.48346443105814,-104.40104384042968,120.077931384769,68.89709213996635,138.0828603376925,-51.9660551661413,-156.13796733280915,-126.14031872716536,-16.043941284334657,-75.03832649119667,-7.675322644075645,-62.51065722848664,16.54699298994184,-33.629498862464295,113.33320015932036,72.223999,-728.583984,-678.807983,700.0,0.0,1400.0
-40.53967732256426,52.61276074655622,40.79630020531642,-46.91810351465489,-27.47724998123834,-54.04776489985103,21.072127475848934,60.7871135242241,50.44314158206856,6.971726281856983,29.251655297708503,2.119769245232524,25.569911162964203,-5.212413219385017,13.14994777506912,-44.58817424298554,72.223999,-729.559998,-676.856018,560.0,-140.0,1260.0
-155.19845883972087,207.72446842649387,158.79819725303932,-181.67830294424405,-105.06078723761456,-208.86940160825827,79.39003073357185,236.88542383449183,192.93169923972505,25.220957092441427,113.86880844633647,10.469770162558822,96.3608248090333,-23.467582928526745,50.84817624187991,-172.49466222280725,72.223999,-731.512024,-677.343994,280.0,-280.0,1260.0
-140.92532558261195,190.4523692520254,144.83226550676216,-165.68190189205274,-95.25864951182666,-194.30799524003092,73.2179252924434,216.0881905900792,175.1051654882672,22.14511834556242,103.77524393747224,9.696085655389227,86.96701992754726,-22.513487335193048,45.30414875300905,-157.79000186054822,71.736,-728.096008,-679.296021,280.0,-280.0,1120.0
-17.88050521628556,25.54126256909318,18.505364685756312,-22.021208384409547,-11.889752647041531,-31.53795714713653,11.250103910512324,27.92959417443405,21.771779230016964,1.7993281267005008,13.296258629138944,1.245613588178267,10.246963947364328,-4.242850495981314,4.33858447172145,-21.255764582232977,74.664001,-728.583984,-680.272034,140.0,-140.0,1260.0
98.30162684596472,-132.34338976983818,-101.58952100602188,114.52000746361485,66.40401465125868,130.43782258967795,-50.08290094576194,-150.83620542271453,-123.13518411613082,-16.534201826746077,-72.62869618739661,-6.741687098464647,-61.74528264938943,14.28120099930707,-32.80090631109898,109.19205128584883,71.736,-729.559998,-682.712036,0.0,-420.0,1120.0
122.06087606585628,-166.21608266311205,-126.51099654972272,143.61038098204298,81.99995336911546,171.4912063511509,-65.45725543064647,-188.13193124106644,-152.67053320792158,-19.444447685723823,-90.57369770158122,-8.396331608030163,-75.97951778057237,19.197999778743085,-38.822711874685744,137.05916619932182,73.200005,-730.048035,-681.247986,140.0,-280.0,980.0
63.92343871451761,-87.51238046371655,-65.8740060902641,76.39953371847083,42.85359472360512,94.8814999573314,-35.749639697381866,-98.57673241998994,-79.38905412330146,-9.4286131026583,-47.429710423894456,-4.36340194888073,-39.187830537773024,10.957289226691248,-19.084510978591,72.45940696787346,71.736,-729.072021,-682.712036,140.0,-420.0,1120.0
-16.80828552417231,23.88155062154581,18.88691387697968,-18.76512547103948,-10.85967788545253,-21.20019046907385,9.354633686820272,26.934860776789225,22.44759109966632,3.562687729440517,13.212880068137466,1.355634051109695,11.47506737073905,-1.6810766055733708,6.324821063008182,-18.52028283864272,70.760002,-726.632019,-679.783997,0.0,-280.0,1120.0
-76.35784856429247,105.63068691092698,80.55590935592468,-90.1926315931252,-50.67457579577313,-108.54766095298756,42.668351235032624,119.13848667807382,96.74994351091024,12.563160766706243,57.75952391831116,5.480362850696603,48.26913432698831,-11.548051919207843,24.21735997910084,-85.75402188035235,70.760002,-729.559998,-684.176025,280.0,-420.0,1120.0
-92.38569711906756,125.26457403146384,95.02878728595846,-109.94501683216832,-62.276227916339735,-130.1119787562627,49.19490231974195,142.11276842616635,114.94509499165484,14.382350050494294,68.52773013245601,6.244456408271498,57.21415113474302,-14.687668597827466,28.75607607978561,-103.55042391931244,69.784004,-730.536011,-682.712036,140.0,-420.0,1400.0
-51.78261027206192,67.4589588329679,50.92928671136779,-61.51972899858172,-35.89860838938831,-71.20910900902402,24.935688717621765,77.39273472489052,62.49024494507637,7.565076553402084,36.80764167365568,3.18650284594388,31.14210195934261,-8.729968750214997,16.105272954892445,-57.81241224022122,69.784004,-729.559998,-681.736023,280.0,-560.0,1400.0
29.6174151053964,-42.21416529458641,-32.40441064709624,35.58817840808458,19.22263220591304,41.05266200535271,-17.199323376383333,-47.4672398905638,-38.407788220368666,-4.974757871814467,-23.43862395302595,-2.02642226900195,-19.0406018312684,4.0808516458288,-9.23060148938056,33.05529879467719,68.32,-727.119995,-685.640015,140.0,-560.0,1540.0
93.49396262502736,-125.13626047001658,-95.3166218972451,111.06360184265728,63.54864663513834,127.7534097087275,-47.48208337645144,-142.7952869440197,-115.5622414730888,-14.49491832811635,-68.79417630011362,-5.837802619788673,-57.640187050701606,14.5139200730757,-29.36544660859792,104.09634497947668,68.32,-729.072021,-680.272034,0.0,-420.0,1680.0
83.61917265026749,-110.1516931150772,-83.70575057566428,98.40089826071808,57.43982324414267,115.50078398657884,-41.5150149849128,-126.0029024262932,-102.27697314337142,-13.087160178447,-60.18015365517804,-5.515818689534247,-51.44067411557405,13.234642843604576,-26.712010011268987,93.15098987574316,68.32,-732.0,-680.272034,280.0,-560.0,1680.0
8.03922727275889,-10.74958345598804,-7.887897192312295,8.470682264075721,5.524464614533528,14.031740598256407,-5.010217259238254,-11.901098123482155,-10.166069226974855,-1.9982295119346536,-5.426527201767631,-1.535963335286477,-5.715320099760564,1.2434432266370352,-3.402822627225624,9.27400724795662,71.248001,-728.096008,-680.76001,140.0,-140.0,1820.0
-65.17895599253914,84.93070927288986,64.92955296088337,-77.35655774461561,-44.96703067875965,-87.57078407663488,30.933785328017105,97.74295281711215,78.9216241943498,9.452331488839375,46.82590951434605,3.183631963125989,39.31911045464357,-10.236717641656904,19.95711050804652,-72.09317198348216,69.784004,-728.583984,-683.200012,420.0,-280.0,1820.0
-78.61534560838882,104.40864771832612,79.51988791500058,-92.0004331430745,-53.70914499026042,-110.04586301175377,40.17863188264035,119.09062307859088,97.0451880790478,13.05860045656979,57.13814110971062,5.76225273734974,49.45806454608944,-11.6923921442066,25.58628433163411,-87.27230693678153,66.368004,-732.488037,-683.687988,560.0,-140.0,2100.0
-35.82193459139006,51.18611876618368,38.69902961498134,-41.16150078587994,-23.489154061547165,-53.00532389251576,21.92762773459313,57.0159437068661,47.25928076299988,7.829499672160018,27.86438264926809,4.73002701292197,24.90895891807068,-4.439884671258804,13.362439510472244,-40.10887668075436,66.368004,-728.096008,-681.736023,560.0,-140.0,2100.0
19.60883910145873,-22.302205290495465,-17.34198683170608,23.32037002397818,14.450854420294474,25.880848908584493,-6.711210993827905,-26.726583972129667,-21.242459979400792,-1.7627393264135949,-12.359291855057656,0.3658795339746426,-10.57326552975747,3.3620633633237285,-4.838619631157224,21.15604766068748,67.832001,-730.536011,-678.807983,560.0,-140.0,2240.0
52.50068096724551,-71.07731200455159,-54.22588893537285,61.0730499461402,35.623216213358624,74.32147448873097,-28.11616338111338,-80.57684731505263,-66.23703542598763,-9.882753763618227,-39.22684780918091,-4.810621416543841,-34.768744624838554,6.559492004343584,-17.83997264257634,57.672621283928514,66.856003,-727.608032,-677.343994,280.0,0.0,2240.0
52.550516869135535,-75.77753455279642,-57.40583256967675,61.09319807196791,34.36566498100435,74.23563456059304,-31.6190416328478,-84.51280900543308,-69.94167160175289,-11.49762063495067,-41.92282569811907,-6.711886447388758,-36.67490731911802,5.934410997967523,-19.63755542057211,58.219945305833534,62.952,-730.048035,-678.807983,140.0,-140.0,2240.0
23.08374450993716,-34.673905244420126,-25.964797814686225,27.131905872875727,14.48094723566422,31.643699932318256,-14.712221743811613,-38.36614471171202,-31.37075421226567,-4.770475067832692,-18.950550020687444,-3.061054657386878,-15.36528644725817,3.473205042569208,-8.899033045897651,26.379521772026287,65.879997,-728.096008,-679.783997,280.0,280.0,2380.0
-22.045019028098867,31.886552037571764,24.39784495277709,-25.47730448309425,-14.803153050795718,-30.908690409003903,13.164681041802162,35.48630367034435,30.14883441048397,5.929990897991816,18.32665055981951,3.4006342395246003,17.300479522975486,-0.7076772046626532,8.691884989200105,-23.169490018793123,65.391998,-726.143982,-677.832031,-140.0,140.0,2520.0
-54.4999019663076,78.29702689463343,59.22959268641269,-63.77631028210061,-35.796667232423815,-74.54818466536723,31.86210093564073,87.45922030241266,72.39143417143144,11.771148003798183,43.81692034670018,6.739464387393296,37.84701152478898,-5.77601127290221,20.36925453404285,-59.74424774991511,65.391998,-728.096008,-680.272034,-140.0,140.0,2520.0
-47.28671112608258,65.06106100001905,48.99791014648904,-55.52384377166267,-31.15551583123498,-64.81029080978267,25.757281016123088,73.49259798186408,59.34453031115879,7.561859804061214,35.40409093430776,3.927546460481953,28.766029216072152,-7.986524329887063,15.983505368114123,-53.20916004251063,63.928001,-729.072021,-675.880005,0.0,0.0,2660.0
-3.6307531474304313,1.680693367179598,1.161592650556049,-4.15790370387067,-2.5357840768284654,-6.323703135910778,0.1474434694464216,2.903921407656224,0.60204838582161,-2.325840414150385,-0.4944175496240761,-1.8374908096313385,-2.184920547392301,-4.055003574032519,-0.7815801613102782,-5.843213829517925,65.879997,-730.048035,-680.76001,-280.0,0.0,2660.0
40.32875376954686,-57.10063334697479,-42.99751286778747,47.48920739962946,26.653650478018093,53.86161087385198,-22.64706258833434,-63.80792997793911,-52.89002788424981,-8.479534947771665,-32.3079524664188,-4.877451439208212,-27.661412832044675,3.937780978839662,-14.996443247221778,43.44284934688165,63.928001,-730.536011,-677.832031,-140.0,-140.0,2660.0
49.55328823716367,-65.29701551369222,-49.09256131623267,57.91336570471901,33.05570876548617,68.52041577929059,-25.306383462239964,-74.2538916438643,-59.369853442212566,-6.570686317096633,-35.102759708171966,-3.21147224006663,-28.272209876750065,9.292431640462192,-15.64216127688784,55.47837121613253,65.391998,-725.656006,-681.736023,0.0,140.0,2520.0
22.144918780892283,-26.63821098664366,-20.123324720016416,25.332671774476577,14.961605970029703,32.568832169779945,-10.205317994957616,-31.18241136166664,-23.504278710675628,-0.6867781194624428,-12.940695321064148,0.2767359448234926,-9.3520859833761,7.087909490342436,-5.293050234229173,26.537273995837115,62.952,-729.559998,-681.247986,0.0,-140.0,2520.0
-15.413760208940596,20.768201561288567,15.375176061849787,-18.461587505031225,-10.198881337484371,-19.77664077045504,7.842217411597754,22.96235032257212,19.26104852207126,3.158596919401479,12.073247366084567,2.1345639536813947,10.410027890959428,-0.8844036411018524,5.757898877717703,-15.355387874183522,66.368004,-727.608032,-677.832031,280.0,0.0,2660.0
-36.72281815949826,45.88993024484394,34.345389020317135,-42.62564938420031,-24.671923086632724,-51.07912398097345,17.43448791785689,52.35300727603477,41.42794977560988,3.629623673939552,24.123519842395545,1.8798617690701072,19.20991062037601,-7.858712788190926,10.718729004112854,-40.72901791465589,60.024002,-730.536011,-678.807983,140.0,0.0,2520.0
-32.8596760168308,41.74186255702981,31.53495009792489,-37.6325911461913,-22.248530665833417,-46.64785090880572,16.162479066328157,48.08844398668361,37.681038280289215,2.884318303406884,21.430837798812725,0.9789113480887948,16.749118578638253,-8.291844520540309,9.238626330908842,-38.22850345176496,63.440002,-727.119995,-676.367981,0.0,-280.0,2240.0
-9.775179930323567,15.152970506083564,11.740836097836334,-11.003486791386427,-6.73090937110738,-14.309666682655346,6.3246962485842575,17.673930284353084,13.992659836288029,1.7482986451304685,8.054432311769574,0.1759660734906993,6.289508239245033,-2.36593858057544,3.2531421616221867,-12.999011452273155,62.464001,-728.096008,-677.343994,-280.0,-420.0,2380.0
18.554491295246635,-20.66415780882276,-15.338986641687564,21.39855317615564,12.555228698228284,25.400076878729205,-7.438167575059713,-23.50273241519866,-18.616479529531823,-0.7334335896531088,-10.35097284265913,-0.7672975459842326,-8.245855130457164,4.783910219076248,-4.802715501587,19.83817684233621,63.928001,-727.119995,-679.783997,-420.0,-700.0,2100.0
34.4104838192042,-44.64268113633988,-33.677214238183126,39.633628828954016,23.52367029317464,47.63594328567472,-17.077254736643283,-51.13860437909199,-40.97024873914267,-3.817185968654364,-23.528462327371063,-1.5687177995922967,-18.76052947219077,7.674068179842159,-10.381442680791384,39.63430399682375,63.928001,-726.632019,-675.880005,-420.0,-700.0,1960.0
25.707486768649208,-37.31980182029864,-28.28151801723417,29.66275706728528,17.678229956912173,36.24289259282204,-14.787070643960964,-42.94490437276789,-34.28003887190325,-4.446861261318691,-20.39060422826098,-1.3028808595847403,-16.093827737548214,4.715204783726023,-8.60768744401491,31.15158328109765,64.903999,-727.119995,-678.807983,-700.0,-980.0,1820.0
-1.834809546316581,-1.421515416317032,-1.1366383364184218,-2.270104770803132,-1.3120924505677285,-1.330334599564694,-1.2225550086915893,-1.9046295239823672,-0.7661793594705144,-1.1670721421035095,-1.2886049744351449,0.1119790439003101,-0.665203879953594,-1.1546893023257254,0.0398088072849911,-0.5624166020097682,66.368004,-728.096008,-679.296021,-560.0,-1120.0,1820.0
-26.265149872361896,34.50480712426572,26.02318154411305,-30.65183146160051,-18.30914089373677,-35.94821190082468,12.846068159749418,39.463119154830856,32.2904983208148,3.2829105229001327,18.45836456370577,1.4134951575551686,14.786664780431275,-5.411113300372103,8.39878120814259,-30.44430812715991,65.391998,-730.048035,-675.880005,-420.0,-840.0,1680.0
-28.795727010767536,41.49078023615249,31.20573104971655,-33.27832994929623,-20.0214457265848,-41.16742953615372,16.1453422583755,47.79931744586953,37.588911538716765,4.739380323642322,22.51312009654333,1.408240786576772,17.32140610859242,-5.520011599022638,9.378738087148388,-35.04920159804188,65.879997,-729.559998,-676.367981,-700.0,-1260.0,1540.0
-10.692004051424636,17.28454935838134,12.835787623812584,-11.71711832916376,-7.140561956767501,-16.44403366087795,7.345378828448466,20.116204757545024,14.279034695811188,2.1410545663255944,9.402101464888007,0.2731852047703274,6.657004788098076,-2.174507206912238,3.090129369226468,-13.71955868754516,66.856003,-725.16803,-681.247986,-700.0,-1400.0,1680.0
11.118324221203276,-15.24656626648054,-11.61953396490614,13.620234863975863,8.275151076493374,15.663814030009194,-5.228111621216828,-17.44779887393394,-14.889821122976096,-1.769145890357224,-8.167032572983347,-0.8665324690979496,-6.542152890033471,2.084896062121395,-4.183650337866727,13.753240375526325,63.440002,-730.536011,-684.664001,-700.0,-1540.0,1820.0
21.794074004665056,-32.24816181188573,-24.14659330558691,25.107319194524354,15.411633039834692,32.234161424774804,-12.394882024210789,-37.175399658399584,-28.401405573095587,-3.6576435260034463,-17.18667138359972,-1.1589727816336572,-12.64101091039841,4.8042144522024985,-6.954544670400504,27.47327364314011,65.391998,-732.488037,-681.247986,-280.0,-1680.0,1820.0
18.26223267710459,-26.34581165076042,-19.43196607340916,19.96472581103502,12.19853648974614,26.41256118566715,-10.742912404946438,-30.37010462070718,-21.95743161793665,-2.511157497215074,-14.025536678290292,-0.5444860890027786,-9.994856027993356,4.55846025368815,-4.744417890279066,21.937980965973303,63.928001,-731.512024,-682.223999,-280.0,-1680.0,1960.0
5.232522597916285,-5.172390637344257,-3.536398634188017,4.911289001859199,2.712705992487112,5.764151570512367,-2.6061136992109244,-5.987758743448036,-3.996736001581511,0.2299110914482051,-2.925917700720529,0.4408520502644835,-2.249616019104008,1.3171420354574828,-0.3626733243283998,4.179316771489932,63.928001,-731.023987,-680.272034,-140.0,-1680.0,2100.0
-10.44841998139042,17.492390977620214,13.103148430832894,-11.92982464153828,-7.637436382883278,-16.69164926169028,6.6903506463946085,19.976270629135502,14.44533494683914,2.301270488916037,9.09199321055234,0.9954477760338412,6.06409950964175,-3.126833389340636,3.407278176295731,-14.523094634163758,64.903999,-730.536011,-684.664001,-140.0,-1960.0,2240.0
-20.3484699314668,27.99262431906964,20.53867694548751,-22.07769339211405,-13.434728102054308,-28.142313591627047,11.25755177424724,32.07056408844272,23.53600516966948,2.3093690604559134,14.9511298119997,0.5999317102672674,10.553122912441337,-5.578079870451456,4.909995893862093,-23.59166573366431,63.928001,-733.463989,-679.296021,-280.0,-1960.0,2380.0
-16.727788846084902,19.12620488840089,13.829849193782891,-17.985407599915803,-10.504878947778789,-20.843435197865844,7.790500740603012,22.216175437461704,17.1290054226311,0.6436542961915299,10.449890604438028,-0.3401738658579016,8.059531403194557,-3.72229246692198,3.5047920394730294,-16.946934678275426,65.391998,-733.463989,-684.176025,140.0,-1820.0,2800.0
-0.2361079620020186,-3.192265870914939,-2.4520120178874114,-0.3873978518855789,0.1332554744115494,1.2621207908631158,-1.2883166689268817,-3.182297234736436,-1.472155568447748,-1.009816597398251,-1.6092242658401126,-0.7580356137821062,-0.181925953693395,1.279150525884069,-0.0356559036923186,1.7403196084480368,66.856003,-731.023987,-686.127991,140.0,-1540.0,2800.0
16.80993525419605,-22.067950050239567,-16.06987773327862,17.922052950296983,10.77304143515359,22.154547583853567,-8.881178498741994,-25.23603812828011,-18.70099171767497,-1.4113589010292773,-11.943719484344973,-0.2602276402828335,-8.058075509426633,5.14350383591021,-3.512447482732,18.891442386653576,65.879997,-731.023987,-682.712036,420.0,-1120.0,3080.0
20.159394960661977,-23.398278764098983,-17.03186691614077,21.85242227110668,12.868673061735336,25.69711775885072,-9.237301505826569,-27.461557526532864,-21.274768978402967,-0.9201834506857636,-12.569065435706596,0.2582809486154456,-9.620494516678544,4.407866771676161,-4.696515707376309,21.1748000539781,64.903999,-731.512024,-683.687988,840.0,-840.0,3360.0
7.650410299575218,-8.08375725778513,-6.038822331627023,8.851442595748333,5.185322225953287,10.124832255184826,-2.972182483669721,-9.961655843865124,-8.31689952689783,-0.4883082718825464,-4.091427595721932,-0.0271616555227785,-4.372932532449785,0.0465839544704033,-2.863529928966872,7.648750419194888,65.879997,-729.072021,-680.76001,1260.0,0.0,3500.0
-8.93040561173082,10.573837696899757,7.549469072281107,-8.866106701799703,-5.229981750326449,-10.828506247682265,4.351943458132834,12.26255883022065,8.877134598512642,-0.0085821562263104,5.869149828267339,-0.4084668627251564,3.2045104865446463,-3.5435843501136888,0.9627182267514004,-9.6575311861585,66.368004,-726.632019,-677.832031,1540.0,560.0,3640.0
-16.225004784701948,19.749810828801245,14.586925862992311,-17.25597058032782,-10.282489626767193,-21.26842718513507,7.732296993828804,23.522928449658405,18.013747596335516,1.186275943018583,10.406319760650922,0.321450515760206,8.10271502112939,-3.307195333458585,4.561406677014645,-17.516753337051693,67.832001,-724.192017,-682.712036,1400.0,1120.0,3780.0
-11.155293130942404,15.577187419694296,11.847798210384765,-12.809135103513436,-7.711758292492421,-16.053398065383377,5.96028602932285,18.38740966594364,14.633122036939325,2.309862669671752,7.960190798177614,1.52687696854758,7.66144304056015,-0.5277517338633488,5.271421072973313,-12.468998392124682,64.903999,-723.216003,-678.807983,1400.0,1820.0,4060.0
-0.3898543823703831,2.174180920923524,1.7609731633052963,-1.8665875049050875,-1.022772798833281,-1.6436494207097958,0.7674213242784631,1.9865903295646723,2.236029087656026,1.3422089113872042,0.9977460829308248,1.0201439505933545,2.0133919189126184,1.3545406594773215,1.714884729137365,-0.7423506167349309,66.368004,-723.216003,-674.903992,1540.0,2380.0,4060.0
8.226609592474384,-12.293487757581357,-9.525175619944047,7.992769501256959,5.035115708765272,11.667475515987912,-4.869519320774214,-14.954430038472175,-11.313832118131668,-1.8200229341649088,-6.457327759344893,-1.5774354046247867,-5.532604099162561,1.0472692641234234,-3.999560750613029,9.307791794427471,64.416,-721.264038,-678.807983,1260.0,2660.0,3780.0
11.041650993301545,-18.631072654123063,-14.349636677071969,12.670623407947785,7.534018405240131,16.506439049216066,-7.495011652807708,-21.40795950991392,-17.13128397601456,-3.9253034883960014,-9.807996350009214,-3.2608319924428804,-9.230707755736644,0.3084105920997685,-6.813208271732199,12.768179267912783,64.416,-720.776001,-678.320007,1120.0,2800.0,3780.0
7.813652198833326,-11.560941972342755,-8.401093408700921,10.45203955320451,5.621118500520413,10.886969609882591,-4.762710347054408,-12.408980967939549,-10.352332158193542,-1.938358595974173,-6.039166049004575,-1.149901600331106,-5.341082372330643,0.7397910226036857,-3.4365962545688538,8.75864400700046,64.903999,-722.728027,-675.392029,700.0,2520.0,3360.0
0.150248833575553,4.46305399912942,4.193984368677985,1.631143542610493,0.3628579791943729,-1.4097199732704104,1.9210979812604536,5.720821389530748,4.462307644876139,2.520213116611606,2.6716087600343394,3.06584441280576,3.096911035612516,1.3161461274004742,3.359190350721768,-0.3748936534030374,65.391998,-724.679993,-673.440002,280.0,2380.0,3080.0
-8.014411204794905,16.688078313293698,12.90802488072712,-9.272150429938788,-5.165908309701725,-12.328592868707284,7.28199456046987,18.645804554837014,15.195801335459992,4.455924836271099,9.173508663722505,4.377176942199734,8.249216697375466,0.1674728036335472,6.896886183235551,-9.40027256291618,65.391998,-720.776001,-679.783997,0.0,1820.0,2940.0
-11.182504211148236,15.103599679944852,10.57709061387738,-14.321550230533717,-7.236350493168032,-14.397749480655094,6.598996062190014,16.302097263920434,13.043115296370566,1.62710836685591,7.780262656872958,0.7022991930801077,5.7361114526058135,-2.132867690988084,3.773095816559134,-12.26360493320984,68.807999,-723.703979,-677.343994,-980.0,700.0,2520.0
-6.401260369659479,2.1369520392324803,0.4722134992031264,-8.63174702002896,-4.277283871528802,-6.465673159359082,0.5433916887911875,2.172910603716972,1.2228169155880824,-2.560822025441716,0.289530887363029,-3.9936647056185066,-0.7698125619550401,-2.7903630818236573,-2.403895333457914,-6.508274481143073,68.807999,-723.703979,-679.783997,-1540.0,-280.0,2100.0
3.208116047850615,-10.398128417550142,-7.890563921293836,3.91301141425172,1.578704932006154,5.276529397130627,-5.349621762960665,-11.088012475893116,-9.147531966101209,-3.450671569664294,-6.089064890051145,-4.304706670526139,-4.619528988768379,-0.5083384253176868,-5.377516399409155,3.910664106835197,69.295998,-724.679993,-679.783997,-1540.0,-980.0,1820.0
10.327824048429829,-13.29772735441038,-8.80972197947832,13.173580896103095,6.081084906250945,12.433348564336196,-6.250628851234465,-14.265760184790985,-10.833564102568554,-0.85045143707779,-6.51683538307288,-0.0085036883973612,-3.918212771193984,2.4627346642592385,-3.138355728183726,11.219563150946888,73.200005,-723.216003,-679.296021,-1540.0,-1400.0,1540.0
9.565499483387333,-6.992296272673838,-4.229590495766536,11.809144762874483,6.134863296160905,10.720754510267827,-2.35608096441368,-8.006542410708093,-5.617114941470609,1.5175899849887022,-2.500258769549102,3.837438632751691,-1.762118237734083,2.942056889660221,0.9467258798735922,10.080726480012071,73.200005,-726.143982,-676.856018,-1260.0,-1960.0,1260.0
1.8640361628161304,2.125517882733483,1.1825021319392237,1.6580755934598337,1.929106947591332,2.154151259555623,2.347394194919333,1.5152608141534478,1.090777601988509,1.3847941946972206,1.642670383022083,3.21061777142018,-0.2984307052234691,0.6513434359386944,2.9657554111255027,1.7845706209927767,70.272003,-725.16803,-675.880005,-1260.0,-2100.0,840.0
-6.669275819793592,8.512069769329063,5.066862322391484,-8.590459504264308,-3.4084235885601646,-7.232112906555477,4.424118980352744,8.992267770482947,6.242708062814843,0.2803372735824046,3.716641647124591,-0.4441980931945647,1.5695541390573224,-1.749820529802638,2.3042996518567023,-7.169675021238239,69.784004,-729.072021,-674.416016,-1120.0,-2380.0,560.0
-9.819425094488215,9.617469968484238,6.636945408078953,-11.316523511223105,-6.059245239723164,-11.33715883839062,3.367140912262568,11.240424869507851,8.468572127077977,0.2332103703475572,3.912826555298619,-2.7764810478126614,4.096840442883293,-2.093287364017971,0.6039381494071645,-10.357299156734085,70.272003,-728.096008,-675.392029,-1400.0,-2520.0,560.0
-5.740327037406202,4.979357324736855,4.533451339462534,-5.73292971600659,-4.213139662566624,-7.550154131203572,0.6451368787222244,6.53024242924607,5.779788782546335,0.5894401753827071,2.3765486188995784,-1.8750351643745529,4.249525314850894,-0.8281359944999226,-0.8942705993823641,-6.022509032750677,69.784004,-727.608032,-670.023987,-1820.0,-2940.0,560.0
2.1530558955403944,-3.1849439560680497,-1.3218279006690543,2.8289336600117565,0.5554978764175985,1.3994123129170264,-2.047932061878178,-3.2844535559282,-1.83289075887743,-0.2861827932509924,-0.8815543297824376,0.4038723939508514,0.0131647714376939,0.4268427831938297,-1.7247832786835722,2.173851168069916,68.32,-730.048035,-677.343994,-2240.0,-3360.0,280.0
7.94713974988783,-9.43463885746916,-7.004808373773683,8.080375494817861,4.5063960940164405,8.957338358756896,-3.401178338289412,-11.31675329017084,-9.047103443566783,-1.714544909112624,-4.130485893122305,1.562127602512008,-5.13304636962944,1.0468405918810963,-1.3831209621662968,8.184207020844205,70.272003,-730.536011,-677.343994,-2800.0,-3220.0,280.0
7.557213631238544,-8.634616201783041,-7.206123659402911,7.333239346222127,4.803053148123978,9.60025737283918,-2.6306221281092887,-10.496478369277714,-8.949557774355577,-1.4341159204027367,-4.477164486132176,1.099822675470381,-5.53053577242723,1.2515062618187025,0.091699255620635,7.9385822875230065,68.807999,-730.536011,-679.296021,-2660.0,-2660.0,420.0
1.6565066225643623,-1.240697248066346,-1.3490600010604574,2.2654448690035767,1.703742648729637,3.306690867949294,-0.0890550630380397,-1.1680216784005932,-1.1250600171616572,0.7095237156845761,-1.193258224529576,-0.018556491902373,-0.6464473803282756,0.8362784424788291,1.276049966745763,2.068471967184818,68.807999,-732.0,-677.343994,-2800.0,-2660.0,420.0
-4.971767401353727,6.481405214660367,5.07754610847108,-3.4082528682939084,-2.110440768591538,-4.681588024333624,2.480166618301515,8.308230065318027,6.923312071952063,2.0778504365726747,2.8824287849648647,-0.9302474397748476,4.061549430065169,-0.4986564967620455,0.7796734258752508,-4.789126574341236,66.368004,-732.976013,-678.807983,-2800.0,-2520.0,700.0
-7.281135578672,8.46624315994532,6.442386739490147,-6.5417597914166645,-4.025673172348718,-8.53134375693378,3.1270460410469254,9.928627666722264,7.97138648676865,0.9154312300359008,4.269960069293576,-1.1503060158979417,4.090257617386911,-1.8212851381240351,-0.5691659269471419,-7.5726659303565,65.879997,-732.0,-680.272034,-2520.0,-2100.0,840.0
-3.9360351420447,4.243014546199099,2.755694305196473,-5.693860280147168,-3.182639665297623,-6.209899774706403,1.466272922933732,3.7974521787684736,2.6407307011589576,-1.0870500340201452,2.3967081085022923,-0.3525862554953849,0.9066380945151552,-1.483937940628932,-0.5802279507657491,-4.599069584501185,66.856003,-736.392029,-677.832031,-2240.0,-2100.0,1260.0
1.901781076994432,-1.9271367056445352,-1.6036040628887058,-1.296866184131038,-0.3857602766393909,-0.0436485975459993,-0.9684093123454548,-3.4256106343257224,-2.8383689968281374,-1.2395707265358773,-0.5567306948426664,1.0571852042820866,-1.3023797796628234,0.565261125704051,0.9550287693642808,1.361871377764085,65.879997,-736.392029,-682.223999,-2100.0,-1820.0,1820.0
5.509392820650095,-5.747126247792082,-3.444307118213997,4.245982722913829,2.6488410233090915,5.661584331805744,-2.2713078826981263,-6.236221516639462,-4.420067364190373,0.3261587594649809,-2.489496035347305,1.6697189439449276,-1.3834680556320753,2.145151196847673,1.522748499032429,5.568836162518192,63.928001,-732.488037,-679.783997,-1680.0,-1260.0,1960.0
4.525934828497239,-5.652266432319415,-3.085731382073828,7.1879051348956455,3.930327507634912,7.277771809189222,-1.8638907952047044,-4.574674073369192,-3.1572015183171867,1.0721607745295807,-2.855390444514708,0.477773162234138,-1.242445690321312,1.3892415959022222,-0.4674990793356476,5.189142369322495,66.856003,-732.488037,-679.296021,-1120.0,-140.0,2240.0
0.47498584710363,-2.3333759484880447,-1.8691272104891248,4.842474054980736,2.263321461888088,3.747054740490576,-0.5691056384506296,-1.3506001126667244,-1.373632593414033,-0.0967432487843717,-1.828901169738119,-1.5156435787303235,-1.581901977272061,-0.79851432827345,-2.789751570519784,1.252386063133809,67.344002,-731.512024,-683.687988,-420.0,280.0,2520.0
-3.0790395645679247,2.2676848881166625,0.0481227547467265,-1.5551041794924534,-1.3660475055469017,-2.485318239528353,0.6292678790191073,1.533443850816773,0.5996733455576199,-1.324353440320196,0.3340978519939374,-2.078211902750628,-0.8269581258822123,-1.875963152815017,-2.030230691711902,-2.7796122100669285,65.879997,-728.583984,-680.76001,420.0,1400.0,2660.0
-3.699038025207586,5.388757281923407,2.5217764914276164,-6.916598859230916,-3.931269181663639,-6.661282735116184,1.4037945787947466,3.648084903319942,2.8788350365113344,-0.6772202488635204,2.627624442149644,-0.4088597884513719,1.4802103565806302,-0.876213436448199,1.499532043700544,-4.143512088761385,66.856003,-732.0,-682.223999,1540.0,2520.0,2800.0
-1.7097368758257303,4.756318974773577,3.878016715580044,-6.519787006552802,-3.01118656810618,-5.41446443080891,1.6823817475885552,4.311543029461893,3.862575638160704,1.0269457810864304,3.2422001432970906,1.7385647788530283,2.995802606885038,0.6706057595357036,3.657357782222564,-2.6425583429056725,65.879997,-728.096008,-682.712036,2380.0,3220.0,3080.0
0.7575356469624622,0.6817108367816349,2.363095042995736,-0.684651475684909,0.4925903394387733,-0.040265203016831,1.091854412507253,2.486504525825202,1.897164490113615,1.4840768739543584,1.2875251022919827,2.059725045227548,1.680415564807248,1.0503764927752826,1.738691892020538,0.0090663588382718,63.440002,-725.16803,-680.76001,3220.0,4200.0,2940.0
1.941929402501091,-3.680971167137646,-1.251856985151039,5.271343460871666,3.079103284599604,4.5815472400669845,-0.5401988860181611,-1.434653689498653,-1.807388891321312,0.1643176213202375,-1.7791906785794804,0.3242007057331227,-1.1412940592998226,0.4003055989522535,-1.988824697052515,2.0482370599388218,66.368004,-728.096008,-678.320007,3780.0,4200.0,2940.0
1.6941697457267522,-4.9857976517626375,-3.91106177279639,6.212905318917388,2.47268724616292,4.841046771315332,-2.238675056148661,-4.890376138087108,-3.9348020465089175,-1.1346229133985837,-3.304562800211302,-1.54269325860235,-2.489358113598777,-0.0980240530920809,-3.239324225008547,2.7339888642750427,66.368004,-727.119995,-677.832031,4340.0,4340.0,2660.0
0.9147626250761666,-2.587872657751402,-3.370440685254457,2.066595258511492,0.0156364717207085,1.650914194639724,-2.2755836859875616,-4.992319481947584,-2.765913193892217,-0.89380691326449,-2.075426755463332,-1.7151872519138718,-1.5012298564617592,-0.0888688887088281,-0.9980917893651756,2.111377551077299,64.416,-728.583984,-674.903992,4200.0,4480.0,2240.0
0.2064995661857559,1.2950227563685093,-0.3347137104349459,-2.76450890940192,-1.3743928123362046,-1.4865664735125406,-0.1269307457520058,-1.2244823239524203,0.1897237715869621,0.2530391664017404,0.6157646508019448,-0.2619558536238222,0.1447281785655528,-0.1480318999711175,1.7550019403364927,0.461315679522998,67.344002,-728.583984,-679.296021,4340.0,4060.0,1960.0
-0.6164467804564688,3.7786039149531954,2.5767034539383062,-4.324134233853004,-0.9114410474492542,-2.642020704859317,2.3448496114583874,3.703092267150225,2.336885728148264,0.7078725610971842,2.4437650015435968,1.2232851094627004,0.9737778951719426,-0.4831843896973864,2.1271636974925947,-1.680151165366768,66.856003,-730.048035,-675.880005,4060.0,3640.0,1540.0
-1.6972299572437168,3.390852533348704,3.2983805447301764,-2.5624776805954776,-0.3520683191368791,-2.489454631798308,2.552991586822053,5.828083196989676,2.5466667294496887,0.0825099658613473,2.1529979834203474,1.321100581645708,1.0962678821602752,-0.5632021051638164,0.4098821122352761,-3.219800704662627,70.760002,-726.143982,-678.320007,3640.0,3080.0,1120.0
-2.2370899000705227,0.7139871358721994,1.6440978418408805,-0.0107760138986918,-0.8409726098234445,-1.8128158278367943,0.207586671611375,3.2845517281010026,1.299527446636133,-0.5708286854234067,0.3119018374887185,0.0682316560075936,0.9079906182549404,-0.0680299723260082,-1.1536311940129071,-2.829073749822616,66.368004,-729.559998,-678.320007,2940.0,2240.0,700.0
-1.0571722689242389,-2.177616294070459,-0.9843235570141728,1.612092135333152,-1.0264202809773442,-0.0663363785807707,-2.107700510957559,-1.8454490592819204,-0.4644006354578209,-0.3342577104020439,-1.4338653794065384,-1.1570679688937628,0.1988948792850152,0.5773127990192302,-1.2382944877222992,-0.1293092299016744,65.879997,-723.216003,-679.783997,2380.0,1820.0,420.0
1.6586480446069976,-3.141892970527848,-2.6579687507535192,2.374134875225216,0.6314918854382147,2.723288269201165,-1.921382083513384,-5.1884987321967335,-1.8208961568512323,0.4807194335858466,-1.7202316150729176,-1.0096331325373062,-0.8570651610005798,0.8070129152385908,-0.2588823033092663,3.2974535576628705,70.760002,-725.656006,-680.76001,1540.0,980.0,280.0
3.676295831682483,-1.6594261848141356,-2.200254454552696,2.402555935099455,2.8181978239522367,4.255673379103773,0.1842517853628865,-4.06029180741769,-1.9560069824308108,0.8549407812996626,-0.5454291203182814,0.3575004363511024,-1.2290442330558462,0.4949249594485304,0.7416680899339435,4.574727075482621,68.32,-725.16803,-681.736023,1120.0,700.0,280.0
2.636310270817132,0.724687617897771,-0.1148734837785486,0.996827376771678,2.515222752368861,2.159959903050461,1.5105215124638065,0.1192395453639174,-0.7646564186224083,0.2808145479887076,0.7606038686645777,1.337468918242486,-0.4446360625693533,-0.185775113056073,1.0136387427486109,2.033224241268109,68.32,-726.143982,-683.200012,700.0,560.0,280.0
-1.0803087076191868,2.013922796148203,1.7843077642500562,-1.769075886898514,-0.7587473516658795,-2.3487745710777124,0.7865170110171981,3.5063117531487284,0.818218381932982,-0.6817532918399161,0.9147667885051898,0.7051268835522478,0.5185891753033494,-0.8980673361953557,0.3423669836965369,-2.624659616633368,64.903999,-721.752014,-682.223999,140.0,280.0,560.0
-4.105284412879108,1.6934135244431858,2.0205998127059743,-3.761187288062553,-3.652215683054171,-4.929535297829318,-0.4907197175849262,3.638931132805005,1.6550925310145854,-0.9847168615927456,0.1040098796120923,-0.7995739676928907,0.6567627876251698,-1.0158965482918014,-0.7299990451500082,-5.263927140973301,69.295998,-725.16803,-686.616028,-280.0,140.0,700.0
-3.4215663676113253,0.6328670665228258,0.7159611483280178,-2.662291816066214,-2.929395323104877,-2.9753943094850306,-0.5446284816047511,1.2097453416711208,1.4043953150996042,-0.255243318614289,-0.367882213501607,-1.3282400511887598,0.3483417175052106,-0.1129676596139443,-1.102677555982208,-3.244325859862234,63.440002,-724.679993,-685.151978,-560.0,140.0,840.0
0.2777623922886107,-0.487448483569081,-0.862500398540309,0.9296179039207044,0.4787473460066422,1.2817562418253436,0.1927978607579586,-1.465508596850485,0.3808375335372095,0.6623098732852823,0.0779282857991582,-0.3217506606820639,0.3059731114003958,1.0892286639610105,-0.2869923452708975,1.598401272371147,63.928001,-721.752014,-688.567993,-840.0,280.0,1260.0
3.3051991597448667,-1.5760177842245795,-1.6253324440505916,3.6178975376728526,2.810400716448016,3.578029070686568,0.1720125302216486,-2.7084929135685902,-1.0065670495771075,0.6335915966272868,0.4994152302364308,0.7981816457635066,0.070006347295805,1.1042216452454376,0.7668788464436335,4.614944651903865,64.903999,-721.752014,-688.567993,-980.0,140.0,1260.0
3.05149006456414,-2.0218013706944653,-1.2329461494309424,2.9546904707195902,2.2109000514331347,2.541917287808917,-0.5743373968898362,-2.1156355282912727,-2.025792899617005,-0.2334102901203279,-0.0578933551254515,0.6882876267632545,-0.9274876001562908,-0.3077221355625147,0.7849002292671582,3.2203759862200374,61.976002,-719.799988,-685.151978,-840.0,420.0,1680.0
0.5198088445693019,-0.726749525727685,0.0976157258715467,0.1058786112559193,0.365006480976781,0.35918949540927,-0.4905093756777634,-0.161303786965242,-1.5015199935443573,-0.5536236359321047,-0.9345680740352662,-0.0674115563857436,-1.4840992569267413,-1.3107396206840365,-0.026107750250484,-0.548031921994434,59.535999,-720.776001,-690.031982,-840.0,280.0,1680.0
-1.4864512167460615,1.891420371711916,1.5746141813926977,-1.967876871776544,-0.6138681210803729,-0.8788378751381102,0.7722543843593511,1.915733570827328,0.8079408191611134,0.3937499304622116,-0.6978156914609981,-0.0659708098085585,0.0522477200716283,-0.3033774140198226,-0.2940447652055378,-2.7482626993796857,60.512001,-722.23999,-686.127991,-840.0,420.0,1680.0
-1.7286194660812986,3.184016556189959,1.8812939113385216,-2.0850478694051264,-0.902348956031508,-1.428315338632379,1.413932182673965,2.479141859512199,2.890818727741087,1.2965330923336549,0.631864837117593,0.5647971949108289,2.5041177994450825,1.4765973239586183,0.2966484903478339,-2.010693349530513,61.0,-720.288025,-692.960022,-560.0,280.0,1400.0
-1.136648307979283,1.1495772806078568,0.3034975451813964,-1.3337527267490448,-1.5174579927367906,-2.0314498464229573,0.1112145217943742,0.911886683593051,2.108347726408687,0.38588328632461,1.3467860621595436,0.3080351446526461,2.349241292238129,1.264670995720626,0.3691681021079177,-0.3017157041687102,61.0,-719.312012,-690.031982,-420.0,420.0,1260.0
-0.6431838980813173,-2.45335742077994,-1.9342481143799768,-0.5444865176559662,-1.7862225038140014,-1.8129655213976887,-1.713378136909612,-1.3583440917543712,-1.2843774404369674,-1.7869267327429714,0.374878580636878,-1.1520858898207778,-1.2963244616111815,-1.1936224942151017,-0.849932118264681,0.3388560404957592,62.952,-722.728027,-691.007996,0.0,700.0,1120.0
0.0845423230626438,-3.62090414065828,-2.425399450433418,0.8003173038284722,-0.2769993654738749,0.2757368130076308,-1.6411943233379047,-2.1430601144007704,-3.621076254875653,-2.4731434062314266,-1.1357510182752208,-1.9174593623673,-4.288146097847217,-2.7182299539494026,-1.7775695695552651,0.2492249849241325,63.440002,-722.23999,-687.104004,140.0,840.0,700.0
1.3652790043923098,-0.961588919226778,-0.3410044412248085,2.582984554150859,2.271900515278122,2.891224981240877,0.3663089262489437,-0.9296698892815064,-2.004763720368808,-0.2253492365303846,-1.2933207918615992,-0.3741688373082321,-2.338077574027203,-0.8451576027764988,-0.4628067115190616,0.752553021480834,65.879997,-723.216003,-687.59198,560.0,700.0,280.0
2.182665860006077,2.5197488064556657,2.2248252841711715,2.809154940023265,3.100004325247451,3.229479173981016,1.8998952995345928,0.7114890137618417,1.883722384643044,2.787835965163226,0.0713144065002421,2.185107144226971,2.8344080698741494,2.501996155797328,2.177626243357,1.6035306361846722,64.903999,-723.216003,-686.616028,980.0,1120.0,-140.0
1.2444944415611947,3.17113076247005,2.5065864390590664,0.0864625831514425,0.9968748988189616,0.6417350886915693,1.356252903394663,1.2455309365384786,3.6456686942451375,3.122182150755125,1.3051649906053675,2.7696653439743457,5.064203395059226,3.232614098869881,2.891992363383872,1.2551317915606188,67.344002,-722.23999,-687.59198,1120.0,980.0,-420.0
-1.0277884793046594,0.8636792693071383,0.2953208834427593,-3.454409171725448,-1.9083765612624404,-2.31342624137632,-0.253525978924523,0.7700506941602819,1.491566698379599,0.2612296983092944,1.0828579388828192,0.4154794530942582,1.5804210258892146,0.3874232613817544,0.2950992659914861,-0.6268400767374142,69.295998,-725.16803,-685.640015,1260.0,700.0,-980.0
-2.5864448384005843,-1.642189685061412,-1.9627483727758728,-3.8369617625058026,-2.823170966924657,-2.983716388668229,-1.1563899531168922,0.1594129558517086,-1.8728196762764884,-2.761915338763836,-0.1881424759807672,-2.4668164418397303,-3.425681376066973,-2.713840280356815,-2.930404012365335,-2.297015347915148,67.832001,-722.728027,-685.151978,1260.0,420.0,-1400.0
-1.966562082759476,-2.3274352499393745,-2.121278041506061,-0.2122219211209209,-1.4917099309733066,-1.4566761199433105,-1.0507413055805293,-0.3321894892938938,-2.879319817527321,-2.982999100759075,-1.160012880995186,-2.8715476790825467,-4.290528012919602,-2.8073263948784084,-3.1211501668802724,-2.004979003843546,69.784004,-724.679993,-681.247986,1540.0,280.0,-1540.0
0.2013793006650908,-1.3699376577429423,-0.4482295554638978,3.562245771449495,0.3636779813006149,0.4664406662630511,-0.595397932062967,-0.7891114834925241,-1.0947657720202784,-0.6207365707088398,-1.0270376177071627,-0.5485318231078719,-0.7779879306927504,-0.3873786115771501,-0.0974207193151148,-0.0696737979950475,68.807999,-725.16803,-682.712036,1680.0,-140.0,-1680.0
2.0113707661453755,0.2846103329030007,1.2568155437575372,3.379716066921864,1.615987098525366,1.764305970847057,0.1140901657014572,-0.792791218222957,1.146096919080337,1.78323375493357,-0.0251424203536574,1.996218006158864,2.5475477400681,1.7137654432274545,2.7400288817651406,1.6835571487042684,70.760002,-727.119995,-679.783997,1820.0,-560.0,-1960.0
2.116851375368674,1.8458697654873293,1.6650055644062285,-0.2063514315238499,2.14362138070688,2.3173706550828213,1.144159214323816,-0.0355738044342097,1.8609217939773388,2.318518349967019,0.96252093804761,2.386220086431829,2.5341520871792382,1.948446432800198,2.5413636352773734,1.9788082316684443,72.223999,-725.16803,-683.200012,1680.0,-980.0,-2240.0
0.6528354149543948,2.1937113823261027,0.6967257109827215,-2.919934089131651,1.4850746348543515,1.5996483013154077,1.542172493566982,0.6966368292741301,0.9966421870776832,1.089606024305468,1.0546647985445887,0.640396818590496,0.479915154892046,0.926848705489684,0.0188287255359266,0.982601132716712,70.760002,-728.096008,-683.687988,1680.0,-1540.0,-2380.0
-1.1108250890161795,0.4942155044513129,-0.7850431555481028,-2.0520934674446387,-0.7205468617469294,-0.7113542825090112,0.3136210241644392,0.4628632231415684,-0.3846760824098041,-0.607797482512506,0.1290341900095714,-1.273531474730296,-0.8667279698998399,-0.327158433710035,-1.9227151917061764,-0.4082447711605454,70.272003,-725.656006,-684.176025,1680.0,-1960.0,-2520.0
-1.7747806111397266,-1.983350964979508,-1.4702336813801,0.7431154887919833,-2.8827282996505508,-2.975162411407496,-1.5203625295564305,-0.1489312115239145,-1.1943178844197515,-1.5253015171458852,-0.8421572969712713,-1.5981359457991415,-0.8580767328668514,-1.2978049449971754,-1.5912148660943952,-1.3980430988096135,75.152,-732.0,-687.59198,1820.0,-2240.0,-2520.0
-0.9284641313949432,-2.424708230947489,-0.5558657638729689,2.060011610176504,-2.34834154476361,-2.594899836503477,-1.6552914119293485,0.1851586868551895,-0.8214804563028614,-1.1554226086802637,-0.7415326955950842,-0.3940935027846067,-0.5449359017181883,-1.4522524913686663,0.0900895020389906,-1.5209886383247515,69.295998,-719.799988,-687.104004,2100.0,-1960.0,-2520.0
0.4220807900091307,-0.0740925249630361,1.0789310592750954,0.7699817605303563,0.8494276548194576,0.4490615630717019,0.2134646090744154,0.9913250277843166,0.3372831609832351,-0.0324341669181966,0.1950109194219053,0.768096684587296,-0.4416198251053056,-0.4349675721431111,1.1015918354278265,-0.7506857686411921,73.688004,-735.416016,-686.127991,2800.0,-2240.0,-2240.0
0.8969516289242402,2.1747667305745404,1.3766316823494658,-1.2549846642997415,3.0686511189933885,2.8349073069230712,1.56738568719517,0.2318451202852109,0.9132381345916852,0.6885769800561226,0.555819954518976,0.6373933418148382,-0.1673717946909141,0.9521665180601284,0.5814397589836667,0.4128799511312812,73.688004,-729.559998,-687.59198,2660.0,-1960.0,-2520.0
0.3907626263220549,1.4534094723255748,-0.3002767028225008,-1.635305103197911,1.568672630213324,1.964637178668272,0.5865089533343331,-2.08759965863805,0.1098493775627966,0.5014376052850223,-0.1639936803456823,-0.2781155108377374,0.410413957465631,1.272730399597354,-0.4722097260096462,1.294626391728814,58.072002,-723.216003,-681.247986,4060.0,-1680.0,-2100.0
0.0874593940686041,-0.9821221394457716,-1.8144710024785704,0.0534870790990476,-1.530251308180556,-0.6013062910475161,-1.0715252119946568,-2.693461933284364,-0.9268490567264178,0.1599169420279927,-0.6254130840273213,-0.4444463325932165,0.8706107891744549,0.367275422097685,-0.5348130780993507,1.5175913467700994,68.32,-738.343994,-685.640015,3360.0,-1260.0,-1120.0
0.5093465566443051,-1.5736174706177983,-0.8805546740194325,1.966380242879345,-2.0750837225333987,-1.5161546374749133,-0.7677553714994091,0.4925603829936664,-0.4932066710857931,0.3881247301740234,0.2598258918990487,0.48415836558342,0.8150256590904317,-0.4252430526240819,0.4971619263959396,0.9297299542851128,72.223999,-733.952026,-689.544006,2800.0,-980.0,-1680.0
0.4947124095388011,0.2213021490393187,1.4538768485625655,1.7682977363309778,0.2073288373206477,-0.3930793000193545,0.9558600021757844,4.19247904824371,0.9562878890854676,0.4853831434692955,1.2258477600859012,0.9722682949942076,0.0917962504616703,-0.3772985686302367,1.0184610139276893,-0.5378118128218038,72.223999,-738.832031,-686.616028,3780.0,-1120.0,-1680.0
-0.8688686009238901,1.2885051026969296,1.9143746793651348,-0.8090368991650769,1.5460267193913364,0.2321559573023288,1.1683702680199968,3.23625413073521,1.144333303816217,-0.5426512102101395,0.3439526081946111,-0.1743040757198611,-1.0696385936857744,-0.3135555475497062,-0.1469523968269681,-2.2377822476835543,66.856003,-723.216003,-685.640015,4200.0,-1120.0,-1680.0
-2.081242637117522,-0.0148798010774537,-0.2278101265159146,-3.029212613463513,0.0550389156800891,-0.5872856844832461,-0.6884721011077036,-1.97148921958112,-0.4644598606617224,-1.708297087192773,-1.5516323736477975,-1.6125122902790907,-1.606980652846429,-0.6744063595884775,-1.6838205709984362,-2.423769047743919,67.344002,-728.096008,-685.640015,4620.0,-1120.0,-1260.0
-0.828252733101515,-1.1830918968111024,-1.81754489588382,-1.7929364227981377,-1.4276781331369153,-0.6785316606055749,-1.6556103419169927,-4.995917942971965,-1.3996503265169769,-0.8077181987576082,-1.438951255628982,-0.9700079731985644,-0.2859959079510567,-0.2860422299283821,-1.1128744474925527,0.0636996485649371,67.344002,-725.656006,-681.247986,3640.0,-560.0,-1260.0
2.174825066574146,0.1264732543579637,-0.5087491796017657,2.154426252745377,-0.1181830821178603,1.1735728640635563,0.065602329193021,-1.854263218703728,0.0465746792925151,1.8755627255659268,1.1893460298545542,1.4466506228134357,2.1181408158666466,1.3411862050271666,1.480417627119526,3.3581475085747887,64.416,-721.752014,-685.151978,3360.0,-140.0,-1120.0
3.0910995572859163,1.7499298074059857,1.4230242321098916,4.042363092754688,1.9119468370925,2.360676525637361,1.894085092297008,3.2171820762331094,1.601391994474948,2.737713778537009,2.627322313664395,2.319859954202059,2.470972943545936,1.9645045775726235,2.6567247090616912,3.5085567424975976,66.856003,-722.728027,-684.176025,2940.0,-140.0,-840.0
0.0156409664841826,0.2649146402705806,0.5014595231606673,0.783994638192482,0.8856192694661645,0.2068344550831087,0.6669707835095298,3.501265756343554,0.1959697410783754,-0.345874023319505,0.0361867880301522,-0.1745672726409826,-0.8300162850919734,-0.4887079826991276,0.0763133375769511,-0.6513968812896457,67.832001,-723.703979,-687.59198,2800.0,0.0,-700.0
-3.5943026723160765,-2.82025406422066,-2.0961515090579663,-4.119782101588541,-2.239269681717707,-3.0856322608871256,-2.07358680358783,-0.7800862600118769,-2.594487550370478,-3.9114554158907806,-3.543023868771717,-3.0865190463169814,-4.270826814704817,-3.574715075794116,-3.416416955437303,-4.763277339746721,66.856003,-720.776001,-688.080017,2660.0,280.0,-560.0
-2.887260709732169,-2.3777751349530107,-1.7512973370624567,-4.144331389200215,-2.5557821508687817,-2.7173059328097127,-1.9130795627697843,-3.0624429268460664,-1.9424313907450057,-2.6731658596476784,-2.592359102406221,-2.1272231038357434,-2.592904551176573,-2.391831199248364,-2.76422833664889,-3.4814792887447736,65.879997,-721.752014,-684.664001,2240.0,280.0,-280.0
1.6402556120867675,2.313069162395117,2.23201256360237,1.4836274061542638,1.217645435830413,1.5713712329829443,1.587776154601976,-0.2299970336914207,2.668829611353833,2.7454008659411766,2.6855959272613803,2.1215712533416964,3.501409370536017,3.003846480092254,2.1062291693033592,2.3165206532222262,66.368004,-723.703979,-683.687988,1960.0,140.0,-280.0
4.232473998800322,5.130119309389907,4.403272029498146,5.754673539634193,4.002113510304515,4.249279478731511,3.5217881472000903,2.933616176166944,5.117414873864406,5.416217671167404,5.413567419034871,4.195417786945503,6.416789174809732,5.815678700195081,5.051404592353113,5.633185992332419,64.903999,-721.752014,-681.247986,1960.0,420.0,0.0
1.4443355537883162,1.3351066057797965,0.6834792489333,2.737325074241957,1.443525981287118,1.4482410670454682,0.5892272550201526,1.2273981845240651,0.7587734577918223,1.1591381023931504,1.126171947678091,0.9283181600743924,1.175344950495523,1.133752392598397,1.558861469772026,2.041606780712097,64.416,-721.264038,-687.104004,1540.0,140.0,-280.0
-3.060479791994289,-4.909758893633511,-4.864140954410853,-4.032521839419749,-3.350939730146548,-3.293388883195366,-3.627972601032008,-2.929327176035059,-5.842482536130135,-5.037449104278501,-5.31784287027791,-3.8019709845186167,-6.628083492597076,-6.111270476954486,-4.4783337167092245,-4.119659781467112,65.879997,-719.799988,-686.616028,980.0,140.0,-140.0
-3.41575052359436,-5.441632367203272,-4.790930677387795,-5.758129300282489,-3.840596063847486,-3.687934581658905,-3.325643651641609,-3.1159502181605085,-5.854136118424135,-5.078963289180926,-5.521033855243025,-3.8869943755612506,-6.843252109107148,-6.389974552871366,-5.203187458736434,-5.030504017178523,64.416,-719.799988,-689.05603,700.0,-420.0,-140.0
0.5021230719747699,0.6884683509672944,1.2854100745429922,-0.1970578527235909,0.6237866453337582,0.5760100500702171,1.2549851776680605,1.2928910020688795,1.6393827299454344,1.229003090289556,1.1112159429457764,0.780302724199692,1.6337329979223174,1.522097873685155,0.6535370377036659,0.3121157899509145,65.879997,-721.752014,-685.640015,700.0,-280.0,-420.0
3.179497942594568,5.651052358372238,5.612850113261236,5.2210982505630215,3.8519380801181655,3.548668320023052,4.003414078418109,4.026995802606607,7.406543282050275,5.6391105709569205,6.22603032455895,4.089455570028262,8.350984146207583,7.892585054411253,5.636099697992609,4.771545691978616,66.856003,-720.288025,-684.176025,140.0,-560.0,-420.0
1.2980138894869342,3.445576192658251,2.7900084346369165,3.593548340898016,1.7036006276734037,1.5164233866751418,1.4871803843096745,1.2156796116077138,4.046554823342992,2.615956341455642,3.5754382952641874,2.0090407654157545,4.669471370045756,4.523817318728094,3.387974608759785,2.742977725766797,63.928001,-722.23999,-684.176025,140.0,-980.0,-700.0
-1.9188119245831723,-2.262304119423985,-2.8999212265079866,-2.1728876900368683,-2.225302712981522,-2.0517601276352777,-2.4265075305828354,-2.923607959781328,-3.9510617715219993,-3.250038013461348,-2.855702804839327,-2.122290427502616,-4.577325081154092,-4.190921433757081,-2.8309302827838,-2.45996382648241,65.391998,-724.192017,-686.616028,-280.0,-1260.0,-1120.0
-1.7592554933410316,-3.860094570808291,-3.770197841921624,-3.976837629836485,-2.242521106612799,-1.978631042788093,-2.375592316857978,-2.4692511094037863,-6.2555766447396834,-3.9248836526060815,-4.700334454998028,-2.6029403063215995,-7.409363354493161,-7.076449032649817,-4.7449138982987655,-3.605866695935473,64.416,-724.679993,-688.080017,-280.0,-1400.0,-1260.0
1.1713742994621188,-0.3331969770022492,0.5090982401071238,-0.0885614018168443,1.1375054194477006,1.1181788621626965,0.9332757149740436,1.4706827782273637,-0.5894198761634937,0.8867341990791493,-0.5189229762205153,0.6354950028415101,-0.6859788564632213,-1.0418370556230494,-0.3376567015070558,0.3683481980724935,64.416,-725.16803,-686.127991,140.0,-1540.0,-1400.0
2.174905094127666,2.3448802569526674,3.0831427028485248,3.0167873889556955,2.416847006803419,2.1921333271835883,2.256783614748548,2.7050017540028404,4.783437860762275,3.8367147194836178,3.117074111882907,2.3868033000782125,6.10401206594601,5.355473784091493,3.8567816426196337,3.3624381861428088,63.440002,-724.679993,-684.176025,420.0,-1680.0,-1680.0
-0.4439376647739022,0.5375090097646339,0.2757439787555289,0.7023862488936652,-0.438340291282826,-0.4962869953734554,-0.2775723827647764,-0.6068679376427926,2.932055767856091,0.7253632636220166,1.45824886642151,0.0129983078374683,4.123916541105346,4.004971601534646,2.208850098462287,1.1269683091008893,65.391998,-721.264038,-687.104004,560.0,-1820.0,-1960.0
-2.885729740618195,-2.162041284130621,-3.244423003667084,-3.041718507604941,-3.0744672106371875,-2.874129197812309,-2.6275317785739265,-3.2745999185956376,-2.5844086447875787,-3.681002945008073,-2.1278062959761286,-2.762861391235242,-3.1308055458911674,-2.213190208524195,-2.427069836146236,-2.8634662310451096,66.856003,-723.216003,-683.687988,420.0,-2100.0,-2240.0
-1.405908451959777,-1.040423558360014,-1.7442254979022855,-1.9252102234035635,-1.367969704520615,-1.1957255678491003,-1.0309645360649655,-0.9689040982506482,-3.651986367166468,-2.8113619014030693,-1.8443322892447496,-1.4782938960680791,-5.4644892870855095,-4.459495940716563,-3.3116345846411708,-2.742971141894118,67.344002,-721.752014,-684.176025,840.0,-1960.0,-2520.0
2.265475287514444,2.454265970012613,2.946196186928569,2.91904704978921,2.5100702061881486,2.4403887788436265,2.441888250037624,3.2483850694137177,0.7569232799140985,2.2632960120746417,1.87054842207641,2.3916333767720728,-0.1744798458533868,-0.3459699438858337,0.5928638630043299,1.3361488671211028,64.903999,-721.752014,-685.151978,980.0,-1960.0,-2660.0
3.2849456336662386,3.006898054644674,4.088172637342881,4.360049855194043,3.304102952621443,3.103791303684383,2.923854275665696,3.342616490801167,3.8552292052664594,4.5197519977202525,3.2626928603443104,3.4157343776120648,4.997765628431196,3.710572521638171,3.628820422394333,3.6833674694085192,63.928001,-719.799988,-684.664001,1400.0,-1960.0,-2800.0
0.2854668884627203,-0.6131045660991598,-0.204874208334764,-0.2720085593245699,0.0560219015400855,-0.0802929331395127,-0.3502507636390364,-1.0156172342320662,1.2797345729684442,0.9178220290549904,-0.12047466155599,-0.0655407869985691,3.1772113636647563,2.216484868830318,1.7088906692549632,1.2053046468211417,65.879997,-722.23999,-686.616028,1400.0,-2100.0,-2800.0
-2.9470094560512776,-3.750044901218008,-4.319976941720491,-5.050748445313034,-2.930231713562319,-2.95284536607403,-3.1352207288850527,-4.075259777203594,-2.992770833842381,-3.6426736878757975,-3.824441252449999,-3.533547860172144,-2.599623406475315,-2.147268301055675,-2.286071129215138,-2.5854944527711625,67.344002,-720.288025,-687.59198,1400.0,-2100.0,-3080.0
-2.5918325633913413,-2.408198486675602,-3.0443110901166754,-3.619923335938344,-2.221409726601637,-2.123679784823872,-2.0792423630212595,-2.0600282187471937,-2.9391102177368023,-3.374939709251362,-2.794683194217183,-2.507994404944192,-4.467200447938379,-3.198873140190336,-3.035594723096568,-2.813529160712366,64.416,-719.799988,-683.687988,1540.0,-2380.0,-3080.0
0.5235359362930083,1.5253114579294884,1.5567560193092989,2.110933798552165,0.6031500370565639,0.8488297947096526,1.0940951628628437,2.025891432150265,0.9577141941830604,0.7603683057809816,1.6761563777552655,1.453382522580285,-0.5757007544159599,0.0247175680478897,-0.0475300704454277,0.266011199696962,65.879997,-721.752014,-686.127991,1680.0,-2380.0,-3080.0
2.528321004003726,3.2735197858401937,3.563951979205073,4.852603377596804,1.915743591329844,2.158859553206403,2.422800490242631,3.052091224142684,3.060989025933224,3.119457131560316,3.924837736479061,3.144785454071539,3.358673152045528,2.757327838026067,2.385934082514415,2.335868287340963,69.295998,-717.848022,-687.104004,1680.0,-2100.0,-3220.0
1.5065707455098405,1.3864346789429678,1.2411187676491775,1.7861557064440794,0.9008602317595,0.8063639394399059,0.9025992006206768,0.5492055153453682,0.9016236496351024,1.2800119474491538,1.5067026937343375,0.7742595873463436,2.5312102070967795,1.640029694285138,1.4625735622962497,1.18231286114683,67.832001,-721.752014,-683.200012,1680.0,-2100.0,-3220.0
-0.7442979302532685,-1.2873257117802808,-1.5974272136950356,-2.453152106279673,-0.3768437927244724,-0.8628320712454527,-0.9790494690259468,-1.647342205072772,-1.910336005784437,-1.4502125470748066,-2.1280404529742323,-2.082130484109475,-1.0675746795894607,-1.2047478798165798,-0.8731084508046757,-0.9579522200199176,65.391998,-724.192017,-685.640015,1820.0,-1680.0,-3220.0
-1.6117789629969832,-1.97288876561996,-1.6246328812612467,-2.840490796752881,-0.5267745253351908,-0.8893161969891575,-1.11592934892187,-1.205893474266578,-1.5662939670166731,-1.4438358152712518,-2.7284216754658943,-1.7600107171701806,-2.5397573997310223,-1.9829827752108564,-1.4298451658165312,-1.247420575451067,66.368004,-723.216003,-683.687988,1680.0,-1960.0,-3360.0
-0.7161460659612322,-0.920677502918659,-0.0458928474931717,-0.2858301777560441,-0.2563469423960157,0.0353097649621167,-0.1592618632383921,0.1902139932112561,0.675372113050363,0.4193794636645492,-0.4450912157343946,0.7347610815393149,-0.8048246086352375,-0.3745350111749498,-0.1085936976905767,0.0214230425780104,70.272003,-719.312012,-682.712036,1960.0,-1960.0,-3360.0
0.4593683098865877,0.2324601847555667,0.4093773979567278,1.0920579154824053,-0.3543413198148543,0.3422420056387441,0.2743898151929789,0.314195697651227,1.2147555639031735,0.9629202520941466,1.4409904572997223,1.7497586470273552,1.1546786086423004,1.0257017133867026,0.8265390913639705,0.7319385922082068,69.295998,-722.23999,-683.200012,1820.0,-1820.0,-3220.0
0.8399681650679628,0.9363809752801328,-0.1558190857107761,0.35717526284,-0.2540355134973377,-0.0084257849967888,0.0835879414158421,-0.2686612038396103,-0.2089069051248062,-0.2705966332120514,1.2683826714793154,0.2483901142357442,1.2616617655939204,0.8720596524200549,0.4040092822000068,0.3138206402288826,69.784004,-718.335999,-684.176025,1820.0,-1680.0,-3080.0
0.5915760357416557,1.3716443643031315,0.2138984211714105,0.106347581347212,0.561099900257853,-0.0112713979445291,0.2141283751268724,0.1639849166111163,-0.6875580126365776,-0.8139922437037952,0.3182202577361798,-1.2192446561828114,0.5113591154445176,0.2848676015144305,-0.1867230553199992,-0.0442002405315866,69.295998,-721.752014,-684.176025,1400.0,-1540.0,-3080.0
0.1204701447303286,1.0073383009337478,1.3543512122743786,1.28297165734503,1.0901601594670571,0.3683415148458549,0.616787115028324,1.1817696864058953,0.6837259380667632,0.4002937943548507,-0.0753509199455045,-0.6308229912655875,0.1421986690881521,0.1855909376278626,-0.0745610447749085,0.108937751379084,69.295998,-723.216003,-679.783997,1820.0,-1400.0,-2800.0
-0.5527708193786989,-0.688247858707478,0.9045831867725882,1.3296036480203552,0.1281807209837719,0.1319207483044771,0.2241569829973463,0.7532294042444304,1.1802416287192123,1.219843353742445,-0.3972676692454829,0.688722981442082,-0.5054271482082181,-0.2353284137868123,-0.0393503754604527,-0.187608373164361,68.807999,-720.776001,-682.223999,2100.0,-1260.0,-2660.0
-1.1395509062345186,-2.44423176666563,-1.553287281405203,-1.287409199808602,-1.5065908154613366,-0.8058583338840618,-0.9928764488752896,-1.2359121598530731,-0.9267515693842668,-0.1964038411419943,-1.1986951212732992,0.4732132930872629,-1.887840710869094,-1.4628798822313251,-0.6945213046955603,-1.1301271337732088,68.32,-716.384033,-682.223999,1820.0,-980.0,-2380.0
-0.7782361697188505,-1.923418359983428,-2.88945258080424,-3.573774880675242,-1.5594690208977702,-0.9945668598970806,-1.3711941415616349,-2.195690416729102,-2.860599686696238,-2.043769471498944,-1.320225632516003,-0.82536402206443,-2.10509025608714,-1.8377423326777496,-0.9141873559206848,-1.1006256246047244,69.295998,-715.895996,-681.736023,1120.0,-1120.0,-2240.0
0.767964018279176,1.0792677121188796,-0.5765517110995357,-1.704881339322746,0.5671477491186263,0.4422571226425813,0.1727560160153695,-0.3840656733580603,-1.0000411994585294,-1.1881301723519098,0.4142525634735006,-0.7698897703825923,0.6429765175568024,0.3128799617811135,0.4774953508024265,0.9053452390172382,67.832001,-718.824036,-685.151978,420.0,-1960.0,-2100.0
2.058917971970321,3.480783178816075,3.1431547854773,2.9952785877119505,2.514262834260842,1.9781555178420849,2.0785716140598347,2.278166910702494,3.2369884767354367,1.939664728056348,2.55442697652576,1.063584328134492,4.170036475059638,3.340313870469528,2.220568819157107,2.884968206085064,68.807999,-720.288025,-684.176025,-140.0,-1820.0,-1820.0
1.2582124276456532,2.249643593993273,3.573818760335988,4.864052313944159,1.689853023827395,1.300878493877827,1.724157230427508,2.443978072242472,4.348333963458968,3.25232556337251,2.166644991149123,2.014159707322202,3.784586688899202,3.3025982749285427,1.6733074432806412,1.7963905251578296,69.295998,-723.216003,-681.736023,-420.0,-1540.0,-1540.0
-1.2973865245172975,-1.60048307614396,-0.2302608384223064,1.1531567617405645,-1.279005701018375,-1.342333298360787,-0.9568386668334024,-0.2365177406589369,0.0916454289956973,0.4767138914093471,-1.0403880799117458,0.146366378186053,-1.4098511156419369,-0.8872770106007704,-1.364605646841022,-2.0228355128665862,69.295998,-722.728027,-684.176025,-420.0,-1540.0,-1260.0
-2.8337264454769966,-3.8086978865765424,-3.888203874028709,-4.068740370383371,-3.0094076446957905,-2.8501272953870376,-2.8497781192192524,-2.5861182003808234,-4.869303740066922,-3.32267845747209,-3.537340882695689,-2.520939304826926,-6.025076195058627,-5.012959763138953,-3.536114665804205,-4.300117329259459,69.295998,-720.776001,-682.712036,-420.0,-1820.0,-1120.0
-1.2935106655669888,-1.918211722879506,-3.1733575358395587,-4.847149344176713,-1.44207662338492,-1.0799321779191695,-1.45613866157696,-1.9867485349859888,-4.55888553333926,-3.4390811715454683,-2.159352170561589,-2.394437229865762,-4.3761638330149255,-4.032936469429947,-1.8591425684549625,-1.8698263927383008,69.784004,-721.752014,-683.687988,-560.0,-1540.0,-700.0
1.8209481772172984,1.7477809327049918,0.7347227273823858,-0.5827817737458973,1.587378562853174,2.078702713903451,1.6782746577348662,0.4819746287297582,0.6952131996906786,0.3186764360404406,1.642723281660731,0.7096128250648318,2.133410040734255,1.523314323977733,2.135177014398555,2.906227531804233,69.295998,-722.728027,-683.200012,-420.0,-1120.0,-560.0
2.947099983331177,3.0499340628201805,3.1433923704109468,3.745026295827036,2.6240489626636982,2.8251172340439075,2.736978961068892,1.853433231783634,4.789110139752473,3.4006791250928954,3.4448338380207923,3.0385572201452367,6.245583582754256,5.62213823779504,3.878863738105193,4.57532492274883,69.295998,-721.264038,-685.640015,-280.0,-980.0,-280.0
0.8124617339828243,1.0710380831509785,1.9398818535304423,3.9186477943771822,0.8154053666788622,0.3182518832117031,0.5539759865571756,1.136284653107494,3.5760827788340133,2.4812171718723173,1.4196964979005875,1.804800386518696,3.6359259644983775,3.750712742749741,1.3828625556091094,1.2638260795456095,67.344002,-720.288025,-685.640015,-420.0,-980.0,-140.0
-1.9637843585365533,-1.2568882708023823,-0.4379279525734443,0.761486095121728,-1.3232971262551507,-2.212964427430952,-1.9060031602938992,-0.0609497533944049,-0.6102155182067861,-0.5980760814592628,-1.6055851267227086,-1.2119964708418387,-2.0828546888413184,-1.7561899668380228,-2.285096743960429,-3.006753869794332,65.879997,-725.656006,-683.200012,-420.0,-980.0,0.0
-2.221463939885891,-1.3592092201430628,-1.1222291037366148,-2.158922813445073,-1.384545438946691,-1.748379720978588,-1.5900600250931898,-0.3577085712927552,-2.9353514801485554,-1.95450498750228,-2.165552554755875,-2.27412342417904,-4.448884503585004,-4.761781585232099,-2.9646441451108547,-3.4492814831823377,65.391998,-725.656006,-685.151978,-140.0,-840.0,140.0
-0.1283342416494954,-0.0942843211214822,-0.5210460842778808,-2.8659412982432166,0.0021221862609466,0.6435992905523935,0.6222308259530565,-0.3228647774692236,-2.1210693076579696,-0.8958624024803338,-0.469792945491343,-0.6531849443667678,-2.093441917633624,-2.660495348052558,-0.5187950533957786,-0.3186165715857794,65.879997,-723.216003,-688.567993,-280.0,-700.0,280.0
1.487830892033895,0.2207470714226066,-0.5925613367203562,-1.7544613103410738,0.5654909383030445,1.5806357653167855,1.4383578205691885,-0.8288375796842101,-0.5191332285854581,0.0867716418788616,0.7133089149080772,0.9615167009526236,0.8871403451853529,1.278471968953631,1.5814497442778304,2.10030289520753,66.856003,-724.679993,-684.664001,0.0,-560.0,140.0
1.046462049341083,-0.5556232804220117,-1.1744070156278834,0.2639035554209907,-0.2096351253763888,0.1206066132611456,-0.1016814481635512,-1.1554700298853444,0.3007893696383725,-0.2926102958746271,0.3107657009020878,0.6665433932098744,1.389630477991057,2.756939861239018,1.172291228321233,1.4142502733237328,65.391998,-724.192017,-685.151978,0.0,-560.0,140.0
-0.182802106623129,-0.5160492398270213,-0.3822288829787866,2.3061171493465205,-0.6129370888084401,-1.2406729256504194,-1.4574152081082874,-0.1114277147197297,1.0999089116320342,-0.4187911074563481,-0.0655727942410337,-0.2732493845928018,0.7685429822901739,1.4141033163166072,-0.1782525000496473,-0.339405896481348,65.391998,-725.656006,-682.712036,-140.0,-560.0,140.0
-0.519519392846879,0.9178568830022082,1.7541355509878092,2.8543547122608333,0.3870462411826454,-0.4611984303413461,-0.4862843688473737,1.6203435578044176,2.129669625738744,0.9483966006933549,0.6751439700436648,-0.0136965268580017,1.1466041910272005,-0.1476540966297498,-0.187444814060151,-0.451979372903036,63.928001,-723.216003,-681.736023,0.0,-700.0,-280.0
-0.2031710680144182,1.7775390490864762,2.551269210014197,0.8303807568225844,1.3900252862667153,1.1454111250284102,1.4274938354063842,1.9050754850084504,1.6848950014455766,2.082909368435108,1.146390692451612,0.8045890250307314,1.4309825782907497,-0.5509883272540246,0.6345614297806356,0.4981901146137213,66.856003,-724.679993,-685.640015,-140.0,-560.0,-280.0
-0.2749007913198996,0.4782007814070155,0.4587803357830401,-2.252126000587679,0.6589721843836318,1.0987465958469098,1.5029128837963408,0.1155759798111184,-0.9753022506835998,0.7961933772139862,-0.1101850474496753,0.3421539550713127,-0.4544835637786665,-0.696659104271937,0.2074964348937771,0.2067525317672819,65.879997,-723.216003,-686.616028,-280.0,-980.0,-560.0
-0.4335459071694315,-1.570339020868753,-2.2801599067068805,-3.10072991048098,-1.106660628699377,-0.5165697049879885,-0.3818232727969923,-1.7385354643224455,-3.254881939326519,-1.8185261613605253,-1.831116735378236,-1.1038432523872923,-3.0970888695355105,-1.14967834037455,-1.3734281711123133,-1.236537985309645,65.391998,-722.23999,-684.664001,0.0,-980.0,-840.0
0.3001911506424051,-1.768734703981606,-2.3992300378407387,-0.6520748565596599,-1.5879341466816033,-1.3523120812375091,-1.6653867829368885,-1.587252368537972,-2.11402883632989,-2.4734366138561747,-1.5347715197225094,-1.280723920186288,-2.7269877646488103,-0.8614118099330564,-1.6186160413794308,-1.3412873598283164,65.391998,-723.703979,-685.151978,0.0,-840.0,-840.0
1.3169541146926051,0.0225288689400256,-0.00200964378995,2.155895060711106,-0.1506885879901446,-0.3851407353650993,-0.861901949185992,0.0355030260538048,1.441794961096582,-0.2950288025075343,0.7339655212661317,0.4291333725369261,1.095427641443566,0.7069158721247593,0.4923924717688056,0.6665971509992721,63.928001,-720.776001,-689.544006,140.0,-980.0,-980.0
0.8042875672361933,1.3736897638926584,1.7596925293505716,2.032783935883061,1.2438097728624755,0.7717078646541694,0.5992992162811748,1.0027805806752814,3.1931114546271995,1.8886089120236176,2.154603209814101,1.7172085200506952,3.976975888024092,1.948678368228938,2.4665302041348167,2.1835072415805814,65.391998,-721.752014,-688.080017,280.0,-840.0,-1120.0
-1.2386154936024318,0.7858246554625983,1.1117493525712816,-0.3183800498769601,0.859572172547433,0.5624096237548369,0.8411187216405788,0.5960464968919681,1.208477302587674,1.5120760774482316,0.9631027786287728,0.6520476452459729,2.302895923022163,1.1053297653698229,1.507050059065554,0.8994952287905734,65.391998,-720.288025,-688.567993,560.0,-1120.0,-1120.0
-2.227272478878653,-0.4392494426074259,-0.319102445830024,-1.4170098465288956,-0.457452165959476,-0.2600026992377495,0.1628440016140108,0.0518172142952636,-1.7114524640636182,-0.3797615116152198,-1.1773034743203206,-1.3466497923851368,-1.83112475222796,-1.003800371609246,-1.43880415698657,-1.630596135411193,66.856003,-718.335999,-690.031982,840.0,-1120.0,-1260.0
-0.4250675833148011,-0.4955933568346823,-0.4551219696108882,-0.0873973953889889,-0.7635338609328458,-0.205982677376004,-0.0339893838174891,0.211745753469121,-2.040399031135489,-1.0868594414762958,-1.6096491449046366,-1.4872104176224907,-3.43692331588674,-1.8701320399389112,-2.710010465073,-2.0254283235550896,64.903999,-720.776001,-686.127991,980.0,-980.0,-1120.0
2.195902138999083,0.2668967212001747,0.2093287238372412,1.074284139472121,0.1015046156798703,0.417221275364997,0.2482439771691652,0.2487851227077656,-0.0758695342365072,-0.1672930364643904,-0.2113148848713781,0.3534278967694442,-1.1212981190109323,-0.6513031081341428,-0.7516521110224118,0.1572743785090828,64.903999,-719.312012,-691.984009,1120.0,-980.0,-1120.0
2.2921253814167626,0.3116406410731234,0.0005378176263059,-0.0517039597806047,0.5825415703636574,0.2116227304507985,-0.083051485676915,-0.5683867190095286,1.2167879422503227,0.5066799926857869,0.9447158490628016,1.565412593257673,1.7478760321632123,0.91223193125764,1.9352074366324004,1.904801017797905,63.928001,-717.359985,-691.984009,1260.0,-1260.0,-1120.0
-0.2756197825069383,-0.4114860785597318,-0.8430086291424316,-1.69629711998456,0.0202784282241039,-0.6895930129038077,-0.8669140913917133,-1.197843171340948,0.638977521774311,0.0022996156050026,0.7386513262881651,0.6771249212891843,2.0423497452191888,1.118810315020403,2.205712361198357,1.0881825436105246,64.903999,-719.799988,-687.59198,1540.0,-1400.0,-980.0
-2.231044175598977,-0.5178226660324519,-0.5830207348343038,-0.9152282840388076,-0.4534084547174942,-0.654384370067213,-0.6297535218587553,-0.2995393932737444,-0.2313486562191564,-0.4879011050049838,0.0899376007483037,-0.7472860833117824,0.439481191212169,0.3523869607485904,0.1403026014834524,-0.8058438995475781,67.832001,-717.359985,-692.471985,1680.0,-1540.0,-560.0
-1.4052622154920378,0.3024423176688504,0.8551762688860847,1.6729586689851952,-0.002906404263692,0.6135384238869517,0.7856978205516143,1.309065332615795,-0.1474110743143945,0.001363328576853,-0.080149682147969,-0.7867208121033695,-0.7125401153015057,-0.1580429446264387,-1.6161079281275936,-1.229942586563627,67.344002,-717.359985,-689.544006,1820.0,-1820.0,-420.0
0.5697643800748041,0.6579256351028392,1.3598346135944508,2.448233441939045,0.449045944083705,1.187877651156397,1.3863043595183873,1.390240589053622,0.0744867888089951,0.5778430269915585,-0.2201535342154347,0.0436828158358574,-0.8149184707284939,-0.3076380132445913,-1.4268848515482495,-0.1572415639496479,67.344002,-717.848022,-691.007996,1960.0,-1820.0,-280.0
1.0722928769946607,-0.1586192313992389,-0.0947658648999138,0.0202132723307153,-0.1279947416305384,-0.1466078761582162,-0.0633158695187542,-0.4270616260215037,-0.3958384621145205,0.1883643126869997,-0.7686886356531953,0.114242854274271,-0.7064249970007014,-0.6517114104420247,-0.1302761319163034,0.5181508767226348,68.32,-717.359985,-688.567993,1820.0,-1960.0,0.0
0.2210965208514863,-0.8092586479555498,-1.5627346251614105,-2.597774600810519,-0.8887047735966456,-1.63132236692391,-1.737370843793089,-1.7699841234574845,-0.6605089665446046,-0.5071858264177089,-0.8506787720530087,-0.441670014701837,-0.4693396557101569,-0.8443998968487569,0.7547571744108896,0.1420834360163592,68.807999,-721.752014,-689.05603,1820.0,-1960.0,280.0
-0.0282136936112907,-0.0615988060504582,-0.8961228601731099,-2.103481710940843,-0.3125742013934628,-0.887239890225406,-1.0928144808533824,-0.7567449515818118,0.183157214575741,-0.3378057663296339,0.3229800050752771,-0.1462208309823667,0.3806855090066418,-0.0790634893043428,0.8190148133859761,-0.1326726895967543,68.32,-722.728027,-690.031982,1960.0,-1820.0,560.0
0.5649130221689709,0.9916203191942768,0.9601579489004372,0.6917465622803525,1.1312460796709962,1.3538539966485814,1.247612503281596,1.2372913498703928,1.0401326247583735,0.3004977937989462,1.6175137748281454,0.9702238205014714,1.1893689354095789,1.157979265242442,0.4561573399949022,0.2717804567399244,68.807999,-728.096008,-688.080017,1820.0,-1680.0,700.0
0.3117291157901329,0.5380374131260958,1.3596665354045874,2.323867568425239,1.3236939073258895,1.991221533199416,2.081681131317215,1.486634185972745,0.4154363074667928,0.2193175553722511,1.1800872757723804,1.107234804022724,0.7446858366838238,1.325291646731494,-0.0488486905856141,0.4161538279082552,66.856003,-729.559998,-681.247986,2100.0,-1400.0,840.0
-1.072382133534701,-0.8638772495141204,-0.027383403264554,1.3988161705105515,-0.2807372363753064,0.0334264589116021,0.2006823979763008,-0.1820872229695878,-0.8378695519885397,-0.2855179720785945,-0.7111700097759684,-0.2995270042387832,-0.4856493285352649,0.0971057587220084,-0.4539869043943889,-0.2012527180252207,67.832001,-728.096008,-682.223999,2380.0,-420.0,1260.0
-1.4435089629039417,-0.9068427181005582,-0.864139402469904,-0.2936848839534195,-1.5487742468447656,-1.8508955659645907,-1.796002153243738,-1.2613360183834323,-0.582422160698285,0.1173260693934235,-1.68963649392145,-1.3340718383709431,-0.700539952547009,-0.993555416057027,-0.3815317748979773,-0.5243214159341674,70.272003,-724.679993,-680.76001,2520.0,280.0,1260.0
0.3186132799472102,0.6838650278621328,-0.0218667607201942,-1.0482400213779344,-0.741952424105292,-1.205102322407591,-1.293313261396546,-0.3798020485132744,0.9442397235387192,1.075914101223941,-0.612622268448422,-0.5251864853193994,0.2599380086738556,-0.8126918378056863,0.0577155146822623,0.1407403164550008,68.807999,-724.192017,-676.856018,2240.0,560.0,1400.0
1.9081925682327268,1.2880628864653143,0.5839872776223098,-1.2436723495757531,0.7957007051222175,0.6742434351169924,0.5825198467687313,0.732356678320706,1.008595282718032,0.5090572773927831,0.7587661180597011,0.6695630491753133,0.3544148642316926,-0.226090806408371,0.0700887280917554,0.5552604954948966,70.272003,-723.703979,-677.832031,2380.0,700.0,1400.0
0.732889512751566,-0.5695334821974739,-0.6631009080906722,-1.4048525814253183,0.6731831937018993,0.9004552098898024,0.9171555182681388,0.1224366393023253,-1.2453946645617826,-1.8152440154044995,0.4594213116808013,0.1659282685274021,-1.197191639334504,-0.371363113223076,-0.592003196975782,-0.4707599906273741,69.295998,-723.703979,-676.856018,1960.0,840.0,1680.0
-1.7761987747490815,-2.3253989738605494,-1.8953057358867844,-0.5028968444762407,-0.7356307222711516,-0.4779120377593341,-0.3984021231621063,-1.140932622807401,-2.666066000530487,-2.77433419940008,-0.6051458876345932,-1.0930106281246672,-1.9154733312872207,-0.4800980403359375,-0.7823387245815911,-1.546581322282856,71.736,-722.728027,-678.320007,1540.0,280.0,1540.0
-1.7401786888089843,-0.7500824308911518,-0.3227327778229865,1.9787716592078,-0.7517666758197764,-0.6546578255586774,-0.6290859136294468,-0.5406961634502843,-0.3540969708826489,0.0226070641963633,-0.0988135264824943,-0.3472880615682587,0.4211854248186225,0.820819590108148,0.5282727542031233,-0.3521860820742635,69.295998,-725.656006,-684.664001,700.0,-280.0,1540.0
1.3145298498907547,2.8171937068181534,2.911901803388272,3.6674218879043616,1.2524977192459663,1.224986640740532,1.1611829593891487,1.7087955013444345,3.4824002514303185,3.950154848107277,1.7519332776185388,2.211253024028144,3.596380797942948,2.533269145441724,2.178251534532972,2.359540302612248,68.32,-726.632019,-685.640015,-280.0,-1120.0,1680.0
3.1066987587174,3.502215467702724,3.3989451506961608,1.5953369048868395,2.339448782194172,2.2281087155636685,2.1473586469053267,2.3988684003598726,3.764780929305896,3.91916936809938,1.8948118819794264,2.7697409174476,3.1448988975383303,1.849633265428028,1.732604074176079,2.88689947954403,72.223999,-728.096008,-687.59198,-700.0,-1820.0,1540.0
0.5206564858248646,-0.4002994645665743,-0.4142614182493062,-3.108169186043337,0.173384748660225,-0.0541813471093926,-0.0623486965561612,-0.1285205085317137,-0.5400437975792834,-0.794653630572066,-1.0496534117715142,-0.6481040386898327,-1.318469920798759,-1.6537727191638778,-1.1131253931105949,-0.3304865958880352,68.32,-732.0,-687.104004,-980.0,-1820.0,1540.0
-3.463404766410102,-4.458546084308869,-4.380301351778141,-5.307735652123949,-3.068535788285423,-3.3292607163125245,-3.243242132846311,-3.14431197627264,-4.57913238463263,-4.990204596178355,-3.9489248291944063,-4.4049664772209605,-4.830932966621603,-4.336532065567547,-3.418032896795421,-3.843470551829111,70.272003,-732.0,-688.080017,-280.0,-1120.0,1540.0
-3.4127384583394687,-3.605715785759385,-3.734463003197328,-1.9322320868778744,-3.179065705696209,-3.1926995712826423,-3.0788271317391382,-2.850365309923064,-3.749467327029415,-3.953137805963394,-2.722255171341212,-3.4975491456710666,-3.31645177858076,-2.6610256872611373,-2.364300817392514,-3.32221090670836,67.344002,-737.367981,-688.080017,840.0,280.0,1260.0
1.0072770939198468,1.1914263043596882,0.6967954162905893,3.687150546035984,0.3372118744730675,0.7601390717339483,0.7907289701082596,0.5566756946095734,0.6079346485986838,0.7572177872029107,2.0129663250246472,1.5199370865335322,1.2303705248331147,1.9964404732960888,1.1039666272861817,0.7040087195200028,73.688004,-735.903992,-685.640015,2240.0,1540.0,1120.0
4.295427968536598,4.291854175005982,3.7974412383295872,5.442724095142677,3.440113960711003,4.042513983773711,3.933324430064957,3.150261626454,3.5372660448200226,3.858684113548186,5.060526459118934,4.868566756890649,3.760639647706512,4.671319863294997,3.3609038032552983,3.599028847867957,64.416,-732.488037,-684.664001,3360.0,2520.0,840.0
2.462226922047672,2.715352506199696,2.8834312201449204,1.7162441438064575,2.862638153932821,3.045304459733865,2.881682924810401,2.398771495461743,2.885734182775854,3.104419234344222,2.873477446720855,2.995386054044303,2.666134079072336,2.772486805699035,2.4654285056086764,2.714085694265336,65.879997,-727.119995,-683.687988,4480.0,2660.0,560.0
-1.78674509582421,-0.7249292508415041,0.2935737162036463,-3.020112409042621,-0.0025898461565412,-0.5771120489236418,-0.6228257662901857,-0.0602464890158988,0.7883081583779916,0.8047094279072406,-2.1044063621520785,-1.2162949924769793,0.5497371482556276,-1.183699753886432,-0.0322930839393211,0.124391838853748,70.272003,-727.119995,-684.176025,4760.0,2380.0,280.0
-3.1269543863129465,-2.125024041388072,-1.034971827127205,-3.9797851049073327,-1.780001838463323,-2.709809103218949,-2.572035292819413,-1.4122532372468242,-0.6286849631604959,-0.7676239348220658,-4.54387971170704,-3.002507372339411,-0.6662199906103149,-3.240668426757567,-1.7447145966107889,-1.2719206563381134,71.248001,-723.216003,-684.664001,5180.0,1820.0,0.0
-0.8206756397190444,-1.5014967932213987,-1.5262581088109917,-1.3778356446415216,-1.7481302052031715,-2.1627562264528084,-1.9863290975197625,-1.4304419640783232,-1.847672188370773,-2.118072745695851,-2.516565301566834,-1.892674269857194,-1.9407339799307224,-2.522659763614077,-2.204223235810176,-1.6599698155014102,72.711998,-725.656006,-687.104004,5180.0,1260.0,-140.0
1.1377147008116422,-1.156935195110996,-2.603286568519454,1.11866677582978,-1.5426459994190251,-0.9553109388244394,-0.9344504276131732,-1.535665778047862,-3.278492794065769,-3.6070318726357486,1.0357714509535207,-0.7560633168861094,-3.596357235758521,-0.8275221206073251,-2.027294127765989,-2.3818055861435905,73.200005,-722.728027,-687.59198,5180.0,420.0,-280.0
0.4307325968155009,-1.0838848314980014,-2.754299488261245,1.577846417815463,-1.3110900001378143,-0.1730491363653953,-0.3083696249400735,-1.4360864727240668,-2.8262945199338807,-2.9056883807611262,2.657450400326658,-0.3791285376413751,-2.9569413501471864,0.7341045913168179,-0.83998637777213,-2.225134392978887,73.200005,-721.264038,-686.127991,4760.0,0.0,-420.0
-0.5298045082381724,0.7410943031797926,0.5430060330832133,1.2661720935763727,0.6691467942481465,1.3454568063356656,1.2361192778991,0.5718837026630755,1.1590014456563116,1.635297408823265,2.082166222380786,1.2180492910598006,1.6893321680408284,2.385424815640328,1.91231995714184,0.9758957585016708,70.760002,-718.335999,-684.664001,4480.0,-420.0,-420.0
0.8078009498747615,3.726462638423144,5.392388716679938,1.3615397511255036,3.917653751418717,3.5114813857111447,3.5354586278141484,3.74818006642553,5.715149849281907,6.478204258028295,0.9281449238639604,3.851616353880289,6.540402637086323,3.356748078575482,4.437984411280514,5.338959301812243,68.807999,-717.848022,-681.736023,3640.0,-980.0,-280.0
2.46140524294772,3.829600404650224,5.836877128713701,0.7663737873941755,4.380735681774032,3.2322932391827948,3.29215162555309,4.147167855575528,5.34545201764714,5.540796751784347,-0.3139449580867001,3.554073096983737,5.452258698404274,1.641996299241476,3.3335456471870075,5.295283873346403,68.32,-716.384033,-685.640015,2380.0,-1680.0,420.0
0.8050673782467198,-0.8241331131609888,-0.4492648495597668,-1.5220564695418124,-0.357924844390765,-1.279414954752563,-1.300098802171503,-0.324730744125101,-0.918649407840066,-1.772814748924708,-2.0228835791953115,-1.6055914417136286,-1.875625188666723,-2.612551356370697,-1.85432504456501,-1.0929794060144638,66.856003,-717.848022,-685.151978,1820.0,-1820.0,980.0
-3.162538754988085,-5.811323531317847,-7.426911467079344,-3.5365182103119577,-6.1449967493032105,-6.086703730079215,-6.122377859602991,-5.676147737743343,-6.96575609579964,-8.134039966269818,-3.078682698947082,-6.713696974811987,-8.001037062328415,-5.389012538390058,-6.36147890316212,-7.716381830216959,66.368004,-718.335999,-686.127991,560.0,-1960.0,1400.0
-4.138118445570948,-4.944667391132128,-6.90921685943767,-2.1830607278955787,-5.984745068827023,-5.0047004158530966,-4.922859314466022,-5.533570937592833,-6.1051049301919145,-6.240101027500629,-1.3858007029138084,-4.990655387104091,-6.005662638656875,-2.8807802517602763,-4.7792480112626174,-6.637444927904346,62.464001,-722.728027,-684.176025,-140.0,-2100.0,1820.0
0.0979676705022095,1.554221740442744,1.129845270570606,2.092347979150061,0.9561597903099316,2.061851649631057,2.2037436744957124,0.7724867643167186,0.9222259400801878,2.173367310844895,2.515814203211036,2.810892555569994,2.0623316266299683,3.085986843889578,2.10951127772456,1.8080510655257127,63.928001,-725.16803,-688.080017,-700.0,-1820.0,2520.0
4.753363851746003,6.4640634393908485,7.782492119242412,4.696455685729796,7.166580022121226,7.490943427511437,7.477368384448723,6.453001361862901,6.575633383893034,7.959013502378958,4.545325894475616,7.955968120353051,7.4522640010407155,6.123982327613732,7.158830120853047,8.443954405280584,63.928001,-725.16803,-688.080017,-1120.0,-1120.0,2800.0
3.8997023012758656,4.2009561468340975,5.759654602209095,2.250611584857962,5.510471584243074,4.773904624650507,4.552224630876525,5.096396574699859,5.190819829828683,5.181485998789957,1.7342578746937527,4.270479711855529,4.905982336571237,2.6794881730201694,4.73093243883571,5.936724873886806,65.391998,-730.536011,-690.031982,-1260.0,-700.0,3080.0
-1.51403373462359,-2.2983696726900726,-1.958866997904839,-2.736901762007845,-1.9102329546728096,-3.0756250765325506,-3.262647055968636,-1.505099673133946,-0.9047511718384692,-2.3452692950848286,-3.258962563775747,-3.8666835797375367,-1.852146769185949,-3.400020545502768,-2.5261238322867645,-2.4813431871295344,63.928001,-727.119995,-691.007996,-840.0,420.0,3500.0
-4.7419575337716005,-5.431155724403917,-6.291591599040941,-4.50780725278761,-6.409025823386526,-6.972808230157803,-6.882696216487404,-5.671069364260484,-4.852125019519328,-6.228062069414868,-4.676677644662171,-6.970144871595533,-5.376860492284803,-5.33764537394484,-6.580556933206397,-7.229616053249532,63.928001,-732.0,-691.496033,-280.0,980.0,3640.0
-2.1283967473367795,-2.3322949187759243,-3.2594036840479967,-1.1467438918227726,-3.481398282583516,-2.9763969379250046,-2.6978240687209056,-3.2811788753175954,-3.326350456173831,-3.282051579475892,-0.827063433502033,-2.2409724637019925,-3.083469460436552,-1.5016827153956642,-3.378553629697228,-3.8916954712811545,65.391998,-729.072021,-690.031982,700.0,2100.0,3780.0
2.39502929998679,2.3656827353875274,2.179040395966353,3.0348718446119003,2.3220249946085905,3.3417167264658096,3.492558086907236,1.833921833206028,0.6556215603205393,1.960221669844898,3.579297113535078,3.754461676077269,1.1487779757155503,3.1015164254282506,2.7399037291630948,2.475875790192764,62.464001,-730.536011,-691.496033,1540.0,2940.0,3640.0
3.095812290122524,3.220159427846514,3.553021797189972,3.080039581664277,4.104728454666569,4.666739828771227,4.54315983689088,3.604172852378724,2.505361287343367,3.75761396533516,3.4036796476234867,4.251579964501215,2.757935856399997,3.425732625117803,4.774784346747514,4.628746868841533,61.976002,-729.072021,-687.104004,2520.0,3360.0,3640.0
0.0244670869555775,0.5342268569236173,0.7908338144427901,-0.4020225183015634,1.1833848894091246,0.9127848976230688,0.6876603167528297,1.2181125336151637,1.420549737313526,1.5605930798710776,-0.493977057528593,0.3488037744104009,1.437177500612533,0.2223505556501928,1.414881140711178,1.67077700223942,60.512001,-729.559998,-689.544006,3360.0,3780.0,3360.0
-1.995657963261884,-1.4359977717915284,-1.356403899716193,-2.5490118129178,-1.5741093498867689,-2.204863981709173,-2.297087725309541,-1.2421940381761116,-0.0519999559898643,-0.9785999231570758,-2.904156675770375,-2.1339846006697054,-0.129208340361414,-1.99615759086108,-2.3460217213355774,-1.5603029201796703,60.512001,-729.072021,-685.640015,3780.0,3920.0,3080.0
-0.6459242405353907,-0.8045376731625589,-0.6093429608508938,-0.969871812087892,-1.2024996274079551,-1.5893916251109512,-1.5192286842278595,-1.1265598045083436,-0.2636319845301103,-1.3894555409095397,-1.351543379312258,-1.0628544787159242,-0.4473109367774152,-1.173558531030835,-2.2340575333986896,-1.666161388639697,62.464001,-729.072021,-684.176025,4480.0,4060.0,2520.0
1.1699103222009382,0.2620365845207459,0.5357200643995177,1.450929789009129,0.1662588385603514,0.1125018951649135,0.2245798346723833,-0.0508862219363948,-0.1693008977933539,-0.6161947828850389,1.2260836473544334,0.3621509382754365,-0.4023763837109599,0.437055440020283,0.3162856150579001,-0.1868675640009331,61.487999,-728.583984,-680.76001,4620.0,3640.0,1960.0
0.435388121333419,-0.1825047253540621,-0.299318358747573,1.1692501698067304,-0.1662779636637515,-0.094945784689939,-0.0143766359625259,-0.1845661790702853,-0.8422833007310213,-0.33876251435047,1.2834126873277545,-0.3719527299450593,-0.8923001677177228,0.3599978351111001,1.214394359803978,0.0596887592250492,63.928001,-726.143982,-680.272034,4620.0,3360.0,1540.0
-1.3719442444429473,-0.8763805919358999,-1.523875376550595,-0.9613667790703672,-1.1248504287339984,-0.904357230930692,-0.8604158868978773,-0.6962184142331711,-1.3224945754904975,-0.3398570919878514,-0.489237206264703,-1.3344909304871224,-1.1483303871282369,-0.6342978203228743,-0.3249510426407683,-0.7202908656400366,61.487999,-728.583984,-683.687988,4620.0,2800.0,840.0
-0.9830407496351888,0.072043661666661,-0.4622919217345415,-1.377056858526188,-0.185939007664147,0.3220823454673469,0.2924941660688623,0.2306864086525721,-0.2089108852429916,0.4305887858751213,-0.9466977408362665,0.1074766442920479,-0.1098947363196129,-0.3501233453549426,-1.265063359344056,-0.3655337614272892,63.440002,-724.679993,-676.856018,4340.0,2240.0,420.0
1.3163731871382105,1.6788603487145608,1.978769823487277,0.6397638273765781,1.9720602648356684,2.4593382937432096,2.3240369471593985,1.709220389490033,1.6777185940709929,1.5075091963225382,0.524452012056414,2.5607891989802485,1.5695974814746791,1.1390919325893998,0.2940671140066858,1.3409658853442823,62.952,-725.16803,-681.247986,4200.0,1400.0,0.0
2.06780094243273,1.3895025272038648,2.299575311434805,1.9171158609311527,2.128212442767259,1.9279541708780208,1.7910110322806585,1.1858291147599564,1.9621523693263887,1.2729675664544506,1.3889080917276946,2.3742471607116453,2.0161173904831533,1.5822809391469588,2.2072537117933377,2.096593223515045,64.416,-724.192017,-681.247986,3640.0,560.0,-420.0
-0.0270381404737464,-0.8673187253465011,-0.3772423889260237,0.2926742701712102,-0.5109419532051633,-1.5106213645969089,-1.472084097805512,-1.2678419363258506,0.0160168590253358,-0.526822601430151,0.1053445386896311,-0.8763539246799492,0.4834791376211535,-0.0088476873654294,1.4439464615798852,0.4375136842887633,63.440002,-725.16803,-683.687988,3220.0,140.0,-840.0
-2.1123460884893737,-2.2527052006388377,-2.7541128611539167,-2.007154752233616,-2.77623568335885,-3.656699572596474,-3.4479763923091125,-2.417341668733746,-1.9389155652031187,-2.0322736518959768,-1.568982816927533,-3.4495491290154674,-1.628080043865882,-1.8323635507496645,-1.4717185800823025,-2.034239776332716,67.344002,-726.143982,-682.712036,2660.0,-420.0,-1260.0
-1.4265980851624596,-0.9770408831356177,-1.846023494742392,-1.6017932648781517,-1.8587760704762888,-1.5635441997856854,-1.4318559010993734,-0.4356730034158065,-1.6794885282557517,-1.536402482178581,-1.3228059978788016,-2.3420166591824345,-2.316578348399064,-1.7457201592247305,-3.025299463459121,-2.5821146904292007,65.391998,-721.752014,-683.687988,2660.0,-560.0,-1400.0
