-15018.852355,-1438.558273,-2803.646362,-19506.300331,-2453.595692,-7107.966496,-8147.344964,-5456.373746,4980.169830,15686.811887,13750.524968,15129.538194,20907.508839,18023.910287,8938.730829,11884.869562,19.032000,-862.296021,-501.175995,1820.000000,280.000000,1680.000000
-15019.277038,-1442.268663,-2805.792130,-19463.541444,-2455.137963,-7109.039379,-8138.180749,-5455.434973,4959.248598,15644.321220,13707.453156,15089.774441,20866.247519,17981.263158,8907.706607,11860.260291,21.960001,-865.223999,-500.688019,1960.000000,-560.000000,1260.000000
-15058.951385,-1520.030382,-2823.293546,-19576.797733,-2492.845356,-7119.276478,-8285.076414,-5437.441818,4876.435384,15668.438753,13872.744307,15171.581825,20900.333929,18074.134657,8988.061129,11906.550754,-8.784000,-868.640015,-486.536011,-1820.000000,840.000000,3080.000000
-15060.180731,-1522.757295,-2828.143874,-19607.710196,-2498.343885,-7122.293964,-8294.151222,-5439.676993,4895.210850,15694.970273,13901.689816,15198.918009,20928.295961,18100.733233,9007.931829,11923.493376,-10.248000,-870.104004,-488.488007,-1680.000000,1680.000000,3500.000000
-15053.832835,-1520.008030,-2833.731810,-19606.257332,-2503.529489,-7128.373638,-8299.940324,-5440.124028,4909.650077,15698.032462,13900.125194,15203.567172,20924.317351,18093.290102,9002.098024,11921.794644,-8.784000,-871.567993,-487.511993,-1820.000000,2240.000000,3780.000000
-15047.417885,-1512.810768,-2837.308089,-19570.338079,-2505.004705,-7131.815807,-8294.844126,-5437.151246,4903.212774,15665.957709,13863.133057,15178.689680,20885.559426,18054.688639,8974.404213,11902.281571,-11.712000,-872.056030,-485.559998,-1400.000000,2520.000000,3920.000000
-15038.857167,-1502.238393,-2836.414020,-19519.398453,-2501.853109,-7131.525234,-8284.718786,-5432.636193,4883.587943,15622.528270,13817.021408,15143.060999,20835.938553,18006.073595,8938.261442,11874.319538,-9.760000,-871.567993,-487.511993,-700.000000,2380.000000,4060.000000
-15035.616164,-1498.058617,-2832.167188,-19483.993290,-2496.846318,-7129.446522,-8275.576922,-5432.859711,4862.353785,15591.951083,13784.521971,15115.031912,20802.388585,17975.027022,8914.009799,11852.437181,-12.200000,-872.544006,-485.559998,-560.000000,2100.000000,4060.000000
-15040.645306,-1504.093588,-2828.434447,-19484.686194,-2495.125234,-7127.211347,-8273.475858,-5438.849978,4850.686175,15588.643025,13783.694957,15111.030949,20804.512001,17978.759763,8914.680352,11850.693745,-7.320000,-870.104004,-487.024017,-420.000000,1820.000000,3640.000000
-15048.177844,-1514.487149,-2825.305203,-19526.238087,-2497.405111,-7124.529138,-8283.467088,-5446.024888,4862.644358,15625.970438,13823.905745,15139.484720,20847.114426,18021.965685,8939.513140,11871.637329,-7.808000,-871.567993,-485.559998,-140.000000,700.000000,3220.000000
-15050.927109,-1518.599870,-2821.393647,-19576.015422,-2496.935725,-7121.623411,-8290.709053,-5450.092906,4884.482012,15674.451372,13874.532446,15179.695508,20898.121106,18073.218235,8978.427527,11900.113451,-5.368000,-868.640015,-484.584015,140.000000,140.000000,2800.000000
-15054.883367,-1518.890443,-2823.159435,-19607.978416,-2497.271001,-7122.517481,-8291.290199,-5449.288243,4897.311914,15702.525163,13904.148508,15206.897581,20929.748825,18103.147221,9010.412873,11919.917097,-2.440000,-870.104004,-483.119995,-420.000000,-560.000000,2100.000000
-15056.693859,-1516.051771,-2827.853302,-19608.716024,-2497.673332,-7126.607850,-8289.792632,-5445.689612,4894.652056,15700.379396,13903.835583,15209.557439,20927.893630,18100.286198,9014.190318,11919.827690,-0.976000,-867.664001,-486.536011,-700.000000,-1260.000000,1540.000000
-15055.933899,-1514.643611,-2834.759991,-19580.061088,-2500.221431,-7132.709877,-8287.155126,-5442.783885,4878.715262,15673.467895,13877.616987,15189.664386,20897.830534,18067.563244,8990.966855,11903.533268,-1.952000,-869.127991,-485.071991,-1260.000000,-1960.000000,980.000000
-15050.189501,-1506.775797,-2836.838703,-19532.563631,-2497.047484,-7134.498016,-8277.968559,-5436.525397,4861.482067,15630.619601,13831.974725,15155.935604,20850.310725,18019.439938,8958.623881,11877.694652,2.440000,-866.687988,-486.048004,-1960.000000,-2520.000000,560.000000
-15047.261423,-1502.394855,-2835.251729,-19494.588017,-2494.722902,-7133.335725,-8275.599274,-5435.497217,4848.003965,15597.583723,13794.334387,15125.067845,20813.318588,17981.732545,8929.678372,11854.605300,7.808000,-870.591980,-485.071991,-2100.000000,-2800.000000,140.000000
-15050.569481,-1508.429826,-2833.865921,-19488.240121,-2496.555745,-7131.167606,-8280.807231,-5439.431124,4842.147808,15590.989958,13788.478230,15114.361359,20808.065928,17975.496408,8916.021456,11848.547977,7.808000,-871.080017,-486.536011,-2380.000000,-3080.000000,-420.000000
-15054.659850,-1517.951669,-2830.937842,-19516.537430,-2499.461472,-7127.211347,-8286.931609,-5443.297975,4850.730878,15616.761520,13816.373207,15132.935659,20838.553707,18005.917133,8929.141930,11862.473114,4.392000,-873.520020,-486.048004,-2660.000000,-3360.000000,-420.000000
-15057.990260,-1523.293736,-2827.294508,-19563.476093,-2500.400245,-7123.255089,-8291.200792,-5444.281452,4866.399451,15658.939261,13858.707411,15168.832561,20886.766420,18055.940337,8967.162248,11890.256332,6.344000,-874.984009,-485.071991,-2380.000000,-3220.000000,-700.000000
-15058.727867,-1524.880710,-2825.685182,-19604.692710,-2497.896850,-7121.601060,-8293.301856,-5445.756667,4881.710396,15694.411480,13896.593618,15201.130831,20928.810052,18098.296892,9006.188393,11916.474928,10.248000,-875.471985,-482.144012,-2380.000000,-3220.000000,-840.000000
-15055.062181,-1521.729114,-2830.379049,-19618.260219,-2499.573231,-7125.713781,-8296.274638,-5446.673089,4892.506289,15706.816698,13909.647037,15211.770262,20938.644819,18108.601047,9017.498376,11923.828652,11.712000,-875.471985,-483.608002,-2380.000000,-2940.000000,-840.000000
-15051.150626,-1516.476454,-2836.503427,-19596.847248,-2502.769530,-7132.374600,-8294.240629,-5441.889816,4888.102995,15688.912951,13891.408013,15198.381567,20912.962665,18084.036479,9002.209783,11912.339856,10.248000,-877.424011,-482.632019,-1820.000000,-2660.000000,-980.000000
-15044.825082,-1508.832158,-2838.671546,-19547.606355,-2500.132024,-7133.738057,-8283.534143,-5432.904414,4867.829963,15644.656497,13848.380905,15164.451619,20862.939461,18036.516671,8971.744355,11885.607169,10.248000,-875.471985,-484.096008,-1260.000000,-2380.000000,-980.000000
-15046.993202,-1513.682486,-2840.772610,-19504.534543,-2501.964867,-7134.319202,-8280.404899,-5431.675068,4842.863064,15602.255237,13805.778480,15125.671342,20819.554725,17991.366147,8936.629765,11858.181579,11.224000,-875.471985,-479.704010,-560.000000,-1960.000000,-980.000000
-15051.463551,-1520.343306,-2840.169113,-19486.720203,-2503.373027,-7133.827464,-8281.746004,-5437.240653,4832.760076,15587.748955,13790.646349,15105.264199,20802.835620,17972.903606,8915.797939,11843.250614,11.712000,-878.400024,-483.608002,-140.000000,-1540.000000,-840.000000
-15053.765780,-1522.533777,-2835.587005,-19498.901903,-2502.523661,-7129.625336,-8281.924818,-5442.985051,4835.151712,15597.986054,13803.498602,15111.656798,20816.045501,17986.851095,8924.850395,11847.788018,14.152000,-875.471985,-479.216003,0.000000,-840.000000,-840.000000
-15060.046620,-1528.009954,-2830.781380,-19539.693837,-2500.467300,-7125.199690,-8283.712957,-5445.488446,4846.148771,15629.747883,13838.814359,15142.390447,20857.619745,18031.845156,8957.640404,11872.777268,13.664001,-872.544006,-481.656006,840.000000,-420.000000,-420.000000
-15061.253615,-1533.463780,-2828.590909,-19588.778268,-2500.579059,-7124.707952,-8290.306722,-5446.471923,4869.126364,15672.395011,13884.367214,15182.601235,20907.285322,18083.209465,8994.721948,11903.376806,13.664001,-875.960022,-481.167999,840.000000,0.000000,-420.000000
-15053.005821,-1529.507521,-2829.484979,-19614.013387,-2501.316667,-7128.373638,-8295.805251,-5445.354336,4891.656922,15698.166573,13908.954133,15208.596314,20930.486432,18105.270637,9011.999847,11917.905440,11.224000,-872.544006,-480.192017,840.000000,140.000000,-140.000000
-15047.909623,-1522.980812,-2833.910624,-19606.324387,-2502.993048,-7134.095685,-8297.571039,-5444.326156,4898.362446,15694.836163,13901.913333,15207.478727,20920.852831,18091.971349,9002.992094,11912.272800,13.176001,-872.056030,-481.656006,980.000000,280.000000,140.000000
-15042.366391,-1512.788416,-2837.062220,-19563.654907,-2498.902678,-7136.532025,-8286.663388,-5440.906339,4884.034977,15655.966479,13860.830827,15178.712032,20875.724658,18048.296040,8973.398384,11887.797640,10.248000,-870.591980,-479.704010,840.000000,420.000000,560.000000
-15037.113731,-1505.792320,-2838.179807,-19510.837735,-2496.265173,-7135.615603,-8275.040480,-5436.078362,4862.353785,15609.251333,13812.685169,15138.322429,20821.834603,17996.261179,8937.568538,11856.996936,12.688000,-870.591980,-481.167999,560.000000,560.000000,840.000000
-15040.175920,-1509.323896,-2840.504389,-19479.947624,-2496.756911,-7135.816769,-8273.475858,-5437.263004,4843.243044,15577.914188,13780.900989,15108.393444,20789.290463,17964.566405,8911.260535,11836.321573,10.248000,-870.591980,-481.656006,280.000000,700.000000,1260.000000
-15042.187577,-1512.050809,-2835.139970,-19480.864046,-2494.208812,-7131.815807,-8273.878190,-5440.772228,4837.498645,15577.355394,13780.833933,15105.331255,20792.397355,17968.500312,8907.527793,11836.858015,10.736000,-871.567993,-478.239990,0.000000,840.000000,1400.000000
-15045.272117,-1517.951669,-2829.261461,-19515.218677,-2493.515908,-7127.345458,-8277.789745,-5442.828589,4847.020489,15608.826650,13814.182736,15129.694656,20830.060045,18007.191182,8932.338230,11857.578082,10.736000,-871.567993,-481.656006,-280.000000,560.000000,1680.000000
-15049.563652,-1525.037172,-2829.619089,-19564.794846,-2497.852146,-7128.552452,-8287.780975,-5448.483580,4866.891189,15653.552491,13859.802647,15166.910311,20880.396173,18055.046267,8969.129201,11885.406004,10.248000,-870.104004,-482.144012,-560.000000,560.000000,1960.000000
-15053.899891,-1526.110056,-2833.128313,-19597.853076,-2500.981391,-7130.519406,-8292.430138,-5449.154133,4879.519925,15681.559227,13888.725804,15192.905389,20911.688615,18084.461163,8996.688902,11905.254353,8.784000,-871.080017,-482.632019,-700.000000,280.000000,1960.000000
-15054.704553,-1522.958460,-2835.631709,-19601.250541,-2502.814234,-7132.866339,-8291.983103,-5447.209531,4885.040806,15685.068451,13892.637359,15200.773203,20914.616694,18084.483514,8998.722911,11908.137728,12.688000,-871.567993,-483.608002,-1120.000000,280.000000,2240.000000
-15051.351792,-1519.292774,-2841.107886,-19572.260329,-2506.502271,-7138.901310,-8290.105556,-5445.309632,4877.888248,15658.961613,13865.301176,15183.003567,20883.614824,18049.771255,8973.018405,11893.698501,7.320000,-868.640015,-483.119995,-980.000000,140.000000,2380.000000
-15046.635574,-1515.425922,-2843.834799,-19523.734692,-2506.614030,-7141.449409,-8281.835411,-5439.967566,4858.174009,15615.196897,13819.681265,15146.458464,20833.412806,18000.619769,8938.306145,11867.725774,8.296000,-868.640015,-484.096008,-1120.000000,-280.000000,2520.000000
-15039.930050,-1507.871033,-2839.006822,-19480.148790,-2500.959039,-7139.124827,-8270.681890,-5435.676031,4845.366460,15579.054127,13779.716346,15115.233077,20793.850219,17961.146588,8910.947610,11845.418733,5.856000,-869.616028,-486.048004,-1260.000000,-420.000000,2240.000000
-15041.628783,-1509.994448,-2834.067086,-19469.621118,-2498.053312,-7135.213272,-8269.832524,-5438.715868,4841.186683,15568.392345,13769.367489,15102.738452,20784.663652,17953.859920,8902.431596,11836.947422,8.784000,-869.127991,-487.024017,-1120.000000,-560.000000,2380.000000
-15046.389705,-1515.470626,-2829.015592,-19494.655072,-2495.840489,-7131.480531,-8272.090050,-5443.186217,4846.931082,15591.213476,13793.015634,15119.234040,20811.910428,17982.067821,8921.676448,11851.163131,8.296000,-872.544006,-488.976013,-1120.000000,-560.000000,2240.000000
-15049.429542,-1519.650402,-2826.355735,-19540.677314,-2494.477033,-7128.463045,-8276.359233,-5444.482618,4865.326567,15632.675962,13837.048571,15154.885072,20858.290298,18030.995790,8958.489771,11880.108640,7.808000,-872.056030,-485.071991,-1260.000000,-700.000000,1960.000000
-15052.648193,-1525.126579,-2826.646307,-19586.856018,-2496.667504,-7128.954784,-8284.092937,-5446.606034,4885.689007,15671.724459,13878.756926,15191.363119,20902.032662,18076.839218,8991.749166,11908.093024,4.880000,-872.544006,-488.976013,-1120.000000,-560.000000,1820.000000
-15057.409115,-1532.279138,-2833.552996,-19609.274818,-2501.696646,-7132.620470,-8290.060853,-5445.354336,4896.082568,15689.538799,13898.337054,15206.584657,20922.193935,18093.938302,9005.204917,11923.202804,3.416000,-871.080017,-482.632019,-1260.000000,-1120.000000,1540.000000
-15057.118542,-1530.781571,-2841.443162,-19593.360376,-2504.825891,-7136.554377,-8289.233838,-5442.448609,4892.863917,15673.959634,13881.752060,15193.620645,20903.574932,18071.519503,8991.927980,11915.469100,5.368000,-872.056030,-488.488007,-840.000000,-980.000000,1260.000000
-15050.860053,-1518.890443,-2841.823142,-19541.191404,-2499.863803,-7138.789551,-8277.834449,-5438.313536,4873.328492,15627.825633,13832.153539,15155.667383,20850.243670,18020.177546,8959.987338,11886.054204,6.832000,-871.567993,-484.096008,-980.000000,-1260.000000,1120.000000
-15048.468417,-1514.509501,-2840.549092,-19489.022432,-2494.834661,-7136.733191,-8266.546818,-5433.150283,4848.518056,15581.266949,13783.493791,15116.060092,20799.661672,17971.227225,8925.364485,11856.773419,7.320000,-871.080017,-485.071991,-700.000000,-1400.000000,840.000000
-15051.396495,-1520.343306,-2838.805656,-19470.850464,-2496.399283,-7133.469836,-8268.424364,-5434.446685,4837.208073,15564.793714,13766.417058,15096.949350,20783.300195,17954.619879,8904.398549,11844.815236,5.856000,-870.591980,-488.488007,-840.000000,-1680.000000,560.000000
-15055.151588,-1526.691202,-2836.838703,-19488.284825,-2498.187423,-7131.257013,-8277.588579,-5439.833455,4844.762962,15579.367051,13782.487963,15103.945446,20801.896847,17972.747144,8909.673561,11852.571291,5.856000,-871.567993,-480.679993,-840.000000,-1400.000000,280.000000
-15058.526702,-1529.284004,-2832.658927,-19531.177822,-2499.193251,-7128.239528,-8287.915085,-5446.829551,4864.030166,15619.533136,13825.693885,15135.550813,20847.941440,18017.584743,8936.205081,11873.872504,7.320000,-872.544006,-487.024017,-560.000000,-1260.000000,0.000000
-15059.286661,-1526.043001,-2828.479150,-19575.300166,-2497.852146,-7126.272574,-8293.726539,-5451.769287,4886.761890,15661.733229,13871.157333,15173.168799,20895.036566,18064.925738,8969.620939,11898.325312,4.392000,-873.031982,-488.488007,-700.000000,-1400.000000,-140.000000
-15059.867806,-1521.952632,-2829.462627,-19595.394384,-2497.293353,-7127.188996,-8293.860649,-5447.075420,4900.150585,15680.866323,13891.855048,15192.056023,20914.326121,18086.159895,8990.788041,11913.368036,7.320000,-874.007996,-486.048004,-420.000000,-1400.000000,-420.000000
-15056.850321,-1514.308335,-2833.508293,-19583.950291,-2496.533393,-7129.960612,-8290.798460,-5442.113333,4900.932896,15671.925625,13880.500362,15186.132811,20899.082231,18072.346517,8984.887181,11908.808280,4.880000,-872.544006,-486.536011,-700.000000,-1540.000000,-420.000000
-15053.430504,-1509.793283,-2837.710421,-19545.907622,-2496.935725,-7133.894519,-8285.389338,-5437.039487,4889.242934,15637.034552,13845.072847,15156.941433,20859.877272,18030.794624,8956.254596,11886.836515,6.344000,-873.031982,-486.536011,-560.000000,-1680.000000,-700.000000
-15057.766742,-1510.061504,-2841.666680,-19498.231351,-2497.785091,-7136.599080,-8281.298969,-5435.206644,4863.203152,15591.124069,13800.347006,15117.110624,20810.815193,17980.927882,8918.994238,11857.019288,8.784000,-871.080017,-489.464020,-560.000000,-1400.000000,-700.000000
-15057.275004,-1511.693181,-2839.722078,-19465.039011,-2496.064007,-7135.816769,-8277.432117,-5438.604109,4845.679384,15558.401115,13767.355832,15088.567446,20779.299233,17949.478978,8893.557953,11836.656849,4.392000,-871.567993,-486.536011,-420.000000,-1540.000000,-700.000000
-15059.264309,-1518.175187,-2837.553959,-19468.324717,-2497.203946,-7134.833292,-8281.298969,-5444.840246,4848.071021,15557.887025,13765.724154,15086.265217,20781.780277,17953.569347,8893.736767,11834.488730,8.784000,-873.031982,-486.048004,-280.000000,-1400.000000,-840.000000
-15061.343022,-1528.501693,-2834.178845,-19507.082642,-2499.684989,-7132.732228,-8290.217315,-5448.170656,4863.605483,15591.034662,13799.229419,15111.299170,20820.806422,17993.981301,8918.077817,11855.275852,4.880000,-871.567993,-487.511993,-140.000000,-1260.000000,-980.000000
-15059.219606,-1533.799056,-2831.876616,-19557.307012,-2500.646114,-7129.602984,-8297.794556,-5451.076383,4887.924181,15638.152139,13846.123379,15150.101799,20871.254310,18045.300906,8955.114657,11886.836515,6.344000,-871.567993,-485.071991,-280.000000,-1120.000000,-840.000000
-15057.833798,-1534.827237,-2830.870787,-19594.433259,-2502.255440,-7130.318240,-8303.136623,-5452.417487,4907.839585,15675.658366,13884.523676,15182.333014,20909.341682,18081.421325,8985.244809,11910.037626,6.832000,-872.544006,-486.536011,0.000000,-1120.000000,-980.000000
-15059.756048,-1534.335498,-2835.899930,-19598.724794,-2506.368161,-7135.168569,-8303.918934,-5450.763458,4909.471263,15678.944073,13888.323473,15187.630378,20911.643912,18081.846009,8990.318655,11912.652780,8.784000,-871.080017,-486.048004,140.000000,-980.000000,-980.000000
-15055.665678,-1528.591100,-2841.174941,-19565.241881,-2507.217527,-7140.957670,-8299.850917,-5445.801371,4896.216678,15648.299831,13856.315774,15164.541026,20876.730487,18044.876223,8967.765745,11893.318521,9.272000,-869.616028,-485.559998,0.000000,-980.000000,-840.000000
-15047.529643,-1522.176149,-2843.231302,-19517.498555,-2505.764664,-7143.528121,-8293.883001,-5441.442781,4883.297370,15608.714892,13812.618114,15130.141691,20829.367140,17995.814144,8930.594794,11867.904588,10.248000,-870.104004,-485.071991,0.000000,-980.000000,-700.000000
-15046.054428,-1524.433675,-2844.907683,-19480.484066,-2505.563498,-7141.203540,-8287.736271,-5439.028792,4866.220637,15575.768420,13777.481172,15097.888124,20792.397355,17958.665545,8900.308180,11847.832721,9.272000,-870.104004,-486.536011,140.000000,-700.000000,-980.000000
-15047.216719,-1527.451161,-2842.225473,-19469.241139,-2504.602373,-7137.359039,-8284.674082,-5440.682821,4857.078774,15562.782057,13765.411230,15084.834705,20781.780277,17949.478978,8890.227543,11841.149550,8.784000,-868.640015,-486.536011,-140.000000,-700.000000,-840.000000
-15050.301260,-1529.395763,-2835.296432,-19490.832924,-2498.455643,-7130.653516,-8281.656597,-5442.336850,4861.280902,15583.099792,13785.639559,15100.972664,20805.897809,17977.105734,8911.327590,11855.477018,9.760000,-868.640015,-485.559998,-560.000000,-980.000000,-840.000000
-15056.224472,-1533.217911,-2832.211892,-19535.335247,-2498.746216,-7128.060714,-8289.122080,-5445.823723,4875.161335,15625.411645,13826.632658,15135.886089,20850.780112,18023.798528,8945.637518,11879.147515,7.808000,-870.104004,-486.536011,-280.000000,-1260.000000,-840.000000
-15061.275966,-1537.889426,-2833.575348,-19579.748163,-2502.993048,-7129.044191,-8297.503984,-5450.517589,4893.243896,15668.259939,13869.883283,15170.486590,20895.014214,18066.378601,8976.862905,11902.460385,9.272000,-868.152039,-491.416016,-140.000000,-1260.000000,-840.000000
-15063.935824,-1536.816542,-2837.397496,-19598.858905,-2505.943478,-7133.916871,-8300.812042,-5451.165790,4902.788091,15685.001395,13889.284598,15187.071584,20912.180354,18081.376622,8990.542172,11915.066769,7.808000,-869.616028,-487.511993,-280.000000,-980.000000,-700.000000
-15064.472266,-1532.457952,-2843.566578,-19582.452724,-2508.022190,-7138.275461,-8298.688626,-5448.103601,4894.316780,15667.544683,13873.459562,15177.549741,20891.952025,18061.014183,8980.059204,11908.473004,11.712000,-868.152039,-486.536011,140.000000,-1120.000000,-840.000000
-15060.963042,-1528.345231,-2848.148685,-19539.872651,-2508.357466,-7142.522292,-8293.659484,-5445.421391,4875.965998,15627.468005,13830.208937,15146.994906,20845.929783,18015.818955,8948.856169,11883.729623,6.832000,-867.664001,-489.464020,0.000000,-1120.000000,-700.000000
-15057.342059,-1526.758257,-2848.416906,-19495.191514,-2508.022190,-7144.064563,-8287.400995,-5444.773191,4857.794029,15585.849057,13787.248884,15112.416758,20800.064003,17969.193216,8914.188613,11855.544073,12.200000,-867.176025,-488.488007,0.000000,-980.000000,-980.000000
-15060.828931,-1529.954556,-2845.757049,-19475.790200,-2508.022190,-7143.416362,-8286.819850,-5446.471923,4842.974823,15568.504103,13770.194503,15093.395423,20782.227311,17950.976545,8897.201287,11841.596585,8.784000,-866.687988,-486.048004,-140.000000,-980.000000,-980.000000
-15067.221530,-1537.174170,-2841.778438,-19490.721165,-2507.888080,-7140.532987,-8290.798460,-5451.232845,4840.247910,15580.261121,13786.533628,15099.296284,20801.405108,17968.522664,8905.739654,11848.279756,8.784000,-869.127991,-488.000000,-420.000000,-700.000000,-980.000000
-15066.349812,-1536.794190,-2834.961156,-19531.334285,-2505.094112,-7133.916871,-8295.045292,-5453.512723,4863.314910,15618.415549,13824.084559,15132.600383,20844.856899,18015.058996,8938.797884,11873.648986,10.248000,-868.152039,-489.464020,-280.000000,-980.000000,-1120.000000
-15064.047583,-1533.307318,-2829.999069,-19575.233111,-2499.863803,-7128.708914,-8296.319341,-5452.171618,4890.204059,15660.749753,13865.032955,15170.151314,20891.125010,18063.182302,8978.315768,11901.432204,8.784000,-869.127991,-488.976013,-280.000000,-980.000000,-1120.000000
-15061.365373,-1530.379239,-2833.687107,-19600.378823,-2502.367199,-7131.614641,-8299.985027,-5449.824685,4907.169033,15684.397898,13886.177705,15192.592465,20912.493278,18084.125886,8997.985303,11914.351513,7.808000,-867.176025,-488.976013,-420.000000,-1260.000000,-1260.000000
-15062.259443,-1527.853492,-2840.169113,-19594.187390,-2508.692742,-7138.275461,-8301.996684,-5447.723621,4908.241917,15679.614625,13879.047499,15189.530276,20901.540923,18071.564206,8991.905629,11909.076501,7.320000,-867.176025,-493.368011,-420.000000,-1260.000000,-1400.000000
-15059.286661,-1520.298603,-2842.806619,-19553.127236,-2509.229184,-7142.924624,-8296.252286,-5443.879121,4891.142832,15644.432979,13840.200167,15161.210616,20859.832568,18029.297057,8962.758954,11886.411832,11.712000,-866.687988,-488.976013,-420.000000,-1400.000000,-1400.000000
-15055.106885,-1512.073161,-2842.627805,-19499.237180,-2503.909469,-7144.109266,-8284.987007,-5438.671164,4868.142887,15594.096851,13787.964140,15122.005656,20807.507134,17976.971624,8926.146796,11856.706364,11.712000,-866.687988,-491.416016,-560.000000,-1540.000000,-1540.000000
-15054.749257,-1513.190748,-2842.337232,-19467.095371,-2501.674295,-7142.075258,-8279.421422,-5438.246481,4850.887340,15562.200911,13755.598814,15095.518839,20776.684079,17947.243803,8901.336360,11837.282698,10.248000,-868.152039,-489.951996,-420.000000,-1680.000000,-1400.000000
-15058.034963,-1520.499768,-2840.169113,-19472.750362,-2502.769530,-7139.281289,-8283.288274,-5443.968528,4848.920387,15565.598376,13760.247977,15095.474135,20783.300195,17953.949327,8898.475337,11837.662677,7.808000,-869.127991,-491.416016,-560.000000,-1960.000000,-1680.000000
-15062.862940,-1529.909853,-2835.922281,-19510.748328,-2503.976524,-7136.464970,-8291.089033,-5451.635176,4860.297425,15600.869429,13796.815431,15119.189336,20822.214582,17992.841362,8920.558860,11857.801599,7.808000,-870.104004,-490.928009,-700.000000,-2240.000000,-1820.000000
-15069.657870,-1541.957443,-2836.145799,-19564.459570,-2507.709266,-7134.363906,-8301.795519,-5455.211455,4876.301274,15649.238604,13849.230271,15156.159122,20875.881121,18044.965630,8958.310957,11889.675187,9.272000,-867.664001,-486.048004,-700.000000,-2100.000000,-1400.000000
-15073.994109,-1545.489019,-2838.783305,-19602.457536,-2510.547937,-7136.934356,-8309.015132,-5455.412621,4892.416882,15685.202561,13886.244760,15186.848067,20911.822726,18079.901407,8986.004768,11910.641123,8.296000,-867.664001,-489.464020,-420.000000,-2240.000000,-1540.000000
-15071.937748,-1540.325766,-2842.806619,-19605.475021,-2512.269022,-7141.739981,-8309.730388,-5452.305728,4898.720074,15689.181172,13889.552818,15192.771279,20912.381519,18080.169628,8989.513992,11912.250449,8.784000,-870.591980,-491.416016,-560.000000,-2520.000000,-1540.000000
-15067.802676,-1534.737830,-2847.545188,-19576.350698,-2514.593603,-7146.299737,-8306.556440,-5446.494275,4890.874611,15661.755581,13862.015469,15171.782991,20882.586644,18048.005467,8967.855152,11894.905495,9.272000,-869.127991,-488.976013,-420.000000,-2380.000000,-1540.000000
-15063.019402,-1527.272347,-2848.998052,-19525.992218,-2511.576117,-7148.691374,-8297.571039,-5440.459304,4870.802745,15615.733339,13813.892164,15135.215537,20831.557611,17999.256313,8931.175939,11866.787001,6.832000,-868.640015,-490.440002,-560.000000,-2380.000000,-1400.000000
-15058.504350,-1522.869053,-2847.545188,-19482.071040,-2507.128120,-7147.104400,-8289.949094,-5437.330060,4850.842637,15576.438973,13772.161457,15102.269066,20788.418745,17958.777304,8896.240162,11841.328364,7.808000,-866.200012,-491.903992,-420.000000,-2380.000000,-1260.000000
-15062.773533,-1529.105190,-2844.751220,-19475.834903,-2507.239879,-7144.533949,-8291.357254,-5440.660470,4843.377154,15569.152304,13765.254768,15092.456650,20784.954224,17954.105789,8887.925313,11837.483864,6.832000,-869.616028,-490.440002,-560.000000,-2240.000000,-1260.000000
-15067.400344,-1532.234434,-2839.431505,-19499.237180,-2503.663600,-7141.091781,-8294.262981,-5445.041412,4848.495704,15591.705214,13788.612341,15107.611133,20812.111594,17981.710193,8906.700779,11849.017364,8.296000,-867.176025,-489.951996,-420.000000,-2240.000000,-1400.000000
-15069.814333,-1535.631899,-2834.335307,-19542.778378,-2501.271963,-7138.186054,-8300.253248,-5447.544807,4865.952416,15632.787720,13830.387751,15143.150406,20857.440931,18028.917078,8941.547148,11874.319538,6.344000,-865.712036,-488.000000,-280.000000,-1820.000000,-1540.000000
-15072.988280,-1542.382126,-2835.028211,-19590.432297,-2507.195176,-7138.074295,-8311.183251,-5448.058897,4889.466451,15676.977119,13876.097068,15179.829619,20902.524400,18073.754677,8972.481963,11901.812184,5.856000,-867.664001,-491.416016,-140.000000,-1680.000000,-1260.000000
-15069.724926,-1540.616338,-2839.118581,-19605.586780,-2510.570289,-7141.360002,-8314.379551,-5443.946176,4901.558745,15691.930436,13890.446888,15192.413651,20915.197839,18085.645805,8984.261332,11910.976399,5.856000,-868.640015,-492.880005,-280.000000,-1680.000000,-1260.000000
-15067.065068,-1536.838894,-2845.645290,-19583.816181,-2509.340943,-7145.673888,-8309.037484,-5438.022964,4892.863917,15671.031555,13868.564530,15176.856837,20890.297996,18059.695430,8972.906646,11900.336969,6.832000,-869.127991,-491.903992,0.000000,-1540.000000,-1400.000000
-15061.924167,-1531.608585,-2848.528665,-19539.090340,-2509.698571,-7147.238511,-8303.293085,-5437.084190,4874.200210,15630.507842,13825.515071,15142.479854,20844.588678,18012.332083,8940.831893,11875.951216,5.856000,-866.200012,-490.440002,0.000000,-1400.000000,-1260.000000
-15054.637498,-1524.299565,-2846.829933,-19489.134191,-2508.223356,-7147.663194,-8296.788728,-5438.961737,4855.201227,15585.714946,13779.090497,15104.839516,20795.347785,17963.694687,8903.191555,11845.284622,5.368000,-868.640015,-489.464020,0.000000,-1260.000000,-1260.000000
-15052.111751,-1520.410361,-2842.896026,-19464.726086,-2505.362333,-7144.221025,-8293.078338,-5443.655603,4843.265396,15564.614900,13756.626994,15084.745298,20772.034916,17943.332248,8882.605598,11829.303125,6.832000,-865.712036,-490.928009,280.000000,-1400.000000,-1120.000000
-15055.442161,-1524.478379,-2839.252691,-19477.846560,-2504.177690,-7140.756505,-8296.721673,-5448.103601,4844.517093,15577.400098,13768.987509,15091.495525,20786.742364,17959.514911,8889.802860,11836.388628,6.344000,-866.687988,-488.488007,140.000000,-1120.000000,-1120.000000
-15059.063144,-1530.155722,-2835.631709,-19521.611276,-2504.311801,-7138.834255,-8302.913106,-5451.478714,4864.208980,15617.074444,13808.728911,15123.391464,20830.417672,18005.000711,8922.726980,11862.383707,5.368000,-864.736023,-490.928009,280.000000,-1120.000000,-1120.000000
-15060.985394,-1533.642594,-2834.178845,-19568.706401,-2504.267097,-7137.023763,-8309.037484,-5453.535074,4887.298332,15660.950918,13852.918309,15161.590595,20879.367993,18052.967555,8960.009689,11893.631446,5.368000,-867.664001,-490.440002,420.000000,-980.000000,-1120.000000
-15063.645251,-1534.134332,-2838.269214,-19592.913341,-2506.099940,-7138.610737,-8311.809100,-5450.808162,4900.150585,15683.235608,13874.040708,15182.221256,20901.406813,18075.028726,8981.355605,11910.149385,7.808000,-868.152039,-488.000000,140.000000,-980.000000,-980.000000
-15071.021327,-1536.973004,-2845.108848,-19590.119373,-2512.090208,-7143.081086,-8312.993743,-5449.042374,4897.803652,15680.821619,13872.789010,15180.030785,20894.097792,18067.272671,8977.376995,11909.769405,7.320000,-866.200012,-490.928009,280.000000,-840.000000,-980.000000
-15067.646213,-1532.770876,-2850.048584,-19552.546090,-2513.431312,-7147.663194,-8308.121062,-5446.673089,4882.425652,15644.455331,13837.473254,15152.672249,20855.317516,18027.643028,8947.023326,11889.630483,6.832000,-865.223999,-488.976013,0.000000,-980.000000,-980.000000
-15057.967908,-1524.098399,-2848.036927,-19500.533581,-2508.268059,-7147.350269,-8296.833431,-5442.180388,4867.025300,15597.650778,13787.293588,15116.596534,20805.249608,17978.871522,8910.142947,11861.132009,6.344000,-867.176025,-490.928009,280.000000,-840.000000,-980.000000
-15052.044696,-1520.969155,-2844.125371,-19465.821322,-2505.652905,-7145.651537,-8289.747928,-5440.168731,4854.798896,15566.090115,13753.184826,15091.406118,20772.727820,17947.333210,8882.873819,11840.411942,7.808000,-866.687988,-490.440002,-140.000000,-1120.000000,-980.000000
-15051.709420,-1528.278175,-2840.280871,-19468.838807,-2507.463396,-7143.617528,-8292.296027,-5443.745010,4852.295500,15568.839379,13754.436523,15091.406118,20776.684079,17951.647097,8879.901037,11840.255480,6.344000,-865.223999,-488.488007,-280.000000,-1260.000000,-840.000000
-15057.587928,-1536.771838,-2837.129275,-19504.825116,-2507.284583,-7141.851740,-8299.292123,-5450.964624,4860.364480,15600.243580,13787.539457,15114.830746,20814.369120,17989.510952,8902.498651,11859.366221,8.784000,-868.640015,-494.832001,-560.000000,-1260.000000,-840.000000
-15065.209873,-1540.348117,-2835.207025,-19551.227337,-2504.736484,-7138.521330,-8302.957809,-5454.809124,4876.502440,15643.471854,13832.712332,15149.319488,20862.850054,18037.589554,8940.764837,11886.702405,7.320000,-867.664001,-493.368011,-980.000000,-1400.000000,-700.000000
-15069.702574,-1541.890388,-2837.263386,-19587.280701,-2506.122292,-7138.096647,-8305.930591,-5454.205627,4892.327475,15674.227855,13867.513998,15177.728555,20897.674072,18071.653613,8972.951349,11909.769405,9.272000,-869.616028,-493.856018,-980.000000,-1260.000000,-700.000000
-15066.215702,-1535.363678,-2841.241996,-19591.169905,-2507.508100,-7142.187016,-8305.707074,-5450.383478,4899.882364,15676.373622,13871.760830,15184.434078,20899.462211,18071.765372,8980.975626,11912.876298,10.248000,-868.152039,-488.488007,-980.000000,-1540.000000,-700.000000
-15060.851283,-1527.495864,-2845.242959,-19559.944518,-2508.715094,-7145.651537,-8301.594353,-5444.214397,4892.528640,15648.992735,13842.860024,15164.630433,20866.158112,18037.611906,8960.657890,11895.620751,8.784000,-868.152039,-491.903992,-980.000000,-1680.000000,-560.000000
-15057.811446,-1523.763123,-2848.260444,-19514.503421,-2511.821987,-7149.183112,-8296.855783,-5438.179426,4875.228390,15606.859697,13798.916495,15130.275801,20819.264152,17990.136801,8924.537471,11870.922073,10.248000,-869.616028,-490.928009,-1120.000000,-1400.000000,-700.000000
-15057.386763,-1523.584309,-2848.215741,-19476.438400,-2512.067856,-7150.993604,-8293.927705,-5438.313536,4856.587035,15569.934615,13762.147875,15096.725833,20781.132076,17952.362353,8891.926276,11848.615032,9.760000,-870.104004,-491.903992,-1260.000000,-1400.000000,-420.000000
-15054.659850,-1523.047867,-2843.186598,-19467.788275,-2509.832681,-7148.847836,-8296.095824,-5443.946176,4855.916483,15565.620728,13756.604642,15089.886199,20775.141808,17946.305030,8881.018624,11840.724866,7.808000,-872.544006,-489.464020,-1120.000000,-1400.000000,-420.000000
-15056.336231,-1525.394800,-2836.123447,-19492.866932,-2507.284583,-7142.745810,-8299.359178,-5447.030717,4865.661843,15592.264008,13781.795058,15108.616961,20803.863800,17975.451705,8901.246953,11854.538245,10.248000,-869.616028,-493.368011,-1120.000000,-980.000000,-280.000000
-15063.667603,-1531.250957,-2834.178845,-19540.364389,-2508.290411,-7139.415400,-8305.170632,-5451.590473,4882.917390,15631.983057,13824.486890,15142.591613,20851.495367,18024.580839,8940.362506,11881.628559,9.760000,-869.616028,-492.880005,-980.000000,-980.000000,-420.000000
-15065.992184,-1533.486132,-2834.245900,-19584.665547,-2508.871556,-7138.834255,-8310.736216,-5454.049165,4902.251649,15670.092782,13866.374059,15177.326224,20894.790696,18068.256148,8976.415870,11907.467175,11.712000,-869.616028,-488.976013,-980.000000,-980.000000,-420.000000
-15065.276929,-1532.770876,-2835.832874,-19600.423527,-2508.737446,-7140.376525,-8311.585583,-5451.389307,4911.549975,15686.498962,13883.294330,15192.592465,20910.056938,18081.287215,8989.536344,11918.419530,8.784000,-869.616028,-495.320007,-980.000000,-560.000000,-140.000000
-15063.220568,-1531.675641,-2840.884369,-19584.084402,-2511.151434,-7144.869226,-8309.305705,-5447.544807,4907.683123,15674.965462,13869.100972,15184.009395,20890.946196,18061.081238,8976.438222,11910.149385,8.784000,-870.591980,-493.368011,-1260.000000,-560.000000,-140.000000
-15058.414943,-1527.339402,-2844.818276,-19541.705494,-2512.157263,-7148.780781,-8301.884926,-5444.661432,4891.679274,15638.755636,13827.705542,15153.991002,20846.645039,18017.025950,8945.749276,11888.267027,8.784000,-872.056030,-489.464020,-1260.000000,-420.000000,0.000000
-15056.537396,-1524.523082,-2847.053450,-19497.069060,-2513.833644,-7150.255996,-8295.492327,-5446.069592,4871.048614,15598.120165,13784.387861,15117.423548,20801.628626,17970.646080,8911.573459,11861.869617,10.248000,-871.567993,-492.391998,-1120.000000,0.000000,140.000000
-15055.285699,-1522.734943,-2843.968909,-19472.929176,-2512.671353,-7148.847836,-8292.273675,-5447.924787,4857.414050,15578.182409,13761.164398,15096.099984,20778.136942,17948.204928,8894.563782,11846.223396,8.784000,-871.080017,-492.391998,-1400.000000,-140.000000,140.000000
-15058.146722,-1527.987603,-2838.023345,-19486.049650,-2511.173786,-7145.450371,-8294.933533,-5448.796505,4860.073907,15590.274702,13772.161457,15102.045548,20791.123306,17963.940557,8902.208078,11851.476056,8.296000,-869.127991,-488.488007,-1260.000000,140.000000,280.000000
-15060.493655,-1531.519178,-2832.614223,-19529.032055,-2510.458530,-7141.516464,-8300.789690,-5450.271720,4879.922256,15631.245450,13813.959219,15137.406008,20837.212603,18010.320426,8933.388762,11875.504181,8.296000,-871.567993,-489.951996,-1820.000000,280.000000,420.000000
-15059.510179,-1530.446295,-2829.082647,-19571.522721,-2507.217527,-7140.197711,-8302.376664,-5452.037508,4898.451853,15672.171494,13853.432399,15175.962767,20881.781981,18057.907290,8972.705480,11902.236867,8.784000,-870.591980,-489.464020,-1960.000000,280.000000,420.000000
-15057.543225,-1526.825312,-2831.295470,-19594.701480,-2506.524623,-7140.555339,-8302.533126,-5449.154133,4906.342018,15692.779802,13873.727783,15197.398090,20903.664339,18082.538913,8994.431376,11919.157138,8.296000,-869.127991,-488.976013,-2100.000000,280.000000,560.000000
-15057.409115,-1524.098399,-2837.106924,-19586.856018,-2509.117426,-7144.511598,-8300.409710,-5441.755705,4900.128233,15684.420250,13865.815266,15192.391299,20893.091964,18071.474799,8988.888143,11916.832556,8.784000,-870.591980,-492.880005,-2100.000000,700.000000,700.000000
-15053.363449,-1516.096475,-2840.839665,-19547.740465,-2509.475053,-7147.707897,-8293.860649,-5434.983127,4885.845469,15650.199729,13830.231289,15163.691659,20853.171748,18028.537098,8958.467419,11895.397233,6.832000,-868.640015,-491.903992,-2380.000000,560.000000,840.000000
-15054.883367,-1515.515329,-2844.997090,-19501.427651,-2512.134911,-7151.485342,-8289.904391,-5433.910243,4863.940759,15607.798470,13787.897085,15124.397293,20805.316663,17979.273853,8919.821253,11868.530437,7.808000,-866.687988,-489.951996,-2240.000000,700.000000,840.000000
-15054.659850,-1521.013858,-2846.002918,-19473.219749,-2514.772417,-7150.188941,-8290.194963,-5434.558443,4849.926215,15579.434106,13759.264500,15099.340987,20776.460561,17950.663620,8893.848526,11851.632518,8.784000,-869.616028,-493.368011,-2380.000000,980.000000,840.000000
-15059.174902,-1528.211120,-2844.751220,-19478.293595,-2516.448798,-7146.389144,-8293.525373,-5439.945214,4852.094335,15579.657624,13758.862169,15098.983359,20780.908558,17956.676240,8892.328607,11852.370125,8.784000,-868.640015,-496.296021,-2520.000000,1120.000000,980.000000
-15061.208911,-1531.340364,-2837.419848,-19510.971846,-2511.330248,-7140.778856,-8297.906315,-5445.935481,4863.761945,15609.564258,13787.137125,15123.100891,20815.933742,17993.780135,8916.535546,11869.737431,7.808000,-868.640015,-490.928009,-2800.000000,980.000000,1120.000000
-15061.141856,-1533.709649,-2831.831912,-19554.736561,-2505.943478,-7138.230758,-8303.315437,-5449.109429,4880.570457,15652.546662,13828.219632,15158.282537,20862.760647,18041.366999,8952.745372,11894.860792,5.856000,-868.152039,-492.391998,-2800.000000,1120.000000,1260.000000
-15059.756048,-1529.328707,-2830.200235,-19586.476038,-2504.445911,-7140.175359,-8306.399978,-5450.070554,4897.356617,15686.208390,13861.724897,15187.898599,20896.556484,18073.866436,8980.975626,11913.077463,9.760000,-870.104004,-494.832001,-2800.000000,1120.000000,980.000000
-15059.666641,-1526.445332,-2833.888273,-19591.505181,-2507.329286,-7144.176322,-8308.411635,-5450.964624,4902.430463,15687.325977,13867.826923,15194.492363,20899.730432,18075.095782,8985.915361,11915.245582,9.760000,-865.712036,-493.368011,-2940.000000,1260.000000,1120.000000
-15052.089399,-1518.711629,-2836.168150,-19559.206910,-2504.557670,-7146.165627,-8300.499117,-5446.829551,4895.322608,15658.715744,13841.898899,15176.208636,20868.505045,18043.535119,8964.077707,11899.644065,8.784000,-869.616028,-493.368011,-3220.000000,1260.000000,1260.000000
-15048.803693,-1515.738847,-2839.878540,-19508.580209,-2503.328324,-7148.378449,-8291.647827,-5443.745010,4875.317797,15612.894668,13794.624960,15138.031857,20817.230143,17992.126106,8927.465549,11871.279701,7.808000,-867.176025,-495.808014,-3220.000000,1260.000000,1260.000000
-15051.865882,-1520.097437,-2842.091363,-19472.303328,-2507.776321,-7149.294871,-8290.574943,-5444.147342,4857.615215,15579.121182,13760.605605,15104.571295,20779.232178,17953.234071,8896.083700,11846.156340,9.272000,-867.176025,-494.832001,-3360.000000,1260.000000,1120.000000
-15051.731771,-1523.204329,-2837.755124,-19463.541444,-2508.737446,-7147.238511,-8292.653655,-5447.321289,4853.033108,15573.935577,13755.107076,15095.228266,20771.610233,17945.500367,8883.991406,11837.506215,8.296000,-863.760010,-494.343994,-3360.000000,1400.000000,1120.000000
-15054.995126,-1527.451161,-2831.898967,-19488.418935,-2508.290411,-7141.739981,-8298.979199,-5452.015156,4863.203152,15598.298979,13777.503524,15112.349702,20798.141753,17973.887083,8899.078834,11849.464399,7.320000,-868.152039,-494.343994,-3360.000000,1400.000000,1120.000000
-15053.251690,-1524.701896,-2825.953403,-19528.540317,-2502.411902,-7136.308507,-8298.912144,-5453.870351,4880.749271,15635.760502,13813.534536,15144.402104,20839.984219,18018.836441,8935.981564,11874.453649,8.784000,-865.223999,-493.368011,-3220.000000,1260.000000,1120.000000
-15052.849359,-1522.712591,-2824.075857,-19568.415829,-2499.349713,-7136.040287,-8298.107481,-5453.468019,4896.998989,15673.914930,13852.158350,15178.466162,20880.977318,18060.969479,8971.207913,11900.605190,7.320000,-868.152039,-493.368011,-3360.000000,1260.000000,980.000000
-15055.173940,-1523.405495,-2828.188578,-19585.179637,-2500.444949,-7137.604909,-8297.414577,-5451.232845,4901.737559,15688.868247,13868.542179,15194.179439,20897.338795,18076.638052,8986.272989,11914.686789,9.272000,-866.687988,-493.368011,-3080.000000,1260.000000,980.000000
-15054.123408,-1525.797132,-2833.843569,-19570.874521,-2505.071760,-7142.879920,-8298.040426,-5445.935481,4894.540297,15673.333785,13853.477103,15181.237779,20879.680917,18054.934508,8973.420736,11907.802452,6.832000,-866.687988,-494.832001,-2940.000000,1260.000000,840.000000
-15050.904757,-1524.411324,-2838.470380,-19526.841584,-2506.166995,-7148.177284,-8291.625475,-5439.945214,4878.379986,15631.379560,13810.449995,15146.369057,20833.904545,18007.638217,8942.217701,11885.003672,8.784000,-869.127991,-494.832001,-3220.000000,1260.000000,840.000000
-15045.339173,-1519.628050,-2839.029174,-19479.232368,-2505.295277,-7150.188941,-8286.663388,-5438.872330,4861.012681,15588.285397,13767.087611,15109.488679,20786.988233,17960.319574,8905.404378,11854.493541,6.832000,-867.176025,-492.391998,-3080.000000,1540.000000,700.000000
-15046.099132,-1522.645536,-2836.637537,-19461.686249,-2507.865728,-7148.847836,-8290.329074,-5445.443743,4848.629814,15569.442877,13748.915642,15092.993092,20769.084486,17943.108731,8883.343206,11836.433332,7.808000,-866.687988,-492.391998,-3080.000000,1400.000000,700.000000
-15049.340135,-1527.227643,-2830.267290,-19475.499627,-2504.825891,-7142.946976,-8290.999626,-5450.852865,4849.948567,15580.216417,13761.700840,15102.850211,20785.244797,17962.286527,8893.423843,11842.647116,7.808000,-866.687988,-490.928009,-2800.000000,1400.000000,700.000000
-15050.122446,-1528.009954,-2825.796941,-19516.179802,-2503.305972,-7140.488284,-8293.413614,-5454.205627,4865.058346,15619.868412,13802.626884,15134.209708,20827.713111,18004.687787,8928.359619,11866.161152,7.320000,-867.176025,-497.760010,-2520.000000,1400.000000,560.000000
-15059.845455,-1536.391859,-2827.965060,-19567.767628,-2507.530452,-7139.504807,-8301.728463,-5455.926711,4879.855201,15663.610776,13850.884301,15169.592520,20879.122124,18053.615755,8966.335233,11898.481774,9.760000,-869.127991,-493.368011,-2380.000000,1260.000000,700.000000
-15063.980527,-1539.454048,-2832.413057,-19595.752012,-2509.318591,-7139.795380,-8304.902411,-5452.149266,4890.114652,15683.906160,13876.387641,15192.033671,20904.379595,18078.940282,8987.882315,11919.157138,9.272000,-867.664001,-490.928009,-1820.000000,1260.000000,700.000000
-15062.617071,-1537.554149,-2840.482037,-19590.007614,-2512.425484,-7143.773990,-8303.047216,-5446.203702,4891.746329,15676.038346,13869.413897,15189.843200,20894.924807,18067.697354,8984.283684,11916.586687,10.248000,-870.104004,-490.440002,-1820.000000,1120.000000,700.000000
-15057.118542,-1532.256786,-2845.645290,-19551.093227,-2512.134911,-7147.685545,-8294.866478,-5440.459304,4881.308065,15640.364962,13829.560736,15162.328203,20853.551728,18025.787833,8958.422715,11896.514821,7.320000,-868.152039,-492.880005,-1540.000000,1260.000000,560.000000
-15048.624879,-1525.417152,-2845.242959,-19499.818325,-2508.960963,-7148.154932,-8287.021016,-5434.513740,4864.276035,15595.169734,13780.722175,15124.665514,20802.299178,17975.786981,8919.105997,11865.445896,10.248000,-867.664001,-493.368011,-1260.000000,1260.000000,700.000000
-15042.724018,-1520.879748,-2840.325575,-19463.943775,-2506.032885,-7146.836179,-8282.058928,-5433.418504,4848.741573,15565.732487,13747.351020,15097.105813,20769.084486,17942.885213,8888.908790,11840.680163,7.808000,-868.152039,-494.832001,-1400.000000,1120.000000,420.000000
-15043.707495,-1523.986640,-2837.911587,-19465.240176,-2506.323458,-7145.673888,-8282.125983,-5438.090019,4847.378117,15565.128990,13746.568709,15093.484830,20770.380887,17945.478016,8889.199363,11839.406114,8.784000,-866.687988,-494.343994,-1400.000000,1120.000000,420.000000
-15050.524777,-1534.044925,-2836.704592,-19504.892171,-2509.765626,-7144.869226,-8292.854821,-5449.534112,4860.766811,15599.595380,13783.493791,15119.479909,20808.937646,17984.794734,8912.579288,11858.896835,8.784000,-866.687988,-494.343994,-1120.000000,1120.000000,280.000000
-15056.112713,-1538.850551,-2834.447066,-19554.490692,-2510.302068,-7143.438714,-8301.683760,-5454.071516,4879.676387,15645.729380,13831.237117,15157.902558,20858.536167,18035.063807,8948.163265,11886.098908,9.272000,-868.640015,-491.903992,-1120.000000,1120.000000,420.000000
-15062.102981,-1544.393783,-2838.872712,-19594.008576,-2514.683010,-7147.350269,-8310.132719,-5457.781906,4892.908620,15680.128715,13867.670461,15188.367985,20895.193028,18070.401915,8975.521800,11908.987094,8.784000,-865.712036,-497.760010,-980.000000,980.000000,420.000000
-15061.968870,-1541.756277,-2844.997090,-19600.334120,-2517.521681,-7151.351231,-8310.020961,-5456.306691,4895.501422,15687.258922,13874.375984,15196.861648,20896.824705,18073.531160,8980.796812,11916.452577,7.808000,-864.247986,-497.760010,-700.000000,700.000000,280.000000
-15056.626803,-1534.380202,-2849.668604,-19569.108733,-2518.639269,-7154.368717,-8304.813004,-5451.501066,4885.353730,15660.347421,13844.223481,15177.527389,20863.073571,18040.092950,8958.757992,11899.487603,10.736000,-866.687988,-495.808014,-840.000000,700.000000,280.000000
-15052.335269,-1530.066315,-2852.551979,-19521.097186,-2519.779208,-7155.709822,-8297.883963,-5448.371821,4867.606445,15615.889801,13797.016596,15141.831653,20815.151431,17990.941464,8921.117654,11871.883198,10.248000,-866.200012,-494.832001,-700.000000,700.000000,140.000000
-15048.088437,-1527.115885,-2851.121467,-19482.294557,-2518.706324,-7155.933339,-8292.720710,-5448.170656,4852.608425,15580.417583,13759.644480,15110.650970,20776.237044,17951.669449,8889.378177,11847.944480,8.296000,-866.687988,-493.368011,-420.000000,420.000000,0.000000
-15048.580175,-1529.284004,-2845.757049,-19472.079810,-2517.834606,-7151.954729,-8293.503021,-5453.244502,4847.713393,15571.409830,13751.284927,15097.999882,20767.698678,17944.963925,8879.029319,11837.685029,9.760000,-866.200012,-492.880005,-280.000000,420.000000,0.000000
-15055.509216,-1536.168341,-2841.219645,-19496.286749,-2516.918184,-7148.132580,-8298.174536,-5458.988900,4853.770715,15591.258179,13773.457858,15111.857964,20793.537294,17973.484751,8896.888363,11848.525625,13.176001,-868.152039,-493.368011,0.000000,0.000000,-140.000000
-15062.751181,-1542.404478,-2838.492732,-19541.079645,-2514.593603,-7144.958633,-8301.862574,-5461.000557,4867.382928,15628.697351,13814.495661,15145.385581,20839.045446,18021.071615,8934.595756,11874.096021,6.832000,-864.736023,-497.272003,420.000000,140.000000,-280.000000
-15068.182655,-1545.109039,-2838.112752,-19585.716079,-2514.906527,-7145.495074,-8308.009304,-5462.922807,4885.711358,15669.221064,13856.896920,15181.841276,20884.508894,18066.602119,8969.196256,11901.387501,7.320000,-863.760010,-494.343994,-280.000000,280.000000,-140.000000
-15070.149609,-1547.075992,-2843.790095,-19605.430318,-2516.784074,-7149.563092,-8312.032618,-5461.805220,4895.881402,15687.415384,13876.812324,15198.314512,20903.038490,18082.628320,8985.825954,11916.318466,9.272000,-865.223999,-492.391998,-840.000000,-140.000000,-420.000000
-15064.047583,-1540.728097,-2849.758011,-19586.230169,-2517.856958,-7152.491170,-8306.198812,-5453.847999,4898.384797,15670.673927,13859.981461,15187.943302,20882.184313,18059.963651,8974.270102,11909.300018,8.296000,-863.272034,-493.856018,-560.000000,-280.000000,-280.000000
-15055.620975,-1532.882635,-2852.127296,-19542.845433,-2518.058123,-7155.620415,-8301.236725,-5450.294071,4890.069948,15633.771197,13820.329466,15157.410819,20838.486652,18014.835479,8941.211872,11885.093079,9.760000,-864.247986,-497.760010,-560.000000,-420.000000,-560.000000
-15052.491731,-1529.887501,-2852.641386,-19497.896075,-2518.303993,-7158.235569,-8299.113309,-5450.674051,4870.579227,15592.800449,13776.989433,15120.552793,20793.224370,17968.433257,8903.795052,11856.169922,7.320000,-866.200012,-494.343994,-840.000000,-420.000000,-560.000000
-15050.681239,-1526.154760,-2848.752183,-19472.124514,-2512.291373,-7154.100496,-8289.993798,-5449.467057,4855.648262,15570.649871,13752.000183,15098.849249,20769.084486,17947.064989,8889.109956,11843.027096,7.808000,-866.687988,-496.296021,-1120.000000,-560.000000,-700.000000
-15056.805617,-1532.323841,-2844.550055,-19482.383964,-2510.793806,-7148.534912,-8288.809155,-5451.411659,4851.177913,15579.367051,13760.762067,15102.202010,20781.042669,17959.447856,8897.625971,11848.793846,4.880000,-866.687988,-493.856018,-840.000000,-700.000000,-700.000000
-15068.137952,-1545.041984,-2842.001956,-19526.975695,-2515.264155,-7143.617528,-8298.330998,-5456.239635,4857.414050,15619.577839,13806.359626,15132.063941,20828.070739,18005.425394,8927.286735,11873.313710,2.440000,-864.247986,-493.368011,-560.000000,-700.000000,-700.000000
-15069.344946,-1547.075992,-2840.884369,-19574.294338,-2516.739370,-7142.477589,-8304.880059,-5455.993766,4877.329454,15661.733229,13849.722010,15168.430229,20874.137685,18052.878148,8963.653024,11901.990998,5.856000,-869.127991,-494.832001,-560.000000,-560.000000,-700.000000
-15066.059240,-1543.030327,-2842.337232,-19602.166963,-2517.991068,-7143.326955,-8308.523394,-5452.126915,4895.300257,15687.929474,13874.264225,15193.397128,20900.959778,18079.387317,8985.356568,11922.398141,7.320000,-865.223999,-492.880005,-700.000000,-980.000000,-700.000000
-15058.794923,-1537.710612,-2848.260444,-19601.071727,-2522.260251,-7149.294871,-8315.072455,-5453.088040,4904.106844,15688.309454,13872.409030,15196.012282,20897.383499,18073.128828,8979.612169,11921.749940,5.856000,-865.712036,-491.903992,-420.000000,-700.000000,-840.000000
-15053.497559,-1532.234434,-2852.507276,-19565.554805,-2521.746161,-7153.117019,-8311.585583,-5447.701269,4891.008722,15656.502921,13836.579184,15170.643052,20861.128969,18035.376732,8951.851303,11901.342797,7.320000,-866.200012,-496.783997,-420.000000,-700.000000,-840.000000
-15053.788132,-1531.675641,-2857.201142,-19519.689026,-2521.701458,-7156.782705,-8306.176461,-5444.102638,4867.986425,15614.548697,13791.719233,15132.488624,20813.318588,17985.934673,8916.468491,11874.051317,4.392000,-867.664001,-495.808014,0.000000,-700.000000,-840.000000
-15055.665678,-1533.687298,-2857.715232,-19488.709508,-2523.601356,-7157.073278,-8304.388321,-5444.393211,4849.993271,15586.407851,13762.170227,15103.587819,20780.729745,17953.435237,8890.071081,11853.443009,2.440000,-867.664001,-494.832001,140.000000,-840.000000,-840.000000
-15053.162283,-1533.821408,-2848.282796,-19483.300386,-2518.214586,-7150.367755,-8299.180365,-5445.644909,4844.718259,15584.485601,13760.270329,15100.771499,20779.723916,17955.581004,8890.138136,11851.364297,5.368000,-868.640015,-497.272003,420.000000,-700.000000,-700.000000
-15052.335269,-1533.083800,-2839.364450,-19511.843564,-2510.570289,-7143.595176,-8301.192022,-5449.444705,4858.241064,15613.945200,13788.210009,15124.665514,20811.977483,17989.332138,8913.607468,11866.116448,5.368000,-865.712036,-497.272003,560.000000,-700.000000,-840.000000
-15055.911548,-1530.647460,-2833.552996,-19556.859977,-2505.496443,-7140.398877,-8306.869365,-5453.222150,4877.329454,15655.877072,13829.337219,15162.551720,20860.391362,18038.707142,8950.063163,11890.144573,2.440000,-863.760010,-492.880005,840.000000,-840.000000,-840.000000
-15061.432429,-1532.413248,-2834.491770,-19593.516838,-2507.888080,-7141.807037,-8312.859632,-5456.217284,4890.561687,15685.984872,13861.009641,15192.883038,20896.556484,18075.609872,8977.980492,11910.551716,6.344000,-864.247986,-494.343994,980.000000,-700.000000,-840.000000
-15062.259443,-1529.216949,-2840.504389,-19597.920131,-2510.369123,-7145.092743,-8310.289182,-5449.936444,4893.243896,15689.248227,13867.513998,15198.180401,20899.529266,18077.688584,8985.870658,11918.978324,5.368000,-864.247986,-501.175995,1120.000000,-560.000000,-980.000000
-15059.733696,-1525.283042,-2847.165209,-19567.365297,-2513.520719,-7150.300700,-8305.505908,-5445.063763,4881.978617,15661.085029,13841.027181,15173.548779,20866.806312,18040.964668,8963.340099,11902.147460,4.880000,-864.736023,-495.320007,1400.000000,-700.000000,-980.000000
-15057.610280,-1522.801998,-2851.523799,-19522.259476,-2514.817120,-7154.033441,-8299.292123,-5442.336850,4863.627835,15620.158985,13799.229419,15136.266069,20819.599428,17992.819010,8926.079741,11874.051317,2.928000,-865.712036,-496.783997,1400.000000,-560.000000,-1120.000000
-15053.274042,-1520.075085,-2850.227398,-19481.825171,-2515.487673,-7154.927511,-8296.520507,-5445.533150,4847.288710,15584.552656,13764.293643,15104.437185,20779.679213,17951.848263,8890.540468,11844.278794,6.344000,-864.247986,-499.223999,1540.000000,-840.000000,-1260.000000
-15054.928071,-1523.271385,-2847.522837,-19469.352897,-2514.928879,-7151.083011,-8295.715844,-5449.176484,4841.700773,15572.058031,13751.888424,15092.434298,20766.961070,17941.253536,8880.012796,11833.527605,4.392000,-862.783997,-495.808014,1540.000000,-700.000000,-1540.000000
-15057.811446,-1525.931242,-2840.727906,-19490.810572,-2511.464359,-7145.897406,-8296.565210,-5451.366955,4849.523884,15592.129897,13770.753297,15107.946409,20789.782201,17968.321498,8897.178936,11845.999878,7.808000,-862.783997,-497.272003,1400.000000,-560.000000,-1680.000000
-15059.107847,-1526.914719,-2834.469418,-19535.245840,-2509.229184,-7141.360002,-8301.303780,-5454.317385,4868.433460,15635.402874,13814.428605,15144.290345,20837.413768,18016.824784,8931.019477,11872.084364,9.272000,-862.783997,-497.760010,1540.000000,-840.000000,-1820.000000
-15059.823103,-1529.082838,-2832.524816,-19581.044564,-2510.972620,-7141.158836,-8308.009304,-5457.424278,4890.181707,15679.122887,13860.093219,15182.824753,20885.335909,18062.668212,8965.821143,11898.213553,8.784000,-864.247986,-491.903992,1540.000000,-700.000000,-1820.000000
-15057.722039,-1526.333574,-2833.575348,-19596.154344,-2509.698571,-7143.125790,-8307.852841,-5454.295034,4900.239992,15694.053852,13875.940606,15199.499154,20901.071537,18075.542817,8982.562599,11908.070673,11.712000,-864.247986,-493.856018,1260.000000,-840.000000,-2100.000000
-15059.130199,-1527.607623,-2843.276005,-19580.374012,-2512.939574,-7150.792438,-8306.019998,-5450.003499,4891.969847,15674.585482,13856.382830,15186.736308,20881.536112,18054.263956,8969.151553,11900.158155,8.296000,-862.296021,-499.712006,1260.000000,-700.000000,-2240.000000
-15055.129237,-1524.143103,-2849.802715,-19538.732712,-2515.465321,-7155.061621,-8298.219239,-5443.968528,4874.759003,15636.743979,13814.808585,15154.885072,20837.637286,18009.739281,8936.853282,11877.828762,12.200000,-864.247986,-496.296021,1120.000000,-840.000000,-2380.000000
-15053.721077,-1522.064390,-2851.121467,-19493.872761,-2515.688838,-7155.620415,-8292.966580,-5440.727525,4852.228445,15594.879162,13772.094401,15119.144633,20792.665576,17963.202949,8900.755215,11850.581986,8.296000,-865.712036,-496.783997,1260.000000,-700.000000,-2240.000000
-15057.073838,-1526.177111,-2848.372203,-19472.996232,-2515.398266,-7152.379412,-8291.983103,-5442.158036,4839.040916,15574.896702,13752.670735,15099.788022,20773.890111,17943.265193,8881.957398,11838.020305,8.296000,-863.760010,-492.880005,1260.000000,-700.000000,-2380.000000
-15062.326498,-1531.966213,-2844.125371,-19485.692023,-2514.772417,-7147.059697,-8292.698359,-5442.649775,4841.946643,15586.251388,13765.455933,15105.934752,20788.642262,17959.224338,8890.853392,11846.938651,7.808000,-864.247986,-496.783997,1120.000000,-980.000000,-2380.000000
-15073.368260,-1540.683394,-2840.794962,-19528.763834,-2516.135873,-7144.466894,-8300.208545,-5446.136647,4852.004928,15624.003485,13806.426681,15134.276764,20833.122234,18005.179525,8922.078779,11872.374937,10.736000,-864.736023,-495.320007,1260.000000,-700.000000,-2240.000000
-15075.446972,-1545.332556,-2839.610319,-19578.340003,-2517.745199,-7143.326955,-8310.423292,-5452.886874,4873.440251,15668.259939,13853.141827,15173.034689,20881.156132,18054.934508,8957.171018,11901.141632,7.808000,-864.736023,-498.735992,1120.000000,-700.000000,-2240.000000
-15072.138914,-1543.678527,-2842.113714,-19605.586780,-2517.745199,-7145.964461,-8314.312496,-5453.646833,4893.221544,15694.746756,13879.785106,15199.633264,20906.659473,18079.297910,8981.266198,11919.492414,10.248000,-865.712036,-497.760010,980.000000,-560.000000,-2380.000000
-15065.858074,-1538.224702,-2843.745392,-19599.596512,-2515.062990,-7150.054830,-8311.652638,-5449.936444,4895.814347,15693.360948,13875.515923,15200.437927,20900.199819,18071.452447,8982.137916,11919.648876,9.272000,-864.736023,-497.760010,1120.000000,-560.000000,-2100.000000
-15057.900853,-1529.775742,-2845.734697,-19558.983393,-2512.134911,-7154.324014,-8304.298914,-5447.388345,4878.603504,15660.928567,13838.389675,15172.788819,20858.491463,18027.665380,8953.393573,11896.626579,10.736000,-868.640015,-497.760010,980.000000,-420.000000,-2240.000000
-15049.965984,-1518.577518,-2844.840627,-19504.892171,-2506.792844,-7154.838104,-8292.653655,-5444.728487,4856.899960,15615.666284,13788.902913,15134.276764,20803.975559,17975.809333,8917.139043,11863.858922,12.200000,-867.664001,-496.296021,1120.000000,-280.000000,-1960.000000
-15037.627821,-1507.714570,-2836.391668,-19465.195473,-2500.132024,-7150.680679,-8284.830545,-5443.432086,4843.824189,15588.419508,13757.163436,15108.505202,20768.749209,17942.125254,8891.032206,11838.735561,10.248000,-867.664001,-495.808014,1120.000000,-280.000000,-1820.000000
-15031.034056,-1499.869108,-2825.685182,-19456.187720,-2492.219507,-7143.483417,-8279.823754,-5441.688650,4841.968994,15587.637196,13755.017669,15105.778290,20767.296346,17941.588812,8888.707625,11833.929936,9.272000,-867.176025,-496.296021,1260.000000,-280.000000,-1680.000000
-15030.475262,-1499.086797,-2817.325630,-19485.334395,-2488.397358,-7139.504807,-8283.824716,-5446.807199,4854.910654,15618.460252,13787.338291,15130.454615,20801.069832,17976.748106,8912.422825,11848.302108,9.760000,-864.736023,-495.808014,1540.000000,-280.000000,-1680.000000
-15032.799844,-1501.523137,-2814.308144,-19528.652075,-2487.078606,-7137.873130,-8286.439870,-5449.265891,4869.528695,15657.844026,13829.605440,15163.825770,20843.918126,18022.680941,8950.197274,11872.665509,10.248000,-864.247986,-495.320007,1400.000000,-140.000000,-1260.000000
-15023.702684,-1487.933277,-2805.903888,-19552.613145,-2475.500402,-7131.927566,-8275.755736,-5445.667260,4884.102033,15685.582541,13856.159312,15193.933570,20872.707173,18057.214386,8984.574256,11893.027949,11.712000,-865.712036,-498.735992,1400.000000,0.000000,-1120.000000
-15010.716320,-1469.761308,-2802.551127,-19549.372142,-2468.325492,-7131.301717,-8267.597350,-5441.912167,4894.316780,15690.723442,13858.662708,15204.125965,20872.260138,18057.773180,8991.793870,11894.279646,8.296000,-867.176025,-494.343994,1400.000000,-140.000000,-1260.000000
-15001.261532,-1458.317215,-2804.942763,-19516.313912,-2465.866800,-7133.469836,-8259.081335,-5433.910243,4889.958190,15666.069468,13830.052475,15183.785878,20837.883155,18022.636237,8971.744355,11877.605245,8.296000,-868.640015,-493.856018,1540.000000,0.000000,-1260.000000
-14998.333454,-1455.411488,-2809.100188,-19470.604595,-2466.000911,-7134.676830,-8252.219349,-5427.584699,4873.261437,15624.182299,13784.723137,15146.994906,20791.838562,17975.474057,8939.535491,11853.510064,9.760000,-864.247986,-491.903992,1400.000000,140.000000,-980.000000
-14999.652207,-1458.384270,-2811.111845,-19433.858327,-2467.431422,-7135.928528,-8249.827713,-5428.948156,4855.178875,15587.503086,13745.898157,15112.841441,20753.907651,17936.671428,8907.796014,11829.347829,9.760000,-865.712036,-495.808014,1540.000000,0.000000,-980.000000
-15006.804765,-1467.727300,-2811.268307,-19428.404501,-2470.739480,-7135.705010,-8253.068716,-5433.642022,4845.813494,15577.511856,13738.410322,15101.173830,20748.744398,17929.809443,8898.073005,11824.028113,10.736000,-866.200012,-496.296021,1400.000000,-140.000000,-1120.000000
-15016.930105,-1479.484317,-2810.664810,-19456.411237,-2474.695739,-7133.872167,-8263.372870,-5442.403906,4847.802800,15597.248447,13761.812599,15115.680112,20776.818189,17958.330269,8911.171128,11837.752084,10.248000,-865.223999,-492.880005,1400.000000,-280.000000,-980.000000
-15027.457777,-1489.810823,-2810.933031,-19506.434441,-2477.892039,-7132.128731,-8273.341748,-5449.064726,4861.035032,15638.152139,13804.862059,15149.140674,20825.902620,18007.794679,8947.023326,11866.719945,8.784000,-865.712036,-495.320007,1400.000000,-280.000000,-1120.000000
-15035.213832,-1497.857451,-2812.430598,-19556.569404,-2482.295332,-7132.665173,-8282.371853,-5452.775115,4879.922256,15682.900331,13849.699658,15186.736308,20874.316499,18055.716819,8982.629655,11895.218419,11.712000,-866.200012,-496.296021,1400.000000,-420.000000,-1120.000000
-15039.460664,-1499.779701,-2817.124464,-19579.681108,-2486.162184,-7136.219101,-8289.993798,-5455.077345,4891.299294,15705.587352,13870.956167,15207.210506,20896.332967,18075.073430,8996.688902,11907.266010,9.760000,-864.247986,-495.808014,1400.000000,-420.000000,-1260.000000
-15044.109827,-1503.758312,-2827.987412,-19570.382782,-2493.806481,-7143.371659,-8294.352388,-5452.573949,4888.281809,15692.019843,13857.165141,15198.985064,20882.430182,18055.761523,8984.686015,11901.946295,10.248000,-865.712036,-493.368011,1260.000000,-420.000000,-1260.000000
-15050.301260,-1511.335553,-2840.727906,-19537.682180,-2503.663600,-7149.965423,-8293.972408,-5447.880083,4871.652111,15653.328973,13818.831899,15167.357346,20843.359332,18013.807298,8952.946538,11884.176658,8.296000,-865.223999,-493.856018,1260.000000,-560.000000,-1260.000000
-15056.291527,-1518.264594,-2846.360546,-19499.594808,-2509.497405,-7153.184075,-8294.106519,-5448.841208,4849.523884,15610.994769,13777.414117,15133.248583,20801.226294,17972.165998,8915.976753,11861.020250,8.784000,-867.664001,-493.856018,1400.000000,-840.000000,-1260.000000
-15058.012612,-1521.192672,-2844.840627,-19477.220711,-2507.776321,-7151.932377,-8292.206620,-5449.310595,4835.889320,15587.860714,13755.531759,15111.857964,20780.126247,17951.021248,8898.028302,11846.849244,6.832000,-866.200012,-494.343994,1120.000000,-840.000000,-1540.000000
-15059.420772,-1523.964289,-2839.587967,-19489.201246,-2506.323458,-7148.333746,-8294.978237,-5454.317385,4839.912634,15599.640083,13767.579349,15117.959990,20795.660710,17965.371068,8905.963171,11852.615995,12.200000,-867.176025,-495.808014,980.000000,-980.000000,-1540.000000
-15065.545150,-1528.680507,-2835.810523,-19532.697741,-2505.496443,-7143.975156,-8301.035559,-5459.659452,4856.072945,15639.537947,13807.700730,15149.185377,20841.124158,18012.779118,8939.602547,11877.985224,11.224000,-868.640015,-494.343994,1120.000000,-980.000000,-1400.000000
-15073.994109,-1537.554149,-2836.995165,-19586.632500,-2509.586812,-7142.119961,-8311.585583,-5462.811048,4877.307102,15687.594198,13860.182626,15188.591503,20893.673109,18064.590462,8978.606341,11909.098853,11.224000,-865.712036,-494.832001,1120.000000,-1120.000000,-1540.000000
-15079.693804,-1543.075030,-2838.917415,-19619.444861,-2512.134911,-7143.237548,-8321.353295,-5466.141458,4890.315818,15717.098500,13891.139792,15214.988913,20924.227944,18094.184171,8999.326408,11927.829615,10.248000,-865.223999,-499.223999,1260.000000,-840.000000,-1400.000000
-15073.122391,-1535.207216,-2839.833837,-19611.845268,-2509.922088,-7147.126752,-8320.660391,-5464.621540,4892.305123,15715.042140,13886.557685,15215.011265,20917.455365,18085.019956,8997.024178,11922.979286,5.368000,-869.616028,-495.320007,1260.000000,-980.000000,-1400.000000
-15069.702574,-1530.423943,-2846.293491,-19576.864788,-2513.341905,-7153.273482,-8317.553498,-5460.285301,4883.565591,15684.576712,13855.958147,15188.859724,20881.402002,18045.144444,8969.598588,11902.125108,11.224000,-867.664001,-492.391998,980.000000,-980.000000,-1400.000000
-15067.579158,-1526.467684,-2847.545188,-19529.255572,-2512.671353,-7155.039269,-8309.730388,-5455.502028,4865.617140,15641.594308,13814.294495,15154.125113,20833.703379,17997.781098,8934.573404,11876.420602,10.248000,-865.712036,-494.832001,1400.000000,-1120.000000,-1400.000000
-15065.276929,-1527.294699,-2846.762877,-19498.432517,-2512.827815,-7153.988737,-8305.327094,-5452.752763,4852.183742,15609.541906,13780.498657,15127.526537,20802.433288,17968.030926,8910.969962,11857.645137,8.784000,-870.104004,-494.343994,1260.000000,-980.000000,-1260.000000
-15061.723001,-1526.601795,-2843.968909,-19496.934950,-2511.531414,-7150.971252,-8302.354312,-5450.942272,4853.569550,15607.329083,13775.648329,15122.855022,20803.148544,17968.768533,8910.925259,11856.348736,8.784000,-870.104004,-495.320007,1540.000000,-1260.000000,-1120.000000
-15059.890158,-1526.288870,-2837.375145,-19527.042750,-2506.949306,-7146.322089,-8304.008341,-5453.266853,4864.924236,15636.676924,13803.900934,15145.564395,20836.050312,18002.989054,8935.914509,11872.151419,11.712000,-867.664001,-494.832001,1820.000000,-1120.000000,-840.000000
-15065.455743,-1533.843760,-2835.341136,-19578.295300,-2511.196138,-7145.740944,-8314.536013,-5457.871313,4882.515059,15685.269616,13854.594690,15184.411727,20887.101696,18053.615755,8972.124335,11902.370978,7.320000,-870.591980,-494.832001,1820.000000,-840.000000,-700.000000
-15070.864865,-1537.375335,-2836.078743,-19621.903553,-2516.337039,-7145.696240,-8324.884871,-5463.749822,4899.569440,15726.754454,13897.107708,15221.828547,20930.978171,18096.151125,9000.779271,11928.969554,8.296000,-870.104004,-494.832001,2100.000000,-840.000000,-840.000000
-15073.994109,-1537.040059,-2841.443162,-19628.162042,-2520.069780,-7148.601967,-8326.449493,-5463.034566,4900.195289,15731.582431,13900.616932,15228.891698,20935.292057,18099.190962,9007.395388,11933.015219,7.320000,-868.152039,-499.712006,2100.000000,-700.000000,-700.000000
-15070.060202,-1527.764085,-2845.734697,-19592.958044,-2515.599431,-7152.625281,-8314.893641,-5457.223112,4885.510193,15699.440622,13863.803609,15206.741119,20898.456383,18063.428171,8990.653931,11914.552678,8.784000,-867.664001,-498.248016,2380.000000,-560.000000,-700.000000
-15065.791019,-1519.404533,-2847.321671,-19542.152529,-2511.285545,-7154.033441,-8304.142452,-5449.332946,4866.444155,15652.680773,13814.674475,15171.157142,20848.276716,18014.433147,8956.768686,11887.909399,7.320000,-869.127991,-496.783997,2240.000000,-280.000000,-560.000000
-15062.773533,-1515.805902,-2844.125371,-19501.248837,-2507.977487,-7154.301662,-8303.315437,-5451.903397,4850.529713,15614.951028,13777.592931,15141.138749,20809.317626,17975.988147,8920.223584,11860.997899,11.712000,-868.152039,-493.368011,2660.000000,0.000000,-560.000000
-15065.053411,-1519.449236,-2842.225473,-19487.860142,-2507.061065,-7150.591272,-8301.080263,-5453.803295,4842.818361,15597.226095,13763.198407,15124.218479,20795.146620,17964.745219,8907.594849,11852.794808,5.368000,-868.640015,-497.272003,2800.000000,420.000000,-420.000000
-15071.066030,-1528.211120,-2840.526741,-19510.323645,-2509.251536,-7145.316260,-8301.504946,-5457.089002,4847.065192,15615.353360,13783.002053,15132.153348,20817.833640,17989.578007,8925.208023,11865.892931,6.832000,-868.152039,-494.343994,3080.000000,700.000000,-420.000000
-15071.825990,-1534.447257,-2835.095267,-19553.238994,-2509.072722,-7142.812865,-8308.501042,-5466.320272,4863.046689,15658.626337,13827.258507,15164.965709,20862.917109,18034.080331,8957.528646,11886.568294,8.784000,-865.712036,-495.320007,3360.000000,840.000000,-280.000000
-15070.730754,-1536.078934,-2834.022383,-19596.601379,-2510.749103,-7143.818694,-8315.944173,-5472.265836,4883.297370,15701.072300,13871.850237,15199.342692,20905.385423,18074.604043,8990.184544,11907.221306,6.344000,-866.687988,-494.343994,3500.000000,1120.000000,-140.000000
-15068.853208,-1536.838894,-2839.476209,-19618.729606,-2517.544033,-7148.736077,-8321.733275,-5471.818801,4899.725902,15722.149995,13894.984292,15218.229916,20924.585572,18088.998567,9003.841460,11920.230022,4.880000,-865.223999,-493.368011,3360.000000,1260.000000,0.000000
-15066.103943,-1531.653289,-2844.907683,-19603.888047,-2517.879309,-7152.602929,-8320.302763,-5467.482563,4897.893059,15708.537782,13879.628644,15210.496212,20907.464136,18069.396087,8991.838573,11913.300981,5.368000,-867.176025,-493.856018,2940.000000,1260.000000,-140.000000
-15063.645251,-1527.227643,-2848.998052,-19562.291451,-2516.895833,-7155.039269,-8315.430083,-5463.369842,4882.716225,15669.131657,13840.177815,15181.170724,20864.995821,18024.513784,8958.333308,11890.390443,2.928000,-867.176025,-491.903992,2520.000000,1120.000000,140.000000
-15059.621937,-1523.003164,-2848.036927,-19515.889229,-2517.298164,-7158.190865,-8312.546708,-5464.174505,4866.265341,15626.596287,13797.150707,15147.933680,20820.158222,17978.759763,8917.943706,11861.713155,3.416000,-867.176025,-492.391998,2380.000000,700.000000,0.000000
-15060.627766,-1519.672754,-2843.857151,-19485.937892,-2510.793806,-7153.049964,-8302.711940,-5461.425240,4845.724087,15594.275665,13764.383050,15123.436168,20791.592692,17955.335135,8899.414110,11845.418733,3.416000,-868.640015,-494.832001,1820.000000,700.000000,140.000000
-15062.259443,-1520.790341,-2840.549092,-19490.989386,-2505.965830,-7146.433848,-8298.286295,-5461.089964,4841.745477,15596.421432,13767.288776,15124.397293,20796.890056,17966.555711,8908.980657,11849.643213,3.904000,-868.640015,-495.320007,1960.000000,420.000000,0.000000
-15066.662737,-1527.227643,-2836.279909,-19531.781320,-2504.244745,-7140.890615,-8303.874231,-5466.677900,4857.168181,15633.793549,13808.840669,15153.007526,20839.447777,18010.387481,8940.675430,11874.140724,6.832000,-866.200012,-492.391998,2100.000000,-140.000000,0.000000
-15070.350775,-1532.100324,-2833.485941,-19578.809390,-2504.982353,-7139.638917,-8312.256135,-5471.282360,4876.234219,15677.938244,13854.102952,15189.060889,20887.056993,18056.275613,8976.304111,11901.409853,6.832000,-863.272034,-495.808014,2240.000000,-840.000000,-140.000000
-15070.395478,-1533.240263,-2837.464552,-19609.386576,-2508.804501,-7144.779819,-8321.889737,-5473.517534,4893.310951,15707.196678,13885.283635,15214.340712,20916.002502,18081.734250,8996.778309,11917.704274,5.856000,-863.760010,-493.856018,2380.000000,-840.000000,-280.000000
-15071.758934,-1531.228606,-2843.164246,-19607.553733,-2510.369123,-7151.798266,-8324.437836,-5474.970397,4895.859050,15706.526125,13885.082470,15216.017093,20911.845077,18075.364003,8992.911457,11915.782024,7.808000,-863.272034,-491.903992,2100.000000,-1400.000000,-420.000000
-15075.514028,-1532.927338,-2851.747316,-19573.892006,-2514.191272,-7157.140333,-8320.481577,-5469.270703,4877.843544,15673.087916,13852.203053,15187.160991,20874.651775,18036.583726,8967.162248,11896.514821,7.808000,-861.807983,-495.320007,2100.000000,-1820.000000,-560.000000
-15074.374089,-1535.877769,-2856.597645,-19529.769663,-2517.365219,-7159.174342,-8315.944173,-5462.587531,4857.928140,15630.172566,13810.315884,15150.101799,20830.194155,17989.600359,8930.773608,11872.330233,11.224000,-863.272034,-493.856018,1960.000000,-1820.000000,-840.000000
-15071.803638,-1539.118771,-2857.022328,-19499.326587,-2519.019248,-7158.503790,-8312.792577,-5459.324176,4846.171122,15599.394214,13776.609454,15122.028008,20801.159239,17960.207815,8903.817404,11854.650003,10.248000,-865.712036,-495.320007,2100.000000,-2240.000000,-1120.000000
-15070.797809,-1537.442391,-2850.272101,-19492.241084,-2515.398266,-7153.429944,-8308.858670,-5460.240598,4842.840712,15592.822801,13768.875750,15115.613057,20796.152448,17959.470208,8899.950552,11848.525625,11.712000,-863.760010,-488.976013,1540.000000,-2380.000000,-1120.000000
-15071.468362,-1538.895254,-2843.968909,-19521.924200,-2515.040638,-7150.188941,-8313.820757,-5464.442726,4853.301329,15619.533136,13794.401442,15138.568299,20826.662579,17991.433202,8922.101131,11862.026079,8.784000,-866.687988,-489.464020,980.000000,-2800.000000,-1400.000000
-15072.921225,-1540.415173,-2839.543264,-19568.102904,-2514.593603,-7147.417324,-8322.113254,-5467.616673,4871.696815,15664.817770,13840.513091,15175.895712,20874.964699,18040.182357,8957.863922,11887.730585,13.664001,-867.664001,-488.976013,840.000000,-2520.000000,-1540.000000
-15072.205969,-1536.391859,-2841.018479,-19602.010501,-2512.157263,-7148.959595,-8323.432007,-5467.571970,4889.533507,15697.026634,13874.219522,15205.355311,20908.246447,18074.939319,8990.318655,11908.495356,10.248000,-870.104004,-484.584015,980.000000,-2660.000000,-1680.000000
-15070.708402,-1533.888463,-2846.807581,-19605.407966,-2513.297202,-7154.055793,-8322.314420,-5465.940293,4893.869745,15700.357044,13877.795801,15209.512736,20910.034586,18075.028726,8997.784137,11911.870469,11.224000,-870.591980,-486.048004,980.000000,-2240.000000,-1820.000000
-15069.300243,-1532.413248,-2852.909607,-19577.691803,-2516.068818,-7158.079107,-8319.006362,-5462.364013,4883.297370,15673.132619,13849.163216,15189.127945,20880.016193,18044.205671,8977.801678,11899.577010,10.248000,-873.031982,-487.024017,1120.000000,-2520.000000,-1680.000000
-15065.411039,-1529.440466,-2855.815334,-19530.574325,-2516.895833,-7160.180171,-8314.312496,-5458.228941,4865.505381,15629.591421,13805.085576,15152.895767,20831.624667,17995.680034,8938.663773,11872.978434,11.712000,-874.984009,-484.584015,1820.000000,-2800.000000,-1540.000000
-15059.599585,-1525.595966,-2855.457706,-19487.435459,-2516.873481,-7162.124772,-8306.444681,-5455.010290,4852.250797,15592.889856,13768.741640,15118.116452,20787.994061,17951.937670,8905.024398,11847.005707,9.760000,-873.031982,-485.071991,1960.000000,-2660.000000,-1400.000000
-15065.656908,-1532.927338,-2856.195313,-19477.555988,-2519.153359,-7162.214179,-8303.538955,-5455.323214,4842.863064,15579.411755,13756.515235,15101.754976,20775.030050,17941.253536,8895.614314,11840.657811,6.832000,-877.424011,-484.584015,2380.000000,-2520.000000,-1120.000000
-15069.367298,-1536.525969,-2848.215741,-19498.588979,-2515.957059,-7157.185037,-8305.818833,-5461.916979,4849.076849,15599.148345,13776.475343,15117.132976,20798.052346,17966.756876,8910.344113,11850.537282,5.368000,-875.471985,-481.656006,3360.000000,-2380.000000,-420.000000
-15069.255539,-1537.800019,-2840.996127,-19542.174881,-2513.252498,-7151.552397,-8310.758568,-5465.135630,4868.411108,15641.884880,13821.737626,15152.806360,20843.985181,18014.813127,8943.312936,11874.230131,4.392000,-874.496033,-482.632019,3500.000000,-2240.000000,-140.000000
-15070.462533,-1540.817504,-2839.990299,-19588.308881,-2515.331211,-7149.361926,-8317.173519,-5466.834362,4890.852259,15685.224913,13866.262301,15189.642035,20889.985071,18060.678907,8977.153477,11901.298094,5.856000,-874.496033,-482.632019,4060.000000,-1680.000000,0.000000
-15071.423658,-1539.409344,-2844.170075,-19606.883181,-2519.689801,-7153.049964,-8321.420350,-5470.187124,4902.922202,15702.502811,13883.137868,15205.958808,20907.128859,18075.676927,8991.637408,11912.518670,5.856000,-874.984009,-481.167999,4340.000000,-1680.000000,420.000000
-15068.517932,-1533.262614,-2849.646252,-19589.605282,-2520.807388,-7157.185037,-8319.699266,-5467.259046,4902.274001,15686.543666,13866.195246,15195.699357,20888.129877,18056.141502,8981.467364,11903.153289,3.416000,-875.471985,-484.096008,5180.000000,-1400.000000,840.000000
-15062.617071,-1525.886539,-2852.909607,-19547.136968,-2521.701458,-7159.911950,-8314.334847,-5464.062746,4890.204059,15648.948032,13825.068036,15165.748020,20843.381684,18009.381653,8947.917396,11876.152381,6.832000,-869.616028,-486.048004,5460.000000,-1120.000000,980.000000
-15062.550016,-1527.786437,-2855.748279,-19502.724052,-2526.015344,-7161.856551,-8310.199775,-5461.559351,4873.641416,15607.172621,13781.616245,15126.855985,20797.985291,17961.258347,8908.466567,11847.542149,5.368000,-872.056030,-488.000000,5600.000000,-980.000000,980.000000
-15065.232225,-1530.312184,-2855.144781,-19474.918482,-2524.204853,-7160.291929,-8306.534088,-5461.782868,4856.877608,15579.121182,13751.597852,15100.436223,20769.553872,17933.139853,8886.092470,11829.169015,3.904000,-869.127991,-484.096008,5880.000000,-840.000000,1260.000000
-15069.076725,-1529.418114,-2849.154514,-19479.455886,-2519.689801,-7155.843932,-8305.170632,-5463.839229,4854.150695,15582.473944,13752.268404,15103.274894,20774.247739,17941.857033,8891.367482,11829.861919,6.344000,-870.104004,-488.976013,5880.000000,-980.000000,1120.000000
-15072.697708,-1532.636766,-2844.125371,-19518.929067,-2517.566385,-7151.239473,-8309.864498,-5467.102583,4870.154544,15618.750825,13790.713405,15134.656743,20815.933742,17984.012423,8921.385875,11852.213663,7.808000,-866.687988,-488.000000,5600.000000,-1120.000000,1120.000000
-15075.245807,-1536.771838,-2840.862017,-19569.511064,-2516.202929,-7147.752601,-8315.340676,-5468.443688,4893.355655,15665.935357,13840.826016,15175.918064,20869.376763,18038.550680,8961.104925,11884.333120,7.808000,-866.200012,-489.464020,5600.000000,-1120.000000,1120.000000
-15073.547074,-1535.475437,-2841.733735,-19598.545980,-2514.347734,-7147.216159,-8315.877118,-5466.543790,4907.459606,15694.746756,13871.760830,15203.768337,20899.350452,18068.457314,8989.603399,11904.248524,8.784000,-863.760010,-492.391998,5460.000000,-1260.000000,1120.000000
-15069.747277,-1529.663984,-2844.661813,-19589.001785,-2511.687876,-7150.188941,-8311.026789,-5462.051089,4905.269135,15689.047061,13865.927025,15202.382529,20889.515685,18057.817883,8990.408062,11899.308789,10.736000,-862.296021,-495.808014,5040.000000,-1820.000000,980.000000
-15066.014536,-1523.025515,-2848.528665,-19548.589831,-2509.631516,-7154.927511,-8301.974333,-5454.630310,4889.242934,15651.049096,13827.079693,15174.576959,20847.784978,18014.723720,8962.937768,11877.582893,10.736000,-859.367981,-498.735992,4620.000000,-2240.000000,980.000000
-15066.550978,-1525.573614,-2852.976662,-19503.551066,-2512.760760,-7158.257921,-8300.901449,-5452.909226,4866.533562,15607.083214,13783.225570,15135.930793,20801.762736,17966.131027,8920.961192,11850.000840,9.272000,-858.880005,-492.880005,3920.000000,-2240.000000,980.000000
-15066.416868,-1525.551263,-2852.216703,-19469.241139,-2511.039676,-7157.095630,-8297.056949,-5451.970452,4848.003965,15575.008461,13750.122637,15104.750109,20769.218596,17933.206908,8893.200325,11828.900794,11.712000,-856.928040,-501.664001,3360.000000,-2660.000000,980.000000
-15070.149609,-1528.456989,-2847.299319,-19468.637642,-2508.133949,-7151.932377,-8295.492327,-5451.590473,4842.952471,15575.433144,13750.927299,15099.050414,20772.057268,17936.000876,8892.440366,11829.347829,12.200000,-854.488037,-498.248016,2520.000000,-2940.000000,1120.000000
-15076.743373,-1532.547359,-2840.035002,-19502.455831,-2506.099940,-7145.606833,-8301.035559,-5455.211455,4855.447096,15610.190107,13786.712442,15123.704389,20811.061062,17974.781153,8917.250802,11848.749143,8.784000,-859.367981,-502.152008,1680.000000,-2520.000000,1260.000000
-15077.659795,-1533.977870,-2836.883406,-19550.646192,-2507.664562,-7144.936281,-8306.981123,-5459.771211,4876.793012,15657.218177,13835.081617,15162.328203,20861.687763,18024.379674,8955.964024,11878.074631,9.760000,-856.928040,-500.688019,980.000000,-2520.000000,1400.000000
-15074.172923,-1529.440466,-2836.570482,-19584.307919,-2507.575155,-7145.942109,-8311.339713,-5463.146325,4898.004818,15688.577674,13866.172894,15192.458355,20895.885932,18059.449561,8983.434318,11899.129975,6.832000,-859.367981,-501.175995,280.000000,-1960.000000,1680.000000
-15070.507237,-1525.148931,-2841.331403,-19593.069803,-2511.911394,-7149.428981,-8315.675952,-5465.180333,4907.280792,15695.104384,13873.325452,15202.516640,20902.211476,18065.439828,8987.010597,11902.482736,1.952000,-858.392029,-503.127991,-420.000000,-1260.000000,1820.000000
-15061.767705,-1519.225719,-2844.862979,-19568.080553,-2514.705362,-7153.742868,-8313.597240,-5464.152153,4904.442120,15674.652538,13850.929004,15187.876247,20875.858769,18037.321334,8966.804620,11886.389480,0.488000,-861.320007,-504.104004,-980.000000,-840.000000,2240.000000
-15059.398420,-1515.135350,-2848.461610,-19523.399415,-2515.375914,-7157.565016,-8307.294048,-5460.911150,4885.353730,15635.402874,13807.164288,15152.828712,20829.322437,17990.069746,8932.628802,11860.483809,0.976000,-860.343994,-505.080017,-1820.000000,140.000000,2380.000000
-15061.343022,-1516.007068,-2851.121467,-19483.076868,-2514.683010,-7159.442563,-8301.303780,-5458.675976,4860.967977,15595.505011,13764.584215,15117.356493,20785.647128,17947.199100,8900.554049,11837.841491,-1.464000,-863.272034,-504.592010,-1680.000000,700.000000,2660.000000
-15066.349812,-1523.584309,-2850.763840,-19474.113819,-2515.778245,-7158.280272,-8304.634190,-5462.408717,4851.781410,15585.491429,13756.761105,15104.750109,20778.382811,17937.811367,8888.797031,11829.459587,-3.416000,-867.176025,-502.152008,-1680.000000,1120.000000,2800.000000
-15069.076725,-1529.261652,-2846.025270,-19497.225523,-2514.034809,-7152.245301,-8310.847975,-5466.275569,4857.235236,15606.569124,13778.330538,15118.004694,20804.020262,17964.767571,8903.795052,11840.300183,-5.856000,-865.223999,-503.615997,-1540.000000,1680.000000,2800.000000
-15067.065068,-1527.942899,-2838.023345,-19537.950401,-2510.257365,-7148.289043,-8315.094807,-5472.802278,4874.311969,15648.098665,13819.368341,15149.520653,20847.829681,18010.275723,8937.389724,11861.400230,-5.368000,-870.104004,-500.688019,-560.000000,1680.000000,2800.000000
-15066.953309,-1528.456989,-2835.251729,-19580.038736,-2508.335115,-7146.791476,-8318.849900,-5473.048147,4893.154489,15688.532971,13862.529559,15183.741174,20891.370880,18054.532177,8973.621902,11886.612998,-2.928000,-873.520020,-496.783997,0.000000,2100.000000,2660.000000
-15065.701612,-1525.931242,-2837.330441,-19597.808373,-2506.390513,-7146.836179,-8317.665257,-5466.834362,4903.145719,15707.040215,13881.617949,15201.868439,20908.358205,18072.011241,8992.084443,11899.733472,-2.440000,-871.080017,-494.343994,420.000000,1960.000000,2520.000000
-15065.992184,-1522.332611,-2842.828970,-19581.111620,-2508.826853,-7150.904197,-8313.820757,-5461.782868,4896.350789,15690.254055,13865.457638,15192.726575,20889.470981,18051.514691,8982.763765,11893.206762,-1.464000,-873.031982,-494.343994,1260.000000,1680.000000,2240.000000
-15063.712306,-1518.510463,-2847.299319,-19539.649134,-2511.352600,-7155.553359,-8309.238650,-5459.391231,4877.642379,15650.155026,13825.604478,15162.328203,20847.315591,18006.207705,8949.347907,11869.089230,0.488000,-873.520020,-490.440002,1960.000000,840.000000,1820.000000
-15059.532530,-1514.710667,-2848.081630,-19494.789183,-2511.754931,-7156.067450,-8304.477728,-5457.111354,4857.794029,15610.435976,13782.130335,15126.967743,20801.494515,17960.163112,8911.126424,11841.574233,6.344000,-872.056030,-491.416016,2940.000000,700.000000,1680.000000
-15054.928071,-1514.017762,-2843.141895,-19468.883511,-2505.921126,-7152.424115,-8298.263943,-5453.780944,4844.517093,15590.028833,13757.744581,15107.812298,20777.421686,17939.040713,8891.076909,11828.565517,6.344000,-874.496033,-490.928009,3500.000000,-280.000000,1120.000000
-15056.872673,-1518.510463,-2837.621014,-19478.003022,-2503.060103,-7147.506731,-8296.922838,-5453.199798,4842.304271,15599.081290,13763.623090,15110.695673,20787.681137,17953.859920,8897.760081,11834.868709,8.296000,-868.640015,-487.511993,3920.000000,-1120.000000,700.000000
-15065.366336,-1524.746600,-2835.184674,-19520.985427,-2505.205870,-7144.221025,-8304.008341,-5458.653624,4855.335338,15637.325124,13801.106966,15138.948278,20829.165975,17999.524534,8928.136102,11858.472152,8.784000,-867.176025,-487.511993,4200.000000,-2100.000000,280.000000
-15067.892083,-1522.243204,-2831.831912,-19566.962965,-2503.887117,-7142.611699,-8308.836318,-5461.492295,4875.496611,15681.000433,13845.542234,15175.582787,20877.579853,18047.759598,8965.374108,11884.936617,14.640000,-869.127991,-488.488007,4340.000000,-2800.000000,-280.000000
-15066.729792,-1517.996373,-2834.424714,-19593.293320,-2504.132987,-7144.489246,-8309.797443,-5458.161886,4889.444100,15705.319131,13870.151504,15199.029767,20903.597284,18071.519503,8989.066957,11901.476908,20.007999,-865.223999,-490.440002,4620.000000,-3220.000000,-420.000000
-15066.707440,-1518.532815,-2841.823142,-19594.679128,-2507.888080,-7147.774952,-8311.920859,-5452.909226,4894.562649,15705.185021,13872.163161,15202.293122,20902.099717,18067.764410,8988.843440,11904.941428,17.080000,-866.200012,-491.903992,4480.000000,-3780.000000,-840.000000
-15064.226397,-1516.476454,-2847.187560,-19563.006707,-2509.653867,-7150.770086,-8310.959734,-5448.505932,4885.599600,15675.904235,13841.720085,15181.349538,20867.834493,18031.241659,8960.389669,11885.785983,17.568001,-864.247986,-494.343994,4480.000000,-4060.000000,-1260.000000
-15063.019402,-1520.388010,-2851.188523,-19522.818270,-2515.264155,-7153.921682,-8311.540879,-5450.450534,4868.075832,15637.191014,13803.699768,15147.799569,20825.343826,17986.158191,8921.564689,11859.567387,21.472000,-866.200012,-490.440002,4480.000000,-4480.000000,-1400.000000
-15062.438257,-1524.076047,-2852.551979,-19491.816401,-2515.957059,-7154.994566,-8308.501042,-5455.189104,4852.898997,15605.607999,13771.490904,15118.272915,20793.380832,17954.172844,8896.061348,11840.478997,20.007999,-865.712036,-496.783997,4620.000000,-4480.000000,-1540.000000
-15055.933899,-1519.382181,-2845.354717,-19483.903883,-2508.737446,-7149.741906,-8303.226030,-5458.318348,4852.653128,15600.690615,13764.964195,15110.718025,20788.597559,17953.681106,8895.346093,11836.075704,23.424000,-863.760010,-495.808014,4060.000000,-4200.000000,-1680.000000
-15057.543225,-1522.064390,-2839.029174,-19514.682235,-2506.122292,-7145.025688,-8306.578792,-5462.676938,4863.426669,15630.798415,13795.742547,15132.823900,20820.448794,17988.505124,8919.642439,11851.207835,21.472000,-864.736023,-496.783997,4060.000000,-3780.000000,-1680.000000
-15067.892083,-1529.954556,-2838.336270,-19566.180654,-2510.123254,-7143.997508,-8315.407731,-5467.460211,4878.044710,15676.373622,13846.101027,15169.458409,20872.014269,18038.483624,8955.248768,11879.147515,21.960001,-864.736023,-498.248016,4060.000000,-3360.000000,-1680.000000
-15072.943577,-1534.044925,-2840.906720,-19606.525553,-2516.560556,-7146.120923,-8323.230842,-5471.349415,4893.668579,15709.923590,13886.669443,15201.041424,20910.816897,18075.341651,8983.322559,11901.231039,20.984001,-865.712036,-495.808014,3920.000000,-2520.000000,-1820.000000
-15066.394516,-1526.646498,-2843.343060,-19613.096966,-2517.231109,-7149.808961,-8322.426179,-5470.812973,4907.906641,15717.277314,13892.682063,15211.792613,20914.661397,18080.571959,8991.100966,11906.081367,19.032000,-863.760010,-498.248016,3920.000000,-2100.000000,-1400.000000
-15058.034963,-1518.175187,-2846.919340,-19583.302091,-2517.789902,-7153.631109,-8317.262926,-5467.057880,4904.017437,15691.684567,13864.854141,15194.805288,20883.681879,18050.799435,8972.236094,11892.111527,20.984001,-866.200012,-495.808014,3500.000000,-1400.000000,-1400.000000
-15048.513120,-1508.943916,-2850.383860,-19534.552936,-2517.789902,-7156.849761,-8307.852841,-5461.380537,4888.080643,15646.176415,13816.596725,15160.271843,20832.474033,18000.887990,8938.373201,11867.971643,15.128000,-867.664001,-492.880005,3360.000000,-980.000000,-1120.000000
-15045.607393,-1508.742751,-2850.160342,-19494.163334,-2518.035772,-7158.012051,-8302.823699,-5458.787734,4869.461640,15609.564258,13777.525875,15128.934697,20791.615044,17959.425504,8906.209040,11845.150512,16.104000,-865.712036,-496.296021,3360.000000,-420.000000,-980.000000
-15051.798827,-1514.934184,-2848.282796,-19483.836828,-2516.627612,-7154.882807,-8300.387359,-5459.011252,4857.324643,15597.293150,13767.668756,15118.719950,20782.607291,17952.094132,8899.771738,11841.171901,13.664001,-867.664001,-494.832001,3220.000000,420.000000,-700.000000
-15060.605414,-1522.354963,-2845.019441,-19504.914523,-2515.822949,-7149.585444,-8300.812042,-5459.994729,4854.530675,15612.358226,13785.863076,15130.253450,20804.199076,17977.463362,8915.485014,11854.314727,14.640000,-867.664001,-492.391998,3220.000000,700.000000,-280.000000
-15066.193350,-1527.495864,-2840.705555,-19544.298296,-2512.917222,-7146.277386,-8303.203679,-5462.878104,4863.963111,15647.539872,13823.950449,15158.416648,20844.722789,18021.049264,8947.358602,11877.046451,13.664001,-866.200012,-491.903992,2940.000000,980.000000,0.000000
-15067.310937,-1527.317050,-2837.241034,-19585.246692,-2510.927917,-7144.735115,-8305.818833,-5464.152153,4883.699701,15686.409555,13864.921196,15192.346596,20888.062821,18064.299889,8981.802640,11901.163983,8.296000,-865.712036,-490.928009,2520.000000,1260.000000,420.000000
-15060.650117,-1519.650402,-2837.598662,-19600.378823,-2511.486710,-7147.618490,-8307.472862,-5464.129801,4901.335228,15704.089785,13885.037766,15210.205640,20906.368900,18075.989851,8993.917286,11909.814109,11.224000,-868.152039,-487.024017,2520.000000,1540.000000,700.000000
-15055.106885,-1513.481321,-2840.549092,-19582.810352,-2511.017324,-7150.792438,-8305.774129,-5462.118144,4900.105882,15688.644730,13871.023222,15201.041424,20889.850961,18056.767351,8980.953274,11902.706254,9.760000,-868.152039,-491.903992,2380.000000,1820.000000,980.000000
-15050.122446,-1507.871033,-2844.348889,-19541.057294,-2510.212661,-7154.189903,-8300.789690,-5460.084136,4885.376082,15649.238604,13832.622925,15170.128962,20846.332114,18012.309732,8948.252672,11879.259274,8.784000,-869.127991,-495.808014,2520.000000,1960.000000,1400.000000
-15048.021382,-1505.747617,-2846.740526,-19495.929121,-2510.369123,-7157.296796,-8294.844126,-5460.978205,4866.935893,15606.256200,13788.321768,15132.555679,20797.806477,17964.901682,8911.774625,11851.721925,7.320000,-868.640015,-491.903992,2660.000000,1960.000000,1540.000000
-15047.708457,-1507.066370,-2843.723040,-19470.939871,-2507.508100,-7153.742868,-8291.379606,-5461.648758,4855.044765,15582.943330,13765.075954,15110.181583,20772.437247,17942.371123,8891.881572,11836.902718,6.344000,-866.687988,-490.928009,2520.000000,2100.000000,1820.000000
-15050.725943,-1510.240318,-2840.102057,-19480.349956,-2505.876423,-7149.183112,-8292.184268,-5465.873237,4854.687137,15592.576932,13774.418983,15114.048435,20783.456657,17955.066914,8897.648322,11842.535358,7.320000,-865.223999,-489.951996,2380.000000,1820.000000,1820.000000
-15058.303184,-1516.878786,-2837.799828,-19519.241991,-2506.032885,-7146.098572,-8297.436928,-5471.394118,4865.125402,15626.573935,13808.952428,15140.468197,20821.298161,17995.680034,8925.588003,11864.596530,3.416000,-868.152039,-491.416016,2380.000000,1540.000000,1960.000000
-15066.416868,-1522.556129,-2838.425677,-19567.879387,-2506.681085,-7146.210330,-8305.438853,-5473.875162,4884.102033,15669.913968,13854.013545,15175.918064,20869.108542,18044.764464,8962.580140,11894.234943,5.368000,-868.640015,-493.368011,2100.000000,1260.000000,2100.000000
-15067.869731,-1520.253899,-2838.850360,-19594.969701,-2506.144644,-7148.423153,-8307.830490,-5471.684691,4899.323571,15696.825468,13879.561589,15199.141526,20895.729470,18071.743020,8985.088347,11910.886992,7.320000,-866.687988,-494.343994,2240.000000,1260.000000,2100.000000
-15064.181693,-1512.542547,-2839.744430,-19585.313748,-2504.825891,-7150.077182,-8304.254211,-5467.482563,4899.368274,15691.796326,13871.202036,15196.302855,20885.134743,18061.975308,8980.193315,11907.444824,4.392000,-867.176025,-494.832001,2100.000000,840.000000,1960.000000
-15062.326498,-1508.228661,-2845.287662,-19546.801692,-2506.569327,-7154.346365,-8300.566173,-5461.022909,4882.157431,15657.017011,13833.516995,15167.089125,20844.566327,18019.797566,8949.727887,11886.054204,4.880000,-868.152039,-491.416016,1960.000000,560.000000,1820.000000
-15058.057315,-1503.937126,-2846.204084,-19496.398508,-2505.250574,-7154.659290,-8293.637132,-5456.463153,4861.727936,15612.760557,13787.338291,15129.314676,20795.414841,17969.886121,8910.210003,11856.907529,4.392000,-865.223999,-495.320007,1820.000000,420.000000,1540.000000
-15058.727867,-1506.507576,-2844.997090,-19464.323755,-2505.205870,-7153.385240,-8290.954923,-5459.882970,4844.181817,15583.479772,13757.342250,15099.720967,20764.614137,17938.079588,8881.219790,11836.478035,4.392000,-864.736023,-492.880005,1820.000000,0.000000,1400.000000
-15063.935824,-1515.425922,-2842.493694,-19462.960298,-2503.976524,-7150.680679,-8292.608952,-5461.894627,4834.302346,15580.395231,13755.732924,15092.881333,20764.927061,17937.744312,8878.649340,11833.862881,2.440000,-867.176025,-498.248016,1960.000000,140.000000,980.000000
-15063.041754,-1520.633879,-2836.503427,-19495.079755,-2500.556707,-7146.567958,-8295.827603,-5465.247389,4846.260529,15607.843173,13784.566675,15115.881278,20798.722899,17973.685917,8903.303314,11852.973622,2.440000,-866.200012,-496.296021,2100.000000,0.000000,700.000000
-15058.236129,-1516.789379,-2829.976717,-19538.889174,-2497.606277,-7141.695278,-8301.147318,-5468.555447,4871.763870,15650.043267,13827.325562,15153.387505,20845.393341,18022.591534,8936.897986,11877.202913,2.928000,-864.247986,-495.808014,1960.000000,0.000000,420.000000
-15053.564614,-1512.587251,-2829.753200,-19573.847303,-2496.309876,-7140.622394,-8303.918934,-5469.918903,4893.087434,15685.582541,13860.987289,15185.730479,20882.608996,18058.354325,8967.452820,11897.386539,1.952000,-866.200012,-494.832001,1820.000000,-280.000000,0.000000
-15052.178806,-1508.094550,-2832.234243,-19582.564483,-2495.818138,-7143.036383,-8303.404844,-5467.437859,4899.860013,15696.199619,13870.129153,15196.928703,20890.633272,18063.182302,8978.248713,11904.047359,2.440000,-861.807983,-495.320007,1820.000000,0.000000,-280.000000
-15049.563652,-1502.707780,-2837.330441,-19556.949384,-2495.147585,-7148.043173,-8299.247420,-5464.196857,4891.232239,15672.551474,13846.726876,15181.215427,20862.224205,18032.716874,8961.462553,11890.032815,3.904000,-865.223999,-494.832001,2100.000000,140.000000,-700.000000
-15043.707495,-1496.806919,-2839.520912,-19509.317816,-2494.231164,-7152.312357,-8291.759585,-5461.358185,4873.999044,15631.737188,13802.626884,15147.576052,20813.251533,17983.900664,8926.035038,11863.434239,2.928000,-864.247986,-497.272003,1820.000000,280.000000,-1120.000000
-15040.690010,-1494.705855,-2839.587967,-19467.274185,-2495.326399,-7153.228778,-8286.730443,-5460.240598,4856.497628,15594.946217,13764.383050,15113.444938,20773.130151,17941.231184,8892.015683,11838.579099,6.832000,-863.760010,-496.783997,2100.000000,280.000000,-1120.000000
-15043.126350,-1499.578536,-2837.486903,-19454.421932,-2497.293353,-7151.418287,-8287.915085,-5460.709984,4847.914558,15581.669281,13752.849549,15096.994054,20762.803645,17928.960076,8879.655168,11830.554823,3.904000,-864.736023,-492.391998,2100.000000,0.000000,-1540.000000
-15046.054428,-1503.735960,-2832.122485,-19473.912653,-2494.700550,-7147.685545,-8290.641998,-5462.475772,4851.803762,15597.896647,13770.261558,15108.236981,20785.088335,17952.049428,8896.530735,11840.568404,7.320000,-864.736023,-492.391998,1960.000000,140.000000,-1820.000000
-15051.374144,-1509.547414,-2828.881482,-19519.264343,-2494.141757,-7145.316260,-8296.833431,-5468.667205,4866.287692,15635.984020,13810.047663,15142.099874,20831.177632,18000.150383,8931.041829,11865.267082,4.880000,-865.712036,-498.248016,1680.000000,0.000000,-1960.000000
-15053.989298,-1511.514367,-2827.540377,-19564.459570,-2494.767606,-7144.399839,-8301.572001,-5469.561275,4885.890172,15676.708898,13851.152522,15180.075488,20875.814065,18046.172624,8964.927073,11892.759728,3.416000,-866.200012,-493.856018,1400.000000,140.000000,-2100.000000
-15048.535472,-1500.249088,-2826.400438,-19576.328346,-2490.297257,-7145.338612,-8296.006417,-5465.694423,4897.088396,15690.924608,13863.267167,15197.062814,20888.398098,18061.416514,8981.310902,11903.175640,7.808000,-863.272034,-493.856018,1400.000000,0.000000,-2240.000000
-15045.205062,-1493.297695,-2829.462627,-19557.821102,-2488.844393,-7148.244339,-8289.837335,-5458.832438,4892.506289,15674.317261,13845.721048,15188.502096,20869.689687,18043.021028,8972.705480,11897.006559,9.272000,-866.687988,-494.343994,1400.000000,-140.000000,-2100.000000
-15042.969888,-1492.358922,-2834.961156,-19516.783299,-2493.247687,-7152.915854,-8287.445699,-5455.054993,4874.647245,15635.447578,13807.119585,15156.695563,20827.489594,17997.579932,8939.155512,11872.196123,7.320000,-866.200012,-496.783997,1260.000000,-140.000000,-2380.000000
-15042.947536,-1494.996428,-2839.029174,-19476.997194,-2500.847280,-7155.441601,-8288.160954,-5457.468981,4857.212884,15596.354377,13765.947672,15120.865717,20786.094163,17951.870615,8900.777567,11846.648079,10.248000,-867.176025,-496.783997,1400.000000,-280.000000,-2240.000000
-15041.919356,-1495.778739,-2837.084572,-19455.427761,-2500.288487,-7153.787572,-8286.909257,-5461.447592,4850.060326,15576.662490,13744.042962,15100.033891,20764.591785,17930.256478,8879.968092,11833.304087,7.320000,-863.760010,-492.880005,1260.000000,-420.000000,-1960.000000
-15044.646268,-1499.243259,-2831.697802,-19464.659031,-2495.549917,-7147.797304,-8286.730443,-5464.934464,4853.524846,15586.854885,13754.660041,15103.945446,20774.359497,17943.511062,8887.657093,11838.176768,12.200000,-867.664001,-497.272003,980.000000,-280.000000,-1820.000000
-15048.379010,-1501.411379,-2826.243976,-19501.204133,-2491.861879,-7143.394010,-8291.424309,-5469.427165,4867.718204,15622.729435,13790.311073,15133.025066,20814.279713,17984.548865,8917.764892,11857.667489,11.712000,-868.152039,-494.343994,980.000000,-420.000000,-1540.000000
-15049.742466,-1500.159681,-2822.175958,-19547.606355,-2490.409015,-7140.421228,-8297.638094,-5472.668168,4889.131175,15666.851779,13834.701638,15172.453543,20863.073571,18034.035627,8955.315823,11883.617864,12.200000,-866.687988,-498.735992,1120.000000,-700.000000,-1400.000000
-15050.368315,-1499.444425,-2826.534549,-19580.709288,-2493.292391,-7143.773990,-8304.656542,-5474.411604,4908.018399,15696.199619,13867.111667,15200.147355,20892.689632,18064.389296,8981.109736,11902.885068,11.712000,-868.152039,-495.320007,1120.000000,-420.000000,-1120.000000
-15050.122446,-1496.628105,-2832.256595,-19579.614053,-2496.399283,-7148.624319,-8307.539917,-5472.981092,4910.879423,15694.344425,13864.988251,15200.482631,20889.582740,18059.315450,8978.427527,11902.147460,12.200000,-867.176025,-493.856018,1120.000000,-560.000000,-980.000000
-15050.636536,-1495.577573,-2837.196331,-19546.846395,-2498.410940,-7152.669984,-8307.159937,-5470.097717,4898.630667,15662.537892,13832.801739,15176.141581,20856.591565,18022.077444,8949.571425,11883.371995,11.712000,-866.200012,-497.272003,1120.000000,-560.000000,-980.000000
-15046.657925,-1493.208288,-2839.297395,-19500.980616,-2497.516870,-7153.273482,-8302.197850,-5467.281397,4883.252666,15621.053054,13790.154611,15139.730589,20809.787012,17974.602339,8912.825157,11858.740373,11.712000,-865.223999,-495.320007,1400.000000,-560.000000,-560.000000
-15043.528681,-1493.543565,-2838.939767,-19467.631813,-2496.376931,-7153.608758,-8297.235763,-5469.158944,4871.875628,15591.325234,13758.549244,15110.807432,20774.448904,17941.544109,8886.986540,11839.629631,11.712000,-866.200012,-495.808014,1540.000000,-560.000000,-560.000000
-15050.591832,-1500.539661,-2836.391668,-19465.329583,-2494.320571,-7150.323051,-8294.777071,-5472.288188,4862.286730,15588.263045,13756.336422,15102.537287,20773.264262,17941.409998,8886.897133,11837.461512,12.200000,-866.687988,-493.856018,1400.000000,-280.000000,-280.000000
-15052.424676,-1504.115940,-2827.741543,-19492.531656,-2488.799690,-7144.757467,-8295.715844,-5472.846982,4870.847448,15614.347531,13788.098250,15123.614982,20805.182553,17975.272891,8911.282886,11852.034849,11.712000,-862.783997,-497.760010,1680.000000,-140.000000,0.000000
-15051.687068,-1502.976001,-2821.170130,-19535.894041,-2484.217582,-7140.354173,-8298.867440,-5473.808107,4891.969847,15654.871244,13830.097178,15160.025973,20850.869519,18023.932639,8944.341116,11877.873466,10.248000,-866.687988,-492.391998,1260.000000,-140.000000,-140.000000
-15054.391629,-1503.624201,-2822.935918,-19576.529512,-2485.938667,-7140.912967,-8302.354312,-5474.903342,4912.801673,15693.606817,13866.821094,15193.844163,20890.588569,18064.009316,8976.929960,11903.689731,9.760000,-867.176025,-495.320007,1540.000000,-140.000000,0.000000
-15055.777437,-1506.015838,-2828.479150,-19588.755916,-2489.000856,-7144.377487,-8304.097748,-5472.958740,4920.513024,15704.961503,13875.426516,15205.869401,20900.579798,18072.637090,8988.955198,11913.323332,9.272000,-866.200012,-493.856018,1680.000000,-140.000000,280.000000
-15053.117580,-1506.060541,-2833.977679,-19565.443047,-2491.683065,-7148.221987,-8302.935458,-5468.488391,4913.136949,15683.995567,13854.304117,15188.993834,20874.987051,18045.502072,8970.179733,11902.102757,7.320000,-869.616028,-495.320007,1680.000000,-140.000000,280.000000
-15048.222548,-1502.283097,-2836.346964,-19521.276000,-2492.644190,-7150.971252,-8297.503984,-5463.302787,4897.893059,15644.388276,13814.719178,15155.555624,20830.797652,17998.563409,8936.719172,11876.845286,6.344000,-864.247986,-497.272003,2100.000000,-140.000000,420.000000
-15041.964059,-1497.857451,-2835.631709,-19477.846560,-2489.805518,-7150.367755,-8289.926742,-5459.726508,4883.990274,15605.384482,13774.396631,15123.547926,20787.815248,17955.111617,8905.337322,11849.173826,10.248000,-866.200012,-499.223999,2380.000000,-140.000000,420.000000
-15039.930050,-1496.762216,-2830.826084,-19461.485083,-2487.235068,-7147.104400,-8287.870382,-5460.240598,4881.375120,15592.576932,13759.175093,15109.131051,20773.398372,17941.588812,8892.328607,11836.455683,7.808000,-868.640015,-491.903992,2240.000000,0.000000,420.000000
-15044.400399,-1503.020704,-2826.467493,-19482.585130,-2488.039731,-7144.757467,-8293.860649,-5465.560313,4888.080643,15610.860659,13777.212951,15121.469214,20794.654881,17964.722868,8904.577363,11842.267137,7.808000,-866.200012,-498.248016,2660.000000,140.000000,560.000000
-15052.491731,-1512.162568,-2826.087514,-19530.440215,-2492.823004,-7144.489246,-8305.260039,-5474.053976,4903.436292,15650.780875,13820.620039,15152.761656,20841.750007,18011.058034,8936.160378,11864.820047,9.760000,-865.712036,-492.880005,2660.000000,0.000000,420.000000
-15058.884330,-1519.002201,-2826.914528,-19577.155361,-2493.806481,-7144.332784,-8311.809100,-5475.864467,4919.015458,15691.617512,13865.703507,15188.010357,20888.219284,18056.499130,8972.303149,11892.446803,6.832000,-869.616028,-495.808014,2660.000000,-140.000000,280.000000
-15060.739524,-1521.572652,-2831.809560,-19599.596512,-2496.823966,-7148.445505,-8316.458263,-5475.216267,4929.207853,15711.130585,13888.524638,15205.556477,20908.067633,18074.559340,8989.156364,11907.534231,6.344000,-865.223999,-493.856018,2800.000000,-280.000000,140.000000
-15058.347888,-1516.364696,-2837.576310,-19584.397326,-2497.829795,-7152.379412,-8312.703170,-5470.500048,4926.704458,15696.199619,13874.599501,15196.056985,20890.365051,18056.096799,8980.372129,11902.728606,7.320000,-867.176025,-493.856018,3080.000000,-420.000000,0.000000
-15055.889196,-1511.737884,-2841.376107,-19540.900831,-2497.829795,-7155.106325,-8303.471899,-5462.900455,4911.527623,15655.295927,13831.482986,15163.937529,20846.600335,18010.231019,8948.431486,11883.103774,9.760000,-864.247986,-494.832001,3080.000000,-700.000000,0.000000
-15052.268213,-1510.776759,-2843.678337,-19494.878589,-2496.980428,-7156.447429,-8293.972408,-5459.413583,4889.734672,15610.704197,13783.627902,15125.693694,20798.231160,17962.867673,8912.668695,11859.813256,10.248000,-863.272034,-493.856018,3080.000000,-980.000000,-280.000000
-15052.715248,-1516.409399,-2843.678337,-19471.833941,-2497.069835,-7154.838104,-8293.748891,-5461.894627,4872.724995,15586.899589,13758.012802,15102.202010,20774.024221,17940.672391,8889.601694,11844.055276,11.224000,-864.247986,-496.783997,3360.000000,-1120.000000,-420.000000
-15052.357620,-1517.817559,-2838.202159,-19476.952490,-2491.303085,-7150.121886,-8293.368911,-5464.979168,4870.981559,15593.001615,13763.824256,15106.717063,20782.115553,17950.976545,8892.619180,11843.384724,7.808000,-867.176025,-495.808014,3500.000000,-1260.000000,-560.000000
-15056.224472,-1521.751466,-2832.703630,-19517.029168,-2490.118443,-7145.629185,-8298.375702,-5468.376633,4884.526716,15629.054979,13800.838745,15137.562470,20824.159184,17994.249522,8923.039904,11865.043564,9.272000,-866.687988,-494.343994,3500.000000,-1680.000000,-840.000000
-15057.520873,-1520.388010,-2828.345040,-19561.732657,-2487.793861,-7141.181188,-8302.175498,-5468.846019,4903.592754,15672.663232,13844.983440,15175.471029,20870.516702,18041.679924,8959.361489,11890.770422,7.808000,-867.664001,-492.880005,3360.000000,-1820.000000,-980.000000
-15060.672469,-1521.550300,-2829.730848,-19591.505181,-2490.140795,-7141.739981,-8306.399978,-5465.761479,4917.137911,15700.222933,13873.392507,15200.303817,20898.836362,18070.468971,8982.942579,11907.176603,12.688000,-867.176025,-495.320007,3920.000000,-1540.000000,-1120.000000
-15059.957213,-1522.198501,-2836.168150,-19591.683995,-2493.448853,-7147.909063,-8307.070530,-5461.402888,4920.445969,15699.686491,13873.593673,15201.354349,20898.255217,18067.227968,8985.647140,11909.769405,7.808000,-867.176025,-492.880005,3780.000000,-1540.000000,-1120.000000
-15051.910585,-1516.945841,-2840.616148,-19557.597584,-2495.952248,-7152.737040,-8302.846051,-5458.497162,4914.545109,15671.210369,13843.463521,15177.929721,20864.705248,18029.945258,8960.054393,11891.932713,11.224000,-869.616028,-494.832001,4060.000000,-1680.000000,-980.000000
-15042.634611,-1509.592117,-2842.046659,-19508.490802,-2496.287524,-7154.927511,-8296.676969,-5457.983072,4902.229297,15627.870337,13797.776556,15141.585784,20815.799632,17978.826818,8921.564689,11861.534341,10.248000,-867.664001,-493.368011,3920.000000,-1260.000000,-1260.000000
-15040.555899,-1507.647515,-2841.756087,-19472.303328,-2496.466338,-7155.955691,-8293.078338,-5460.777040,4888.013588,15593.515705,13762.125523,15109.354569,20779.433343,17942.393475,8889.847563,11836.835663,9.272000,-868.152039,-490.928009,4200.000000,-1400.000000,-1260.000000
-15043.774550,-1511.804940,-2837.822180,-19466.268357,-2493.538260,-7152.312357,-8291.848992,-5463.079269,4880.972788,15586.117278,13754.928262,15100.793851,20775.052401,17940.046542,8884.661959,11833.080570,9.760000,-869.616028,-493.368011,4060.000000,-1260.000000,-1260.000000
-15057.230301,-1525.551263,-2837.129275,-19498.030185,-2495.706379,-7147.417324,-8296.945190,-5463.638063,4880.235181,15607.530249,13780.833933,15115.613057,20805.428422,17973.887083,8907.751311,11852.973622,8.784000,-868.152039,-492.880005,4200.000000,-980.000000,-1400.000000
-15068.339118,-1534.916643,-2835.944633,-19547.002858,-2497.494518,-7144.913929,-8304.276562,-5464.465077,4890.092300,15649.216252,13829.203108,15147.397238,20853.819949,18021.965685,8942.508273,11882.142649,9.272000,-869.616028,-490.928009,4060.000000,-980.000000,-1260.000000
-15066.014536,-1532.077972,-2836.816351,-19584.017346,-2498.545050,-7145.495074,-8310.535051,-5465.359147,4910.454739,15684.487305,13864.317699,15178.957901,20889.001595,18056.923813,8972.258445,11905.410815,9.272000,-868.152039,-495.320007,3920.000000,-560.000000,-1120.000000
-15064.226397,-1526.177111,-2840.951424,-19591.773402,-2499.640286,-7148.400801,-8311.138548,-5462.587531,4919.194271,15692.176305,13867.536350,15187.786840,20894.187199,18062.265880,8982.070861,11913.278629,9.272000,-869.616028,-494.343994,3920.000000,-560.000000,-980.000000
-15057.833798,-1523.338440,-2846.628767,-19566.672393,-2502.478957,-7153.206426,-8309.730388,-5460.441763,4911.840548,15672.283253,13843.463521,15171.447715,20867.901548,18033.275668,8962.133105,11900.471079,9.760000,-869.127991,-491.903992,4060.000000,-140.000000,-840.000000
-15049.049562,-1517.884614,-2848.260444,-19518.549087,-2499.595582,-7155.061621,-8300.700283,-5456.664319,4893.825042,15633.592383,13800.212896,15139.685886,20820.381739,17985.912321,8928.203157,11876.554713,7.808000,-866.687988,-492.391998,3640.000000,0.000000,-700.000000
-15042.925184,-1511.447312,-2845.466476,-19475.499627,-2494.320571,-7154.391069,-8292.340731,-5455.636138,4876.122460,15596.734356,13761.142047,15108.505202,20778.673384,17944.785112,8896.061348,11852.817160,7.808000,-864.247986,-492.391998,3640.000000,140.000000,-560.000000
-15044.780379,-1514.263632,-2843.164246,-19463.161464,-2493.046521,-7150.077182,-8292.072510,-5458.452458,4869.193419,15583.032737,13748.870939,15094.669473,20768.257471,17933.631591,8883.119688,11845.396381,9.760000,-867.664001,-493.856018,3360.000000,280.000000,-420.000000
-15050.815350,-1520.008030,-2840.191464,-19483.389793,-2492.532431,-7145.405667,-8295.201754,-5461.469944,4873.909637,15598.924827,13767.065259,15105.711234,20791.123306,17955.938632,8898.028302,11857.153399,8.296000,-866.687988,-494.343994,3220.000000,280.000000,-280.000000
-15057.744391,-1526.221815,-2836.414020,-19527.020398,-2492.823004,-7141.717630,-8299.806213,-5460.911150,4887.678312,15636.274592,13807.387806,15136.802511,20835.938553,18000.999749,8931.287698,11881.606207,9.272000,-866.200012,-498.248016,2940.000000,840.000000,-140.000000
-15063.779362,-1530.580405,-2835.072915,-19573.623785,-2493.962943,-7142.030554,-8305.975295,-5461.358185,4908.957173,15675.747773,13851.621908,15173.995814,20882.586644,18046.642011,8966.134067,11908.964742,10.248000,-865.223999,-498.248016,2940.000000,980.000000,0.000000
-15061.767705,-1527.384106,-2838.716249,-19596.757841,-2496.175766,-7145.249205,-8311.518527,-5462.453420,4925.341001,15697.764241,13874.130115,15196.146392,20904.603112,18065.640994,8983.322559,11924.789777,8.784000,-867.176025,-495.320007,2940.000000,840.000000,280.000000
-15057.386763,-1521.438542,-2843.074839,-19582.720945,-2495.974600,-7149.116057,-8309.216298,-5458.832438,4924.379876,15686.186038,13860.629661,15191.608988,20888.465153,18048.340744,8975.030062,11919.358303,9.272000,-864.247986,-496.296021,2520.000000,1120.000000,280.000000
-15054.838664,-1518.599870,-2848.126334,-19539.425616,-2495.393454,-7153.429944,-8300.700283,-5454.205627,4903.928030,15647.271651,13817.021408,15159.981270,20841.124158,18002.698481,8944.184654,11895.643103,7.320000,-863.272034,-495.808014,2520.000000,1120.000000,140.000000
-15048.736638,-1512.095512,-2848.662776,-19487.480162,-2492.107748,-7154.659290,-8291.245495,-5451.277548,4883.856163,15601.919961,13767.400535,15120.910421,20790.385698,17952.183539,8906.969000,11866.027041,9.272000,-863.272034,-495.808014,2660.000000,980.000000,140.000000
-15046.993202,-1510.843815,-2844.058316,-19460.456903,-2489.559649,-7150.971252,-8285.881077,-5450.629348,4870.422765,15576.818952,13742.187767,15096.770537,20765.374096,17927.574268,8886.695968,11850.313765,9.760000,-864.736023,-498.735992,2380.000000,1120.000000,420.000000
-15050.591832,-1516.990544,-2839.185636,-19472.817418,-2492.040693,-7147.596138,-8290.820812,-5452.350432,4872.434422,15588.173638,13755.397648,15102.090252,20780.439172,17943.153434,8891.054558,11856.684012,7.808000,-865.223999,-498.735992,2380.000000,980.000000,280.000000
-15060.739524,-1528.725210,-2838.448028,-19518.169107,-2498.388588,-7146.970290,-8302.600181,-5459.570045,4885.778414,15627.691523,13797.217762,15129.985229,20825.544992,17987.834571,8919.150700,11879.348681,11.224000,-865.712036,-498.248016,2380.000000,1120.000000,140.000000
-15068.942615,-1534.491960,-2837.285738,-19566.091247,-2499.550879,-7145.249205,-8307.182289,-5462.676938,4900.374103,15667.701145,13840.401332,15164.272805,20872.707173,18036.293153,8958.489771,11906.081367,7.320000,-864.247986,-498.248016,2240.000000,1120.000000,140.000000
-15071.893045,-1532.972042,-2838.559787,-19593.293320,-2498.053312,-7145.696240,-8307.003475,-5458.363051,4912.220527,15689.739965,13864.697679,15188.703261,20899.439859,18063.875206,8985.088347,11923.158100,10.248000,-863.760010,-497.272003,2240.000000,980.000000,0.000000
-15070.462533,-1528.546396,-2843.633633,-19589.672338,-2498.880327,-7150.434810,-8307.003475,-5455.971415,4917.182614,15685.962520,13862.641318,15192.726575,20893.516647,18058.063752,8984.104870,11923.895708,10.248000,-864.247986,-501.664001,2380.000000,980.000000,-280.000000
-15063.712306,-1519.672754,-2846.517008,-19551.674372,-2497.941553,-7154.748697,-8302.466071,-5455.300862,4907.906641,15654.021878,13827.638486,15168.765505,20854.825777,18019.194069,8955.449933,11904.047359,9.272000,-865.712036,-498.248016,2240.000000,980.000000,-280.000000
-15057.833798,-1512.967230,-2846.785229,-19501.718223,-2493.918239,-7153.318185,-8294.039463,-5453.512723,4889.667617,15610.950066,13782.264445,15131.303982,20805.629588,17969.752010,8917.809596,11876.331195,9.760000,-862.783997,-502.152008,2100.000000,1120.000000,-420.000000
-15055.598623,-1514.196576,-2845.377069,-19468.302365,-2492.264210,-7152.290005,-8292.765414,-5454.697365,4874.803707,15582.205723,13752.223701,15103.610170,20773.264262,17936.939649,8886.874781,11855.588777,12.200000,-864.247986,-499.712006,2240.000000,980.000000,-560.000000
-15056.068010,-1518.778684,-2841.130238,-19465.843673,-2489.179670,-7149.272519,-8295.738196,-5454.630310,4869.305178,15580.149362,13751.039058,15098.178696,20773.711297,17936.403207,8880.839810,11851.856035,11.712000,-867.176025,-498.735992,2380.000000,980.000000,-840.000000
-15063.958176,-1528.971079,-2838.716249,-19499.326587,-2491.191327,-7145.986813,-8304.544783,-5459.950025,4875.898942,15606.949104,13778.531704,15117.915287,20807.440079,17970.199045,8901.448119,11866.384669,9.272000,-865.223999,-495.808014,2380.000000,980.000000,-980.000000
-15072.273025,-1534.089629,-2836.123447,-19548.813349,-2492.711245,-7142.075258,-8312.032618,-5463.369842,4896.753120,15651.853758,13825.626829,15154.683906,20857.999725,18021.071615,8941.167169,11893.922018,9.272000,-868.640015,-492.880005,2380.000000,1120.000000,-1120.000000
-15075.759897,-1535.766010,-2835.117618,-19588.487695,-2491.548954,-7142.544644,-8316.950001,-5463.682766,4915.327420,15691.729270,13866.642280,15188.390337,20898.009348,18060.835369,8975.253579,11918.106606,6.832000,-870.104004,-495.320007,2380.000000,1120.000000,-1400.000000
-15070.529589,-1531.295661,-2838.269214,-19598.836553,-2492.040693,-7145.897406,-8317.844071,-5460.486467,4927.397362,15702.458108,13874.308929,15202.002549,20905.385423,18068.904348,8985.803602,11926.488510,6.832000,-871.080017,-494.343994,2380.000000,1260.000000,-1540.000000
-15068.182655,-1526.937071,-2846.919340,-19576.954195,-2496.064007,-7152.245301,-8317.687609,-5459.435935,4922.211757,15676.798305,13848.492664,15186.512791,20878.071592,18042.283421,8967.072841,11913.882126,8.296000,-872.056030,-493.368011,2940.000000,840.000000,-1540.000000
-15062.415905,-1520.455065,-2851.434392,-19529.389683,-2495.594620,-7155.709822,-8308.769263,-5455.211455,4904.866803,15629.524366,13801.486945,15150.437075,20828.651885,17993.735432,8934.483997,11886.858867,7.808000,-869.127991,-491.416016,3080.000000,560.000000,-1540.000000
-15058.951385,-1521.282079,-2852.619034,-19487.167238,-2496.175766,-7156.894464,-8302.711940,-5450.942272,4887.790071,15592.420470,13762.170227,15114.249601,20786.094163,17951.445931,8903.012741,11863.210721,12.200000,-869.127991,-493.368011,3360.000000,420.000000,-1680.000000
-15060.113676,-1528.099361,-2851.635558,-19475.879607,-2499.729693,-7156.223912,-8304.924763,-5454.317385,4881.352768,15580.395231,13751.866073,15099.497449,20776.192340,17939.644210,8888.305293,11853.890044,8.296000,-870.591980,-492.880005,3780.000000,-140.000000,-1680.000000
-15064.226397,-1533.821408,-2847.746354,-19495.057403,-2499.193251,-7152.692336,-8310.467995,-5462.922807,4888.527678,15596.130859,13770.485076,15111.321522,20795.995986,17960.297222,8900.732863,11860.260291,10.248000,-869.616028,-491.903992,3920.000000,-140.000000,-1820.000000
-15069.009670,-1537.777667,-2844.058316,-19538.620953,-2497.606277,-7148.758429,-8317.106464,-5467.482563,4907.459606,15635.738151,13811.791100,15143.709200,20839.380722,18005.917133,8934.573404,11883.148477,10.736000,-869.127991,-492.391998,4620.000000,-560.000000,-1540.000000
-15069.076725,-1538.179998,-2842.180770,-19583.056221,-2496.086359,-7147.439676,-8322.046199,-5468.600150,4929.185501,15679.078183,13855.242891,15181.103668,20883.771286,18052.587575,8970.336195,11909.948219,12.688000,-871.567993,-499.223999,4760.000000,-420.000000,-1400.000000
-15069.769629,-1537.263577,-2844.617110,-19604.625655,-2497.338056,-7150.099534,-8325.510719,-5466.923769,4938.506179,15699.440622,13876.767621,15201.756680,20903.150249,18071.474799,8987.435280,11924.208632,15.128000,-865.712036,-496.783997,4900.000000,-1120.000000,-1400.000000
-15069.255539,-1535.207216,-2848.930997,-19592.198085,-2499.170899,-7152.848798,-8323.186138,-5462.118144,4932.538263,15687.795363,13865.502341,15196.258151,20889.918016,18055.381543,8982.249675,11917.816033,15.616000,-867.664001,-495.320007,5180.000000,-1400.000000,-1260.000000
-15065.254577,-1531.429771,-2854.027194,-19552.143759,-2500.959039,-7155.732173,-8318.760493,-5456.194932,4919.820120,15651.652593,13828.331390,15167.983194,20848.477882,18012.689711,8953.527683,11896.246600,18.544001,-868.152039,-494.832001,5040.000000,-1260.000000,-1400.000000
-15061.208911,-1523.763123,-2854.317767,-19504.266322,-2497.494518,-7155.598063,-8310.624458,-5450.629348,4903.302181,15608.737243,13781.839762,15133.717970,20799.214637,17965.996917,8918.435445,11869.580969,20.007999,-865.712036,-497.272003,4620.000000,-1540.000000,-1540.000000
-15057.654984,-1519.672754,-2849.556845,-19475.790200,-2491.616010,-7152.804095,-8305.438853,-5448.818856,4891.165184,15584.507952,13754.168302,15113.377883,20771.319660,17942.214661,8896.307218,11851.990146,20.007999,-868.640015,-493.856018,4060.000000,-1540.000000,-1820.000000
-15056.582100,-1524.008992,-2844.572406,-19484.060345,-2491.817175,-7149.808961,-8310.177423,-5451.635176,4893.534469,15591.459345,13762.818427,15119.032874,20782.383774,17953.032905,8897.737729,11854.158265,17.568001,-873.031982,-493.368011,3920.000000,-1400.000000,-2100.000000
-15062.326498,-1530.066315,-2840.169113,-19523.712340,-2492.197155,-7147.171455,-8317.464091,-5458.050127,4904.308010,15625.858680,13800.212896,15148.470121,20823.421576,17993.578970,8927.286735,11874.788925,19.032000,-872.544006,-493.856018,4200.000000,-700.000000,-2240.000000
-15069.456705,-1534.983699,-2838.291566,-19572.059163,-2493.381797,-7144.846874,-8322.582641,-5462.252255,4920.602431,15671.098610,13847.911519,15185.551665,20873.690650,18042.573994,8966.961082,11902.907420,18.544001,-875.960022,-490.928009,4480.000000,-420.000000,-2240.000000
-15081.616054,-1544.304376,-2844.728869,-19607.889009,-2500.199080,-7148.177284,-8327.991763,-5464.129801,4925.944498,15701.608741,13882.444964,15207.679893,20908.537019,18073.709974,8993.380844,11925.482681,18.056000,-873.520020,-489.464020,4620.000000,-280.000000,-2380.000000
-15081.191371,-1543.455010,-2851.412040,-19607.553733,-2503.551841,-7154.234607,-8326.941231,-5464.152153,4928.313783,15699.082994,13877.840504,15207.411672,20903.597284,18068.502017,8991.726815,11927.337876,16.104000,-872.056030,-491.416016,4900.000000,0.000000,-2240.000000
-15073.614129,-1534.290795,-2854.317767,-19571.366259,-2502.702475,-7156.983871,-8318.358161,-5459.368880,4920.267155,15667.254110,13841.518920,15182.757697,20866.091057,18030.347589,8966.245826,11907.645989,18.544001,-869.127991,-489.464020,5600.000000,-700.000000,-1960.000000
-15065.232225,-1525.998297,-2855.368299,-19522.460642,-2500.623763,-7159.755487,-8308.411635,-5455.323214,4905.716170,15623.109415,13794.490849,15145.385581,20816.760757,17981.732545,8929.030172,11878.141687,15.616000,-867.176025,-488.488007,5600.000000,-1400.000000,-1540.000000
