9251.632899,11145.831483,1384.623514,-804.841614,7381.082461,10070.198485,8501.508355,-19150.348800,13867.156371,10563.970871,8140.706496,-4936.807446,34027.021709,2994.150280,27862.768216,7874.161944,-256.687988,-768.112000,-577.791992,-700.000000,-1540.000000,-700.000000
9248.883635,11204.415405,1399.308610,-765.234323,7405.155290,10080.279121,8537.852292,-19120.822146,13881.506190,10559.209950,8149.714249,-4905.000914,34037.035291,2987.712978,27899.022746,7915.959706,-255.712006,-767.624023,-578.768005,-420.000000,-1540.000000,-700.000000
7833.302955,11381.351814,977.151212,-1315.847196,7253.051669,10186.114631,8073.740670,-20014.579000,13744.512349,9688.609503,7918.083122,-5015.262069,32916.922321,2754.405469,27412.559380,7663.921435,-219.112000,-783.728027,-578.280029,-1680.000000,980.000000,1960.000000
7792.376911,11276.343319,898.495424,-1387.462185,7140.711801,10165.103992,8017.458977,-20086.439858,13698.668921,9627.879814,7906.460214,-5080.640922,32886.680411,2734.244196,27357.909364,7585.645626,-219.112000,-780.799988,-579.255981,-1540.000000,1120.000000,2100.000000
7780.239913,11212.752606,861.078603,-1430.735163,7083.066652,10153.257567,7979.684529,-20128.572897,13675.892493,9608.992590,7899.195897,-5120.270565,32872.844681,2725.839940,27318.078556,7529.878024,-217.160004,-780.799988,-580.720032,-1680.000000,1120.000000,2240.000000
7773.847315,11159.130771,833.116571,-1462.407584,7041.604166,10148.206073,7951.230759,-20162.145217,13660.670955,9593.033444,7899.508822,-5148.411411,32865.021570,2723.850635,27288.998936,7481.330035,-217.160004,-783.239990,-579.255981,-1680.000000,1260.000000,2240.000000
7760.771544,11092.410814,795.520937,-1504.987658,6991.268038,10138.885395,7911.824633,-20207.675720,13639.660315,9566.904255,7896.357226,-5184.353016,32853.018684,2720.050838,27254.912526,7429.921023,-218.624008,-784.216003,-579.744019,-1400.000000,1540.000000,2100.000000
7765.510114,11078.195104,797.532594,-1517.057600,6991.133927,10135.264413,7895.507860,-20219.723310,13641.180234,9576.671967,7894.502031,-5190.276228,32852.102262,2725.415257,27246.530622,7425.718895,-217.647995,-784.216003,-581.695984,-1680.000000,1400.000000,2240.000000
7818.170824,11194.938266,890.672313,-1440.704041,7107.608868,10153.704602,7951.409573,-20141.961591,13696.657264,9654.701907,7904.649723,-5119.152977,32884.355829,2748.459905,27305.449820,7515.371742,-221.063995,-782.752014,-580.231995,-1400.000000,1680.000000,2240.000000
7875.905380,11370.533570,1001.626373,-1321.904519,7257.410259,10184.706472,8048.170274,-20024.860802,13769.479247,9733.178882,7920.273593,-5016.558470,32925.438336,2768.554123,27400.690603,7642.016726,-216.671997,-786.656006,-584.624023,-1120.000000,1400.000000,2240.000000
7880.688653,11436.806492,1020.670059,-1275.524649,7286.646341,10198.072815,8093.030225,-19983.867703,13791.875695,9731.524853,7929.527215,-4979.923961,32936.703615,2769.179972,27445.505851,7688.106023,-219.112000,-784.216003,-580.720032,-1120.000000,1680.000000,2380.000000
7832.900623,11341.677468,940.136724,-1338.511865,7181.034348,10182.806573,8050.964242,-20050.878233,13746.345192,9662.927349,7926.040343,-5034.395162,32910.172094,2752.773792,27406.211484,7625.051752,-218.624008,-784.216003,-581.208008,-700.000000,1540.000000,2520.000000
7814.348676,11273.079964,898.853052,-1383.841203,7120.617583,10170.758983,8016.341390,-20097.973358,13720.908907,9637.401657,7925.168625,-5073.309549,32894.995260,2748.661071,27369.889899,7570.647606,-220.087997,-786.168030,-580.720032,-560.000000,1400.000000,2660.000000
7806.592620,11222.117987,873.684987,-1412.742008,7084.340702,10164.075811,7992.402672,-20132.462100,13706.402624,9621.241346,7924.006334,-5100.578678,32885.205196,2747.431725,27343.961876,7523.954812,-219.600006,-784.703979,-580.720032,-840.000000,1400.000000,2800.000000
7793.919181,11155.219216,837.676327,-1454.919750,7033.848111,10157.459695,7956.394012,-20179.177246,13686.330758,9597.526145,7921.860566,-5138.263719,32873.783454,2743.296652,27306.612111,7467.673119,-216.671997,-788.119995,-580.720032,-420.000000,1260.000000,2660.000000
7793.136870,11115.701332,822.208920,-1484.960495,7008.612991,10152.139980,7925.727418,-20209.039177,13678.507647,9597.883773,7919.200709,-5160.481353,32870.229527,2743.587225,27276.683125,7437.386505,-216.184006,-790.072021,-581.208008,-280.000000,1540.000000,2380.000000
7824.742237,11173.972329,874.467298,-1446.627253,7076.405832,10159.784276,7951.588386,-20169.588348,13705.486203,9651.215035,7919.223061,-5123.578623,32887.887405,2758.071155,27304.868675,7487.521468,-216.184006,-786.656006,-581.208008,-140.000000,1260.000000,2380.000000
7878.744051,11341.856282,988.394140,-1333.415667,7231.593994,10186.427556,8044.370478,-20056.309707,13762.572558,9734.899966,7926.353267,-5025.745037,32925.706557,2780.109975,27396.756696,7613.250031,-216.671997,-789.583984,-581.208008,-140.000000,1540.000000,2380.000000
7897.295999,11462.019260,1046.419268,-1251.943559,7316.351809,10206.097091,8114.487900,-19980.671403,13796.189582,9762.437315,7933.662287,-4960.120316,32947.141879,2784.625028,27463.409598,7695.526802,-215.695999,-789.096008,-583.160034,-140.000000,1680.000000,2380.000000
7841.237824,11391.655969,972.524401,-1301.027990,7223.614421,10192.507230,8079.060385,-20030.247573,13750.726134,9685.212038,7929.750732,-5007.662476,32923.516086,2761.960359,27428.295008,7646.844703,-214.232010,-786.656006,-579.744019,-140.000000,1680.000000,2100.000000
7802.904582,11290.603732,902.585793,-1373.559400,7128.507749,10173.620006,8020.968201,-20094.330024,13705.285037,9636.105256,7918.172529,-5068.816849,32896.023440,2748.057574,27372.192129,7574.357995,-214.720001,-786.656006,-579.744019,-140.000000,1540.000000,2100.000000
7791.482841,11229.382304,868.231162,-1413.658430,7081.524382,10165.886303,7989.586352,-20128.282324,13683.402679,9613.775863,7907.398988,-5104.736102,32881.226585,2743.251949,27340.609114,7526.771131,-212.768005,-787.632019,-580.231995,-280.000000,1540.000000,1960.000000
7778.585884,11165.724536,832.423667,-1458.876009,7031.031791,10155.828018,7951.498980,-20167.442580,13662.079115,9585.970293,7900.380540,-5141.325908,32865.401550,2735.093562,27299.414849,7473.171648,-211.792007,-791.048035,-578.768005,-560.000000,1400.000000,1820.000000
7764.101954,11094.400119,798.203146,-1511.022629,6976.493535,10142.796951,7902.302790,-20213.956560,13639.235632,9564.780839,7892.870354,-5180.732033,32849.442404,2726.845768,27250.866860,7420.980325,-211.304001,-786.656006,-584.624023,-560.000000,1680.000000,1680.000000
7775.635454,11104.547811,820.800760,-1507.625164,7000.700474,10141.679363,7898.346531,-20206.625188,13648.265737,9594.240438,7891.819822,-5171.567818,32856.416149,2734.557120,27252.118558,7436.045401,-209.839996,-786.168030,-582.671997,-700.000000,1820.000000,1820.000000
7825.748065,11248.962432,925.451627,-1414.440741,7141.807037,10163.360556,7972.956654,-20107.562257,13705.039168,9680.004082,7900.067616,-5087.011169,32892.894196,2756.372423,27326.415757,7546.306556,-212.279999,-785.192017,-582.184021,-700.000000,1820.000000,1960.000000
7873.156115,11408.911515,1017.183187,-1309.521652,7266.350957,10187.992178,8060.530789,-20005.459488,13770.350965,9740.912585,7916.272630,-4997.380674,32928.165248,2766.229542,27411.799420,7656.299490,-211.792007,-786.656006,-583.160034,-980.000000,1960.000000,1820.000000
7852.257234,11411.303152,990.919887,-1305.543042,7234.522073,10187.232219,8068.152734,-20012.902619,13764.785381,9700.187707,7919.491281,-5001.515746,32921.124449,2750.583321,27420.136621,7654.220778,-210.816010,-786.656006,-584.135986,-1120.000000,2100.000000,1820.000000
7809.096016,11310.183860,914.163996,-1369.670197,7134.229795,10169.373175,8017.481329,-20085.098754,13717.220869,9636.619346,7911.802281,-5061.038442,32894.436466,2736.613481,27369.465216,7581.555257,-209.352005,-787.632019,-583.648010,-1120.000000,2100.000000,2100.000000
7791.907524,11244.268566,874.355540,-1412.831415,7079.870353,10157.549102,7980.198619,-20128.215269,13690.734052,9609.283162,7904.202688,-5102.120948,32879.930184,2729.237405,27328.226248,7525.810006,-214.232010,-785.679993,-580.720032,-1120.000000,2380.000000,2100.000000
7780.843411,11184.634111,841.766696,-1448.773020,7036.955003,10148.317832,7948.749715,-20162.771066,13670.528075,9588.943075,7899.709988,-5139.493065,32866.630896,2724.588242,27294.698631,7473.171648,-213.744003,-786.168030,-582.671997,-1260.000000,2800.000000,2100.000000
7763.118477,11105.464233,795.252716,-1502.350152,6973.386642,10135.420875,7903.822709,-20212.302531,13643.728333,9561.249263,7893.540906,-5184.509478,32849.040073,2716.988649,27251.224488,7414.610078,-215.208008,-785.679993,-584.135986,-1260.000000,2940.000000,2380.000000
7767.901751,11083.067785,792.123472,-1520.075085,6964.848276,10131.509320,7884.957836,-20228.641656,13642.566042,9573.498019,7893.272685,-5193.606638,32851.074082,2724.700001,27236.137061,7403.925944,-218.136002,-787.143982,-584.135986,-840.000000,3220.000000,2800.000000
7819.422522,11199.073338,883.944438,-1444.995576,7085.033606,10150.240082,7939.764314,-20155.931432,13694.332682,9652.824360,7901.028741,-5122.125759,32884.780512,2750.896245,27292.798733,7490.382491,-217.647995,-788.119995,-583.160034,-560.000000,3220.000000,2660.000000
7871.815011,11376.277968,999.413550,-1324.899653,7245.049744,10180.414937,8039.810722,-20035.813157,13759.219797,9731.457797,7912.763406,-5017.810168,32925.818315,2772.577437,27389.693545,7621.497824,-222.528000,-787.143982,-586.088013,-140.000000,3500.000000,3220.000000
7869.065746,11445.523673,1024.447504,-1272.305998,7285.841678,10194.183611,8091.979693,-19987.376927,13773.636672,9725.244013,7918.284287,-4982.919095,32936.457746,2769.179972,27439.537935,7677.399537,-221.063995,-787.632019,-582.184021,420.000000,3640.000000,3360.000000
7813.633420,11348.852378,944.204741,-1332.879225,7180.654368,10178.559742,8047.253853,-20050.431198,13723.881689,9647.996384,7915.445616,-5045.280462,32907.735754,2749.644548,27396.823752,7619.061484,-217.160004,-789.096008,-585.112000,1260.000000,3640.000000,3640.000000
7785.358463,11267.022642,892.594563,-1388.691531,7107.474757,10163.628777,7995.174288,-20104.589475,13688.990615,9616.100444,7913.545717,-5096.153032,32888.535605,2738.178103,27344.028931,7555.962510,-222.040009,-785.679993,-581.208008,2100.000000,3640.000000,3920.000000
7777.155373,11203.454280,855.870647,-1434.065573,7056.937463,10153.324622,7956.326956,-20143.660324,13669.522246,9597.570848,7903.375674,-5132.608728,32871.950611,2728.186873,27300.018346,7499.233782,-224.479996,-784.703979,-578.280029,2940.000000,3920.000000,4060.000000
7761.509152,11127.279535,811.457731,-1484.960495,6995.671331,10142.618137,7915.892651,-20188.833200,13646.611708,9565.607854,7894.591438,-5174.719414,32855.611486,2719.559100,27258.891137,7438.414686,-223.992004,-783.239990,-584.135986,3500.000000,3640.000000,4200.000000
7755.764753,11067.555674,786.803757,-1521.818521,6957.315738,10133.476273,7883.773194,-20223.634866,13634.295897,9556.108362,7890.478717,-5202.614391,32847.006064,2718.977954,27233.097223,7407.949258,-220.576004,-783.728027,-581.208008,3920.000000,3780.000000,4340.000000
7788.264190,11124.887899,840.403240,-1482.457099,7027.075532,10141.478198,7910.304714,-20186.620377,13664.135476,9611.473633,7894.434976,-5163.118859,32865.759178,2735.473542,27266.177805,7461.213465,-223.992004,-780.312012,-581.695984,4340.000000,3640.000000,4340.000000
7847.026926,11297.577476,962.421413,-1368.060871,7188.879810,10168.568512,8000.784576,-20073.185274,13730.318991,9702.959323,7907.935430,-5059.965558,32907.422830,2758.942873,27355.316562,7586.249123,-226.432007,-778.359985,-583.160034,4200.000000,3500.000000,4340.000000
7870.228037,11419.752111,1026.257995,-1284.018312,7285.640512,10189.243876,8074.277112,-19992.607235,13766.327651,9733.491806,7916.250279,-4988.417624,32931.830935,2763.815554,27423.668197,7671.521028,-226.919998,-778.848022,-581.208008,4480.000000,3220.000000,4340.000000
7822.618821,11353.881520,962.019081,-1321.457484,7208.951677,10180.414937,8053.758210,-20033.153299,13726.943878,9663.955529,7910.483528,-5026.393238,32913.569559,2745.129495,27403.216350,7635.311202,-223.503998,-774.944031,-585.600037,4480.000000,2940.000000,4200.000000
7780.262265,11248.649508,896.282601,-1390.367912,7114.493205,10160.991271,8000.896335,-20098.599207,13677.837095,9612.993552,7901.140499,-5087.525259,32887.954460,2731.517283,27350.466234,7564.836152,-224.479996,-772.992004,-583.648010,3920.000000,2800.000000,4200.000000
7769.242855,11189.752661,863.649054,-1432.456247,7060.938425,10150.351840,7966.474648,-20137.714760,13660.469790,9593.301665,7898.324179,-5124.360934,32873.247012,2724.252966,27313.675262,7509.828509,-223.503998,-772.992004,-585.600037,3360.000000,2660.000000,4060.000000
7767.991158,11135.616736,829.808513,-1471.661207,7009.194137,10141.209977,7934.042267,-20177.992604,13655.775923,9573.408612,7896.603095,-5157.195646,32862.160547,2718.732085,27281.153474,7456.385488,-224.479996,-775.919983,-584.135986,2800.000000,2380.000000,3920.000000
7764.906617,11086.644064,801.220632,-1504.093588,6968.849238,10134.593860,7903.509784,-20215.699996,13650.389153,9564.870246,7896.021950,-5180.888496,32856.460852,2719.782617,27255.001933,7417.649915,-224.479996,-771.528015,-585.112000,2100.000000,2380.000000,3640.000000
7782.944475,11104.726625,824.712315,-1495.868146,6996.855974,10135.420875,7906.773139,-20207.541610,13665.096601,9598.464918,7897.854793,-5165.309330,32868.486091,2728.611556,27260.299296,7438.481741,-222.528000,-771.528015,-584.624023,1260.000000,2100.000000,3080.000000
7843.316536,11260.227711,939.175599,-1391.373741,7149.496037,10160.432477,7990.279256,-20105.260027,13727.323857,9690.174125,7907.041360,-5073.220143,32906.215835,2755.254836,27339.379768,7555.738992,-223.503998,-773.968018,-586.575989,1120.000000,2100.000000,2940.000000
7882.879124,11422.590783,1034.908120,-1280.352626,7288.255666,10188.081585,8085.229467,-19997.748136,13781.660948,9747.685164,7919.647744,-4982.784984,32940.056376,2769.112917,27428.898505,7673.085651,-221.552002,-773.968018,-586.088013,560.000000,2100.000000,2660.000000
7851.296109,11426.412931,1010.835291,-1274.921152,7268.407317,10188.461565,8098.461699,-19993.389546,13767.288776,9706.312085,7925.235680,-4987.121223,32936.502449,2755.612463,27441.706054,7680.797002,-221.552002,-776.408020,-587.064026,560.000000,1820.000000,2380.000000
7805.966771,11317.492881,927.619747,-1346.625548,7158.906121,10167.361518,8042.627042,-20065.943309,13720.595982,9642.900186,7914.395084,-5054.355270,32908.853341,2737.284033,27388.106571,7604.175222,-220.576004,-779.335999,-588.528015,560.000000,1960.000000,1680.000000
7793.360387,11245.609670,885.240839,-1393.653619,7101.417434,10155.380983,8005.903126,-20110.065652,13694.422089,9614.625229,7904.068578,-5098.097634,32892.514216,2731.740800,27348.253411,7546.194797,-220.087997,-775.432007,-585.600037,840.000000,1820.000000,1120.000000
7784.754966,11182.622454,850.975615,-1437.306575,7051.707155,10147.267300,7970.274445,-20151.863414,13674.909016,9594.061624,7900.984037,-5135.916786,32880.265460,2724.297669,27307.081498,7486.873268,-216.184006,-780.312012,-587.064026,980.000000,1260.000000,700.000000
7771.321567,11108.727587,810.116626,-1485.206364,6996.990084,10137.141959,7930.331878,-20201.104307,13654.881853,9571.128734,7895.954895,-5174.585304,32865.043922,2719.000306,27268.435331,7428.848139,-213.255997,-781.776001,-584.624023,1400.000000,980.000000,140.000000
7772.282692,11078.798601,803.098178,-1503.043056,6990.418671,10131.174044,7909.768273,-20222.696092,13650.702077,9578.191886,7894.882011,-5185.269437,32862.942858,2721.503701,27254.264325,7413.045456,-212.279999,-779.335999,-587.064026,1680.000000,840.000000,-420.000000
7817.768492,11182.845972,886.626647,-1429.997555,7102.803243,10145.590919,7961.803134,-20151.818711,13697.216057,9655.327756,7901.676941,-5119.376495,32892.245995,2743.520170,27307.796753,7494.383454,-210.816010,-781.776001,-583.648010,2240.000000,280.000000,-1120.000000
7873.133763,11362.196369,1002.811015,-1309.901632,7262.461753,10176.101050,8063.816495,-20030.158166,13764.293643,9737.336306,7914.082159,-5014.703276,32932.859115,2765.938969,27402.344632,7624.917641,-207.888000,-780.799988,-580.720032,2520.000000,-560.000000,-1680.000000
7877.626464,11434.526614,1026.235643,-1259.409041,7304.192460,10189.869724,8114.934935,-19981.878398,13784.566675,9736.889271,7921.055904,-4975.632426,32943.409138,2763.524981,27446.489328,7679.701767,-207.888000,-780.312012,-578.280029,2800.000000,-1260.000000,-1820.000000
7826.038638,11334.927241,940.181427,-1324.854949,7191.182040,10170.736631,8067.772754,-20050.319439,13738.499729,9660.155733,7913.836290,-5038.507883,32914.374222,2740.010946,27398.924816,7614.769949,-204.960007,-783.239990,-578.768005,3220.000000,-2100.000000,-1960.000000
7801.608181,11252.628118,889.062987,-1380.242572,7119.544699,10156.051535,8023.471597,-20104.343606,13704.949761,9624.705866,7906.236697,-5088.396977,32894.078838,2730.578510,27353.908402,7556.342489,-203.496002,-782.752014,-576.328003,3780.000000,-2380.000000,-1820.000000
7788.219486,11189.707957,853.456659,-1420.967450,7069.074460,10148.340183,7989.295779,-20143.772083,13681.078098,9599.716616,7901.922810,-5124.450341,32881.293640,2725.996402,27317.676224,7503.502965,-202.031998,-787.143982,-575.351990,4060.000000,-1680.000000,-2240.000000
7765.264245,11109.286381,805.892146,-1472.912904,7003.673256,10135.353820,7941.731267,-20194.890522,13651.618499,9565.116115,7894.166755,-5169.690272,32864.909812,2715.625193,27271.206948,7441.633337,-204.472000,-789.096008,-573.400024,4340.000000,-1960.000000,-2240.000000
7758.804591,11059.889026,784.970914,-1509.145082,6971.911427,10125.988439,7906.639028,-20229.446319,13638.766246,9558.544702,7889.383482,-5194.970095,32856.170280,2714.194681,27240.361540,7411.123206,-202.520004,-787.632019,-569.496033,4480.000000,-1960.000000,-2100.000000
7791.281675,11116.282477,839.509170,-1475.304541,7038.407867,10134.705619,7930.354229,-20193.907046,13666.817685,9612.501813,7892.602133,-5158.626158,32871.727094,2731.539635,27269.530567,7461.928721,-204.960007,-792.023987,-567.056030,5180.000000,-2240.000000,-1680.000000
7855.185313,11294.247066,961.817916,-1356.147391,7206.403578,10165.595730,8025.304440,-20076.716849,13736.622183,9709.463681,7906.102587,-5052.298910,32913.971891,2758.518190,27365.553661,7592.462908,-203.496002,-793.000000,-570.960022,5460.000000,-2100.000000,-1260.000000
7882.812069,11427.754036,1031.175379,-1265.846344,7311.881460,10190.361463,8104.429615,-19991.713165,13780.096326,9747.327536,7917.233755,-4979.432223,32940.861039,2767.592998,27441.326075,7686.608456,-205.936005,-791.048035,-568.520020,6020.000000,-1960.000000,-700.000000
7837.929766,11372.299358,966.601189,-1303.419626,7238.903015,10181.756041,8084.067176,-20028.794709,13746.456950,9679.758213,7915.244450,-5018.167796,32920.900931,2747.029394,27419.086089,7652.432639,-207.888000,-791.048035,-568.031982,5880.000000,-1680.000000,-140.000000
7798.501289,11275.538656,897.780168,-1368.776127,7149.697202,10162.690003,8031.115893,-20092.027794,13699.630046,9625.957564,7910.483528,-5077.668140,32896.515178,2734.579472,27367.699429,7578.470716,-207.888000,-788.608032,-570.960022,6300.000000,-1540.000000,140.000000
7780.195210,11215.233650,861.525638,-1409.076322,7101.283324,10150.843579,7994.704902,-20130.226926,13674.082002,9601.907087,7904.895592,-5116.448416,32880.734847,2727.181044,27330.483774,7525.921765,-207.400009,-791.536011,-571.936035,6160.000000,-1400.000000,700.000000
7766.717108,11143.909233,819.392600,-1456.774945,7043.057030,10140.517073,7955.522294,-20173.812827,13653.227824,9575.330862,7895.172583,-5157.307405,32864.418073,2718.262698,27290.161227,7470.355328,-209.839996,-792.023987,-572.911987,6160.000000,-1400.000000,1260.000000
7758.514018,11074.082383,785.350893,-1502.283097,6991.916238,10129.721180,7914.149215,-20219.298627,13634.653525,9552.330917,7888.958799,-5192.913734,32852.079910,2713.144149,27253.571421,7422.991982,-210.816010,-791.048035,-573.888000,6440.000000,-1260.000000,1540.000000
7781.402204,11088.231038,809.177853,-1491.889535,7020.370009,10131.866948,7914.819767,-20213.956560,13652.356106,9585.411499,7889.696406,-5176.373443,32862.138195,2724.632946,27259.494634,7440.806322,-211.304001,-791.048035,-578.768005,6720.000000,-1400.000000,2100.000000
7841.237824,11236.356048,920.288374,-1395.061778,7163.130601,10157.414992,7988.871096,-20115.273609,13712.974037,9678.953550,7900.894630,-5085.938285,32901.186693,2752.751440,27333.478908,7550.843960,-210.816010,-788.119995,-577.791992,7000.000000,-1540.000000,2240.000000
7889.137612,11400.641370,1019.485416,-1287.460481,7299.275076,10188.618027,8079.663882,-20006.532372,13773.949596,9744.131237,7916.697313,-4990.965723,32940.101080,2767.883571,27420.606008,7667.832991,-213.744003,-788.119995,-580.231995,7840.000000,-1820.000000,2660.000000
7868.238731,11412.487794,1001.089931,-1277.491603,7283.517096,10191.233181,8096.651208,-19997.994005,13768.473419,9709.128405,7920.497110,-4989.065825,32937.329464,2753.019661,27436.632208,7681.288741,-214.232010,-787.632019,-580.231995,8120.000000,-1960.000000,2940.000000
7818.796673,11305.489994,918.857863,-1347.743135,7172.451278,10168.792029,8042.582338,-20069.854864,13720.797148,9642.810779,7912.673999,-5054.198808,32908.898045,2734.557120,27384.932623,7610.679580,-213.255997,-784.703979,-580.720032,8540.000000,-2100.000000,3080.000000
7805.095053,11241.787522,881.619857,-1390.770243,7112.950935,10157.102067,8006.886602,-20115.497126,13699.294770,9620.928421,7910.528232,-5092.979085,32895.621108,2730.600861,27346.577030,7557.795353,-214.720001,-783.239990,-580.720032,8540.000000,-2100.000000,3360.000000
7791.304027,11180.946074,846.304100,-1431.383363,7058.904416,10148.027259,7973.515448,-20156.669039,13677.837095,9596.140337,7906.974305,-5133.122818,32881.830082,2722.353068,27308.757878,7502.810061,-218.136002,-776.408020,-579.744019,8680.000000,-2380.000000,3220.000000
7770.092222,11102.357340,799.901879,-1481.831250,6996.118366,10135.912613,7930.018953,-20208.927418,13650.947946,9563.842066,7900.738168,-5178.049824,32865.267440,2717.793312,27266.535433,7444.539064,-214.720001,-778.359985,-581.695984,9240.000000,-3080.000000,3780.000000
7772.506210,11073.970625,795.476233,-1500.830233,6989.815174,10131.241099,7909.544755,-20226.764110,13647.170502,9571.106383,7896.938371,-5192.042016,32862.741692,2722.218957,27247.402340,7434.145502,-221.063995,-773.479980,-580.720032,9240.000000,-3360.000000,3780.000000
7815.108635,11171.938321,875.696644,-1439.742916,7094.197821,10145.501512,7955.544645,-20161.295850,13686.576627,9644.554215,7901.699293,-5132.921652,32886.926280,2741.374402,27292.955195,7514.097692,-222.040009,-770.064026,-579.255981,8680.000000,-3640.000000,4060.000000
7865.780040,11349.746448,989.087044,-1320.429304,7251.129419,10176.615140,8055.725164,-20039.232974,13745.451122,9727.836815,7912.316371,-5029.477779,32924.790135,2762.742670,27391.146408,7647.291737,-222.528000,-772.015991,-579.255981,8120.000000,-3780.000000,4340.000000
7867.478772,11427.351705,1015.238585,-1264.482887,7297.308123,10190.741443,8108.274115,-19987.198113,13761.253805,9729.267327,7920.742979,-4986.048339,32938.491754,2762.206228,27440.163784,7703.841651,-226.919998,-768.600037,-580.720032,7560.000000,-3780.000000,4480.000000
7812.225260,11332.356791,932.604186,-1327.179531,7187.561058,10175.475201,8064.934083,-20052.532262,13714.426901,9653.450209,7919.021895,-5044.587558,32913.569559,2740.748553,27395.482647,7641.234415,-224.968002,-768.600037,-579.744019,6440.000000,-3640.000000,4620.000000
7782.542143,11237.943022,873.372063,-1389.093863,7100.769234,10160.186608,8014.329733,-20111.987902,13680.184028,9614.625229,7908.740092,-5096.041274,32889.317917,2729.326812,27346.107643,7573.352167,-227.895996,-769.088013,-581.208008,5880.000000,-3780.000000,4900.000000
7770.047518,11167.512675,836.983423,-1431.964509,7046.052163,10148.586052,7978.991625,-20153.428036,13657.027621,9587.311397,7897.944200,-5135.357992,32873.850509,2721.324887,27309.942521,7513.449492,-229.360001,-766.648010,-585.112000,5040.000000,-3220.000000,4900.000000
7757.932873,11093.975436,798.381960,-1481.294809,6986.104785,10137.298422,7938.512616,-20200.254941,13636.195795,9561.316319,7891.976284,-5177.714548,32860.059483,2712.093617,27270.938727,7452.205712,-231.311996,-768.112000,-585.600037,4340.000000,-3220.000000,5460.000000
7759.944530,11047.148531,781.148765,-1518.577518,6951.750154,10129.274145,7906.862546,-20232.620267,13631.747798,9561.584540,7891.305732,-5201.988542,32852.728111,2712.764169,27243.334322,7419.393351,-231.311996,-770.552002,-586.088013,3360.000000,-2800.000000,5460.000000
7798.613047,11104.145480,834.569434,-1484.960495,7015.318515,10137.343125,7930.488340,-20197.393918,13667.555293,9618.201508,7900.268781,-5164.862295,32869.670733,2728.522149,27267.854186,7467.136677,-234.727997,-772.992004,-591.455994,3080.000000,-2240.000000,5320.000000
7863.410755,11282.244180,957.548732,-1365.803345,7181.861363,10165.752192,8027.606669,-20078.102658,13738.455026,9712.592925,7911.444653,-5059.116192,32913.591911,2753.287882,27358.736379,7598.341417,-236.192001,-776.408020,-586.088013,3220.000000,-2240.000000,5460.000000
7891.193973,11419.886222,1033.567015,-1269.892009,7294.670617,10189.400338,8112.297429,-19983.420668,13779.269311,9748.020440,7920.206537,-4982.583819,32942.559772,2762.362690,27439.068549,7696.331465,-237.167999,-780.312012,-589.015991,3080.000000,-2380.000000,4900.000000
7852.748973,11383.430527,985.801337,-1286.812280,7238.366573,10185.131155,8108.408226,-20005.079508,13753.564805,9689.235352,7920.139482,-5008.690656,32928.522876,2747.990519,27437.012188,7675.320825,-233.751999,-783.239990,-582.671997,2940.000000,-2520.000000,4620.000000
7820.853033,11293.174183,918.991973,-1343.563359,7142.701106,10169.015547,8063.011833,-20069.027849,13716.796186,9640.128570,7913.031627,-5062.580712,32902.281928,2738.714545,27392.398106,7609.785510,-234.240005,-784.216003,-584.624023,3360.000000,-3080.000000,4060.000000
7809.990085,11236.423103,883.407996,-1381.136642,7088.878106,10160.007794,8030.154768,-20110.669149,13697.059595,9619.453206,7911.042322,-5098.075282,32890.033172,2734.512417,27358.132882,7558.152981,-231.311996,-788.119995,-582.671997,3360.000000,-3220.000000,3220.000000
7777.490649,11150.860626,828.221539,-1437.686555,7018.090131,10145.993250,7984.221933,-20166.548510,13659.508665,9576.291987,7906.259049,-5150.825399,32870.788320,2721.838978,27311.216570,7488.929628,-228.872009,-788.119995,-578.768005,3500.000000,-3780.000000,2380.000000
7754.669518,11070.886084,790.067111,-1489.408492,6965.764697,10133.006887,7939.272575,-20217.823412,13631.390170,9555.348403,7898.637104,-5195.238315,32856.326742,2717.078056,27266.468378,7436.604194,-225.456009,-791.536011,-581.695984,3500.000000,-4340.000000,1260.000000
7778.429422,11079.826782,816.799798,-1481.875954,6993.324398,10135.823206,7939.920776,-20215.051796,13649.495083,9589.077185,7897.586572,-5182.542525,32865.803881,2729.572681,27271.788093,7453.077430,-220.576004,-793.976013,-584.135986,3780.000000,-4480.000000,140.000000
7844.478827,11224.576679,928.223244,-1386.121081,7134.073333,10160.454829,8010.596992,-20121.353283,13714.628066,9681.054614,7905.566145,-5094.856631,32902.304280,2756.595940,27346.197050,7560.097582,-217.647995,-794.952026,-578.768005,3780.000000,-4900.000000,-700.000000
7895.776081,11390.516030,1030.147198,-1276.105794,7269.748422,10188.752137,8103.580249,-20012.500288,13776.631805,9747.886330,7915.602078,-5002.253354,32935.228400,2770.454022,27436.386339,7676.706633,-215.208008,-798.856018,-577.304016,4480.000000,-6020.000000,-1820.000000
7880.576894,11411.258449,1018.233719,-1259.498448,7260.941835,10194.652998,8127.653078,-19999.916255,13775.804791,9721.667733,7922.039380,-4993.692636,32934.423737,2760.351033,27459.565098,7693.492793,-211.792007,-797.880005,-577.791992,4480.000000,-6020.000000,-2660.000000
7830.173711,11304.662979,935.152285,-1330.599347,7151.462990,10175.274035,8073.852429,-20071.575948,13723.948744,9655.215997,7913.992752,-5057.462163,32906.037021,2741.508513,27408.513714,7618.055656,-210.328003,-799.832031,-583.648010,4900.000000,-6860.000000,-3780.000000
7807.665504,11232.556252,891.566383,-1378.946171,7090.934466,10162.913521,8038.447265,-20114.312484,13691.225790,9622.537747,7905.901421,-5099.170518,32889.027344,2733.148960,27370.336934,7559.516437,-206.423996,-800.320007,-583.160034,5320.000000,-6860.000000,-4620.000000
7795.841431,11175.738117,859.312816,-1416.966488,7047.460323,10154.375154,8008.495928,-20151.595193,13670.103391,9599.783671,7904.940296,-5134.374515,32878.142044,2727.985707,27335.378806,7506.475747,-202.031998,-798.856018,-581.208008,5320.000000,-6860.000000,-5040.000000
7775.613102,11101.887954,816.755094,-1466.855582,6990.955113,10143.422800,7966.340538,-20199.226761,13645.583528,9571.195790,7899.799395,-5176.976940,32864.552184,2721.682515,27292.061125,7450.663441,-202.520004,-802.272034,-580.231995,5460.000000,-6860.000000,-5600.000000
7772.685024,11068.092116,809.803702,-1491.666018,6978.639302,10136.918442,7943.988793,-20216.035273,13639.257984,9575.263807,7894.032645,-5192.958438,32862.406416,2721.973088,27270.491692,7437.520616,-198.128006,-796.903992,-583.160034,5180.000000,-6720.000000,-6160.000000
7823.244670,11173.435888,896.640229,-1423.224976,7086.844097,10150.843579,7994.436681,-20145.001429,13689.281188,9653.181988,7903.040398,-5126.909033,32892.424809,2742.715507,27322.191277,7521.630230,-200.080002,-794.463989,-582.671997,5180.000000,-5880.000000,-6440.000000
7889.249371,11370.578274,1019.328954,-1291.796719,7258.036108,10183.544181,8104.027284,-20016.635360,13765.232416,9745.628803,7920.072427,-5012.915136,32938.223533,2766.877743,27428.384415,7661.798020,-199.104004,-792.023987,-585.112000,5040.000000,-5600.000000,-6300.000000
7900.000560,11465.550836,1050.934321,-1227.602509,7317.715265,10200.866783,8166.500409,-19956.710333,13791.361605,9755.307109,7929.460159,-4962.087269,32953.534478,2766.922446,27486.521302,7724.852291,-197.639999,-789.583984,-583.648010,4900.000000,-5040.000000,-6020.000000
7846.691650,11373.416945,967.450555,-1288.488661,7212.483253,10184.237085,8124.076798,-20017.797651,13742.835968,9678.305349,7922.084084,-5019.888880,32925.550094,2744.235426,27442.890697,7663.206180,-197.152008,-788.119995,-587.552002,4620.000000,-4200.000000,-5600.000000
7822.417655,11302.405453,920.981279,-1336.343746,7147.551435,10170.021375,8085.520039,-20065.026887,13712.482299,9646.320003,7915.713837,-5064.368852,32908.272196,2738.066344,27400.087106,7608.511461,-200.568008,-787.632019,-584.135986,4480.000000,-3220.000000,-5180.000000
7809.654809,11247.241348,887.118386,-1371.234819,7103.138519,10161.527713,8057.982690,-20099.694443,13692.879819,9623.521223,7911.422302,-5100.466919,32896.135199,2732.478408,27366.537138,7560.142286,-197.152008,-788.119995,-588.528015,4480.000000,-2520.000000,-4620.000000
7787.101899,11162.997623,834.457676,-1423.001459,7035.122160,10148.071962,8014.642658,-20149.851757,13665.051897,9586.909066,7905.543793,-5148.791391,32879.930184,2722.867158,27324.247637,7499.814928,-199.104004,-786.656006,-586.088013,4340.000000,-1960.000000,-4060.000000
7778.474126,11107.364131,809.602536,-1457.914884,6999.649942,10137.343125,7981.807945,-20183.021746,13651.193816,9577.990720,7900.872278,-5178.049824,32871.816501,2721.347239,27299.414849,7467.807229,-199.591995,-783.239990,-588.039978,4340.000000,-1120.000000,-3220.000000
7802.524603,11150.435942,854.373080,-1431.338660,7054.612881,10143.802779,7997.677684,-20155.305583,13669.991633,9620.794311,7900.849927,-5148.612577,32883.729980,2733.975975,27320.827820,7509.202660,-201.544006,-785.679993,-587.552002,4200.000000,-140.000000,-2240.000000
7862.203760,11317.716398,972.613808,-1319.177606,7213.198508,10172.189495,8086.391757,-20042.295163,13733.559994,9711.631800,7911.824633,-5047.470933,32925.550094,2758.853466,27408.692528,7633.590118,-202.520004,-784.216003,-583.160034,4200.000000,280.000000,-1400.000000
7894.144403,11446.618908,1044.251149,-1232.408134,7315.860071,10193.066024,8162.231226,-19955.257470,13779.403422,9752.803713,7924.140444,-4972.056147,32952.819223,2766.944798,27480.329869,7723.891166,-201.544006,-783.728027,-585.600037,3920.000000,980.000000,-700.000000
7859.610958,11399.859059,989.332913,-1266.427489,7243.798047,10183.074794,8143.165188,-19988.539218,13757.744581,9692.699873,7923.380485,-5003.370941,32935.362510,2743.542521,27459.028656,7689.536534,-202.520004,-783.239990,-583.648010,3780.000000,1120.000000,0.000000
7823.647001,11298.136270,919.282546,-1336.902539,7146.500903,10162.801762,8086.615275,-20057.270832,13715.455081,9641.894357,7915.155043,-5064.167686,32907.556940,2728.835074,27402.210522,7612.288906,-205.936005,-779.824036,-578.768005,3920.000000,1120.000000,1120.000000
7811.510004,11235.350220,883.430348,-1376.845107,7100.679827,10153.726954,8052.707678,-20098.263931,13694.198572,9620.369628,7912.428130,-5101.852727,32893.475341,2724.387076,27367.990001,7557.191856,-207.400009,-781.776001,-581.208008,3640.000000,1120.000000,1820.000000
7795.662617,11165.121039,843.979519,-1421.727410,7050.298995,10142.864006,8016.095521,-20141.648667,13671.288034,9590.977084,7907.823671,-5142.555254,32879.103169,2718.665030,27327.354530,7498.183250,-209.352005,-784.216003,-580.720032,3360.000000,1120.000000,2100.000000
7777.602408,11090.108584,806.003905,-1470.029529,6997.258305,10132.492796,7975.862381,-20188.587330,13647.125798,9566.636034,7901.989866,-5184.017740,32866.697951,2714.820530,27288.328384,7446.908348,-210.328003,-780.312012,-581.208008,2800.000000,1120.000000,2520.000000
7779.055271,11085.548828,817.850330,-1472.331759,7011.116387,10132.492796,7969.760355,-20190.151953,13646.812874,9583.556304,7902.436900,-5184.017740,32872.151777,2722.263661,27287.054335,7456.005508,-211.304001,-782.752014,-580.720032,2520.000000,1120.000000,2940.000000
7830.799559,11222.229746,920.556595,-1382.522450,7145.137447,10154.576320,8038.670783,-20099.269760,13702.535773,9670.683404,7909.477700,-5100.802195,32907.869864,2746.537655,27354.780120,7563.427992,-212.279999,-782.264038,-578.280029,2100.000000,1120.000000,3360.000000
7889.584647,11394.986379,1028.604928,-1265.488716,7288.166259,10184.818230,8136.213796,-19986.214636,13775.558922,9745.204120,7919.156005,-4997.805357,32946.516031,2764.150830,27448.724502,7686.608456,-215.695999,-784.216003,-580.720032,1820.000000,980.000000,3220.000000
7885.807203,11427.642277,1026.861492,-1241.035907,7285.059367,10192.686044,8163.773497,-19967.573281,13786.444221,9720.818367,7922.575822,-4981.689749,32948.505336,2757.713527,27474.808988,7708.513166,-216.671997,-783.239990,-575.351990,1680.000000,700.000000,3500.000000
7837.773304,11320.063331,941.857808,-1313.410856,7170.014938,10171.183666,8109.212888,-20044.977372,13736.666886,9649.359840,7911.243488,-5049.750811,32916.542341,2739.787428,27420.091918,7629.857377,-219.112000,-782.752014,-578.768005,1400.000000,420.000000,3220.000000
7824.026981,11252.516359,901.155281,-1357.555551,7110.402836,10159.381945,8071.684309,-20091.357242,13712.459947,9625.398770,7909.254182,-5089.134585,32901.141989,2736.926405,27380.954013,7570.491144,-216.184006,-784.216003,-579.744019,980.000000,140.000000,3220.000000
7813.633420,11188.188039,868.097051,-1398.056912,7058.703251,10148.630756,8035.921518,-20132.573859,13692.276322,9603.561116,7908.740092,-5128.339544,32888.401495,2729.237405,27342.263143,7510.364951,-220.087997,-781.288025,-577.304016,980.000000,-140.000000,3080.000000
7795.439100,11109.062863,823.639431,-1448.728317,6995.827794,10135.599689,7992.961465,-20183.155857,13665.051897,9574.235627,7903.554488,-5173.668882,32873.448178,2722.755399,27299.638367,7451.758677,-220.576004,-785.192017,-576.815979,420.000000,-420.000000,2520.000000
7788.465355,11074.305901,812.575318,-1472.935256,6982.640264,10128.827110,7970.430907,-20205.060566,13650.679725,9576.962540,7897.251296,-5193.204307,32868.195518,2725.035277,27282.516930,7439.509921,-222.040009,-785.192017,-578.280029,560.000000,-700.000000,2240.000000
7827.044466,11160.360117,884.346769,-1419.469883,7076.003501,10138.214843,8006.350160,-20149.091798,13689.460002,9644.062477,7901.319313,-5144.052821,32888.826178,2742.894321,27324.717024,7511.974277,-222.528000,-785.192017,-576.815979,140.000000,-700.000000,1960.000000
7891.931581,11344.940823,1005.895556,-1295.551812,7239.908843,10168.389698,8103.915525,-20030.068759,13764.986547,9734.698800,7915.311505,-5032.629375,32930.646292,2765.424879,27421.924761,7647.492903,-224.479996,-786.168030,-580.231995,280.000000,-980.000000,1680.000000
7905.454386,11440.494530,1045.636957,-1227.311936,7303.656018,10187.276922,8168.802639,-19966.902729,13791.272198,9743.795960,7923.738113,-4975.766537,32946.516031,2766.900094,27483.794389,7719.286706,-223.992004,-783.728027,-580.231995,280.000000,-1260.000000,1260.000000
7853.933615,11357.211930,970.468041,-1276.195201,7206.314171,10173.128268,8132.995144,-20023.720863,13748.848587,9667.218884,7923.134616,-5025.163892,32922.890237,2749.398678,27452.323133,7665.329595,-223.503998,-785.679993,-577.304016,140.000000,-1260.000000,840.000000
7820.473054,11271.269473,916.332116,-1333.616833,7127.747789,10156.342108,8081.519077,-20084.361146,13711.677636,9628.282145,7920.005372,-5078.226933,32904.584158,2738.893359,27401.159990,7594.966304,-223.016006,-782.264038,-580.231995,0.000000,-1400.000000,560.000000
7807.576097,11209.243382,880.748139,-1375.593409,7079.065690,10146.552044,8045.018678,-20126.561240,13691.650473,9607.316209,7908.829499,-5114.660277,32889.049696,2733.193664,27360.680981,7536.315326,-221.063995,-782.752014,-577.791992,-280.000000,-1400.000000,-280.000000
7792.913353,11132.398085,840.470295,-1426.577738,7018.492462,10134.482102,8001.723349,-20177.076182,13667.532941,9576.068470,7900.648761,-5158.469696,32871.123597,2725.415257,27315.306940,7473.171648,-223.016006,-784.216003,-577.304016,-280.000000,-1400.000000,-560.000000
7790.208792,11075.222322,822.588899,-1467.660244,6980.740366,10125.675514,7964.910026,-20211.274351,13656.759400,9571.240493,7898.145365,-5187.996350,32861.892326,2722.867158,27278.873596,7436.648898,-219.600006,-788.119995,-579.255981,0.000000,-1260.000000,-980.000000
7818.506100,11113.577916,864.632531,-1447.811895,7032.104675,10133.140997,7974.923608,-20183.111153,13682.709775,9620.146110,7902.593363,-5159.095545,32875.795111,2734.266547,27290.943538,7472.098764,-218.624008,-787.143982,-579.744019,-140.000000,-1120.000000,-1400.000000
7884.533153,11285.328720,982.292114,-1333.035688,7195.674741,10163.360556,8066.789277,-20066.524454,13754.458875,9717.107978,7914.216270,-5053.103573,32918.330481,2760.641606,27382.295118,7599.235487,-217.160004,-785.679993,-573.888000,-140.000000,-1120.000000,-1680.000000
7914.260973,11424.557736,1056.566960,-1234.777419,7307.612277,10190.026187,8153.067011,-19971.082505,13797.284817,9757.408173,7924.833348,-4973.888990,32947.186583,2772.018644,27467.142340,7703.014636,-212.279999,-786.656006,-577.304016,-420.000000,-1260.000000,-2100.000000
7872.910246,11378.513143,1001.112282,-1259.766669,7242.099314,10182.963035,8142.695802,-19999.804497,13767.132314,9695.024454,7923.335781,-5002.208650,32929.618112,2751.276225,27456.726427,7677.444241,-214.720001,-787.143982,-577.791992,-420.000000,-1120.000000,-2380.000000
7831.157187,11274.577531,925.786904,-1329.124132,7142.656403,10159.717221,8087.822269,-20067.798503,13719.456043,9638.921575,7912.897517,-5064.145334,32903.533626,2734.423010,27402.456391,7603.817595,-211.792007,-787.632019,-575.840027,-420.000000,-980.000000,-2520.000000
7819.444873,11216.462996,890.247630,-1367.010339,7092.744958,10150.620061,8055.725164,-20109.283341,13700.412357,9614.960505,7908.471871,-5099.595201,32890.815483,2729.572681,27368.213519,7548.429972,-211.792007,-786.656006,-577.304016,-420.000000,-980.000000,-2660.000000
7809.230126,11155.330974,854.574246,-1408.405770,7042.118256,10140.673535,8018.755379,-20151.416379,13686.576627,9591.200601,7906.683732,-5135.268585,32877.873823,2723.224786,27330.193201,7491.991817,-210.328003,-788.608032,-576.328003,-420.000000,-700.000000,-2800.000000
7794.545030,11087.761651,815.883376,-1457.601959,6986.551820,10129.207090,7971.906122,-20198.645615,13665.610691,9570.838162,7903.308618,-5177.803955,32863.702817,2717.793312,27286.048506,7439.688735,-208.376007,-789.096008,-577.304016,-280.000000,-700.000000,-2660.000000
7804.312742,11087.560485,826.969841,-1462.742861,6998.867631,10128.983573,7962.205465,-20201.640749,13671.980938,9594.218087,7902.973342,-5176.820478,32867.636724,2724.320021,27281.891082,7446.081334,-209.839996,-787.632019,-576.815979,0.000000,-560.000000,-2520.000000
7860.594435,11224.844900,932.581834,-1371.592447,7138.409571,10152.899939,8032.501701,-20109.573914,13732.084779,9683.736823,7912.562241,-5091.548573,32904.315937,2749.443382,27352.433187,7553.369707,-207.888000,-788.119995,-575.840027,-140.000000,-280.000000,-2380.000000
7908.851851,11393.175887,1037.657385,-1252.837628,7287.205134,10184.080623,8132.369296,-19992.316662,13792.680358,9749.830931,7922.799340,-4992.128014,32942.604475,2767.414185,27449.238592,7680.461726,-205.447998,-789.583984,-573.888000,280.000000,-280.000000,-1960.000000
7896.334874,11424.401274,1037.143294,-1223.892119,7294.290637,10192.574286,8166.254540,-19967.416819,13790.802811,9723.098245,7924.073389,-4976.079461,32943.699711,2761.513324,27483.704982,7709.071959,-206.423996,-788.119995,-576.328003,700.000000,-280.000000,-1680.000000
7850.714964,11321.046808,955.067689,-1288.198088,7184.811793,10173.664710,8116.901888,-20037.377779,13744.042962,9654.701907,7918.194880,-5036.943261,32915.022423,2743.967205,27435.849897,7637.211101,-208.863998,-785.679993,-572.911987,560.000000,-280.000000,-1540.000000
7830.218414,11246.391981,908.106674,-1335.717897,7118.784740,10159.896035,8076.914618,-20083.757649,13719.120767,9626.739875,7912.338723,-5080.886791,32893.520045,2734.579472,27392.822789,7578.448365,-207.400009,-788.119995,-575.840027,560.000000,-560.000000,-1120.000000
7814.706303,11185.796402,873.439118,-1375.302836,7070.929655,10151.111800,8044.683402,-20119.721606,13700.635874,9602.868212,7906.013180,-5119.622364,32877.829120,2726.063457,27354.914231,7524.379495,-207.888000,-786.656006,-575.840027,840.000000,-140.000000,-420.000000
7796.690797,11112.661494,832.177798,-1423.448494,7013.888003,10141.947584,8002.773881,-20168.962499,13678.015909,9574.995586,7902.749825,-5162.448306,32862.920506,2719.179120,27312.557675,7465.661462,-207.400009,-785.192017,-574.375977,980.000000,-280.000000,0.000000
7793.315684,11074.618825,822.521844,-1452.684576,6993.972599,10134.862081,7973.873076,-20193.504714,13669.075211,9575.107345,7900.492299,-5180.888496,32857.041998,2721.280184,27287.255500,7443.220311,-209.839996,-787.143982,-575.351990,1120.000000,-140.000000,280.000000
7835.091094,11161.120076,897.221374,-1398.034560,7087.872277,10147.624927,8013.234498,-20135.189013,13708.056654,9639.659183,7905.052055,-5124.115065,32880.578384,2741.642623,27327.578047,7513.896527,-208.376007,-785.192017,-572.911987,1400.000000,0.000000,700.000000
7894.703197,11340.671640,1014.612736,-1278.497431,7248.290747,10179.744384,8112.520947,-20015.562477,13776.765916,9726.428655,7916.607906,-5015.642049,32923.359623,2765.201362,27423.221162,7648.632842,-208.863998,-786.168030,-572.424011,1540.000000,-420.000000,1120.000000
7911.087026,11440.405123,1060.009129,-1212.693895,7315.256574,10198.385739,8175.396404,-19950.429493,13808.639504,9744.153588,7927.157930,-4958.242769,32944.258504,2769.671711,27482.274471,7718.303230,-211.304001,-788.608032,-571.936035,1680.000000,0.000000,1400.000000
7861.063821,11356.273157,981.442747,-1269.802603,7215.523090,10183.007739,8136.057333,-20008.074642,13764.852436,9667.531808,7923.447540,-5013.362171,32918.106963,2750.248045,27443.985932,7659.205217,-210.816010,-788.608032,-573.888000,1820.000000,-140.000000,1680.000000
7826.530376,11260.719450,920.131912,-1333.035688,7130.050019,10163.852294,8083.798955,-20069.452532,13721.043017,9621.509566,7913.478662,-5073.555419,32893.005954,2737.038164,27392.956900,7590.831231,-209.839996,-787.632019,-574.864014,2240.000000,-280.000000,2100.000000
7806.771434,11195.452356,880.748139,-1374.721691,7076.338777,10151.223558,8047.365611,-20109.551562,13693.438613,9594.106328,7908.404816,-5114.772035,32877.829120,2726.331678,27354.087216,7534.191911,-209.839996,-787.143982,-577.304016,2380.000000,0.000000,2240.000000
7783.860896,11120.529308,831.663708,-1421.168616,7014.379741,10139.824169,8009.501756,-20156.713743,13664.604862,9560.846932,7905.901421,-5158.961434,32862.518175,2718.329754,27315.396346,7474.848029,-212.279999,-790.072021,-576.328003,2380.000000,-140.000000,2380.000000
7781.826887,11059.553750,803.835786,-1461.312349,6969.810363,10130.034105,7972.531971,-20196.008110,13654.524226,9554.074353,7900.447595,-5188.085757,32852.772814,2717.055704,27280.259404,7435.419552,-214.232010,-787.632019,-574.864014,2240.000000,0.000000,2380.000000
7817.343809,11098.110509,847.444039,-1438.133590,7020.928803,10133.677439,7985.294817,-20172.449371,13685.079060,9601.437700,7899.397063,-5158.045013,32864.485128,2730.533806,27294.564521,7470.198866,-210.328003,-784.703979,-573.400024,2240.000000,-140.000000,2520.000000
7884.711967,11269.347223,970.043358,-1326.777199,7182.017825,10160.432477,8073.293635,-20061.204739,13756.805808,9701.975847,7910.327066,-5052.254206,32905.746449,2757.490010,27379.434094,7596.441519,-208.863998,-782.752014,-580.231995,2380.000000,-140.000000,2380.000000
7917.099645,11413.627733,1047.536856,-1228.362468,7294.782376,10186.047576,8157.515008,-19967.215653,13803.990341,9745.785266,7920.430055,-4971.229133,32936.055414,2769.738766,27461.085017,7700.757110,-213.255997,-784.216003,-573.888000,2380.000000,-280.000000,2240.000000
7880.062804,11384.838687,999.815881,-1243.315785,7243.395715,10182.761870,8153.536398,-19989.410936,13780.006919,9690.755271,7921.949973,-4990.585743,32925.281873,2752.572626,27459.676857,7686.139069,-213.255997,-786.656006,-579.255981,2520.000000,-420.000000,2100.000000
7835.292260,11281.998310,926.613918,-1308.694638,7146.322089,10165.551027,8103.513194,-20055.683858,13730.095474,9635.524110,7914.663305,-5053.282386,32899.555016,2737.351088,27412.894656,7617.698028,-214.232010,-785.192017,-579.255981,2800.000000,-560.000000,2100.000000
7818.684914,11209.176327,885.821985,-1354.135734,7089.995693,10155.313928,8064.084716,-20099.962664,13704.547430,9613.328828,7910.260011,-5097.762358,32884.087608,2728.343335,27372.974440,7557.638890,-210.816010,-783.728027,-576.815979,2660.000000,-700.000000,1680.000000
7808.291353,11143.193977,849.478048,-1399.129796,7039.838378,10146.797913,8025.505605,-20144.442635,13687.046014,9590.775918,7906.795491,-5135.670917,32872.285887,2722.442475,27332.294265,7496.417462,-211.304001,-783.728027,-578.280029,2800.000000,-980.000000,1680.000000
7793.114518,11071.400174,811.457731,-1447.811895,6987.244724,10134.795026,7984.043119,-20191.694223,13664.381345,9565.898426,7898.950028,-5174.697062,32859.143062,2717.569794,27292.128181,7441.186302,-212.768005,-784.216003,-578.768005,2800.000000,-980.000000,1120.000000
7802.591658,11066.080459,821.516016,-1452.706927,7000.879288,10134.213881,7977.561114,-20194.823467,13670.639833,9581.835220,7898.279476,-5173.311254,32863.725169,2725.147036,27289.647137,7446.282500,-211.304001,-783.239990,-577.304016,2800.000000,-1260.000000,1120.000000
7852.994842,11191.473745,918.343773,-1371.078357,7133.872167,10153.279919,8040.235405,-20112.099661,13722.138253,9663.128515,7907.398988,-5095.169556,32897.319841,2750.426859,27351.673228,7545.479541,-209.839996,-782.752014,-579.744019,2800.000000,-1260.000000,700.000000
7901.073444,11362.285776,1020.535948,-1255.139858,7284.098242,10180.727861,8137.264328,-19998.262226,13781.973872,9732.530681,7917.747845,-4994.586706,32933.641426,2767.995330,27443.047159,7670.850476,-210.816010,-782.752014,-579.744019,3080.000000,-1680.000000,560.000000
7891.439842,11400.462556,1017.004373,-1228.138951,7293.754195,10189.825021,8170.993110,-19971.261319,13786.645387,9715.051617,7922.441712,-4974.648949,32935.608379,2760.060461,27470.383343,7701.941753,-211.304001,-783.728027,-582.184021,2940.000000,-1680.000000,140.000000
7839.919071,11289.776717,929.564348,-1301.966763,7179.290912,10171.004852,8118.399455,-20043.837433,13734.275250,9639.189796,7914.328028,-5044.028764,32903.980661,2738.513379,27417.476763,7627.398685,-212.279999,-784.216003,-579.744019,2940.000000,-1680.000000,0.000000
7819.869556,11219.703999,886.783110,-1345.575016,7118.695333,10159.225483,8081.429670,-20089.882027,13705.754424,9606.623305,7907.510746,-5088.866364,32885.406361,2729.282108,27382.809208,7570.222923,-212.768005,-786.168030,-579.255981,3220.000000,-1820.000000,-140.000000
7796.579039,11156.828541,848.539275,-1387.730406,7069.275626,10149.234253,8045.309251,-20130.562202,13677.434764,9578.214237,7903.934467,-5131.602899,32870.765969,2717.480387,27346.241754,7513.427140,-212.768005,-785.192017,-580.231995,3500.000000,-1820.000000,-420.000000
7773.221466,11078.329215,804.439283,-1441.218131,7010.669352,10136.896090,8003.332675,-20181.680641,13648.377496,9549.983984,7899.307656,-5179.703853,32854.248030,2710.305477,27305.025137,7454.932625,-209.839996,-787.143982,-580.720032,3500.000000,-1680.000000,-560.000000
7782.720957,11046.723848,795.878565,-1465.626236,6996.341884,10129.676477,7979.304550,-20203.384185,13651.216167,9557.807095,7893.630313,-5194.232487,32850.314122,2714.194681,27283.701573,7437.610023,-209.352005,-785.192017,-578.280029,3500.000000,-1820.000000,-560.000000
7833.459417,11131.347553,868.164106,-1416.072418,7084.653626,10141.053515,8013.636829,-20149.024743,13696.120822,9625.532880,7899.039435,-5142.577606,32873.179957,2732.880739,27317.408003,7504.911125,-209.352005,-784.703979,-583.160034,3220.000000,-1820.000000,-840.000000
7902.615714,11315.391817,991.657495,-1297.116434,7248.022526,10171.898922,8109.190537,-20028.079453,13772.563788,9721.444216,7912.204613,-5034.439866,32916.654100,2758.026452,27410.905351,7637.233452,-211.792007,-783.728027,-578.280029,3220.000000,-1820.000000,-980.000000
7918.172529,11417.159309,1040.607815,-1227.222529,7313.691951,10190.853201,8171.775421,-19959.839578,13802.671588,9741.560786,7921.301773,-4975.028929,32935.764842,2760.507495,27472.216186,7709.340180,-209.352005,-786.656006,-578.768005,3360.000000,-1680.000000,-840.000000
7864.930673,11333.809654,959.538038,-1277.424547,7216.327753,10178.112707,8139.544206,-20013.908447,13757.476360,9666.995366,7915.177395,-5023.509863,32910.239149,2739.005117,27442.331903,7657.461781,-210.816010,-786.656006,-581.695984,3640.000000,-1680.000000,-840.000000
7831.872443,11245.967298,897.601354,-1334.376792,7138.141351,10160.276015,8092.605542,-20072.894701,13719.299581,9625.868157,7906.057883,-5075.343558,32887.283908,2727.829245,27395.728516,7591.993522,-210.816010,-785.679993,-580.231995,3500.000000,-1820.000000,-840.000000
7815.890946,11186.176382,863.738461,-1374.878153,7090.710949,10148.161369,8055.859274,-20112.569048,13695.494973,9602.331770,7899.955857,-5113.229765,32872.509405,2722.621289,27355.249507,7536.315326,-208.863998,-786.168030,-577.791992,3640.000000,-1540.000000,-840.000000
7797.920143,11112.348570,825.114647,-1424.789599,7032.842282,10137.030201,8010.798158,-20159.395952,13669.566950,9573.050985,7895.954895,-5159.117896,32859.478338,2713.255908,27310.546018,7475.898561,-208.376007,-786.168030,-577.791992,3360.000000,-1820.000000,-840.000000
7786.699568,11054.412848,800.035989,-1460.954721,6995.336055,10128.223613,7977.784631,-20194.465839,13649.808007,9560.601063,7892.803299,-5193.204307,32848.973018,2711.490120,27284.327422,7441.476875,-209.839996,-788.119995,-580.231995,3360.000000,-1400.000000,-560.000000
7803.865707,11080.184410,830.791990,-1441.218131,7033.781056,10129.989401,7988.580524,-20175.578615,13665.588339,9594.799232,7894.367921,-5176.731071,32857.667846,2723.917690,27300.755954,7471.361157,-211.304001,-785.192017,-579.255981,3500.000000,-980.000000,-560.000000
7860.236807,11243.843883,943.936520,-1331.873397,7187.069319,10156.923253,8073.181876,-20065.920957,13729.760197,9684.161506,7906.549621,-5081.244419,32897.722172,2748.236388,27384.686754,7590.719472,-209.839996,-785.679993,-576.328003,3500.000000,-840.000000,-420.000000
7895.083177,11392.572390,1023.016992,-1229.256538,7307.656980,10185.086451,8161.203046,-19966.031011,13778.241131,9732.374219,7916.473796,-4995.234906,32927.382937,2760.686309,27469.355162,7695.906782,-212.768005,-784.703979,-582.184021,3500.000000,-560.000000,-280.000000
7873.938426,11375.048622,983.879087,-1240.790038,7264.361651,10184.594713,8158.185560,-19983.666537,13767.132314,9685.457907,7916.384389,-5009.383560,32916.810562,2746.828228,27467.142340,7680.126450,-210.816010,-783.728027,-582.184021,3780.000000,-560.000000,-140.000000
7834.979336,11268.564912,906.564403,-1310.549833,7162.594159,10165.752192,8102.015627,-20055.192120,13723.300543,9627.410427,7904.761482,-5075.678834,32888.312088,2731.986670,27413.654615,7601.224792,-214.232010,-783.239990,-579.255981,3920.000000,-560.000000,140.000000
7820.607164,11200.079167,866.644188,-1351.699394,7109.776987,10153.749305,8069.516190,-20097.682786,13698.311293,9604.365778,7897.497165,-5116.023733,32873.336419,2724.655297,27379.344687,7542.685573,-215.208008,-782.264038,-582.184021,3780.000000,-280.000000,140.000000
7808.648981,11134.812073,831.663708,-1393.452453,7060.603149,10144.406276,8035.765056,-20139.748769,13677.099487,9582.438717,7896.178412,-5152.881760,32860.931201,2718.061533,27341.749053,7484.012244,-213.255997,-782.264038,-582.184021,3780.000000,-140.000000,280.000000
7794.701492,11060.380764,790.447091,-1450.114125,7003.494442,10132.157520,7988.647579,-20189.436697,13657.273490,9559.572883,7893.563258,-5193.852507,32846.469622,2710.730161,27292.955195,7426.903537,-213.255997,-781.288025,-583.160034,3780.000000,-140.000000,560.000000
7804.357446,11053.362316,799.723065,-1459.166582,7015.564384,10129.095331,7977.650521,-20194.912874,13663.040240,9578.258941,7893.496203,-5190.991484,32847.408396,2718.843844,27285.176788,7429.518691,-214.232010,-780.799988,-584.624023,3780.000000,280.000000,560.000000
7854.894740,11183.896504,899.948287,-1367.949112,7149.943072,10149.658936,8045.599824,-20108.299864,13715.700950,9662.636776,7900.961685,-5105.339599,32881.606565,2745.353013,27353.617830,7528.425160,-213.744003,-782.264038,-582.671997,3640.000000,280.000000,560.000000
7901.833403,11355.669660,1006.521405,-1250.870675,7296.995198,10180.660806,8143.478113,-19991.735517,13773.167285,9731.882481,7911.019970,-5004.510880,32921.280911,2765.000196,27449.596220,7654.779572,-215.208008,-783.239990,-585.600037,3780.000000,140.000000,560.000000
7891.819822,11398.249733,1007.929564,-1220.449951,7308.618105,10190.920256,8178.145668,-19962.410028,13777.123544,9712.749387,7916.160872,-4984.930752,32924.521914,2758.540542,27481.648622,7688.061319,-218.624008,-786.168030,-583.160034,3780.000000,280.000000,420.000000
7843.048315,11292.928313,920.891872,-1291.796719,7194.355988,10173.485896,8125.216737,-20034.673218,13729.067293,9641.380267,7910.595287,-5048.409706,32895.464646,2736.166446,27427.110365,7613.518252,-217.647995,-784.703979,-580.720032,3780.000000,420.000000,420.000000
7824.518719,11218.497004,878.311798,-1342.803400,7129.804150,10159.717221,8081.809650,-20085.366975,13700.904095,9614.446415,7907.130767,-5093.850803,32878.700838,2727.270451,27382.451580,7551.469809,-218.624008,-785.192017,-579.255981,3920.000000,420.000000,420.000000
7812.828757,11159.957786,844.806533,-1381.874249,7084.251295,10148.764866,8047.164446,-20124.080196,13678.820572,9592.541706,7903.420377,-5131.692306,32864.015742,2721.771922,27345.526498,7494.964599,-220.087997,-782.752014,-579.255981,3920.000000,280.000000,280.000000
7799.484765,11084.408889,799.544251,-1431.942157,7021.666410,10137.387829,8001.857460,-20174.773952,13658.458133,9567.083069,7899.642932,-5175.166449,32850.135309,2715.200509,27301.001823,7434.257261,-218.136002,-786.656006,-578.768005,3500.000000,280.000000,0.000000
7802.189327,11047.483808,789.262448,-1457.713718,6998.286485,10131.464616,7973.962483,-20201.819563,13656.357069,9571.508714,7898.547697,-5192.354940,32848.101300,2718.061533,27276.034925,7409.692694,-218.624008,-784.703979,-578.768005,3080.000000,0.000000,-420.000000
7839.449685,11125.580803,855.311853,-1407.019962,7081.457327,10143.288689,8011.915745,-20149.181205,13691.873991,9637.155788,7901.453424,-5143.002289,32870.050713,2736.725239,27317.497410,7473.551628,-221.552002,-785.192017,-577.791992,2380.000000,420.000000,-840.000000
7901.095796,11310.765005,977.151212,-1285.001789,7246.502608,10175.363442,8113.102092,-20024.614933,13761.611433,9725.981620,7913.791587,-5036.205654,32913.010766,2760.619254,27419.466069,7609.316124,-216.184006,-785.679993,-579.744019,1960.000000,280.000000,-1260.000000
7916.943183,11416.421701,1029.610757,-1209.743465,7324.510196,10196.955227,8183.063052,-19950.831825,13791.920399,9742.633670,7922.531119,-4978.180525,32934.602551,2765.044900,27486.633061,7687.435471,-218.624008,-787.143982,-577.791992,1680.000000,420.000000,-1960.000000
7863.969548,11336.894195,955.291206,-1260.504277,7231.772808,10183.767698,8149.758953,-20002.821982,13749.474436,9663.732012,7913.903345,-5028.941337,32908.339251,2742.469638,27454.714770,7633.187787,-217.647995,-787.143982,-583.160034,1260.000000,280.000000,-2100.000000
7836.119275,11247.330755,897.601354,-1323.335030,7148.512560,10164.768715,8098.014664,-20066.122123,13715.052750,9624.281183,7909.030665,-5083.658407,32886.233376,2728.812722,27401.361156,7561.505742,-218.136002,-786.168030,-582.184021,1120.000000,140.000000,-2520.000000
7824.272850,11183.874152,864.967807,-1363.411708,7100.210440,10154.933948,8063.928254,-20106.221152,13694.980883,9606.533898,7906.169642,-5121.276393,32873.850509,2721.950736,27363.609059,7507.861556,-215.695999,-788.608032,-582.184021,1400.000000,-140.000000,-2940.000000
7803.284562,11107.610000,822.611251,-1409.210433,7043.168788,10144.138055,8025.371495,-20151.841063,13666.817685,9575.554380,7899.955857,-5163.498838,32857.153756,2714.351143,27325.633445,7449.344689,-215.208008,-789.583984,-579.744019,1680.000000,-280.000000,-3080.000000
7794.299161,11046.925014,792.346989,-1448.705965,7001.728654,10132.895128,7986.188887,-20192.275368,13648.645717,9562.947996,7896.290171,-5192.466699,32843.429785,2712.987687,27291.100000,7405.222345,-213.744003,-786.656006,-578.280029,1680.000000,-140.000000,-3220.000000
7813.633420,11071.288415,822.208920,-1434.132628,7039.883082,10133.677439,7989.832221,-20176.517388,13664.135476,9597.928476,7900.604057,-5171.523115,32853.242201,2726.354030,27298.654890,7433.050267,-216.184006,-793.488037,-575.351990,2100.000000,-280.000000,-3360.000000
7867.903455,11233.070342,935.912244,-1324.922004,7198.468709,10161.326547,8075.439403,-20066.479750,13724.529889,9685.726128,7910.550584,-5073.644826,32893.967079,2752.930254,27384.530292,7556.543655,-212.279999,-794.463989,-576.815979,2660.000000,-420.000000,-3500.000000
7908.427168,11385.106907,1023.441675,-1225.166169,7321.202138,10189.377986,8163.371165,-19964.712258,13781.392727,9738.811521,7917.390217,-4984.170793,32925.147763,2764.374347,27469.131645,7665.419002,-212.279999,-793.000000,-577.304016,2940.000000,-700.000000,-3780.000000
7883.661435,11368.678375,987.634181,-1235.671489,7276.856277,10188.506268,8165.896912,-19977.631566,13771.155628,9689.034186,7916.160872,-4996.576011,32913.234283,2747.811705,27472.037372,7659.674604,-209.352005,-795.440002,-574.864014,3360.000000,-980.000000,-4060.000000
7845.574063,11267.112049,912.241746,-1302.570260,7174.373528,10170.535466,8116.343095,-20047.346657,13727.748540,9629.802064,7906.326104,-5059.272654,32885.205196,2734.043030,27425.232819,7586.115013,-209.839996,-794.952026,-575.351990,3220.000000,-1540.000000,-4060.000000
7831.693629,11208.170498,876.881287,-1339.540045,7124.752656,10162.175913,8085.788260,-20088.183294,13705.732072,9610.110177,7903.286267,-5093.806099,32872.777626,2731.092600,27392.822789,7529.989783,-206.912003,-793.000000,-576.815979,2940.000000,-1820.000000,-4480.000000
7815.354504,11142.165797,838.548045,-1385.629342,7068.426260,10150.463599,8047.432667,-20131.188051,13682.933293,9585.724424,7902.883935,-5135.000364,32860.528870,2722.084847,27350.332123,7469.818886,-205.447998,-792.512024,-579.744019,2940.000000,-1820.000000,-4760.000000
7794.053292,11063.152380,797.845518,-1440.301709,7007.048369,10136.851387,8000.605762,-20178.126714,13655.485351,9559.863455,7895.887839,-5180.866144,32844.077986,2714.932289,27303.393460,7414.498319,-205.936005,-795.440002,-583.648010,2940.000000,-1680.000000,-5180.000000
7802.368141,11055.373973,806.942678,-1445.353203,7013.150396,10136.270241,7990.592181,-20183.938168,13659.285147,9574.056813,7894.144403,-5182.341359,32845.016759,2721.458998,27299.124277,7418.119302,-205.936005,-793.976013,-580.720032,2800.000000,-1680.000000,-5320.000000
7852.145475,11176.229856,900.752950,-1362.092955,7136.777894,10156.319756,8050.561911,-20104.433013,13708.235467,9652.869064,7901.296961,-5108.960582,32874.163434,2746.157676,27360.502167,7512.555422,-204.960007,-794.952026,-579.744019,3360.000000,-1680.000000,-5460.000000
7906.907249,11353.255672,1011.259974,-1245.282739,7289.552067,10187.388681,8146.383839,-19989.857970,13770.418021,9730.451969,7914.708008,-5007.170738,32913.681318,2763.435574,27452.166671,7636.115865,-203.984009,-792.512024,-576.328003,3500.000000,-1540.000000,-5460.000000
7902.302790,11406.296361,1021.720591,-1211.799826,7310.652114,10198.005759,8183.800660,-19955.503339,13780.364547,9718.180861,7921.480587,-4981.086252,32920.520952,2755.992443,27485.716639,7671.208104,-205.447998,-788.119995,-574.864014,4060.000000,-1820.000000,-5180.000000
7854.581816,11300.662017,934.615843,-1284.174774,7194.870078,10177.285692,8131.586985,-20027.364198,13732.755331,9645.492988,7916.026761,-5045.615738,32889.697896,2732.523111,27433.882944,7596.016836,-206.912003,-783.728027,-574.864014,3920.000000,-1820.000000,-4760.000000
7837.974469,11227.303592,886.336075,-1335.919063,7126.898423,10161.862989,8088.805746,-20078.929672,13706.156755,9615.809872,7910.371770,-5090.274524,32869.402512,2723.582414,27391.347574,7535.018925,-207.888000,-784.216003,-572.911987,2940.000000,-1680.000000,-4340.000000
7827.290336,11173.771164,855.781240,-1369.021996,7082.574914,10154.017526,8059.681423,-20115.921809,13686.889552,9592.228781,7907.734264,-5123.042181,32858.919544,2720.564928,27362.871452,7484.191058,-202.031998,-783.728027,-575.351990,1960.000000,-840.000000,-3920.000000
7809.744216,11100.502145,814.877548,-1418.352296,7020.437064,10143.623965,8017.503681,-20164.268632,13665.655394,9563.037403,7901.766348,-5164.012928,32846.335512,2716.318097,27323.957065,7426.255337,-206.912003,-784.703979,-575.840027,1260.000000,0.000000,-3640.000000
7803.798652,11057.497389,798.091388,-1449.756497,6991.357445,10135.778503,7987.641750,-20192.007147,13656.871159,9560.645766,7897.541868,-5187.281094,32840.926390,2718.106236,27300.823009,7403.858889,-207.400009,-785.679993,-577.304016,420.000000,1260.000000,-3220.000000
7833.660583,11129.022971,861.458583,-1404.605973,7067.912169,10144.249814,8017.637791,-20142.542737,13688.856505,9618.648543,7903.174508,-5144.611614,32860.975905,2733.998327,27334.708254,7465.884979,-209.352005,-783.239990,-579.744019,560.000000,2100.000000,-2240.000000
7888.288246,11306.160546,981.822727,-1289.561545,7224.284974,10171.027204,8109.279944,-20022.960904,13755.665869,9708.860184,7913.657476,-5041.637128,32899.130332,2754.070193,27425.568095,7594.496917,-209.839996,-783.728027,-578.768005,420.000000,2800.000000,-1680.000000
7913.053979,11424.937716,1040.473704,-1207.463587,7313.401379,10192.350768,8183.599494,-19942.740493,13797.575390,9739.638536,7920.027723,-4970.938560,32920.945635,2761.356862,27497.272491,7683.032177,-214.232010,-784.216003,-577.791992,0.000000,3500.000000,-840.000000
7876.084194,11365.437372,976.167736,-1244.969814,7236.690192,10183.030091,8161.694784,-19981.967805,13767.199369,9676.092526,7916.406741,-5004.130900,32902.505446,2742.179065,27475.166616,7649.124581,-219.600006,-785.192017,-580.720032,140.000000,3780.000000,-420.000000
7846.624595,11279.405508,915.773322,-1302.123225,7155.888636,10166.378041,8115.449025,-20040.775244,13727.525023,9634.518282,7907.220174,-5053.975291,32883.797036,2732.165483,27427.333883,7585.735033,-221.552002,-785.679993,-576.815979,560.000000,4060.000000,560.000000
7828.564385,11213.154937,877.171859,-1346.603196,7101.506841,10156.789143,8076.422879,-20083.154152,13700.591171,9606.869174,7901.431072,-5093.537878,32872.330591,2725.169387,27385.223196,7528.201643,-224.479996,-783.239990,-582.671997,700.000000,4060.000000,1260.000000
7804.469204,11129.693524,829.406182,-1407.064665,7031.098846,10145.367401,8028.612498,-20131.299809,13669.969281,9570.771107,7895.619618,-5146.645623,32855.924410,2715.066399,27335.334103,7463.493343,-227.895996,-784.216003,-580.231995,840.000000,3920.000000,1820.000000
7797.160184,11071.601340,803.209937,-1449.018890,6989.748119,10136.359648,7992.805003,-20168.180188,13658.547540,9558.701165,7893.987941,-5179.659150,32847.318989,2714.306440,27305.203951,7425.338915,-225.456009,-781.776001,-577.791992,420.000000,3780.000000,2380.000000
7814.751007,11092.142593,829.428533,-1436.881892,7023.566308,10138.013677,7996.358931,-20156.780798,13673.478505,9590.820621,7893.719720,-5164.728184,32854.695064,2723.068324,27316.603341,7447.780066,-227.408005,-784.703979,-574.864014,420.000000,3220.000000,2660.000000
7876.151249,11252.046973,940.896683,-1330.197016,7177.435717,10164.165218,8078.278074,-20052.688724,13738.924413,9684.317968,7904.470909,-5068.749794,32892.693030,2749.398678,27399.416554,7563.875027,-227.895996,-785.679993,-578.280029,420.000000,3220.000000,2660.000000
7918.865433,11412.823071,1031.153027,-1219.734695,7308.998085,10193.736576,8170.993110,-19948.127264,13797.463631,9741.851359,7919.558337,-4974.872467,32928.053490,2765.626045,27488.644718,7678.338311,-228.872009,-784.216003,-575.840027,280.000000,3080.000000,2100.000000
7890.724586,11400.216687,995.390236,-1221.656945,7272.497686,10195.256495,8178.615055,-19957.760865,13782.040928,9692.006968,7922.955802,-4983.008502,32919.649234,2750.985652,27496.132552,7674.583217,-229.360001,-784.216003,-575.840027,700.000000,2380.000000,1820.000000
7845.909339,11289.329683,914.700438,-1294.255411,7164.739926,10178.537390,8124.032095,-20030.739311,13730.877785,9626.561061,7914.730360,-5049.907273,32890.614318,2733.752457,27442.175441,7598.564935,-225.456009,-785.679993,-577.304016,840.000000,1820.000000,1260.000000
7826.776245,11217.848804,873.863801,-1345.619720,7106.580687,10167.383870,8081.943760,-20075.040469,13700.792337,9600.543630,7907.778967,-5096.555364,32874.431655,2723.694172,27398.097801,7540.830379,-219.600006,-783.239990,-578.280029,420.000000,840.000000,700.000000
7811.532356,11154.146332,837.117533,-1390.233802,7054.590530,10156.386811,8046.024507,-20112.859620,13678.194723,9573.989758,7902.749825,-5137.481408,32859.813614,2715.446379,27358.669324,7486.023901,-219.600006,-783.239990,-579.744019,560.000000,420.000000,-140.000000
7798.501289,11083.313654,798.024332,-1436.412506,7001.818061,10147.356707,8007.512451,-20158.077199,13658.122856,9550.118095,7899.799395,-5176.865182,32847.564858,2713.345315,27319.442012,7434.592537,-217.647995,-784.216003,-576.328003,560.000000,-280.000000,-980.000000
7805.363274,11068.337985,801.958239,-1450.181180,7004.433215,10142.394619,7989.496945,-20167.688449,13661.520322,9563.305624,7898.570049,-5182.386062,32849.554163,2720.184948,27304.466343,7429.317526,-216.671997,-781.776001,-577.304016,420.000000,-840.000000,-1680.000000
7848.658603,11184.567056,892.706322,-1375.168726,7122.852757,10157.660861,8042.515283,-20090.194951,13707.587267,9639.033334,7906.907249,-5114.794387,32879.371390,2740.368574,27360.323353,7519.730332,-213.255997,-783.239990,-583.648010,420.000000,-1680.000000,-2520.000000
7904.895592,11366.443201,1008.041323,-1253.307015,7277.795050,10188.103937,8142.315822,-19972.535369,13777.190599,9720.773664,7917.300810,-5009.987057,32919.716289,2759.389908,27458.827491,7649.012822,-210.328003,-781.776001,-580.720032,420.000000,-2100.000000,-3080.000000
7904.895592,11425.407103,1023.620489,-1207.888270,7306.405283,10200.307989,8188.405119,-19932.615153,13790.780460,9712.190594,7918.708970,-4977.286455,32926.265350,2754.628987,27504.290939,7695.102119,-206.423996,-782.264038,-584.135986,280.000000,-2660.000000,-3780.000000
7855.207664,11319.772758,937.946253,-1275.994036,7193.506622,10180.839620,8138.225453,-20000.676215,13740.824311,9638.899224,7910.036494,-5038.507883,32895.196425,2733.819513,27456.122930,7626.057580,-209.352005,-783.239990,-582.184021,0.000000,-2940.000000,-4060.000000
7836.901586,11240.312307,890.381740,-1329.526464,7122.361019,10166.668614,8095.444214,-20053.515739,13714.315142,9610.333694,7904.426206,-5082.674930,32876.376257,2725.951699,27411.240627,7565.685518,-208.376007,-781.776001,-580.231995,0.000000,-2940.000000,-4340.000000
7832.565347,11185.684643,859.715147,-1368.642016,7076.517591,10158.174951,8062.520094,-20094.330024,13703.228677,9595.223915,7906.951953,-5110.860480,32865.781530,2719.603803,27374.226138,7512.488367,-205.936005,-786.168030,-581.208008,-280.000000,-3080.000000,-4760.000000
7813.611068,11106.403006,813.111760,-1423.716715,7013.910355,10146.529692,8017.526033,-20146.588403,13676.764211,9565.116115,7903.040398,-5153.261739,32848.615390,2712.205376,27327.108661,7450.082296,-205.447998,-781.776001,-579.255981,-280.000000,-2940.000000,-4760.000000
7805.475033,11056.357450,794.090425,-1456.484372,6985.970674,10139.198320,7986.457108,-20175.109229,13661.408563,9559.751697,7897.273647,-5177.647493,32841.328721,2714.440550,27299.884236,7424.221328,-203.984009,-786.656006,-579.255981,-140.000000,-2660.000000,-4760.000000
7836.320440,11118.495300,851.400298,-1413.367857,7060.983129,10147.602576,8017.302515,-20129.288152,13689.907037,9612.837090,7899.039435,-5136.207358,32860.193594,2730.712620,27333.769480,7482.514677,-205.936005,-786.168030,-580.231995,-140.000000,-2380.000000,-4480.000000
7899.620581,11297.041034,969.931599,-1296.423530,7224.106160,10174.759945,8111.626877,-20011.494459,13760.672660,9704.769815,7911.802281,-5030.461255,32903.287757,2753.019661,27425.121060,7613.674714,-202.031998,-785.679993,-578.280029,-280.000000,-1820.000000,-4200.000000
7924.945107,11414.924135,1028.090838,-1218.214776,7309.892155,10195.658826,8180.716119,-19935.900859,13800.816393,9736.486940,7923.067561,-4964.054223,32924.767783,2757.937045,27490.477561,7697.024369,-201.544006,-788.608032,-579.744019,0.000000,-1120.000000,-3780.000000
7878.855810,11344.650250,957.973416,-1261.621864,7222.452131,10186.315797,8154.028136,-19984.001813,13764.897140,9667.330643,7919.848909,-5009.629430,32902.013707,2738.401620,27465.175386,7656.098325,-201.544006,-790.559998,-577.791992,280.000000,-560.000000,-3640.000000
7850.133818,11255.846769,894.762682,-1317.657687,7139.460103,10173.284730,8109.659923,-20044.485634,13731.436578,9625.130549,7914.395084,-5064.346500,32880.846605,2731.114952,27421.880057,7592.373501,-201.056000,-787.143982,-577.791992,840.000000,0.000000,-3080.000000
7835.314612,11194.357120,856.407089,-1355.923874,7094.354283,10164.478143,8077.115783,-20079.488466,13709.017779,9602.041197,7907.644857,-5103.819681,32865.155681,2726.421085,27385.714935,7541.389172,-201.056000,-787.143982,-575.840027,840.000000,420.000000,-2660.000000
7811.800577,11121.982172,812.128283,-1406.505872,7038.854902,10152.542311,8037.709658,-20120.146289,13678.552351,9568.111249,7897.854793,-5149.640757,32845.284980,2716.385152,27340.497356,7484.705148,-201.056000,-787.143982,-576.815979,1260.000000,700.000000,-2240.000000
7796.288466,11050.545996,775.583181,-1456.126744,6983.981369,10139.287727,7993.833184,-20168.850740,13655.798275,9545.290118,7894.256162,-5189.091586,32830.823401,2708.897318,27300.957120,7433.474950,-200.080002,-785.192017,-578.768005,1540.000000,700.000000,-1540.000000
7816.047408,11069.053241,803.411103,-1445.017927,7015.474977,10140.293555,7994.637846,-20162.435789,13671.131572,9578.348348,7899.262953,-5173.445365,32838.914733,2718.262698,27310.523666,7451.199883,-200.080002,-785.192017,-577.304016,1820.000000,1120.000000,-1260.000000
7882.543848,11232.824473,920.400133,-1336.321394,7174.194714,10167.830904,8076.087603,-20057.203777,13740.578442,9678.864143,7909.857680,-5073.622474,32878.969059,2747.342318,27394.074487,7569.999405,-201.056000,-783.728027,-576.815979,2100.000000,1120.000000,-700.000000
7930.935375,11398.272085,1018.479588,-1223.556843,7312.149681,10197.290504,8169.495543,-19948.730761,13802.939809,9741.404324,7918.306639,-4975.565371,32912.787248,2765.044900,27482.788561,7690.408253,-203.496002,-782.752014,-581.208008,2240.000000,980.000000,140.000000
7904.694427,11390.404271,993.177413,-1222.930994,7281.214867,10200.844431,8178.570351,-19952.195281,13789.215838,9697.125518,7916.853776,-4981.063900,32905.053545,2751.008004,27489.963471,7692.330503,-202.031998,-782.752014,-575.351990,2100.000000,840.000000,560.000000
7857.442839,11279.696081,915.035715,-1295.216536,7172.026595,10182.650111,8120.746389,-20025.084320,13737.449197,9634.853558,7907.980133,-5046.219235,32876.175091,2733.126609,27434.687607,7614.993467,-201.544006,-782.752014,-580.720032,2100.000000,840.000000,1120.000000
7842.131894,11217.982914,878.557668,-1336.746077,7119.544699,10174.156448,8083.933065,-20064.579852,13716.416206,9613.820566,7906.795491,-5085.044215,32863.166376,2730.064420,27397.248435,7560.477562,-204.472000,-782.752014,-580.231995,1960.000000,980.000000,1540.000000
7822.417655,11151.017088,840.425592,-1385.048197,7062.547751,10165.103992,8041.017716,-20105.327082,13691.918694,9585.120927,7901.073444,-5128.428951,32849.487108,2720.833149,27349.683922,7500.016093,-204.960007,-783.239990,-578.280029,1820.000000,980.000000,1820.000000
7803.038693,11070.483753,796.571469,-1440.882855,6997.839451,10154.129285,7994.190811,-20155.774970,13666.191836,9555.974252,7895.239639,-5174.920580,32833.371500,2712.585355,27302.275873,7438.973479,-206.912003,-779.335999,-574.864014,1820.000000,700.000000,2100.000000
7811.912335,11051.127142,797.912574,-1454.629177,6995.648980,10150.173026,7979.751585,-20166.839083,13671.310386,9569.899389,7895.664322,-5181.112013,32834.265570,2716.876890,27293.044602,7431.776217,-205.447998,-781.288025,-579.255981,1540.000000,420.000000,2380.000000
7864.796563,11169.501980,888.504194,-1379.594371,7115.521385,10166.713317,8033.976917,-20090.776097,13721.579459,9651.796180,7904.739130,-5109.809948,32866.295620,2739.988594,27351.919097,7519.775035,-209.352005,-781.776001,-581.208008,1400.000000,420.000000,2520.000000
7918.798377,11348.248881,1000.598192,-1257.307977,7275.626931,10195.994102,8135.386781,-19971.976575,13785.348986,9730.831949,7917.077293,-5006.768406,32907.713402,2761.759193,27451.429063,7650.689203,-210.816010,-781.776001,-579.744019,1120.000000,140.000000,2520.000000
7916.160872,11412.241925,1016.289117,-1207.307125,7311.054446,10208.175803,8187.533401,-19927.407196,13797.843611,9719.767835,7922.307601,-4974.872467,32916.587045,2759.769888,27502.301634,7700.600648,-212.768005,-782.264038,-578.768005,980.000000,0.000000,2380.000000
7862.650795,11313.581325,932.201854,-1272.685978,7203.386093,10191.747271,8143.098133,-19991.422593,13750.949651,9639.212148,7915.266802,-5037.814979,32888.490902,2739.295690,27458.246345,7633.657173,-208.863998,-783.239990,-581.695984,700.000000,-420.000000,2240.000000
7830.531339,11231.729237,883.922086,-1329.146484,7132.508711,10177.665672,8097.500574,-20042.518680,13714.382197,9605.036331,7912.249316,-5089.402805,32870.229527,2730.109123,27410.435964,7568.457135,-211.792007,-782.264038,-578.768005,280.000000,-700.000000,1960.000000
7817.187347,11172.541818,850.841504,-1368.753775,7084.586571,10167.719146,8064.352937,-20078.929672,13691.516363,9585.500906,7903.934467,-5128.406600,32854.851527,2722.643640,27374.539062,7513.114216,-216.671997,-783.239990,-579.255981,0.000000,-840.000000,1960.000000
7803.753949,11095.495355,805.690981,-1419.380476,7021.889928,10156.096239,8021.661105,-20128.483490,13667.644700,9556.108362,7895.440804,-5172.595998,32837.953608,2713.233556,27331.847230,7452.362174,-212.768005,-784.216003,-580.720032,140.000000,-980.000000,1820.000000
7803.753949,11039.459531,782.266352,-1459.993596,6983.176706,10146.440285,7984.154878,-20164.112170,13659.352202,9555.795438,7892.691540,-5199.887478,32830.823401,2711.333658,27297.716117,7416.331162,-216.671997,-779.824036,-577.304016,-280.000000,-1120.000000,1400.000000
7843.629461,11103.720797,839.151542,-1422.152093,7055.082268,10153.011698,8005.456091,-20123.879030,13697.104299,9618.469729,7897.228944,-5155.832190,32850.761157,2727.225748,27324.985245,7466.756698,-218.136002,-781.776001,-578.280029,-140.000000,-1260.000000,980.000000
7910.260011,11289.284979,966.780003,-1298.770463,7224.977878,10184.661768,8100.741577,-20002.129078,13771.848532,9714.582230,7915.266802,-5043.648785,32898.660946,2754.539580,27423.198810,7598.676693,-219.112000,-783.728027,-578.280029,-420.000000,-1260.000000,700.000000
7932.924680,11411.772539,1034.438733,-1214.169111,7316.083588,10206.611181,8174.211761,-19919.204106,13808.550097,9742.477207,7925.347438,-4970.826801,32924.924245,2760.418088,27493.316232,7685.602627,-217.160004,-784.703979,-576.328003,-280.000000,-1540.000000,420.000000
7882.722662,11342.795055,966.802355,-1253.843457,7230.208186,10196.172916,8152.552921,-19962.700601,13767.847570,9667.598864,7917.345514,-5010.903479,32902.348984,2738.736896,27472.730276,7645.168322,-217.160004,-784.216003,-579.255981,-280.000000,-1820.000000,280.000000
7842.623632,11240.938156,900.216508,-1319.222309,7139.370696,10178.045652,8101.814461,-20027.654770,13719.679561,9614.245250,7907.086063,-5069.062718,32875.348076,2725.974050,27425.076357,7574.000367,-217.160004,-785.192017,-577.304016,-280.000000,-1400.000000,0.000000
7832.811216,11184.075318,866.890057,-1356.415612,7094.868373,10169.619044,8070.946702,-20066.636213,13700.971151,9592.340540,7904.292095,-5100.869250,32863.188727,2722.174254,27392.465161,7521.205547,-217.160004,-783.728027,-578.768005,-560.000000,-1680.000000,-280.000000
7815.354504,11115.388407,822.097161,-1405.723561,7037.737314,10158.487875,8030.825321,-20112.077309,13677.859447,9563.842066,7899.307656,-5143.762248,32847.877782,2713.546480,27350.130957,7458.620663,-218.136002,-785.679993,-576.815979,-420.000000,-1400.000000,-420.000000
7801.675236,11045.829778,782.333408,-1457.937236,6984.204886,10144.763904,7987.574695,-20160.446484,13657.876987,9543.993717,7893.786775,-5183.458946,32832.075099,2706.617440,27308.221437,7408.128072,-216.184006,-786.168030,-579.255981,-420.000000,-1400.000000,-700.000000
7824.026981,11062.861808,809.066094,-1448.281282,7014.491500,10145.702677,7990.167497,-20153.271574,13675.043127,9578.527162,7894.658493,-5169.802030,32838.713567,2717.659201,27315.016367,7427.797607,-218.136002,-785.192017,-580.720032,-140.000000,-1540.000000,-700.000000
7885.941313,11220.106330,924.803427,-1345.932644,7168.137392,10169.797858,8071.058461,-20051.660544,13739.304392,9674.907884,7904.537964,-5076.304683,32875.281021,2744.503646,27395.035612,7544.853693,-214.232010,-784.216003,-580.231995,-140.000000,-1120.000000,-840.000000
7932.120017,11384.436355,1020.558300,-1237.169056,7304.952419,10197.737539,8164.756973,-19945.132130,13799.609399,9734.743504,7917.256107,-4979.186354,32909.903873,2759.456963,27486.789523,7659.920473,-216.184006,-782.264038,-578.768005,280.000000,-980.000000,-980.000000
7908.069540,11386.224495,994.138538,-1232.385782,7279.180858,10201.514983,8179.866753,-19944.059246,13790.758108,9692.968094,7919.848909,-4979.611037,32904.070068,2746.336489,27500.379384,7666.223665,-217.160004,-786.168030,-579.255981,560.000000,-700.000000,-980.000000
7861.644967,11278.086755,916.935613,-1302.771426,7170.461973,10181.532524,8126.490787,-20016.031863,13742.545395,9627.231613,7913.702180,-5043.246453,32874.163434,2729.237405,27447.562211,7590.294789,-213.744003,-781.776001,-580.231995,980.000000,-280.000000,-1120.000000
7843.137722,11204.325998,877.328322,-1351.967615,7106.983019,10168.009718,8085.587094,-20062.635250,13715.186860,9599.873078,7907.734264,-5088.285218,32856.505556,2719.939079,27404.669214,7525.117102,-212.279999,-787.632019,-580.720032,1400.000000,-140.000000,-1260.000000
7825.032809,11141.204672,842.392545,-1391.530203,7056.892759,10158.957262,8049.891359,-20101.057899,13691.136383,9574.414441,7899.352360,-5128.741876,32841.552239,2711.356009,27368.057056,7466.332014,-213.255997,-792.512024,-585.600037,1960.000000,840.000000,-1680.000000
7804.648018,11065.208741,800.371265,-1439.765267,6997.437119,10147.535520,8004.249096,-20149.985868,13663.911958,9545.446580,7894.949066,-5173.400661,32825.570741,2704.829300,27327.443937,7410.698522,-215.208008,-781.776001,-582.671997,3360.000000,1540.000000,-2240.000000
7810.101844,11040.867691,795.520937,-1457.780773,6987.512945,10143.735724,7983.998416,-20167.822560,13660.715659,9558.120019,7895.127880,-5185.828231,32825.548390,2710.283126,27313.004710,7400.953162,-213.744003,-774.944031,-580.720032,4340.000000,280.000000,-1400.000000
7863.656624,11155.487437,884.324418,-1384.221182,7101.305676,10161.907692,8038.782542,-20095.916998,13715.231563,9639.010982,7904.113281,-5118.147149,32854.359788,2732.456056,27369.442865,7489.466070,-215.695999,-775.432007,-577.304016,2100.000000,-700.000000,-420.000000
7922.821691,11340.515177,1001.984000,-1259.543152,7261.433573,10193.960094,8141.824084,-19974.435267,13787.740622,9722.762969,7917.591383,-5009.472967,32895.308184,2755.858333,27468.662258,7624.157682,-213.255997,-775.919983,-576.815979,420.000000,-1260.000000,280.000000
7924.296907,11410.230268,1022.324088,-1209.318782,7297.866916,10206.007684,8191.310846,-19926.848403,13805.890239,9719.723132,7922.441712,-4971.050319,32906.528760,2751.455039,27515.287997,7674.806735,-212.279999,-777.872009,-581.208008,-1120.000000,-1540.000000,700.000000
7866.383537,11309.066273,936.046354,-1273.803565,7189.952694,10187.411033,8145.936805,-19989.902674,13752.491921,9637.066381,7911.243488,-5033.434037,32876.532719,2728.589204,27472.707924,7608.220888,-209.839996,-781.776001,-578.280029,-1960.000000,-700.000000,560.000000
7838.555615,11225.068417,883.273886,-1326.866606,7122.740999,10171.943625,8100.383949,-20043.882137,13715.879764,9599.314284,7903.934467,-5083.837221,32855.052692,2720.721390,27425.925723,7544.361954,-209.352005,-782.264038,-582.671997,-2380.000000,140.000000,420.000000
7834.867577,11174.329957,854.976577,-1359.298987,7082.373748,10165.796896,8069.337376,-20083.332966,13704.189802,9583.489249,7903.040398,-5113.542690,32846.044939,2719.514396,27393.359231,7493.869364,-211.304001,-780.799988,-583.648010,-2380.000000,280.000000,700.000000
7816.248574,11096.255314,811.055399,-1411.691476,7019.475939,10153.235215,8021.325829,-20137.848870,13677.568874,9555.840141,7900.380540,-5158.223827,32830.778698,2710.730161,27344.565373,7430.770389,-211.792007,-780.799988,-584.135986,-2240.000000,420.000000,700.000000
7813.074626,11052.110619,793.576335,-1441.218131,6991.133927,10146.507340,7991.553306,-20169.074258,13668.829342,9553.984946,7898.950028,-5178.161583,32826.174238,2711.668934,27319.173791,7402.249563,-211.792007,-781.288025,-583.648010,-2380.000000,280.000000,840.000000
7837.549786,11107.520593,846.594673,-1403.197813,7060.290225,10155.783314,8016.967239,-20125.823632,13690.219961,9602.063549,7898.592400,-5140.811818,32843.765061,2726.488140,27348.454577,7454.664404,-209.839996,-782.264038,-585.112000,-2380.000000,280.000000,980.000000
7888.064729,11278.489086,962.980206,-1290.790891,7220.798102,10183.253608,8106.933010,-20008.722843,13749.206215,9686.106108,7910.371770,-5041.592424,32883.528815,2749.331623,27438.018017,7583.611618,-212.279999,-782.264038,-585.600037,-2520.000000,140.000000,1120.000000
7911.310543,11400.797832,1025.520387,-1210.436369,7314.071931,10203.303123,8177.698633,-19928.524784,13787.382995,9718.091454,7917.725494,-4971.273836,32906.573463,2754.025490,27505.944968,7670.135220,-210.328003,-779.824036,-582.671997,-2660.000000,280.000000,1120.000000
7881.649778,11348.405343,967.674073,-1245.260387,7237.785427,10194.541239,8156.442124,-19969.495531,13763.913663,9657.205302,7915.512671,-5004.779101,32889.899062,2734.043030,27485.448418,7633.187787,-210.816010,-781.288025,-585.600037,-2800.000000,420.000000,1260.000000
7856.727583,11258.596034,905.491520,-1305.118359,7152.468819,10179.453812,8110.174013,-20029.107634,13727.860299,9610.691322,7908.136595,-5059.563227,32866.161509,2725.996402,27438.308589,7567.987748,-208.863998,-782.264038,-580.231995,-3080.000000,280.000000,1260.000000
7844.992917,11197.911048,869.169935,-1346.044403,7103.809071,10169.931968,8078.389833,-20067.642041,13706.067348,9590.373586,7900.402892,-5098.052931,32850.895268,2721.056667,27403.104592,7515.595259,-209.839996,-782.752014,-585.600037,-3220.000000,0.000000,1400.000000
7835.247557,11134.990887,831.395487,-1391.485499,7051.796562,10159.270186,8040.682440,-20114.692463,13691.359900,9571.307548,7899.732339,-5136.922614,32839.808803,2713.568832,27362.491472,7457.681889,-211.792007,-783.728027,-583.160034,-3080.000000,-140.000000,1400.000000
7821.814158,11066.862770,794.068074,-1438.737087,7002.555669,10146.954375,7999.868155,-20161.631127,13670.639833,9548.307603,7894.278514,-5176.596961,32827.716509,2708.785559,27323.621788,7410.162081,-215.208008,-784.216003,-582.184021,-3220.000000,0.000000,1260.000000
7837.728600,11076.652834,815.481045,-1435.183160,7027.947250,10145.233291,7997.431814,-20156.400818,13680.251083,9576.068470,7892.959761,-5167.075117,32832.790355,2718.597975,27326.192239,7426.501206,-209.839996,-784.703979,-582.671997,-3500.000000,-140.000000,1260.000000
7897.631275,11232.198624,927.396229,-1334.175627,7176.385185,10168.680271,8075.171182,-20054.655678,13744.557052,9673.186800,7905.320275,-5074.628302,32871.570631,2744.302481,27404.110420,7544.339603,-212.768005,-785.192017,-583.648010,-3220.000000,280.000000,1400.000000
7936.724476,11390.404271,1020.334783,-1227.736619,7307.232297,10196.083509,8164.265235,-19950.049514,13797.262466,9731.368390,7916.183223,-4985.601304,32903.354812,2756.908865,27487.862407,7656.545360,-211.792007,-784.703979,-587.064026,-3360.000000,280.000000,1540.000000
7910.639991,11388.169096,995.524346,-1225.188521,7282.578323,10198.184573,8175.284645,-19952.999944,13783.314977,9688.408338,7916.406741,-4987.545906,32898.213911,2741.732030,27494.925558,7659.965177,-212.279999,-786.168030,-583.648010,-3500.000000,0.000000,1260.000000
7856.504066,11274.286958,910.006572,-1299.776292,7170.014938,10177.665672,8118.466511,-20028.817061,13729.536680,9618.670895,7907.398988,-5054.824657,32867.815538,2720.944908,27438.576810,7583.455155,-213.744003,-785.679993,-584.135986,-3220.000000,0.000000,1400.000000
7839.449685,11206.784690,872.567400,-1343.675118,7111.609830,10167.003890,8081.899057,-20073.140570,13705.083871,9593.011092,7903.196860,-5094.387245,32851.766986,2715.580489,27400.735307,7526.882890,-215.208008,-785.679993,-582.671997,-3360.000000,0.000000,1400.000000
7833.794693,11149.027783,844.359499,-1382.388339,7067.018100,10158.778448,8048.326736,-20109.730376,13691.695177,9576.113173,7903.599191,-5124.897376,32841.932218,2712.585355,27367.051228,7472.366985,-213.255997,-785.192017,-580.720032,-3080.000000,0.000000,1540.000000
7820.182481,11075.602302,804.126359,-1430.824570,7006.936611,10147.021430,8001.276314,-20161.206443,13670.595130,9551.526255,7900.291133,-5163.968225,32826.464811,2706.393922,27325.588742,7413.045456,-215.208008,-786.656006,-582.671997,-2940.000000,-140.000000,1540.000000
7825.591603,11055.798656,804.126359,-1446.247273,6998.040616,10143.758076,7981.115041,-20176.897368,13669.902226,9561.249263,7897.161889,-5171.836039,32825.481334,2711.177195,27313.719966,7404.283572,-215.695999,-783.239990,-584.135986,-2800.000000,-140.000000,1540.000000
7868.328138,11158.862550,889.107691,-1376.286313,7109.486414,10160.320718,8033.328716,-20106.154097,13711.409415,9631.724314,7900.469947,-5110.100521,32851.007027,2735.160617,27371.298059,7489.086090,-217.160004,-785.192017,-584.624023,-2800.000000,0.000000,1820.000000
7919.893613,11335.039000,1000.888765,-1256.145687,7268.206152,10190.406166,8133.598642,-19986.281691,13775.022480,9708.994294,7909.030665,-5009.562374,32889.094399,2756.752402,27468.237575,7619.732037,-214.720001,-784.703979,-585.112000,-2660.000000,140.000000,1960.000000
7925.861529,11410.744358,1028.314355,-1202.747369,7311.926164,10207.661713,8184.940599,-19932.458691,13796.815431,9713.799919,7915.915002,-4966.468211,32901.007879,2754.718394,27516.249122,7674.314997,-213.744003,-785.679993,-580.231995,-2380.000000,140.000000,1960.000000
7878.967569,11317.157604,944.271796,-1263.432355,7205.733026,10191.657864,8141.198235,-19995.490610,13755.956442,9644.889491,7911.243488,-5021.922889,32874.006972,2733.573643,27475.948927,7609.740807,-215.695999,-785.192017,-582.184021,-2240.000000,-140.000000,1960.000000
7852.748973,11232.422141,885.598467,-1321.301022,7132.352249,10174.201152,8093.924295,-20050.565308,13722.428825,9608.523203,7904.761482,-5073.711881,32853.353960,2723.761228,27428.674987,7544.920748,-214.720001,-784.703979,-584.135986,-1960.000000,140.000000,2380.000000
7845.059972,11177.459202,852.473182,-1357.868476,7091.962646,10164.545198,8062.408335,-20088.451515,13708.414281,9589.613627,7903.576839,-5105.339599,32843.206268,2719.335582,27394.253301,7492.841183,-212.768005,-784.216003,-583.648010,-1960.000000,0.000000,2380.000000
7832.632402,11108.146442,812.441207,-1404.695380,7036.977355,10154.866893,8020.096483,-20134.764330,13690.957569,9565.183170,7904.314447,-5143.561082,32832.857410,2713.971164,27354.310734,7433.609060,-212.768005,-779.824036,-584.135986,-1680.000000,-140.000000,2380.000000
7827.424446,11061.274834,792.726969,-1437.641852,7005.394340,10150.597709,7988.938151,-20164.715667,13681.078098,9559.148199,7902.548659,-5166.829248,32826.487163,2715.424027,27326.818088,7404.820014,-214.232010,-781.776001,-583.648010,-1680.000000,-280.000000,2660.000000
7852.346641,11118.383541,845.521789,-1402.661372,7071.779021,10160.298367,8012.563945,-20128.125862,13706.290866,9606.086863,7906.728435,-5131.200568,32843.452137,2731.450228,27350.533289,7454.954976,-212.768005,-780.312012,-586.088013,-1820.000000,-420.000000,2660.000000
7910.416473,11295.141136,966.914113,-1287.192260,7235.997288,10189.802669,8106.955362,-20013.707282,13772.206160,9699.785376,7922.039380,-5024.873319,32888.557957,2758.026452,27443.807118,7585.019777,-211.304001,-782.264038,-580.720032,-1960.000000,-280.000000,2520.000000
7948.369735,11432.492606,1040.384297,-1192.823195,7339.441161,10215.663638,8190.930866,-19927.049569,13823.034027,9739.973812,7931.829444,-4943.445914,32916.542341,2771.258685,27525.368634,7680.752299,-212.768005,-781.288025,-585.112000,-2100.000000,-840.000000,2660.000000
7911.914040,11380.882428,979.252276,-1223.333326,7269.234332,10210.142757,8174.994072,-19961.605365,13794.826125,9671.733936,7926.465026,-4975.878295,32896.805751,2752.974958,27508.202494,7645.995336,-210.816010,-782.264038,-582.671997,-2100.000000,-980.000000,2800.000000
7880.196915,11282.512400,914.208700,-1289.159213,7179.089746,10191.635512,8122.378066,-20024.257305,13757.968099,9629.422084,7919.200709,-5033.814017,32871.637687,2741.016774,27457.262869,7575.676748,-209.839996,-784.216003,-582.671997,-2240.000000,-1260.000000,2660.000000
7864.505990,11217.737045,880.010531,-1333.572129,7125.579670,10181.957207,8086.101185,-20064.691611,13733.247070,9610.154880,7914.328028,-5075.880000,32855.589134,2735.071210,27420.136621,7519.685628,-212.768005,-783.239990,-584.135986,-2520.000000,-1260.000000,2660.000000
7843.651813,11144.356268,835.865836,-1382.790671,7066.012271,10171.161314,8044.817513,-20111.183239,13705.106223,9578.549514,7907.555450,-5124.360934,32839.652340,2725.169387,27377.958879,7457.570131,-211.304001,-784.216003,-580.231995,-2660.000000,-1400.000000,2660.000000
7826.373914,11072.987148,796.951449,-1429.774038,7011.921050,10158.286710,8000.538707,-20157.630164,13680.921636,9555.840141,7901.520479,-5169.757327,32826.129535,2720.386114,27338.373940,7407.882203,-209.839996,-784.216003,-583.648010,-2660.000000,-1260.000000,2660.000000
7849.306804,11090.041529,824.131170,-1418.776979,7040.710096,10159.985442,8000.985742,-20149.002391,13697.394871,9588.764261,7904.940296,-5158.469696,32836.903076,2733.618347,27344.855946,7428.356401,-210.816010,-783.728027,-579.744019,-2800.000000,-1400.000000,2940.000000
7913.478662,11246.794313,938.303880,-1315.802493,7192.165517,10184.997044,8079.775641,-20048.888928,13761.320861,9682.261608,7916.719665,-5067.051061,32877.002105,2759.747536,27424.450508,7544.876044,-210.328003,-785.679993,-580.720032,-3220.000000,-1120.000000,2800.000000
7956.885750,11412.934829,1037.389164,-1204.244936,7332.333306,10212.690856,8175.508162,-19937.912516,13817.267277,9742.544263,7929.102532,-4975.140688,32912.653138,2773.270342,27517.657282,7662.915607,-210.328003,-786.656006,-580.231995,-3080.000000,-1120.000000,2800.000000
7934.891633,11428.245774,1020.468893,-1190.364503,7317.357638,10215.730693,8197.792852,-19925.954333,13812.104024,9704.255724,7930.913023,-4971.877333,32909.300376,2760.753365,27537.080948,7675.767860,-210.816010,-788.119995,-580.231995,-3220.000000,-980.000000,2940.000000
7883.192048,11317.895212,933.542959,-1266.047509,7200.636828,10193.803632,8140.527682,-19997.703433,13759.800942,9632.305459,7921.167662,-5041.368907,32876.242146,2739.988594,27477.379439,7596.329760,-210.328003,-787.632019,-579.255981,-3220.000000,-840.000000,3080.000000
7864.617749,11245.564967,886.447833,-1316.674211,7134.855644,10180.638454,8099.221659,-20043.770378,13729.402569,9605.215145,7916.227927,-5085.737119,32858.137233,2731.629042,27430.619589,7533.744876,-209.352005,-787.632019,-580.720032,-3360.000000,-700.000000,3220.000000
7850.849074,11183.874152,850.282711,-1358.226104,7083.468984,10171.988329,8064.531751,-20084.919940,13707.900191,9582.930456,7913.232793,-5123.511568,32845.687311,2725.102332,27392.263996,7476.524410,-209.352005,-787.632019,-577.791992,-2800.000000,-420.000000,3360.000000
7833.638231,11110.247506,808.037914,-1407.645811,7028.081361,10160.745401,8020.208242,-20134.719626,13684.944950,9555.616624,7909.187127,-5166.158696,32832.611541,2719.626155,27350.399178,7417.024066,-210.816010,-787.143982,-582.184021,-2940.000000,-140.000000,3500.000000
7834.487597,11082.710157,805.735684,-1426.711849,7019.095960,10154.777486,7998.705864,-20150.924641,13682.240389,9562.769182,7906.348456,-5177.915714,32830.443422,2725.012925,27333.881239,7404.663551,-211.304001,-784.216003,-580.720032,-2660.000000,280.000000,3640.000000
7881.962703,11183.538876,888.951229,-1365.199848,7121.444597,10168.009718,8040.168350,-20087.110411,13731.257764,9638.295727,7910.170604,-5115.666105,32857.533736,2745.956510,27375.813112,7482.447622,-212.768005,-787.143982,-579.255981,-2660.000000,700.000000,3920.000000
7943.184131,11366.666718,1010.835291,-1242.019384,7284.098242,10199.346864,8139.968889,-19967.953261,13804.169155,9727.613297,7923.827520,-5005.583764,32901.767838,2766.900094,27471.567985,7613.786473,-214.232010,-786.656006,-581.208008,-2520.000000,980.000000,3920.000000
7943.854683,11446.127170,1042.015975,-1181.893192,7333.607356,10216.892984,8196.518802,-19912.677397,13822.654047,9727.903870,7929.236642,-4961.729641,32914.374222,2765.536638,27527.313236,7673.510334,-209.839996,-785.192017,-583.648010,-2940.000000,1120.000000,3920.000000
7886.321293,11349.947613,957.794602,-1238.934843,7229.381171,10200.844431,8157.403249,-19974.211749,13771.870884,9650.410372,7921.748808,-5020.067694,32884.467588,2743.140190,27489.851712,7612.847699,-211.792007,-784.703979,-581.695984,-2660.000000,1540.000000,4200.000000
7860.035641,11267.559083,900.574136,-1294.076597,7156.469781,10186.002873,8114.666714,-20026.827756,13734.766988,9615.251078,7914.842119,-5069.688567,32862.696989,2734.132437,27444.611781,7549.145228,-213.744003,-783.728027,-584.624023,-2800.000000,1540.000000,4340.000000
7847.138685,11206.985856,865.906580,-1340.925853,7102.244449,10176.369271,8076.691100,-20068.424352,13711.588229,9591.781746,7910.528232,-5110.256983,32847.810727,2727.672783,27400.556493,7491.053044,-214.720001,-783.728027,-585.112000,-2660.000000,1960.000000,4200.000000
7825.658658,11129.715875,818.990269,-1398.347485,7032.842282,10162.980576,8026.578489,-20123.968437,13684.006176,9558.008260,7904.448557,-5158.670862,32829.839925,2717.234518,27350.130957,7425.093046,-214.720001,-782.264038,-584.624023,-2800.000000,1960.000000,4340.000000
7820.540109,11079.066822,794.582164,-1433.976166,6997.392416,10155.626852,7991.039215,-20159.910042,13672.070345,9550.922757,7902.191031,-5183.794222,32822.553256,2716.608669,27321.543076,7392.146575,-214.720001,-781.776001,-586.575989,-2520.000000,2240.000000,4200.000000
7850.625557,11127.033666,837.832789,-1406.215299,7058.345623,10160.655994,8007.937134,-20128.639952,13697.014892,9598.755491,7901.922810,-5149.864274,32836.679558,2730.064420,27344.185393,7436.000697,-216.671997,-780.799988,-585.112000,-2800.000000,2100.000000,4200.000000
7915.311505,11306.965209,960.789735,-1286.365245,7226.140168,10190.920256,8104.608429,-20010.332168,13767.556997,9693.415128,7912.539889,-5042.352383,32878.410265,2756.394774,27439.515583,7567.518362,-214.720001,-778.848022,-585.600037,-2660.000000,2100.000000,4060.000000
7939.205520,11441.165083,1032.315318,-1193.381988,7329.338173,10213.830795,8187.332235,-19922.266295,13810.159422,9728.887347,7924.989811,-4968.278702,32906.081725,2764.329644,27517.903151,7663.027366,-215.695999,-779.824036,-584.624023,-2660.000000,1960.000000,4060.000000
7890.635179,11390.918361,974.558410,-1221.165207,7260.204227,10206.387664,8176.826915,-19956.330354,13774.553093,9659.239311,7923.402837,-5003.996790,32890.569614,2746.560007,27509.923578,7635.355906,-215.208008,-780.799988,-589.504028,-2520.000000,2100.000000,3780.000000
7856.884045,11294.738805,908.911337,-1282.923077,7166.975101,10188.863896,8125.842586,-20024.637285,13736.175148,9611.786558,7912.159909,-5061.306663,32865.915640,2734.579472,27461.979087,7562.578626,-217.160004,-779.824036,-588.039978,-2240.000000,2380.000000,3500.000000
7848.613900,11229.784635,870.935723,-1326.061943,7111.632182,10177.844486,8087.174068,-20070.883044,13714.784529,9590.775918,7907.041360,-5101.204527,32850.045902,2725.571719,27420.114269,7504.799367,-214.720001,-778.359985,-585.600037,-2380.000000,2100.000000,3360.000000
7838.689725,11156.783838,825.606385,-1374.341711,7051.528341,10167.562684,8045.152789,-20117.508783,13692.857467,9566.457220,7904.984999,-5146.243292,32837.730090,2716.809835,27374.024972,7446.885997,-216.671997,-778.848022,-590.968018,-2100.000000,2380.000000,3220.000000
7831.380705,11095.048320,798.136091,-1417.681744,7004.388512,10158.890207,8005.925477,-20158.077199,13678.686461,9555.013127,7903.956819,-5181.737862,32827.872971,2714.820530,27336.295228,7403.188336,-218.624008,-780.312012,-587.064026,-1960.000000,2100.000000,2800.000000
7841.684859,11103.318465,817.135074,-1418.598165,7025.086227,10159.471352,8003.802062,-20153.986830,13687.962435,9579.421232,7906.236697,-5175.702891,32831.203381,2722.621289,27337.591629,7419.527461,-215.208008,-786.168030,-585.600037,-1400.000000,2520.000000,2380.000000
7888.020025,11242.882758,921.204796,-1326.508978,7165.052851,10180.772565,8077.719280,-20060.243614,13739.907889,9661.519189,7915.311505,-5094.163727,32864.730998,2748.549312,27410.212446,7529.274527,-218.624008,-787.143982,-594.872009,1120.000000,3780.000000,980.000000
7935.875110,11408.620943,1025.520387,-1213.409151,7309.087492,10211.014475,8174.569389,-19947.277897,13801.442242,9729.915527,7927.895537,-4997.000694,32902.728963,2766.788336,27501.139343,7651.024479,-223.016006,-769.575989,-587.064026,3780.000000,4200.000000,560.000000
7924.431017,11432.492606,1014.523329,-1194.231355,7304.393626,10220.737484,8198.910439,-19930.961124,13803.744472,9702.691102,7928.431979,-4984.528421,32904.874731,2758.406431,27523.669901,7668.615302,-217.160004,-767.624023,-583.648010,2940.000000,840.000000,1820.000000
7881.292150,11326.567689,932.470075,-1265.935751,7191.472613,10202.923143,8143.723982,-20002.732575,13757.923395,9637.401657,7919.625392,-5048.141485,32876.040980,2737.820475,27471.098598,7593.088757,-222.528000,-772.504028,-584.135986,700.000000,840.000000,2380.000000
7862.516685,11253.119856,890.962886,-1315.266051,7126.361981,10189.199172,8102.686179,-20048.330134,13729.782549,9610.780729,7911.802281,-5091.973256,32857.712550,2728.969184,27429.591409,7534.571890,-220.087997,-774.944031,-585.600037,-560.000000,0.000000,2380.000000
7847.898644,11187.696300,855.535371,-1358.740194,7074.081251,10178.090355,8062.006004,-20091.401946,13705.843831,9585.724424,7908.471871,-5129.837111,32842.312198,2721.771922,27385.759638,7475.742099,-217.160004,-780.312012,-585.600037,-1120.000000,560.000000,2240.000000
7829.100827,11105.665398,808.909632,-1413.747837,7008.612991,10164.880474,8011.826338,-20143.146234,13677.881798,9557.740040,7906.057883,-5176.708719,32825.973073,2714.574661,27335.378806,7413.716008,-218.136002,-778.359985,-583.160034,-420.000000,1120.000000,1540.000000
7830.061952,11074.194142,801.175928,-1432.970337,6998.174727,10159.828980,7991.977989,-20158.591289,13673.389098,9562.746830,7903.442729,-5190.231525,32823.514381,2720.363762,27320.045509,7401.489604,-219.112000,-776.895996,-584.624023,420.000000,1120.000000,1540.000000
7876.039490,11174.039385,884.816156,-1365.333958,7105.910135,10176.704547,8042.850559,-20091.245483,13720.774796,9636.015849,7908.158947,-5126.305536,32850.828213,2741.352050,27374.315545,7480.100689,-223.016006,-773.479980,-584.624023,420.000000,140.000000,1820.000000
7936.612718,11360.229416,1007.482530,-1241.572349,7271.916541,10207.058216,8142.941671,-19967.416819,13792.725062,9723.701742,7919.915965,-5019.486549,32893.296527,2762.720318,27473.646697,7612.981810,-218.624008,-774.944031,-584.135986,-700.000000,-280.000000,2520.000000
7945.039325,11447.423571,1040.406649,-1178.160450,7326.633612,10221.765664,8201.480889,-19909.190525,13817.669608,9727.210966,7924.386313,-4972.234961,32905.522931,2761.133344,27528.944913,7676.326654,-222.528000,-776.408020,-585.600037,-1680.000000,-560.000000,2520.000000
7892.088043,11356.094343,957.124049,-1232.966928,7217.847671,10207.013512,8163.371165,-19970.210787,13770.753297,9648.823398,7917.032590,-5027.309659,32876.532719,2740.636795,27492.690384,7616.781606,-216.671997,-778.359985,-585.600037,-1960.000000,-420.000000,2660.000000
7864.863618,11269.838961,902.719903,-1287.706350,7137.739019,10192.462527,8119.204118,-20024.346712,13735.526947,9611.428930,7910.997619,-5080.797384,32854.784471,2732.299594,27450.020903,7552.877969,-218.136002,-774.455994,-588.039978,-1820.000000,0.000000,2660.000000
7854.470057,11206.494118,871.360406,-1325.659612,7088.028739,10184.885285,8085.475336,-20063.104637,13715.097453,9590.619456,7908.337761,-5118.303611,32843.005102,2728.678611,27415.599217,7501.826585,-220.087997,-778.848022,-586.088013,-1960.000000,140.000000,2660.000000
7832.990030,11127.279535,825.964013,-1376.465127,7028.416637,10172.345957,8043.141132,-20111.093832,13685.302578,9556.533045,7901.140499,-5163.945873,32826.308349,2721.906033,27372.080370,7442.482703,-219.112000,-775.919983,-588.528015,-1400.000000,140.000000,2800.000000
7823.602298,11071.176657,801.175928,-1414.977183,6990.865706,10160.119553,8008.093596,-20143.861490,13669.186970,9546.899443,7895.351397,-5191.840850,32817.904093,2719.536748,27338.016312,7406.786967,-221.063995,-777.872009,-587.064026,-980.000000,140.000000,2940.000000
7855.699403,11116.975381,846.259397,-1388.959752,7044.196969,10165.416916,8021.996382,-20113.977207,13698.713624,9597.548496,7900.425243,-5158.648510,32831.516305,2732.009021,27355.383617,7447.623604,-218.624008,-775.432007,-588.528015,-700.000000,-280.000000,3080.000000
7920.139482,11291.430746,964.142497,-1277.469251,7206.649447,10191.747271,8108.676447,-20001.056194,13770.373317,9695.426785,7914.126863,-5056.903369,32870.430692,2756.148905,27443.650656,7576.481411,-217.647995,-777.872009,-589.015991,-420.000000,-280.000000,3220.000000
7954.918796,11431.397370,1039.311414,-1182.854317,7313.915469,10216.334190,8189.343892,-19910.799850,13820.932963,9739.258556,7926.755598,-4977.487621,32901.298452,2767.436536,27523.692253,7676.550171,-219.112000,-776.895996,-586.575989,-420.000000,-280.000000,3220.000000
7918.373694,11390.292512,985.220192,-1207.530642,7245.697945,10211.237992,8175.172886,-19940.505319,13794.937884,9677.523038,7924.609831,-5005.024970,32886.523948,2749.443382,27509.163619,7649.973947,-219.600006,-778.848022,-587.552002,-560.000000,-420.000000,3080.000000
7880.509839,11289.776717,914.163996,-1276.686940,7145.584481,10191.479050,8118.131234,-20008.275808,13751.664907,9623.565927,7917.725494,-5064.748831,32860.774739,2732.903091,27451.429063,7575.855562,-216.671997,-777.872009,-588.039978,-560.000000,-280.000000,3220.000000
7864.282473,11224.710789,876.322493,-1320.809283,7089.079271,10181.532524,8080.490897,-20048.307782,13729.246107,9598.084938,7912.070502,-5103.909088,32845.620256,2726.063457,27408.245493,7519.037428,-218.136002,-778.848022,-589.504028,-420.000000,-280.000000,3220.000000
7846.557539,11161.321242,837.721030,-1360.707147,7038.743143,10171.317777,8046.516245,-20088.540922,13704.703892,9571.329900,7905.007351,-5145.885664,32829.102317,2720.475521,27373.242661,7463.672157,-219.600006,-777.872009,-589.992004,-140.000000,-420.000000,3080.000000
7832.542996,11099.384558,805.445111,-1400.672066,6993.726730,10158.465524,8010.708751,-20132.171527,13684.319101,9553.224987,7899.754691,-5181.179068,32816.361823,2718.955603,27340.631466,7418.007543,-219.112000,-779.824036,-587.552002,-280.000000,-280.000000,2800.000000
7842.288356,11102.871430,823.617080,-1401.320267,7012.189271,10158.353765,8005.679608,-20131.903306,13690.532886,9575.733194,7898.614752,-5175.792298,32821.949759,2727.225748,27339.871507,7430.613927,-219.600006,-779.824036,-585.600037,-140.000000,-420.000000,2800.000000
7896.290171,11245.117932,928.513816,-1312.785007,7152.088839,10180.705509,8075.528809,-20041.356390,13745.071142,9662.122686,7907.175470,-5091.325056,32858.248992,2751.991481,27410.927702,7536.740009,-220.087997,-776.895996,-586.088013,140.000000,-280.000000,2520.000000
7945.106381,11416.622867,1032.360021,-1198.075855,7298.805690,10212.579097,8172.714194,-19929.150633,13806.985474,9731.077818,7921.569994,-4991.122185,32897.632765,2770.498725,27504.514456,7658.132334,-218.624008,-776.895996,-586.575989,0.000000,-420.000000,2240.000000
7927.806130,11439.913385,1021.139445,-1178.987465,7296.414053,10219.463434,8196.027064,-19911.313940,13805.510259,9703.763986,7924.051037,-4979.052243,32896.157550,2760.351033,27524.608675,7674.896142,-218.624008,-779.335999,-586.088013,0.000000,-560.000000,2100.000000
7878.408775,11328.713456,932.157151,-1256.190390,7180.252037,10196.262323,8135.632650,-19984.515904,13754.458875,9632.663087,7914.864470,-5047.537988,32863.881631,2737.775771,27464.504834,7593.625199,-216.671997,-780.312012,-589.504028,0.000000,-560.000000,1960.000000
7861.689670,11257.746668,887.476014,-1305.386580,7115.409626,10180.861971,8091.979693,-20032.639209,13728.061465,9604.522241,7911.623467,-5092.196774,32847.520154,2726.734010,27420.360138,7529.900376,-217.160004,-781.288025,-588.528015,280.000000,-420.000000,1680.000000
7838.287394,11193.686568,851.109725,-1344.815057,7065.297015,10171.340128,8057.759173,-20072.447666,13698.445403,9573.967406,7908.673037,-5134.396867,32834.690253,2719.156768,27386.027859,7470.534142,-216.671997,-780.799988,-585.112000,420.000000,-280.000000,1260.000000
7819.154301,11117.645933,806.629754,-1394.413578,7003.539145,10158.957262,8015.201451,-20121.867373,13673.791429,9544.418400,7900.849927,-5178.519211,32817.457058,2715.692248,27347.649914,7411.525537,-222.528000,-777.872009,-589.015991,560.000000,-280.000000,1120.000000
7825.770417,11086.442898,797.309076,-1418.531110,6987.356482,10153.794009,7991.329788,-20138.385312,13673.858484,9549.961632,7894.434976,-5189.650379,32812.986709,2719.603803,27328.494469,7398.896801,-220.087997,-777.872009,-587.064026,560.000000,-980.000000,840.000000
7871.680900,11175.604007,872.142717,-1362.025900,7081.837306,10170.535466,8032.434646,-20076.336870,13718.740787,9621.196642,7898.346531,-5127.914861,32838.087718,2739.318042,27373.667344,7474.065718,-219.600006,-777.384033,-587.064026,700.000000,-1260.000000,840.000000
7932.678811,11357.770724,992.909192,-1241.505294,7244.848579,10204.107786,8132.123426,-19955.078656,13787.897085,9712.078835,7910.818805,-5017.944278,32880.332515,2762.697966,27471.836206,7608.265592,-219.112000,-775.919983,-587.552002,840.000000,-840.000000,840.000000
7941.060715,11450.753981,1033.477608,-1177.311084,7307.880498,10221.475091,8192.473136,-19895.243036,13811.388768,9721.935954,7921.301773,-4965.708252,32897.498655,2764.642568,27528.944913,7676.393709,-218.624008,-777.384033,-587.552002,560.000000,-560.000000,700.000000
7890.076386,11364.409192,954.620654,-1232.631651,7208.459939,10205.426539,8154.519874,-19958.364363,13766.305300,9646.945852,7916.116168,-5020.447674,32871.391817,2742.626100,27492.712735,7619.217946,-221.552002,-775.919983,-587.552002,700.000000,-420.000000,560.000000
7870.496258,11287.027453,903.077531,-1285.918210,7134.945051,10190.227352,8111.693932,-20017.395320,13740.243166,9613.485290,7914.439787,-5069.956788,32853.912753,2735.026507,27449.327999,7553.682632,-218.624008,-779.335999,-586.575989,420.000000,-280.000000,700.000000
7867.791697,11237.540691,872.992083,-1319.870510,7093.348455,10182.538352,8082.189629,-20054.678029,13728.195575,9600.029540,7915.333857,-5104.512585,32844.480317,2731.159655,27416.672101,7502.787710,-219.112000,-778.359985,-587.552002,420.000000,-280.000000,420.000000
7852.368993,11168.317338,829.562644,-1363.948150,7037.536149,10172.703585,8040.078943,-20101.460231,13705.374444,9572.603950,7912.539889,-5148.187893,32831.158677,2724.543539,27375.388429,7445.187264,-216.671997,-778.359985,-586.575989,700.000000,-280.000000,420.000000
7848.055106,11118.003561,805.646277,-1392.781900,7002.533317,10166.512152,8009.546460,-20133.602039,13695.405566,9564.937301,7910.438825,-5173.579475,32823.894361,2727.315155,27348.164004,7412.151386,-219.600006,-778.848022,-588.039978,420.000000,-140.000000,560.000000
7878.051147,11161.321242,854.484839,-1363.054080,7055.305786,10173.150620,8024.879757,-20105.572952,13725.669828,9616.413369,7915.602078,-5140.588300,32841.216962,2744.168370,27366.984173,7452.697450,-221.063995,-780.799988,-588.039978,420.000000,-140.000000,560.000000
7947.676831,11335.597794,981.286285,-1243.807524,7219.412293,10204.420710,8120.031133,-19990.260302,13801.509297,9715.208079,7930.465988,-5033.322279,32885.831044,2773.203286,27462.940212,7585.332702,-220.576004,-781.776001,-588.528015,560.000000,0.000000,560.000000
7985.026596,11483.566342,1063.585408,-1138.664918,7338.703554,10232.718019,8215.115454,-19891.733812,13856.919272,9762.370260,7944.279366,-4947.044545,32915.827085,2787.642513,27556.146986,7694.498622,-220.576004,-783.728027,-588.528015,280.000000,140.000000,560.000000
7951.767200,11450.530464,1011.818768,-1156.926293,7281.997178,10228.292373,8209.683980,-19916.566600,13838.434379,9705.328608,7942.379468,-4970.223304,32900.225568,2770.006987,27553.017742,7674.091479,-218.136002,-780.799988,-588.528015,280.000000,0.000000,700.000000
7917.569031,11352.786285,939.913206,-1225.054410,7182.911895,10208.578135,8153.871674,-19983.845351,13800.928152,9652.891416,7933.394066,-5032.115284,32873.157605,2753.913731,27498.948872,7598.743749,-216.184006,-780.799988,-586.575989,420.000000,0.000000,700.000000
7902.794528,11288.815592,903.144586,-1268.774422,7129.155949,10196.128213,8116.343095,-20026.648942,13778.084669,9627.678648,7926.040343,-5073.600122,32856.863184,2746.202379,27458.581621,7540.606861,-218.136002,-781.288025,-589.992004,280.000000,-140.000000,560.000000
7885.807203,11219.033446,863.202019,-1314.751961,7073.790678,10186.047576,8077.495763,-20074.258158,13751.441389,9599.716616,7922.128787,-5116.671934,32844.077986,2736.904053,27418.415537,7480.033634,-217.647995,-780.799988,-587.552002,420.000000,-280.000000,700.000000
7870.451554,11149.921852,827.461580,-1360.707147,7025.756779,10174.916407,8038.000231,-20116.927638,13728.195575,9579.130659,7915.937354,-5156.815667,32831.069270,2732.187835,27381.758676,7433.027915,-218.624008,-782.752014,-588.039978,280.000000,-560.000000,700.000000
7877.134726,11142.545777,837.676327,-1365.803345,7038.430219,10172.748288,8030.490044,-20118.604019,13731.660096,9594.486307,7911.601116,-5156.994481,32833.930294,2740.569739,27378.920004,7440.560453,-217.647995,-778.848022,-587.552002,280.000000,-420.000000,700.000000
7925.012162,11270.375403,934.101753,-1282.721911,7169.210275,10191.501402,8095.041882,-20033.108596,13781.459782,9673.857352,7915.691485,-5079.121003,32864.060445,2762.921484,27442.398958,7539.019887,-216.671997,-780.799988,-585.600037,280.000000,-840.000000,700.000000
7967.592236,11435.510091,1035.601024,-1171.611389,7311.300315,10216.892984,8188.159250,-19920.791080,13836.690943,9740.510254,7925.503901,-4984.640179,32897.230434,2777.874801,27532.498840,7658.668775,-216.671997,-779.335999,-587.064026,560.000000,-980.000000,700.000000
7950.716668,11463.360365,1030.974213,-1152.768869,7310.808576,10220.424559,8212.276782,-19900.518048,13834.120492,9716.973867,7929.638973,-4974.358377,32898.772704,2765.938969,27555.364675,7679.187677,-217.647995,-778.848022,-587.064026,560.000000,-840.000000,700.000000
7897.787738,11350.685221,940.293186,-1230.105904,7195.160651,10197.402262,8154.452819,-19973.854121,13779.202256,9642.631965,7918.351342,-5045.481628,32867.033227,2742.201417,27498.434782,7602.051807,-215.695999,-779.335999,-589.015991,560.000000,-1120.000000,560.000000
7875.704214,11274.063441,891.141700,-1285.940562,7126.943127,10181.465469,8108.274115,-20024.123195,13747.507482,9610.803081,7911.824633,-5092.666160,32847.184878,2731.785504,27448.009246,7541.120951,-215.695999,-780.312012,-587.552002,280.000000,-1260.000000,700.000000
7856.794638,11209.399844,853.389603,-1332.074563,7073.634216,10169.261416,8068.242141,-20064.132817,13718.249049,9582.572828,7903.420377,-5133.435742,32829.102317,2720.676687,27405.406821,7485.107480,-213.255997,-780.312012,-585.600037,140.000000,-1400.000000,420.000000
7826.530376,11124.150291,805.579222,-1386.054025,7008.903564,10155.336279,8021.124663,-20114.290132,13678.574703,9542.943185,7893.250333,-5185.962342,32807.331718,2711.803044,27363.832577,7425.987116,-214.232010,-782.264038,-583.648010,140.000000,-1540.000000,560.000000
7817.030885,11086.062918,794.895088,-1407.936383,6989.546953,10149.971861,7996.738910,-20135.658400,13666.393002,9540.909176,7891.529249,-5208.939935,32802.950776,2714.373495,27346.264106,7406.675208,-212.279999,-778.848022,-588.528015,0.000000,-1680.000000,560.000000
7863.746031,11176.542780,870.242819,-1350.000662,7085.435937,10165.059288,8035.362725,-20077.275643,13713.085796,9616.011037,7896.938371,-5154.468734,32827.649454,2732.813684,27387.815999,7476.792631,-213.744003,-778.848022,-584.135986,0.000000,-1680.000000,560.000000
7932.544700,11361.369355,992.640971,-1228.831855,7249.497741,10196.351730,8130.961136,-19956.732685,13791.048681,9706.490899,7910.416473,-5046.219235,32870.497748,2755.366594,27480.866311,7607.863260,-212.768005,-781.776001,-585.112000,-420.000000,-1820.000000,560.000000
7955.499942,11463.628586,1040.138428,-1158.177991,7315.994181,10216.445949,8195.848250,-19888.872789,13826.744417,9723.142949,7921.055904,-4987.814127,32890.502559,2758.965225,27542.266553,7676.952502,-211.792007,-781.288025,-585.112000,-560.000000,-1540.000000,560.000000
7911.042322,11382.402346,962.600227,-1210.615183,7215.165462,10202.543164,8160.733659,-19944.729798,13787.718271,9652.377326,7915.177395,-5038.172607,32865.267440,2735.361783,27509.342433,7620.648458,-212.279999,-785.192017,-586.088013,-700.000000,-1540.000000,560.000000
7881.470964,11297.845697,904.999781,-1267.388614,7136.912005,10185.958169,8116.007819,-19998.977482,13750.010878,9617.329790,7909.969438,-5087.704073,32844.100338,2726.555196,27463.364895,7557.415373,-212.768005,-783.728027,-587.552002,-560.000000,-1540.000000,560.000000
7867.568179,11236.311345,871.315702,-1307.040609,7090.152155,10178.224466,8081.452022,-20036.014323,13726.005104,9593.972217,7907.443691,-5122.818663,32833.080928,2721.727219,27425.501040,7502.944172,-215.208008,-783.728027,-587.064026,-420.000000,-1400.000000,560.000000
7848.680955,11159.734268,829.093257,-1357.399089,7032.261137,10168.792029,8037.553196,-20085.814009,13699.630046,9562.098630,7901.721645,-5166.449269,32819.960454,2714.820530,27381.982193,7441.588633,-210.328003,-783.239990,-582.671997,-140.000000,-1540.000000,700.000000
7839.673202,11103.027892,805.288649,-1394.123005,6997.392416,10159.896035,8001.969218,-20123.700216,13683.626197,9550.252205,7895.731377,-5197.451138,32812.293805,2714.082922,27352.187318,7406.630505,-213.255997,-781.776001,-584.624023,140.000000,-1260.000000,840.000000
7861.421449,11135.884957,842.593711,-1373.917028,7047.057992,10163.740535,8011.826338,-20101.192010,13700.971151,9589.770089,7896.536040,-5175.077042,32827.001253,2725.616422,27367.498263,7440.761619,-214.720001,-783.728027,-582.671997,560.000000,-1400.000000,840.000000
7925.459197,11307.993389,963.315483,-1261.264236,7209.242250,10192.753100,8100.249839,-19988.002776,13769.076916,9683.759175,7907.398988,-5072.773108,32867.413207,2752.684385,27453.284258,7564.947911,-213.255997,-783.239990,-585.112000,1120.000000,-1400.000000,1120.000000
7963.255997,11458.197112,1043.357079,-1161.262531,7324.331382,10218.926992,8187.734567,-19894.192504,13818.474271,9730.004934,7918.396046,-4987.054168,32895.486998,2767.123612,27535.181050,7668.347081,-213.744003,-782.752014,-584.624023,1400.000000,-1120.000000,1260.000000
7925.615659,11427.262298,992.953896,-1182.653151,7266.887399,10213.428463,8182.258389,-19917.661836,13788.299416,9670.929273,7915.222098,-5012.691619,32878.991411,2746.068269,27527.045015,7647.425848,-212.768005,-779.824036,-583.648010,1680.000000,-1120.000000,1400.000000
7881.828592,11322.454968,916.466226,-1253.754050,7163.979967,10192.127251,8126.379028,-19989.656805,13739.796131,9612.770034,7908.158947,-5079.880962,32851.789338,2725.527015,27471.076247,7569.597074,-213.255997,-782.264038,-585.112000,1680.000000,-980.000000,1680.000000
7871.144458,11261.948796,881.955133,-1293.406045,7111.475719,10180.705509,8094.036054,-20031.633381,13724.686351,9596.632075,7907.130767,-5119.085922,32839.428823,2719.670858,27436.073415,7513.918878,-212.279999,-780.799988,-584.135986,1540.000000,-840.000000,1820.000000
7857.733412,11201.219106,847.846371,-1335.717897,7063.821800,10169.999024,8059.010870,-20069.787809,13705.173278,9577.186057,7903.420377,-5157.821495,32826.911846,2714.909937,27399.796534,7459.291215,-214.720001,-778.848022,-584.624023,1260.000000,-560.000000,1960.000000
