9895.497250,10095.701825,1254.737527,-350.296539,7831.894795,8139.924185,8054.764039,-20772.638413,13576.784858,9793.394481,8883.723186,-5456.217284,32700.758600,2974.994835,27163.650353,6840.706687,-304.024017,-842.288025,-432.368011,5040.000000,-1540.000000,-980.000000
136269.913467,131840.848248,106932.220689,-82000.682592,-103972.134468,-166960.758503,-121663.204928,-104370.129629,-106895.362663,-180141.112821,-169943.218820,171514.457049,-48328.248957,-30655.618686,71804.062641,-186401.389408,-302.071991,-843.752014,-430.416016,4620.000000,-1680.000000,-840.000000
8845.747572,9811.924078,973.798451,-1154.959339,7507.928611,7810.951210,7701.472366,-20324.262419,13474.302110,9789.281760,8793.824469,-5667.284807,32661.106606,2686.076186,26974.398133,6401.472557,-290.847992,-810.567993,-505.080017,10220.000000,-4060.000000,2940.000000
8847.401601,9783.157382,964.209552,-1178.696892,7490.494250,7805.922068,7677.108965,-20342.233222,13469.965872,9793.617999,8790.181135,-5685.993217,32656.278629,2688.713692,26951.398188,6384.194658,-285.480011,-809.104004,-508.984009,10080.000000,-3920.000000,3080.000000
8885.913656,9868.921026,1036.271576,-1124.963298,7579.990635,7818.819024,7712.357666,-20292.366480,13516.971590,9865.814133,8799.345350,-5625.688210,32687.101684,2712.786521,26997.398078,6453.418011,-287.432007,-810.567993,-502.640015,9800.000000,-4060.000000,2660.000000
8936.965041,10045.723325,1157.395680,-1001.335800,7742.107837,7853.978318,7809.341885,-20183.222912,13595.470917,9963.312443,8821.115949,-5504.206479,32744.277447,2746.180027,27108.061565,6593.384635,-286.944000,-808.127991,-504.104004,9800.000000,-4200.000000,2940.000000
8941.122465,10137.141959,1199.506366,-935.353450,7807.196117,7876.017138,7867.612883,-20131.612734,13624.215260,9981.037376,8834.482292,-5441.331022,32771.390113,2755.701870,27177.284918,6669.246455,-290.847992,-812.031982,-506.544006,9520.000000,-4480.000000,2660.000000
8889.869915,10040.783589,1113.541557,-997.781872,7703.886354,7860.192103,7825.591603,-20203.428889,13575.957844,9898.581791,8826.905051,-5499.467909,32742.131679,2730.980841,27139.354007,6607.198013,-289.872009,-811.056030,-504.104004,9520.000000,-4480.000000,2940.000000
8863.405450,9941.899472,1049.704975,-1064.188905,7617.362752,7838.443856,7771.500381,-20267.712506,13531.813148,9848.715049,8813.963391,-5566.098459,32709.945167,2710.283126,27077.082047,6529.101018,-287.432007,-811.544006,-505.080017,9520.000000,-4620.000000,2940.000000
8853.749496,9881.214485,1016.982021,-1108.043028,7566.221960,7825.099865,7737.078695,-20296.456849,13502.353549,9817.690828,8800.708807,-5614.847614,32685.022972,2695.173346,27023.951951,6469.511267,-287.432007,-812.520020,-501.175995,9380.000000,-5040.000000,2800.000000
8847.692173,9826.229194,985.510765,-1146.510380,7519.998553,7814.527489,7707.730854,-20323.189536,13483.779250,9789.326464,8792.237495,-5656.555969,32665.353437,2686.009131,26979.807255,6415.688266,-286.455994,-811.544006,-500.688019,9240.000000,-4900.000000,2800.000000
8846.485179,9781.123374,962.801392,-1180.373273,7483.945189,7802.859879,7677.623055,-20350.570422,13474.838552,9781.190429,8788.236533,-5687.602542,32653.238792,2681.829355,26945.631438,6381.512449,-286.455994,-812.520020,-500.200012,9240.000000,-5040.000000,2660.000000
8865.327700,9818.339028,1001.738131,-1156.993348,7531.152073,7805.899716,7690.721177,-20327.123443,13496.989131,9826.452711,8792.729234,-5661.383946,32669.957896,2698.257887,26963.624592,6420.717409,-287.920013,-813.007996,-502.640015,9100.000000,-5040.000000,2660.000000
8909.628857,9979.450402,1121.498778,-1045.815771,7688.486003,7837.370972,7775.858972,-20222.740796,13563.776143,9926.879099,8809.113063,-5554.989642,32721.657481,2735.428838,27060.809977,6557.510085,-285.968018,-814.471985,-501.175995,9100.000000,-4760.000000,2660.000000
8937.456779,10117.003038,1202.747369,-947.289282,7799.395358,7868.350490,7858.560426,-20136.485414,13618.828490,9980.456231,8820.512452,-5460.419412,32762.561174,2755.187780,27155.268449,6676.264903,-283.528015,-814.471985,-504.592010,9240.000000,-4760.000000,2520.000000
8907.147814,10076.702842,1153.841752,-966.869410,7740.274994,7865.578874,7849.396211,-20168.806037,13600.120080,9921.671143,8822.993496,-5479.910133,32751.608819,2739.541559,27153.547365,6661.132772,-282.552002,-813.496033,-503.127991,9100.000000,-4480.000000,2520.000000
8881.264494,9966.709908,1077.443490,-1041.054850,7637.993412,7841.751914,7788.688873,-20244.623154,13556.847102,9865.165933,8817.986705,-5549.491113,32717.790630,2716.474559,27090.448390,6574.743280,-284.992004,-814.960022,-501.664001,9100.000000,-4200.000000,2520.000000
8886.383043,9911.031712,1046.151047,-1076.929400,7594.698083,7829.234937,7757.530541,-20277.681384,13539.949183,9848.647994,8815.393903,-5588.874887,32696.757638,2705.879832,27049.947029,6515.600564,-284.503998,-815.447998,-501.175995,9100.000000,-4060.000000,2520.000000
8882.940874,9862.327261,1015.216233,-1108.624173,7553.213245,7817.992010,7732.608346,-20300.390756,13521.687808,9825.089255,8809.917725,-5628.169254,32677.713952,2694.815719,27015.078308,6460.749383,-285.480011,-814.471985,-503.127991,9100.000000,-4200.000000,2520.000000
8875.207171,9804.927981,982.113300,-1146.778601,7505.827547,7807.397283,7700.578296,-20332.309047,13504.834593,9801.754034,8803.145147,-5666.010757,32660.771329,2690.166556,26976.990935,6412.268449,-281.575989,-813.984009,-506.056000,8820.000000,-4200.000000,2520.000000
8890.384005,9809.979476,999.346495,-1141.481238,7524.133626,7809.945382,7701.539421,-20328.106919,13517.843308,9825.960973,8802.541650,-5656.153638,32667.476853,2705.611611,26979.986069,6425.143054,-285.480011,-814.471985,-506.056000,8960.000000,-3920.000000,2660.000000
8939.110808,9941.765361,1103.617382,-1048.810905,7661.708613,7836.141626,7771.790954,-20243.729084,13580.830524,9923.526338,8815.885641,-5562.388070,32712.627377,2742.201417,27059.424169,6533.660773,-283.528015,-816.911987,-503.615997,9240.000000,-4060.000000,2940.000000
8976.751146,10104.128433,1211.330439,-931.218377,7808.291353,7870.071574,7869.244560,-20140.307562,13646.835225,10002.159775,8834.012906,-5448.237711,32764.259906,2771.303388,27167.070170,6668.017109,-281.575989,-813.496033,-505.567993,9520.000000,-4200.000000,3080.000000
8955.807561,10126.524881,1208.223547,-910.185386,7809.207774,7877.514705,7896.826613,-20131.031588,13646.097618,9977.461097,8841.165464,-5426.198891,32771.948906,2765.894266,27202.721203,6697.610819,-278.648010,-813.496033,-501.175995,9380.000000,-4340.000000,3360.000000
8910.142947,10010.027589,1116.648449,-986.047207,7688.955389,7853.128952,7836.767475,-20212.883677,13595.023882,9898.090052,8832.940022,-5498.573839,32736.208467,2738.245158,27145.321923,6612.227155,-281.575989,-812.520020,-503.615997,9240.000000,-4340.000000,3220.000000
8899.257648,9937.518530,1069.508620,-1035.891597,7625.118807,7835.538129,7792.175745,-20256.313116,13566.748925,9864.808305,8823.418179,-5551.368660,32711.353327,2721.704867,27093.845855,6543.339079,-282.063995,-816.424011,-506.544006,8960.000000,-4480.000000,3360.000000
8893.625008,9888.769375,1040.987795,-1070.357987,7587.076138,7825.479844,7764.906617,-20275.647375,13542.474931,9839.684944,8813.181080,-5595.446300,32691.147350,2709.120835,27051.444596,6489.918410,-279.623993,-815.936035,-508.496002,9240.000000,-4480.000000,3640.000000
8877.956435,9824.396351,998.742997,-1117.743685,7530.705038,7813.789882,7723.287669,-20308.035053,13512.836517,9806.671418,8802.742815,-5646.363574,32667.901536,2694.346332,26997.621596,6432.474426,-280.600006,-814.960022,-502.152008,9100.000000,-4620.000000,4060.000000
8869.596883,9781.883333,980.079291,-1151.472467,7500.798404,7804.916239,7689.514183,-20333.180765,13499.671340,9799.071824,8794.427966,-5676.292560,32656.390388,2692.647599,26965.569194,6403.595972,-278.648010,-815.936035,-506.056000,8540.000000,-4620.000000,4060.000000
8904.331494,9872.720822,1053.951806,-1093.849670,7598.095548,7818.573155,7731.669573,-20278.687212,13543.123131,9870.575055,8799.144184,-5617.820396,32683.883033,2713.971164,27019.481602,6474.719223,-281.575989,-816.911987,-504.104004,8540.000000,-4480.000000,4340.000000
8950.778419,10049.612528,1177.132270,-977.933523,7759.162218,7851.296109,7827.782074,-20172.158798,13614.983990,9966.486390,8817.852595,-5500.943124,32739.650636,2743.833094,27126.591161,6610.193146,-280.112000,-815.447998,-506.544006,8120.000000,-4340.000000,4480.000000
8945.458704,10136.136131,1221.992221,-920.824816,7819.869556,7869.848057,7883.013234,-20123.186126,13635.145263,9980.299768,8830.593089,-5442.917996,32768.529090,2750.382155,27188.617252,6684.535049,-282.552002,-819.351990,-506.544006,7560.000000,-4340.000000,4480.000000
8884.907828,10038.637822,1138.553159,-986.829518,7710.882450,7852.212531,7835.828702,-20189.056717,13580.897579,9896.123099,8825.832167,-5504.161776,32742.489307,2725.884643,27146.215993,6622.441902,-278.648010,-815.936035,-506.056000,7560.000000,-4200.000000,4760.000000
8859.918578,9942.748838,1074.962446,-1054.555303,7626.325801,7833.146493,7783.100937,-20243.885546,13537.691657,9848.871511,8809.671856,-5568.199523,32710.392202,2710.193719,27086.782704,6549.195236,-281.088013,-816.911987,-503.615997,7140.000000,-4060.000000,4620.000000
8857.459886,9881.929741,1040.116076,-1098.677647,7582.561086,7821.210661,7749.282747,-20269.165369,13511.070730,9819.657781,8796.014940,-5615.786387,32684.464179,2697.140300,27037.564163,6493.673503,-279.623993,-814.471985,-507.032013,6860.000000,-4060.000000,4760.000000
8851.357860,9822.362342,1004.040361,-1140.028374,7536.918823,7809.766568,7718.035009,-20298.423803,13487.467287,9794.713234,8788.504754,-5658.992309,32663.475891,2683.416329,26993.285357,6440.409296,-279.623993,-819.840027,-504.104004,6720.000000,-4200.000000,4900.000000
8838.282089,9753.474266,969.372805,-1185.894154,7485.219238,7796.556687,7677.913627,-20339.551012,13463.886197,9773.747298,8783.185039,-5700.790072,32647.650855,2676.979026,26952.605182,6391.458975,-282.063995,-820.328003,-505.567993,7140.000000,-4060.000000,4900.000000
8858.286900,9783.358548,1008.421303,-1164.212962,7529.386285,7802.837527,7689.134203,-20320.127347,13485.567389,9821.825900,8787.722443,-5674.370310,32662.738283,2694.592201,26970.866557,6425.008944,-281.088013,-818.864014,-499.712006,7700.000000,-3640.000000,4900.000000
8908.198346,9937.071495,1120.783522,-1060.277350,7678.740642,7831.514815,7768.885227,-20222.763148,13553.673155,9922.811082,8804.821528,-5569.853553,32713.655557,2726.219919,27060.273535,6546.065992,-279.623993,-815.447998,-502.152008,7420.000000,-4060.000000,4760.000000
8938.730829,10076.188752,1201.920355,-963.047262,7791.907524,7859.946234,7849.083286,-20141.872184,13610.267772,9979.673920,8824.468711,-5476.065633,32755.319209,2744.302481,27151.200432,6653.399069,-283.040009,-817.400024,-500.200012,7140.000000,-4060.000000,4900.000000
8910.835852,10045.253938,1155.339319,-978.022930,7738.017468,7858.292205,7842.623632,-20174.662194,13596.096766,9924.867442,8826.390961,-5489.677845,32745.752662,2728.432742,27154.352028,6637.931661,-281.575989,-816.424011,-504.592010,7420.000000,-4200.000000,5040.000000
8874.715432,9932.914070,1075.074205,-1050.800210,7629.767970,7836.387496,7785.067890,-20251.820415,13546.028858,9858.326299,8814.924516,-5560.242302,32711.174513,2709.210242,27093.644690,6551.810390,-280.112000,-816.911987,-501.664001,7840.000000,-4060.000000,4900.000000
8861.416145,9863.288386,1035.288100,-1097.001266,7574.425051,7820.562460,7747.516960,-20291.785335,13514.982285,9826.743284,8804.620362,-5611.897184,32686.207615,2695.240402,27041.006332,6482.855258,-281.575989,-814.471985,-506.056000,7840.000000,-3920.000000,4900.000000
8855.627043,9813.332237,1007.191957,-1132.764057,7536.784713,7810.884155,7720.001962,-20313.868858,13494.664549,9802.759862,8795.120870,-5653.024394,32666.694542,2684.288047,26996.504008,6430.395714,-283.040009,-815.936035,-501.175995,7980.000000,-3920.000000,4760.000000
8850.374383,9757.676394,973.664340,-1172.483107,7491.097747,7802.524603,7686.966084,-20344.960135,13481.991110,9779.849324,8788.884734,-5691.312932,32650.400120,2677.537820,26955.734426,6382.898257,-281.575989,-816.424011,-502.152008,8260.000000,-3640.000000,4760.000000
8857.169313,9751.373202,980.101643,-1175.969979,7498.295009,7803.798652,7680.662892,-20346.256536,13489.233075,9799.004769,8786.470745,-5689.725958,32654.445786,2688.758396,26953.834528,6388.486193,-282.063995,-814.471985,-499.223999,8960.000000,-3500.000000,4620.000000
8899.190593,9875.693604,1076.594123,-1093.156766,7624.694124,7826.776245,7744.231253,-20265.410276,13544.687753,9889.104651,8797.736025,-5603.157652,32695.997679,2720.006135,27027.304712,6492.175936,-284.015991,-817.888000,-500.688019,9240.000000,-3220.000000,4480.000000
8940.183692,10033.452217,1182.697854,-986.449538,7765.331300,7857.979281,7830.799559,-20168.269595,13608.814908,9969.839152,8817.897298,-5495.712816,32747.406691,2744.369536,27123.193696,6616.473987,-282.552002,-813.496033,-496.783997,9520.000000,-2940.000000,4480.000000
8930.572442,10063.895293,1184.441290,-959.918017,7773.892018,7868.506952,7858.739240,-20158.054847,13616.392149,9954.304690,8826.726237,-5471.505877,32758.224935,2738.893359,27159.090598,6646.805304,-281.088013,-813.984009,-496.296021,9800.000000,-2380.000000,4340.000000
8883.231447,9951.845998,1093.626153,-1035.511617,7658.400554,7844.635289,7801.228202,-20236.889450,13561.876245,9875.358328,8814.700999,-5545.043116,32720.897522,2711.490120,27101.423097,6564.215608,-283.040009,-814.471985,-492.391998,9800.000000,-1960.000000,4340.000000
8869.038089,9884.120212,1049.392050,-1083.366702,7599.950743,7829.681972,7762.582035,-20275.334451,13527.901593,9839.573185,8803.770996,-5594.529878,32695.237719,2695.978009,27053.858585,6499.216735,-284.992004,-817.888000,-497.760010,9800.000000,-1680.000000,4060.000000
8866.288825,9843.015354,1021.318259,-1112.379266,7567.093678,7822.819987,7739.962070,-20292.902922,13507.449747,9815.500357,8795.098519,-5632.281975,32676.104626,2684.220992,27018.989863,6448.388868,-284.992004,-819.351990,-496.296021,10220.000000,-980.000000,4060.000000
8857.526941,9790.421699,985.331951,-1150.734860,7524.155977,7814.013399,7706.970895,-20317.109861,13482.058165,9787.828897,8784.459088,-5674.683234,32655.853946,2675.593218,26974.264023,6399.997342,-282.552002,-815.447998,-497.272003,10640.000000,-700.000000,3780.000000
8859.203322,9768.271121,978.134689,-1170.002064,7510.968448,7809.677161,7685.781441,-20328.285733,13474.637386,9789.415871,8778.669987,-5691.491746,32651.674170,2679.102442,26953.432197,6386.496888,-285.480011,-815.936035,-493.856018,10640.000000,-560.000000,3780.000000
8896.173107,9858.885093,1052.297777,-1107.305420,7604.264629,7825.435141,7731.200186,-20271.445247,13517.977419,9865.344747,8790.806984,-5628.102199,32682.631336,2704.315210,27008.819820,6458.245988,-286.944000,-818.864014,-495.320007,10780.000000,280.000000,3640.000000
8944.274061,10041.364734,1177.199325,-980.369864,7768.415841,7858.403964,7832.788865,-20162.659307,13591.022920,9966.039356,8817.047932,-5504.295886,32740.254133,2738.625138,27120.936170,6601.699484,-286.455994,-817.400024,-496.296021,11060.000000,840.000000,3220.000000
8940.161340,10132.001058,1220.919337,-912.577023,7831.626574,7878.095851,7895.999598,-20110.982074,13615.520431,9979.517457,8828.715542,-5440.459304,32769.177290,2745.330661,27190.137171,6685.518525,-289.384003,-816.911987,-493.856018,11200.000000,1120.000000,3080.000000
8891.479241,10039.420133,1138.128476,-973.463175,7725.813416,7863.120182,7856.928749,-20175.243339,13570.369908,9896.659541,8816.332676,-5492.047130,32739.315360,2720.721390,27151.066321,6627.091065,-289.872009,-818.864014,-494.832001,11340.000000,1260.000000,2940.000000
8873.039052,9945.788675,1075.588295,-1038.283233,7639.110999,7843.718868,7805.877364,-20233.715502,13533.422474,9849.765581,8805.201507,-5551.748640,32708.067621,2704.806948,27089.330803,6548.301166,-287.432007,-817.400024,-494.343994,11340.000000,1820.000000,2660.000000
8866.132363,9886.780070,1042.463010,-1077.219972,7593.513440,7830.330173,7773.243817,-20261.364610,13504.789889,9825.804511,8794.875001,-5596.943867,32686.878167,2691.015922,27040.067558,6486.208020,-287.432007,-816.911987,-494.832001,11620.000000,1960.000000,2380.000000
8850.977880,9823.390522,1004.979134,-1119.978859,7545.278376,7819.266059,7741.861968,-20292.679404,13474.793848,9792.992150,8784.995530,-5647.548216,32663.922925,2679.884753,26993.218302,6426.953545,-288.407990,-815.936035,-498.248016,11480.000000,1960.000000,2100.000000
8844.965261,9772.674414,979.833422,-1156.903941,7505.894602,7810.437120,7713.899936,-20321.155527,13458.410020,9778.083536,8779.161725,-5684.830926,32649.483699,2676.822564,26957.187290,6389.044987,-284.503998,-814.960022,-491.416016,11340.000000,1400.000000,1680.000000
8869.596883,9806.000865,1015.707972,-1139.871912,7544.585472,7814.639248,7721.454826,-20302.961207,13483.622787,9823.949316,8784.324978,-5657.762964,32664.526423,2693.228745,26969.592508,6419.488063,-283.528015,-816.424011,-490.440002,11200.000000,1120.000000,1540.000000
8922.950497,9969.325062,1138.419049,-1027.487341,7699.863040,7846.132856,7807.486690,-20201.663101,13557.808227,9927.862576,8802.765167,-5544.484323,32719.265845,2728.790370,27070.063599,6548.256463,-282.063995,-815.936035,-493.368011,11060.000000,700.000000,980.000000
8948.476189,10109.962238,1221.433428,-923.484674,7815.376856,7875.458345,7893.138575,-20116.815879,13610.223068,9981.864391,8820.847728,-5448.103601,32763.924630,2748.795181,27170.735856,6661.021013,-279.623993,-816.424011,-488.976013,10780.000000,280.000000,560.000000
8913.339247,10073.104211,1175.455889,-942.036622,7757.619948,7872.418508,7886.813031,-20147.795397,13589.503001,9927.996686,8822.702923,-5464.956816,32754.693360,2732.299594,27174.289784,6645.106571,-277.671997,-814.960022,-494.832001,10640.000000,-560.000000,140.000000
8874.469563,9958.328004,1098.431778,-1018.904271,7646.107095,7850.491446,7828.542033,-20221.220877,13539.926832,9861.075564,8808.956600,-5536.616509,32718.394127,2710.126663,27112.733080,6561.287530,-277.183990,-815.447998,-490.440002,10640.000000,-1120.000000,-420.000000
8863.830133,9895.474898,1065.731176,-1063.540705,7591.188859,7836.543958,7790.789937,-20256.335468,13512.411834,9829.224328,8796.841955,-5584.896277,32695.327126,2694.391035,27062.173434,6500.289619,-275.231995,-814.471985,-490.440002,10360.000000,-1820.000000,-560.000000
8855.984671,9842.233043,1031.711821,-1101.538670,7545.099562,7823.199966,7759.430439,-20287.270282,13489.680110,9800.859964,8787.677740,-5630.091504,32673.645934,2681.181154,27013.603093,6445.460790,-272.791992,-814.471985,-491.416016,10360.000000,-2520.000000,-840.000000
8847.513359,9779.737565,993.557393,-1140.564816,7497.557401,7811.085321,7727.310983,-20320.104995,13471.061107,9775.870714,8780.301664,-5671.442231,32655.026931,2674.453279,26970.821854,6398.365664,-271.816010,-818.864014,-487.511993,10220.000000,-2940.000000,-1120.000000
8861.125572,9776.116583,1001.201689,-1142.330604,7505.693436,7810.548879,7721.253660,-20319.613256,13480.605302,9797.998941,8780.972216,-5669.274112,32659.832556,2684.757434,26967.804368,6403.506566,-271.816010,-822.280029,-485.559998,9940.000000,-3640.000000,-980.000000
8911.595811,9904.974390,1101.695132,-1055.695242,7637.859301,7834.040562,7784.956132,-20239.392846,13542.720800,9892.859744,8797.490155,-5582.147012,32703.843141,2717.502739,27041.632180,6508.559764,-270.839996,-821.791992,-485.071991,9520.000000,-4060.000000,-1260.000000
8953.885311,10073.998281,1211.866881,-937.968604,7786.856030,7867.277606,7880.778060,-20136.977152,13613.888754,9974.600074,8818.321981,-5468.130764,32758.694322,2744.637757,27150.865156,6643.452542,-270.839996,-825.208008,-485.559998,9520.000000,-4480.000000,-1120.000000
8941.323631,10109.045817,1214.124407,-909.157206,7796.869611,7878.274665,7912.092854,-20120.772138,13624.215260,9960.697289,8828.044990,-5441.576891,32771.032485,2742.313175,27190.651261,6681.651674,-269.864014,-826.184021,-485.071991,9520.000000,-4900.000000,-840.000000
8893.513250,9989.978074,1119.353011,-991.679846,7674.426755,7855.565292,7847.384554,-20199.360871,13570.168742,9879.538104,8817.807891,-5517.997505,32733.548609,2715.312268,27124.534801,6598.033798,-273.768005,-829.112000,-484.096008,9380.000000,-5040.000000,-700.000000
8876.347110,9907.768358,1069.262751,-1049.056774,7603.817595,7838.265042,7797.428405,-20244.846671,13531.723741,9837.874453,8805.894411,-5578.011939,32705.430115,2698.369646,27067.381390,6527.983430,-271.816010,-829.600037,-481.167999,9240.000000,-4900.000000,-560.000000
8860.477371,9852.537197,1039.378469,-1083.701978,7561.572797,7827.089170,7767.521771,-20275.200340,13502.174735,9802.156365,8798.160708,-5624.525920,32685.157083,2682.991646,27027.595285,6470.695909,-272.791992,-831.552002,-484.584015,9380.000000,-4760.000000,-140.000000
8845.121723,9787.672435,999.637067,-1124.449208,7510.655524,7813.298144,7735.335259,-20314.248838,13475.710270,9768.248769,8785.554324,-5670.391699,32664.258202,2670.184096,26983.316479,6418.169310,-275.231995,-833.992004,-484.584015,9380.000000,-4620.000000,0.000000
8850.419086,9753.720135,987.053035,-1148.030299,7490.248381,7805.363274,7713.139977,-20331.727902,13469.518837,9768.069955,8776.278350,-5690.351807,32655.004579,2673.112175,26959.958906,6401.494909,-275.720001,-832.528015,-485.559998,9660.000000,-4620.000000,560.000000
8889.624046,9828.397313,1054.622359,-1100.577545,7573.106298,7818.662562,7743.940680,-20281.682346,13509.707273,9838.053267,8785.308455,-5637.244062,32681.133769,2695.933306,26998.895645,6469.645377,-279.136017,-832.528015,-483.119995,9940.000000,-4620.000000,840.000000
8943.335288,10005.378426,1178.965113,-981.174526,7736.139922,7854.000670,7837.281565,-20169.521292,13587.983082,9943.933480,8805.916763,-5516.544642,32737.057833,2731.070248,27104.731155,6614.127054,-275.231995,-836.432007,-488.000000,10220.000000,-4620.000000,1400.000000
8947.738582,10100.686264,1227.133122,-912.040581,7804.536260,7876.665339,7898.882973,-20115.810050,13622.516527,9968.498047,8820.691266,-5448.662394,32765.869232,2742.939024,27176.323792,6696.359121,-279.623993,-833.504028,-486.536011,10500.000000,-4620.000000,1540.000000
8897.536564,10009.871126,1143.872874,-969.864544,7700.421834,7861.086173,7860.057993,-20183.669947,13579.310605,9889.842259,8816.869118,-5501.524270,32739.315360,2718.083884,27139.108138,6637.283461,-279.623993,-831.552002,-488.976013,10780.000000,-4900.000000,2100.000000
8872.547313,9916.530242,1079.924533,-1035.824542,7613.719417,7841.237824,7808.447815,-20244.846671,13538.183396,9842.993002,8806.676722,-5563.729175,32709.185208,2700.269544,27079.361925,6558.895893,-279.623993,-829.112000,-491.416016,10920.000000,-5180.000000,2380.000000
8868.412241,9866.551741,1050.911969,-1072.637865,7573.218056,7830.978373,7781.357501,-20266.751381,13516.077520,9818.070807,8797.221934,-5606.421006,32688.822769,2690.121852,27036.804204,6504.044712,-281.575989,-828.135986,-495.320007,11060.000000,-5460.000000,2520.000000
8858.957453,9808.504261,1016.020896,-1112.111045,7526.346448,7820.093074,7752.255529,-20296.300387,13492.362320,9785.839592,8790.069376,-5650.878626,32670.293173,2678.677759,26994.581758,6447.315985,-278.648010,-828.135986,-497.272003,11900.000000,-5460.000000,3080.000000
8849.882644,9752.982527,987.634181,-1150.243121,7485.889791,7808.224298,7722.058323,-20328.844527,13471.150514,9769.612225,8781.218085,-5688.094281,32656.323332,2673.246285,26960.249479,6403.886545,-281.575989,-826.671997,-497.760010,12180.000000,-6020.000000,3360.000000
8871.452078,9786.174868,1024.782780,-1128.718392,7530.459169,7812.806405,7734.552948,-20307.565666,13493.591665,9815.232136,8782.000396,-5660.579283,32671.969553,2689.563059,26976.521549,6435.581319,-282.063995,-821.304016,-497.760010,13020.000000,-6300.000000,3360.000000
8926.482073,9948.202663,1142.688232,-1019.507768,7686.183773,7843.920033,7817.477920,-20205.909932,13566.368945,9921.782901,8801.647580,-5547.948843,32726.239589,2725.817588,27067.426094,6562.315710,-281.575989,-823.744019,-498.248016,13440.000000,-6020.000000,3640.000000
8950.331384,10088.169287,1223.601547,-919.550767,7801.876402,7873.692557,7902.123976,-20120.593324,13618.269696,9978.668091,8820.355990,-5452.685708,32770.697209,2744.414239,27164.477368,6674.722633,-281.088013,-818.864014,-497.760010,13720.000000,-5740.000000,3640.000000
8914.166261,10059.983737,1180.820308,-932.224206,7752.546102,7871.904418,7899.508822,-20147.437769,13598.667216,9925.716809,8824.602821,-5467.370804,32762.695284,2729.483274,27172.836920,6660.529275,-282.552002,-814.471985,-499.712006,13860.000000,-5460.000000,3640.000000
8877.867028,9952.963585,1099.996400,-1008.443655,7645.883578,7848.278624,7839.852016,-20222.494927,13551.885015,9863.556607,8817.293801,-5538.292889,32728.117136,2706.975067,27113.381280,6575.056204,-283.040009,-813.007996,-500.688019,14000.000000,-4900.000000,3780.000000
8870.245084,9889.954017,1059.562094,-1053.661234,7595.301580,7835.448722,7806.078530,-20258.213014,13524.861756,9833.784084,8807.101406,-5588.494907,32704.446638,2694.346332,27065.682657,6511.756064,-284.503998,-810.080017,-496.783997,14000.000000,-4340.000000,3780.000000
8857.728107,9832.733552,1027.129713,-1092.709731,7555.515475,7824.049333,7777.356538,-20283.626948,13494.239866,9802.335179,8793.869173,-5636.260585,32681.983135,2681.829355,27019.816878,6455.027336,-288.895996,-809.591980,-500.200012,13580.000000,-3220.000000,3500.000000
8841.590147,9761.945577,988.952933,-1144.722241,7499.479651,7809.498347,7734.172968,-20324.575344,13466.233130,9772.920283,8784.056757,-5687.736653,32658.714969,2670.877000,26966.798540,6397.717464,-288.895996,-808.127991,-500.200012,13300.000000,-2520.000000,3640.000000
8846.440476,9755.463571,996.463120,-1150.868970,7509.068550,7808.425463,7723.913517,-20329.626838,13471.239921,9789.460574,8784.459088,-5691.044711,32660.279591,2677.962503,26961.657639,6398.544478,-289.872009,-804.223999,-500.688019,12320.000000,-1400.000000,3780.000000
8890.607523,9880.029843,1092.419159,-1067.675777,7635.959403,7830.129007,7786.140774,-20251.373381,13527.789834,9880.834506,8795.500850,-5607.963277,32701.295042,2707.802082,27034.434919,6499.686122,-293.287994,-806.664001,-501.175995,11340.000000,-140.000000,3920.000000
8940.675430,10053.121752,1203.797901,-951.334948,7784.330283,7865.020080,7883.192048,-20147.817749,13602.578771,9966.173466,8809.895374,-5493.075310,32751.966447,2737.127571,27138.772862,6634.087161,-296.704010,-803.736023,-502.640015,9940.000000,700.000000,3920.000000
8934.796922,10094.025444,1211.419846,-919.394305,7798.255420,7876.955912,7917.323162,-20131.769196,13618.604972,9953.388268,8818.970182,-5459.793563,32764.438720,2736.702888,27180.615327,6672.576865,-296.704010,-802.760010,-501.664001,8820.000000,1680.000000,4060.000000
8888.037072,9978.779850,1117.766037,-996.016085,7678.025386,7852.525455,7857.576949,-20213.375415,13568.201788,9874.419555,8809.649504,-5530.559186,32728.452412,2709.612573,27124.311283,6589.696597,-299.631989,-803.736023,-501.664001,7700.000000,2100.000000,4200.000000
8872.860238,9902.761567,1069.329806,-1043.692356,7614.188804,7835.202853,7818.617859,-20256.067247,13532.483701,9839.059095,8798.339522,-5583.510468,32700.736249,2696.805024,27079.160759,6525.815311,-301.584015,-807.152039,-504.104004,6160.000000,2660.000000,4340.000000
8867.674633,9852.783066,1040.607815,-1076.236496,7574.447402,7824.429312,7791.996931,-20278.307233,13510.489584,9812.326409,8790.672873,-5626.068190,32681.513748,2685.673855,27035.686616,6470.584151,-304.024017,-808.616028,-498.248016,5460.000000,2940.000000,4340.000000
8857.281072,9789.147650,1003.950954,-1121.632889,7520.780864,7813.074626,7751.674384,-20312.706567,13487.534343,9783.939693,8784.302626,-5674.705586,32662.872393,2673.894486,26981.505988,6407.775749,-304.511993,-810.567993,-496.783997,4620.000000,2940.000000,4200.000000
8851.380211,9747.841626,986.427186,-1146.644491,7495.612800,7805.497385,7728.294459,-20336.198251,13475.844380,9780.408118,8780.055795,-5700.544202,32654.937524,2672.911009,26961.478825,6378.114984,-305.000000,-808.127991,-495.808014,3360.000000,2940.000000,3920.000000
8875.587151,9821.870604,1052.342481,-1095.548403,7579.074213,7816.047408,7765.420707,-20292.142962,13506.130994,9844.244700,8788.817679,-5649.224597,32680.843196,2695.508623,27006.294072,6438.375287,-304.024017,-812.520020,-494.343994,2940.000000,2800.000000,3500.000000
8931.734733,10004.193783,1177.601657,-971.675035,7746.108800,7851.027888,7865.824743,-20183.759354,13586.194943,9950.303727,8809.984781,-5524.412456,32740.231781,2732.232539,27117.851629,6582.655797,-303.048004,-816.911987,-490.440002,2520.000000,1960.000000,2940.000000
8951.270157,10107.883526,1231.603471,-898.093092,7822.015324,7873.379633,7931.427113,-20124.594286,13628.171519,9977.662263,8822.077074,-5449.712926,32770.965430,2744.034260,27195.970976,6671.638092,-301.096008,-818.376038,-493.856018,2100.000000,1260.000000,2240.000000
8908.779491,10024.533871,1157.149810,-951.312596,7725.612250,7859.454496,7895.261990,-20182.418249,13586.776088,9900.280523,8816.086807,-5494.863450,32745.573848,2719.581451,27165.282031,6622.441902,-299.631989,-817.888000,-494.343994,2240.000000,280.000000,1820.000000
8880.817459,9926.633230,1090.675722,-1018.479588,7635.735886,7841.081362,7842.377763,-20242.298572,13537.043457,9849.698526,8802.094615,-5558.029480,32713.990833,2701.565945,27104.239417,6547.407096,-299.144012,-821.791992,-492.880005,2240.000000,-560.000000,840.000000
8871.765002,9869.233950,1056.075222,-1059.226818,7589.288961,7827.826777,7811.442949,-20270.841750,13509.461404,9821.155348,8791.365777,-5603.805852,32691.996716,2687.327884,27056.205518,6488.554953,-295.239990,-820.328003,-487.511993,2520.000000,-1400.000000,140.000000
8861.863179,9807.923115,1015.640916,-1099.124682,7540.584509,7815.555670,7778.407070,-20300.189590,13486.349700,9786.130164,8782.402728,-5650.722164,32670.606097,2675.302646,27010.876180,6429.702810,-293.287994,-823.744019,-489.464020,3080.000000,-2240.000000,-840.000000
8858.219845,9759.978623,991.411625,-1131.646470,7507.526279,7807.106710,7749.327451,-20325.625876,13474.100944,9773.099097,8776.568923,-5683.892153,32659.050245,2673.469803,26977.415619,6392.129528,-288.407990,-823.744019,-492.880005,3360.000000,-3360.000000,-1960.000000
8877.174124,9792.075728,1023.106399,-1112.580432,7547.580605,7813.298144,7758.961053,-20308.660902,13496.676206,9815.746226,8777.462992,-5660.422821,32673.712990,2687.484346,26992.167770,6423.757246,-285.968018,-822.280029,-490.440002,4480.000000,-3780.000000,-2660.000000
8927.867881,9947.755629,1136.295633,-1009.650649,7698.097253,7842.914205,7836.655716,-20214.560057,13565.877207,9917.781939,8795.411443,-5556.509561,32723.155048,2720.117893,27080.591271,6549.821085,-283.528015,-825.695984,-490.440002,4900.000000,-4340.000000,-3500.000000
8957.439239,10088.102232,1223.489788,-911.772360,7815.309801,7872.642025,7918.038418,-20129.310504,13620.549574,9979.137478,8819.350161,-5460.508819,32767.299744,2739.720373,27171.764037,6664.463182,-278.160004,-823.744019,-492.391998,5740.000000,-4620.000000,-4060.000000
8924.269250,10058.106191,1182.116709,-927.463284,7762.939663,7869.445726,7908.561278,-20159.507711,13602.578771,9928.711942,8821.853557,-5473.785755,32757.800252,2722.241309,27170.400580,6648.995775,-281.088013,-822.280029,-491.903992,6720.000000,-4760.000000,-4760.000000
8882.650302,9942.570024,1096.956563,-1004.129768,7650.510389,7843.584757,7846.736353,-20240.443378,13549.448675,9857.476933,8809.917725,-5549.871093,32721.076336,2700.850690,27107.256902,6559.745259,-277.671997,-823.255981,-494.343994,7420.000000,-5180.000000,-5040.000000
8871.496781,9873.279616,1057.259864,-1051.180190,7597.022664,7826.932708,7807.777263,-20276.295576,13517.172756,9825.893918,8798.495984,-5602.934134,32696.355307,2688.758396,27056.585497,6496.825099,-274.256012,-823.255981,-494.343994,8120.000000,-4760.000000,-5180.000000
8868.166371,9824.441054,1032.516483,-1087.904106,7557.437725,7816.762664,7778.407070,-20297.574436,13495.983302,9803.408063,8791.678702,-5643.860178,32679.233870,2676.911971,27012.463154,6446.444267,-276.208008,-823.744019,-493.856018,8820.000000,-4480.000000,-5460.000000
8853.995365,9760.537417,994.227945,-1134.842769,7505.626381,7804.402149,7741.929023,-20333.404283,13468.602415,9772.294435,8782.067452,-5690.418862,32659.027893,2665.065547,26967.223223,6393.224763,-273.279999,-822.280029,-496.296021,9380.000000,-4060.000000,-5320.000000
8857.124610,9750.948519,999.480605,-1143.671709,7512.041332,7804.826832,7733.122436,-20337.986390,13470.926997,9788.633560,8777.731213,-5692.721092,32659.430225,2673.559210,26960.696514,6395.504641,-274.743988,-822.280029,-493.856018,9800.000000,-4060.000000,-5040.000000
8904.398549,9873.413726,1098.007095,-1062.087841,7639.245109,7828.944365,7793.494498,-20261.275203,13531.388465,9880.722747,8789.823507,-5607.426835,32702.457333,2704.918707,27028.288189,6492.980599,-270.351990,-818.864014,-496.296021,10220.000000,-3640.000000,-4900.000000
8945.682221,10042.862301,1208.022381,-946.909302,7787.034844,7863.164885,7888.020025,-20156.333763,13599.248361,9966.285225,8810.632981,-5492.136537,32755.229802,2733.618347,27132.872001,6623.335972,-273.768005,-818.376038,-497.272003,10640.000000,-3220.000000,-4200.000000
8932.025305,10086.135278,1216.314878,-911.727656,7805.229164,7876.777098,7925.168625,-20132.350341,13608.099652,9955.779905,8821.518281,-5455.882008,32768.685552,2734.400658,27181.241176,6667.748888,-273.768005,-819.840027,-499.712006,10920.000000,-2940.000000,-3500.000000
8883.432613,9972.297844,1126.326755,-983.946143,7689.737700,7856.504066,7874.027833,-20208.927418,13553.114361,9873.860761,8808.397807,-5525.306526,32732.654540,2708.338524,27133.184926,6591.104757,-273.279999,-820.328003,-498.248016,10920.000000,-2380.000000,-2940.000000
8874.447212,9900.057006,1079.119871,-1033.343498,7626.169339,7840.343754,7834.286432,-20257.073075,13525.688770,9839.483778,8800.753510,-5579.107175,32708.000566,2695.665085,27086.648594,6524.742427,-272.791992,-820.815979,-495.320007,11060.000000,-2240.000000,-2100.000000
8874.536619,9853.610081,1051.426059,-1066.893466,7586.651455,7828.698495,7804.200984,-20282.665823,13506.846250,9815.857985,8794.495022,-5621.933117,32688.979231,2684.690378,27044.001465,6468.170162,-274.743988,-820.815979,-493.856018,10780.000000,-1960.000000,-1400.000000
8863.606615,9790.309941,1011.170567,-1110.032333,7534.929518,7814.795710,7766.448887,-20317.758062,13481.409965,9783.738528,8784.369681,-5669.609388,32666.918059,2673.805079,26996.280491,6410.860289,-275.231995,-821.304016,-495.808014,10360.000000,-1680.000000,-560.000000
8865.394755,9758.570463,999.815881,-1132.607595,7518.478634,7807.285524,7743.515997,-20336.846451,13476.604340,9787.605380,8782.000396,-5688.273095,32659.921963,2677.694282,26973.548767,6387.659179,-275.720001,-820.328003,-495.808014,10080.000000,-1260.000000,280.000000
8897.178936,9832.510034,1064.032443,-1083.992551,7600.353074,7820.294240,7777.088318,-20290.533637,13516.524555,9855.599386,8790.695225,-5636.707620,32685.805283,2700.783634,27014.497163,6449.908787,-277.671997,-823.255981,-495.320007,9380.000000,-1680.000000,980.000000
8941.301279,9999.231696,1179.255686,-973.798451,7753.574282,7852.726621,7862.516685,-20184.094630,13585.256169,9951.063687,8806.430853,-5525.462988,32736.566095,2729.438571,27107.636882,6583.728681,-276.208008,-822.768005,-491.903992,8680.000000,-1400.000000,1820.000000
8944.810503,10094.517183,1225.590852,-907.793749,7821.791806,7873.401984,7916.049113,-20127.723530,13616.079225,9972.566065,8818.545499,-5459.502990,32767.478558,2735.317079,27174.289784,6660.797496,-280.600006,-822.768005,-493.368011,8260.000000,-1400.000000,2240.000000
8891.658055,10006.943048,1141.995328,-962.287302,7723.488834,7857.845170,7880.129859,-20193.795287,13569.542893,9889.149355,8817.830243,-5510.397912,32744.433909,2709.970201,27145.768958,6599.710178,-281.088013,-825.208008,-490.928009,7420.000000,-2240.000000,3220.000000
8871.675595,9910.070587,1075.409481,-1026.481512,7637.322859,7835.962812,7831.336001,-20262.728067,13529.868547,9846.099895,8808.777786,-5571.351119,32713.052060,2692.826413,27089.375507,6521.680238,-280.112000,-824.720032,-489.464020,6720.000000,-3220.000000,3920.000000
8879.431651,9860.405011,1046.732193,-1057.952769,7599.727225,7825.882176,7807.978428,-20288.454925,13514.043512,9824.619868,8796.439623,-5609.326733,32691.661440,2686.031483,27052.584535,6470.382985,-283.040009,-823.744019,-488.976013,6020.000000,-3640.000000,4480.000000
8874.268398,9806.358493,1011.595251,-1095.861327,7554.286129,7816.494443,7777.937684,-20313.444175,13493.524610,9796.724891,8786.962484,-5651.817399,32671.075484,2676.017901,27009.691538,6416.045894,-284.015991,-827.648010,-488.488007,5740.000000,-4480.000000,5180.000000
8864.970072,9751.775533,982.426224,-1135.669784,7513.225974,7807.844318,7747.069925,-20342.344981,13476.269064,9784.990225,8781.352196,-5686.931990,32657.865603,2669.938227,26971.984145,6375.857458,-285.968018,-825.208008,-487.511993,5040.000000,-5180.000000,5600.000000
8885.131345,9782.039795,1015.886785,-1116.939022,7552.877969,7812.851109,7755.764753,-20326.430538,13500.252485,9828.240851,8787.767147,-5662.613292,32673.690638,2686.322056,26986.848055,6405.853499,-291.824005,-827.648010,-489.464020,4760.000000,-5880.000000,6020.000000
8940.854244,9945.296937,1135.066287,-1007.013143,7708.200241,7842.981260,7835.828702,-20228.887526,13575.622568,9933.428160,8809.515394,-5552.776820,32726.485458,2721.011963,27079.049001,6531.291489,-288.895996,-827.160034,-488.976013,4060.000000,-6860.000000,6160.000000
8965.798791,10086.291741,1220.137026,-908.754874,7826.999763,7870.675072,7915.512671,-20143.414455,13629.579679,9989.441632,8826.435664,-5458.228941,32768.640848,2740.167408,27169.908842,6643.698411,-290.847992,-825.208008,-485.071991,3920.000000,-7000.000000,6020.000000
8928.940765,10059.939034,1179.859183,-924.490502,7779.614065,7868.439897,7909.991790,-20166.615566,13609.686626,9935.931556,8827.687362,-5469.762441,32761.577697,2724.275318,27172.166368,6631.449655,-292.312012,-822.280029,-488.000000,3780.000000,-7700.000000,6020.000000
8886.651264,9941.430085,1093.246173,-1008.220137,7663.519104,7844.501179,7846.445781,-20242.320924,13554.075486,9863.020165,8815.349199,-5545.780724,32724.026766,2696.536803,27104.261768,6539.248710,-293.287994,-820.815979,-486.048004,3780.000000,-8120.000000,5880.000000
8874.961302,9870.686814,1052.789516,-1062.467821,7606.969190,7830.419580,7807.441986,-20277.033183,13519.765558,9830.431322,8804.128624,-5597.457957,32699.238682,2678.923628,27049.030608,6471.768793,-294.264008,-823.255981,-484.096008,4060.000000,-8400.000000,5600.000000
8865.774735,9812.996961,1016.959669,-1103.975010,7561.081059,7819.891908,7779.569361,-20301.955378,13493.166982,9801.195240,8793.824469,-5642.921405,32678.608022,2669.111212,27005.042375,6414.704789,-294.752014,-821.304016,-486.536011,4480.000000,-8820.000000,5040.000000
8858.845694,9756.715269,984.840212,-1144.901054,7514.611782,7808.961905,7746.198207,-20333.337228,13478.236017,9777.167115,8785.509620,-5686.552010,32660.525460,2662.450393,26965.792711,6362.155838,-295.239990,-821.791992,-483.119995,4760.000000,-8680.000000,4620.000000
8868.501648,9752.379030,997.357189,-1148.902017,7524.737123,7807.307876,7736.586957,-20336.980562,13486.953197,9796.009635,8785.733138,-5686.417900,32662.134786,2671.145221,26960.942383,6361.887617,-295.239990,-819.840027,-484.096008,4900.000000,-8400.000000,4060.000000
8915.350904,9874.106631,1095.458996,-1063.943036,7647.515255,7829.726676,7797.093129,-20264.382096,13545.581823,9885.438965,8799.926496,-5601.660085,32704.290176,2702.437663,27033.674959,6458.558912,-294.264008,-818.864014,-484.096008,5320.000000,-8400.000000,3500.000000
8964.636500,10050.305432,1210.816349,-938.370936,7801.786995,7867.679938,7895.887839,-20159.798284,13622.583583,9976.924655,8822.881737,-5482.502935,32760.460110,2735.942928,27151.312190,6596.066844,-295.239990,-816.911987,-483.119995,5460.000000,-8260.000000,2940.000000
8959.205027,10101.133299,1224.316803,-894.695627,7826.642135,7884.577857,7934.712819,-20135.814862,13642.163711,9970.956739,8834.594051,-5444.102638,32777.738008,2738.893359,27206.185723,6645.531254,-291.335999,-819.840027,-482.632019,6160.000000,-7840.000000,2240.000000
8901.269305,9982.490239,1132.249967,-974.513707,7704.802776,7863.142534,7874.094888,-20216.348197,13580.674062,9883.069680,8828.156749,-5520.009162,32742.534011,2712.026562,27149.501699,6565.512009,-293.776001,-819.351990,-483.608002,6440.000000,-7280.000000,1680.000000
8879.766927,9897.307741,1081.243286,-1037.523274,7634.238319,7845.775228,7823.892870,-20264.516206,13536.015276,9843.775313,8812.868156,-5580.403576,32714.773144,2693.429910,27088.146161,6493.695854,-295.727997,-815.447998,-483.119995,6860.000000,-6860.000000,1260.000000
8880.035148,9847.619813,1052.856571,-1075.074205,7594.586324,7835.962812,7796.400225,-20285.638605,13513.015331,9816.461482,8799.278295,-5622.402504,32694.880092,2681.739948,27040.648704,6440.297537,-292.800018,-815.447998,-479.216003,7140.000000,-6440.000000,840.000000
8869.730993,9782.643292,1013.606908,-1121.074095,7539.019887,7821.724751,7760.838599,-20316.662826,13486.684976,9783.336196,8787.275408,-5669.385871,32672.282478,2668.083032,26991.586625,6382.495926,-290.360016,-816.424011,-479.704010,6860.000000,-5740.000000,280.000000
8866.959377,9744.757085,995.434939,-1148.007947,7514.298858,7812.962867,7738.486855,-20334.320704,13477.587816,9781.190429,8780.279312,-5694.308066,32662.268896,2668.552419,26965.837415,6358.177228,-291.335999,-817.888000,-481.167999,7280.000000,-5040.000000,-280.000000
8902.722168,9824.351647,1060.970254,-1098.185909,7600.241315,7823.267022,7772.349748,-20287.471448,13519.072654,9853.587729,8793.153917,-5637.780504,32690.208577,2693.698131,27007.791639,6420.471540,-292.312012,-817.400024,-481.167999,7280.000000,-4900.000000,-560.000000
8953.170056,10003.545583,1184.485994,-976.435957,7764.705451,7856.504066,7867.054089,-20178.663156,13598.331940,9957.903321,8816.109159,-5516.254069,32746.154993,2730.109123,27116.443469,6557.934768,-292.800018,-815.936035,-481.656006,7000.000000,-4480.000000,-980.000000
8961.998995,10109.649314,1238.264291,-901.267040,7841.595452,7881.247447,7931.941203,-20116.815879,13636.329906,9984.971283,8831.978897,-5444.147342,32779.257927,2740.480332,27191.880607,6644.301909,-290.847992,-817.888000,-480.679993,7000.000000,-4060.000000,-980.000000
8912.780453,10026.679638,1156.345148,-956.408793,7738.665669,7865.824743,7894.054996,-20178.953729,13589.614760,9904.192079,8825.675705,-5493.097662,32753.531069,2716.251041,27161.392827,6589.741300,-290.360016,-818.376038,-481.656006,7140.000000,-3780.000000,-1120.000000
8887.970017,9929.717771,1088.373493,-1023.419323,7647.001165,7843.428295,7837.147455,-20241.784482,13547.012335,9853.386563,8813.695170,-5557.135410,32721.858647,2698.414349,27103.457106,6510.616125,-290.360016,-817.888000,-482.632019,7140.000000,-3500.000000,-1120.000000
8881.488011,9872.832581,1055.583484,-1064.255960,7603.504670,7830.374876,7804.290391,-20270.215901,13518.357398,9823.882261,8803.256905,-5605.057550,32699.685717,2682.924590,27054.842061,6452.903921,-288.895996,-819.840027,-484.584015,7000.000000,-3220.000000,-1120.000000
8871.541485,9812.952258,1019.172492,-1107.104255,7555.314309,7820.853033,7772.841486,-20299.608445,13490.685939,9792.790984,8792.930400,-5652.957338,32679.949126,2672.240457,27007.881046,6397.136318,-291.824005,-818.376038,-480.192017,6860.000000,-3220.000000,-980.000000
8862.377270,9758.682222,991.098701,-1146.510380,7515.304686,7810.191251,7738.777428,-20332.532565,13470.614072,9778.798792,8785.889600,-5690.888249,32664.906402,2667.166611,26970.263060,6356.366736,-289.872009,-819.351990,-484.096008,6440.000000,-3080.000000,-980.000000
8879.766927,9782.084499,1021.385315,-1131.668822,7553.079135,7811.957039,7744.790047,-20317.713358,13488.450764,9817.489662,8788.460051,-5673.722109,32675.255260,2679.258904,26982.802389,6385.178135,-287.432007,-820.815979,-485.559998,6440.000000,-3220.000000,-560.000000
8936.473302,9942.346506,1138.888435,-1022.748771,7708.580221,7841.617804,7826.999763,-20219.253924,13564.647861,9920.575907,8807.168461,-5567.417212,32725.926665,2715.714600,27077.193806,6514.080645,-291.335999,-820.328003,-488.000000,6020.000000,-2940.000000,-560.000000
8964.547093,10086.314092,1224.048582,-919.684877,7827.983240,7871.658548,7911.802281,-20132.551507,13622.337714,9979.405699,8824.267545,-5470.187124,32769.087883,2736.166446,27172.322830,6631.002621,-287.432007,-819.351990,-487.511993,5880.000000,-2800.000000,-140.000000
8930.952422,10064.163514,1187.659942,-929.094962,7784.084414,7869.691595,7913.121034,-20154.612679,13602.221144,9931.572966,8825.809816,-5478.747842,32764.885755,2722.196605,27179.363630,6627.940432,-288.407990,-820.815979,-485.559998,5740.000000,-2660.000000,-140.000000
8889.802860,9951.980108,1105.405522,-1006.543756,7673.040947,7846.982222,7853.486580,-20232.150880,13547.995811,9861.187322,8813.985743,-5550.608701,32731.335787,2698.436701,27113.850667,6545.306032,-287.432007,-818.864014,-487.024017,5740.000000,-2380.000000,0.000000
8879.454002,9885.841296,1068.323978,-1054.465896,7615.820481,7832.453589,7814.549841,-20269.031259,13514.825823,9826.117435,8803.413368,-5601.838899,32706.078316,2684.690378,27061.279364,6480.798898,-289.384003,-821.304016,-491.416016,5460.000000,-2100.000000,140.000000
8867.406412,9834.991078,1041.680699,-1092.821490,7574.536809,7823.959926,7786.945437,-20289.706622,13484.673319,9792.254542,8789.845859,-5647.972899,32681.804321,2673.156878,27020.375671,6426.931194,-288.407990,-821.304016,-488.976013,5600.000000,-1540.000000,0.000000
8852.989537,9772.160324,1005.023838,-1134.842769,7522.613707,7813.991048,7752.546102,-20323.971847,13460.667546,9760.492714,8778.491173,-5694.464528,32660.458405,2663.255055,26979.136703,6376.416251,-291.824005,-822.280029,-488.000000,5600.000000,-1260.000000,140.000000
8859.985633,9763.845475,1011.818768,-1138.508456,7523.463073,7812.627591,7743.605404,-20330.275039,13469.898816,9780.721042,8779.564056,-5695.135080,32663.319428,2672.307512,26971.827682,6374.985740,-288.895996,-822.280029,-489.951996,5600.000000,-980.000000,280.000000
8900.084662,9883.069680,1105.807853,-1056.611664,7641.212063,7832.833568,7803.239859,-20256.626041,13525.800529,9868.384584,8796.663141,-5612.880661,32704.133714,2702.772940,27039.017026,6467.946645,-286.455994,-820.815979,-487.511993,5880.000000,-700.000000,140.000000
8940.586023,10056.452162,1218.482997,-937.230997,7794.299161,7866.539999,7902.995694,-20150.634068,13594.912123,9955.489332,8812.488176,-5499.445558,32756.906182,2731.137303,27149.524051,6605.499280,-288.407990,-820.328003,-489.464020,5740.000000,-280.000000,140.000000
8930.550090,10100.954485,1225.657907,-904.306877,7813.253440,7877.179429,7937.931471,-20129.690484,13607.630266,9945.051067,8814.276315,-5467.907246,32768.640848,2727.538672,27193.489932,6648.727554,-288.895996,-818.864014,-490.440002,5880.000000,0.000000,0.000000
8885.220752,9986.290036,1127.444342,-984.974323,7690.520011,7854.045374,7875.994787,-20212.593104,13558.881111,9864.271863,8806.766129,-5539.477532,32732.922761,2700.381303,27134.101347,6565.556713,-286.944000,-822.280029,-490.928009,6020.000000,-140.000000,-140.000000
8874.447212,9909.467090,1076.303551,-1041.412478,7621.564880,7836.923937,7826.888004,-20262.437494,13529.712084,9832.219461,8797.780728,-5593.501698,32707.777048,2687.171422,27077.842006,6495.193421,-287.432007,-822.280029,-490.440002,6160.000000,140.000000,-140.000000
8870.468601,9861.276729,1047.358042,-1075.029501,7582.024644,7825.211623,7796.601390,-20287.583207,13508.924962,9808.124281,8789.801155,-5636.752324,32686.520539,2673.916837,27033.138518,6438.799970,-288.407990,-821.304016,-494.343994,6440.000000,280.000000,-280.000000
8855.045897,9793.305074,1005.604983,-1120.627060,7528.156940,7813.521661,7758.312852,-20323.301294,13480.202971,9774.127278,8781.240437,-5688.764833,32663.118263,2658.918817,26982.891796,6379.500792,-287.920013,-821.304016,-491.416016,6860.000000,140.000000,-420.000000
8852.654261,9757.005841,991.657495,-1146.823305,7508.465053,7806.324399,7734.441189,-20341.696780,13472.379860,9772.048565,8775.697205,-5710.624839,32654.423434,2659.857590,26957.567270,6357.238454,-289.384003,-820.328003,-490.928009,7000.000000,280.000000,-700.000000
8882.449136,9824.686924,1051.738984,-1101.784539,7586.472641,7817.500271,7766.203018,-20298.155582,13510.802509,9833.493511,8780.614588,-5661.361594,32677.311620,2684.355102,26996.973395,6416.783502,-287.920013,-818.376038,-494.343994,7280.000000,420.000000,-840.000000
8933.567576,9998.292923,1170.024415,-985.041378,7746.913463,7850.469095,7857.822818,-20192.364775,13584.138582,9933.897547,8800.641751,-5546.875959,32730.173496,2719.380286,27101.043117,6552.525646,-285.968018,-821.791992,-494.343994,7280.000000,280.000000,-980.000000
8946.531587,10105.693055,1225.836721,-913.158168,7825.681010,7873.580798,7918.999543,-20132.707969,13622.695341,9969.012138,8818.344333,-5472.578761,32762.605877,2729.125646,27169.752380,6639.205711,-287.432007,-818.376038,-494.832001,7700.000000,140.000000,-1120.000000
8898.475337,10027.864281,1151.271302,-960.588570,7732.451884,7862.404926,7885.337816,-20191.783630,13583.468030,9897.218334,8815.684475,-5513.638915,32739.315360,2706.930364,27144.092577,6588.489603,-284.015991,-819.840027,-493.856018,7700.000000,140.000000,-1260.000000
8864.120706,9927.817873,1079.768071,-1025.587443,7639.043944,7840.679030,7834.420542,-20260.515244,13533.511881,9842.478912,8801.893449,-5581.141184,32705.854798,2688.691341,27091.387164,6505.788148,-284.015991,-820.328003,-492.391998,8120.000000,-420.000000,-1120.000000
8848.519188,9867.825790,1045.793420,-1065.664120,7593.558144,7826.329211,7807.710207,-20295.227503,13499.693692,9809.487737,8792.393958,-5629.309193,32681.357286,2675.056776,27048.360055,6447.718316,-285.480011,-819.840027,-494.343994,8260.000000,-840.000000,-1120.000000
8839.422028,9812.840499,1013.338687,-1104.042066,7549.145228,7817.299106,7783.369158,-20323.770681,13476.067898,9778.374109,8780.905161,-5671.553990,32660.279591,2665.087898,27007.635177,6396.085786,-286.455994,-817.888000,-492.391998,8260.000000,-1260.000000,-1120.000000
8835.957508,9760.425658,983.923791,-1138.016717,7510.588468,7809.051312,7752.166122,-20352.716190,13460.980470,9760.291548,8769.103440,-5706.601525,32644.901591,2661.332805,26970.911261,6355.852646,-286.944000,-818.864014,-493.368011,8120.000000,-1400.000000,-980.000000
8857.705755,9780.430470,1010.678829,-1126.460865,7542.953794,7815.242745,7753.551931,-20337.561707,13480.538247,9799.921191,8771.226856,-5686.976694,32655.630428,2674.386224,26977.505026,6378.047929,-285.480011,-816.911987,-490.928009,8260.000000,-2100.000000,-980.000000
8914.792110,9936.423294,1127.243176,-1023.799303,7691.637598,7844.657641,7833.258251,-20241.225689,13553.203768,9906.807233,8789.845859,-5580.470631,32705.407763,2709.679629,27066.643782,6499.172032,-283.528015,-818.376038,-492.391998,8400.000000,-2800.000000,-560.000000
8942.955308,10084.011863,1218.415942,-920.355430,7814.438083,7875.279531,7922.262898,-20151.930470,13609.440757,9967.626329,8808.442510,-5482.234714,32750.692397,2733.439533,27167.092522,6617.256298,-286.455994,-818.864014,-491.416016,8260.000000,-3220.000000,-560.000000
8915.596773,10070.533761,1185.961209,-923.842302,7779.010568,7877.626464,7928.052000,-20170.527121,13598.376643,9923.973372,8813.203432,-5485.900400,32746.780842,2721.570757,27181.151769,6618.262126,-286.944000,-819.840027,-491.416016,7840.000000,-3220.000000,-420.000000
8877.062366,9959.669108,1100.622249,-998.698294,7668.637653,7854.805333,7868.730470,-20249.249965,13550.365096,9854.302985,8802.184022,-5556.688375,32711.152161,2699.643695,27120.936170,6531.872634,-282.552002,-819.840027,-489.951996,7560.000000,-3360.000000,-140.000000
8862.757249,9892.166840,1060.813792,-1045.458143,7615.149929,7837.885062,7828.206757,-20287.359689,13518.536212,9822.429397,8790.672873,-5606.622172,32685.984097,2685.495041,27069.281288,6465.242084,-284.992004,-821.791992,-490.928009,7140.000000,-3640.000000,0.000000
8850.597900,9836.376886,1028.917853,-1082.249115,7572.301635,7827.759722,7799.998856,-20312.192477,13490.261256,9791.762804,8779.519353,-5652.979690,32666.202803,2672.039291,27024.868372,6413.363685,-284.503998,-818.864014,-484.584015,7140.000000,-3640.000000,280.000000
8837.477426,9771.959158,991.948067,-1124.382153,7522.680762,7817.097940,7768.862876,-20344.960135,13466.411944,9764.672490,8769.818696,-5700.343037,32648.835498,2663.411518,26982.265947,6363.854571,-285.968018,-818.864014,-488.488007,6860.000000,-3500.000000,140.000000
8845.881682,9757.207007,992.931544,-1137.681441,7520.780864,7811.755873,7753.887207,-20354.638440,13473.944482,9781.033967,8769.326957,-5706.042732,32648.522574,2668.708881,26966.507967,6355.360908,-287.920013,-821.791992,-487.511993,6720.000000,-3080.000000,560.000000
8893.826174,9870.217427,1082.249115,-1060.903199,7637.099342,7830.397228,7807.911373,-20285.750364,13530.539099,9869.345709,8782.514487,-5626.425818,32685.537062,2697.989666,27032.311503,6445.550197,-286.944000,-821.304016,-488.000000,6300.000000,-3080.000000,560.000000
8936.629765,10040.135388,1195.997142,-939.846151,7790.991103,7863.813086,7904.381502,-20178.730211,13597.393167,9955.958719,8801.804042,-5510.621430,32736.811964,2727.002231,27143.265562,6581.269989,-288.407990,-821.791992,-492.391998,6300.000000,-2660.000000,840.000000
8926.303259,10090.873848,1213.878538,-899.031865,7816.203870,7878.542886,7943.877035,-20149.449426,13606.915010,9951.264852,8811.258830,-5468.555447,32753.106386,2726.443437,27193.378174,6628.432170,-287.432007,-821.791992,-488.488007,6160.000000,-2100.000000,980.000000
8877.487049,9979.025719,1124.203339,-972.099718,7695.705616,7859.521551,7889.875220,-20226.697055,13551.549739,9869.815096,8802.765167,-5533.934299,32718.975272,2700.604820,27141.298609,6548.412925,-286.455994,-822.280029,-486.048004,6020.000000,-1820.000000,1120.000000
8863.919540,9902.001608,1070.939132,-1027.107361,7625.834063,7841.841321,7847.026926,-20274.283919,13518.312695,9832.644145,8792.237495,-5587.869059,32691.236757,2685.584448,27092.214178,6479.077814,-286.944000,-823.255981,-488.488007,5740.000000,-1120.000000,1120.000000
8854.867083,9848.759752,1039.534931,-1067.251094,7583.611618,7830.061952,7817.276754,-20298.267340,13490.238904,9804.391540,8780.793402,-5634.673611,32670.941373,2671.614608,27047.041303,6422.617307,-290.847992,-821.304016,-487.024017,5600.000000,-980.000000,1400.000000
8839.600842,9783.827935,1000.531137,-1113.362743,7528.581623,7817.321458,7780.754004,-20329.895059,13461.248691,9769.902798,8770.288082,-5685.143850,32647.360283,2659.611721,26996.481657,6365.620359,-292.800018,-822.280029,-487.511993,5600.000000,-700.000000,1540.000000
8832.247118,9749.585062,985.510765,-1138.575511,7504.642904,7810.459472,7758.022280,-20347.865861,13450.922185,9764.672490,8769.550475,-5709.037865,32640.364187,2659.522314,26969.145473,6344.900292,-290.360016,-822.768005,-486.048004,5880.000000,-560.000000,1680.000000
8861.416145,9812.192298,1041.770106,-1100.510490,7572.323987,7819.802501,7782.452736,-20309.063233,13488.160192,9827.123264,8772.165629,-5665.317853,32665.196975,2678.789518,26998.381555,6399.885583,-291.824005,-821.791992,-486.536011,6020.000000,-420.000000,1680.000000
8922.168186,9990.313350,1167.498668,-980.012236,7734.642355,7851.519627,7876.553580,-20198.980892,13571.018108,9929.807178,8788.504754,-5544.439619,32721.232798,2713.859405,27102.361870,6537.527625,-289.872009,-822.768005,-485.071991,6160.000000,0.000000,1680.000000
8942.128294,10103.077901,1229.524759,-898.897755,7819.824853,7875.391290,7948.503846,-20135.099606,13614.916934,9964.921768,8806.453205,-5463.123973,32757.621438,2727.315155,27183.297537,6627.158121,-290.847992,-824.231995,-485.559998,6440.000000,-140.000000,1820.000000
8895.547258,10026.746693,1157.283921,-944.517665,7728.115645,7862.762554,7919.915965,-20192.096554,13575.957844,9893.507945,8802.966333,-5505.748749,32735.157935,2705.388094,27160.521109,6578.431318,-290.360016,-822.280029,-489.464020,6580.000000,-420.000000,1960.000000
8861.282034,9921.626439,1086.071263,-1016.490283,7630.572633,7839.963775,7863.030775,-20259.934099,13527.186337,9836.980383,8792.259847,-5574.368605,32702.837313,2685.897372,27099.880826,6497.786224,-292.312012,-821.304016,-485.559998,6860.000000,-420.000000,1820.000000
8854.822380,9866.037651,1056.656367,-1055.516428,7587.657283,7828.966716,7834.755818,-20286.107991,13501.504183,9810.471214,8784.995530,-5616.345181,32683.078370,2673.961541,27055.713779,6443.471485,-291.824005,-825.208008,-489.464020,7000.000000,-280.000000,1540.000000
8844.518226,9807.699598,1021.899405,-1095.838975,7542.015021,7818.014362,7804.245687,-20315.768756,13475.844380,9779.826972,8775.004300,-5661.026318,32662.380655,2660.930474,27010.429145,6387.189792,-292.800018,-822.280029,-483.119995,6860.000000,-420.000000,1540.000000
8834.951679,9756.379993,991.702198,-1132.697002,7503.592372,7808.872498,7773.020300,-20345.720094,13455.057258,9760.425658,8765.124829,-5699.896002,32644.812184,2656.705994,26972.274717,6346.174341,-289.872009,-824.720032,-482.632019,7280.000000,-700.000000,1540.000000
8850.016755,9773.926112,1014.791550,-1123.197511,7533.476655,7810.906507,7776.306006,-20333.717207,13470.658776,9792.254542,8765.750678,-5685.389720,32653.842289,2670.452317,26981.349526,6368.839010,-290.847992,-826.184021,-481.167999,7560.000000,-700.000000,1260.000000
8899.391758,9921.022942,1130.283014,-1025.095704,7678.360662,7838.488560,7851.229054,-20240.041046,13536.238794,9891.719805,8781.955693,-5583.935152,32704.647804,2704.203451,27066.464968,6491.170107,-293.287994,-827.160034,-482.632019,7420.000000,-700.000000,980.000000
8926.996163,10066.577502,1225.859073,-925.719848,7802.904582,7867.881104,7934.466950,-20150.723475,13591.157030,9951.510722,8800.127661,-5486.034511,32751.139432,2724.543539,27159.247060,6612.651838,-290.360016,-826.671997,-478.727997,7420.000000,-980.000000,700.000000
8895.793128,10051.043040,1193.605506,-931.128971,7768.751117,7866.785868,7936.947994,-20164.670964,13576.091954,9906.248439,8802.876926,-5489.275514,32747.809022,2709.746684,27169.819435,6615.848138,-291.335999,-825.208008,-481.167999,7140.000000,-980.000000,280.000000
8857.526941,9938.367896,1107.908917,-1007.929564,7655.047793,7841.886025,7876.844153,-20243.796139,13527.476910,9833.806435,8791.477536,-5559.571750,32710.392202,2687.171422,27110.386146,6531.805579,-291.335999,-824.720032,-478.239990,7000.000000,-1120.000000,0.000000
8848.563891,9874.285445,1069.843897,-1052.856571,7600.017798,7828.117350,7841.036658,-20279.737744,13499.291360,9803.095138,8780.838106,-5608.812643,32686.229966,2675.727329,27062.240489,6470.539447,-289.872009,-823.744019,-482.144012,6440.000000,-1260.000000,-280.000000
8843.422990,9824.888089,1044.675832,-1084.193717,7562.846847,7820.115426,7817.254402,-20300.278997,13476.179657,9777.122411,8771.003338,-5651.616234,32666.381617,2664.953788,27024.175468,6421.499720,-290.360016,-823.255981,-484.096008,6160.000000,-1680.000000,-700.000000
8830.190758,9761.699708,1008.376599,-1127.444342,7513.002457,7808.291353,7782.296274,-20333.426634,13449.469322,9746.589928,8760.766239,-5698.398435,32645.795661,2655.275483,26980.902491,6370.090708,-291.335999,-825.695984,-483.608002,5600.000000,-1820.000000,-980.000000
8837.119798,9751.261443,1010.723533,-1139.760153,7509.694399,7802.166975,7763.856085,-20346.055370,13454.654927,9761.744411,8759.402783,-5705.863918,32644.186335,2658.292968,26965.032752,6360.770030,-288.895996,-823.255981,-485.559998,5460.000000,-1540.000000,-1120.000000
8890.831040,9873.726651,1103.684438,-1061.417289,7627.085760,7822.395304,7819.914260,-20276.764962,13520.927849,9857.096953,8777.977082,-5621.709600,32682.608984,2687.998436,27030.165736,6452.702755,-289.384003,-825.695984,-482.144012,4760.000000,-1540.000000,-1260.000000
8945.078724,10054.708726,1223.847416,-936.269872,7783.346806,7858.873350,7919.245412,-20169.364830,13603.294027,9956.405754,8805.112100,-5498.283267,32739.963560,2720.564928,27140.404539,6593.228172,-286.455994,-825.695984,-480.192017,4060.000000,-1260.000000,-980.000000
8937.546186,10109.470500,1240.745335,-892.438101,7812.113501,7874.050185,7957.980985,-20140.911059,13618.359103,9953.567082,8815.371551,-5456.440801,32759.186060,2723.716524,27192.282938,6641.887920,-287.920013,-827.160034,-482.632019,3780.000000,-840.000000,-980.000000
8879.476354,9990.469812,1142.285900,-973.016140,7687.346064,7849.955004,7895.731377,-20220.729139,13557.651765,9864.316567,8801.759339,-5530.358020,32721.791592,2693.809890,27134.324865,6559.745259,-287.920013,-830.088013,-478.727997,2800.000000,-140.000000,-840.000000
8855.448229,9904.482651,1087.591182,-1034.528140,7612.914754,7829.905490,7846.423429,-20273.300442,13514.043512,9819.367208,8787.744795,-5591.378282,32690.655612,2676.599047,27078.221986,6486.386834,-289.384003,-830.088013,-478.239990,2380.000000,140.000000,-840.000000
8846.999269,9852.514845,1062.154897,-1068.771013,7573.866257,7820.249536,7819.064894,-20302.737689,13487.579046,9790.868734,8776.434812,-5637.825207,32669.868489,2666.183134,27040.224021,6428.540519,-283.528015,-829.600037,-480.192017,1960.000000,0.000000,-700.000000
8831.576566,9790.734624,1025.967422,-1107.864214,7525.184158,7811.711170,7790.387605,-20338.388722,13459.728773,9756.916434,8764.767202,-5686.015568,32649.975437,2655.476648,26999.454439,6377.220914,-287.920013,-832.040039,-483.608002,1400.000000,-420.000000,-560.000000
8826.815644,9747.059315,1002.743960,-1139.067249,7494.897544,7805.832661,7764.928969,-20363.087399,13446.541243,9751.082629,8759.738059,-5711.407150,32640.051262,2655.968387,26970.866557,6351.650518,-284.015991,-828.624023,-484.584015,1120.000000,-980.000000,-420.000000
8858.465714,9812.549926,1062.132545,-1096.442473,7568.144210,7818.148472,7792.689835,-20318.115690,13483.935712,9817.579069,8767.047079,-5662.657996,32663.185318,2680.510602,27005.064726,6411.016752,-284.992004,-832.040039,-485.559998,1120.000000,-1820.000000,-140.000000
8910.008837,9983.898399,1182.139061,-979.520497,7728.160349,7850.714964,7883.214400,-20211.274351,13556.511826,9918.318381,8783.922647,-5546.093648,32716.695394,2714.395847,27107.860399,6547.742372,-284.503998,-833.504028,-487.024017,1540.000000,-2660.000000,140.000000
8931.198291,10101.513279,1243.069916,-896.170842,7818.573155,7875.212476,7955.119962,-20149.024743,13603.115213,9958.395059,8801.848746,-5462.989862,32754.380435,2726.443437,27191.746496,6638.311641,-287.432007,-834.968018,-486.536011,1680.000000,-3080.000000,280.000000
8889.065252,10029.518310,1170.963189,-941.433125,7730.708448,7862.762554,7925.034514,-20204.211200,13568.805286,9886.936532,8800.418234,-5500.406683,32736.007301,2701.610649,27166.600784,6590.255390,-287.432007,-834.479980,-484.584015,1960.000000,-3640.000000,420.000000
8857.571644,9925.537995,1099.527013,-1011.885823,7636.205272,7841.059010,7869.423374,-20270.104142,13519.698503,9830.140749,8792.796289,-5566.769012,32704.468990,2683.483384,27105.647577,6509.789110,-286.455994,-832.040039,-481.656006,2240.000000,-3640.000000,560.000000
8847.066325,9867.244645,1066.982873,-1051.537818,7590.339493,7828.877309,7838.823836,-20296.836829,13487.959026,9801.038778,8785.979007,-5614.981725,32684.039495,2672.106346,27058.373637,6452.658052,-285.968018,-827.648010,-479.704010,3220.000000,-4200.000000,560.000000
8840.874891,9810.717083,1033.969347,-1090.027522,7543.311422,7819.333115,7810.817100,-20321.244934,13464.377935,9774.887237,8771.271559,-5662.680347,32661.218364,2659.455259,27014.743032,6400.064397,-285.480011,-827.648010,-480.679993,3640.000000,-3780.000000,560.000000
8838.840883,9756.223530,1007.035495,-1125.723258,7501.267791,7811.107673,7780.195210,-20352.805597,13449.245804,9758.168132,8763.090821,-5696.900868,32645.102757,2655.677814,26976.566252,6357.260806,-284.015991,-824.231995,-481.167999,4060.000000,-3500.000000,700.000000
8860.052688,9776.161286,1034.975175,-1111.462845,7533.051972,7816.539146,7786.990140,-20343.619030,13471.038755,9797.954237,8765.303643,-5675.018510,32657.329161,2670.765241,26988.189159,6379.098461,-284.503998,-822.768005,-481.656006,4480.000000,-3220.000000,560.000000
8911.707570,9925.985029,1146.286863,-1010.790588,7680.417023,7845.574063,7865.109487,-20248.937040,13540.910308,9901.956904,8784.369681,-5572.088727,32708.782877,2703.354085,27077.238509,6500.021398,-286.455994,-822.768005,-481.167999,5040.000000,-2660.000000,840.000000
8939.155512,10072.433659,1238.979547,-906.922031,7805.229164,7875.838325,7951.722497,-20155.819673,13595.649731,9964.206512,8803.882754,-5471.237656,32757.196755,2724.096504,27175.988516,6621.011391,-286.944000,-819.840027,-480.679993,5040.000000,-2100.000000,980.000000
8909.427692,10064.744659,1208.581174,-905.692685,7774.830791,7877.827630,7960.529084,-20168.806037,13584.362100,9920.642963,8808.174289,-5468.555447,32755.430967,2712.630059,27196.373307,6626.599327,-287.920013,-818.864014,-483.608002,5040.000000,-980.000000,1120.000000
8863.874836,9946.012192,1116.223766,-988.774119,7654.488999,7851.452571,7895.731377,-20253.720314,13530.673210,9845.429342,8797.579562,-5544.260805,32716.829505,2686.031483,27130.346254,6535.963003,-291.824005,-815.936035,-481.167999,5040.000000,-420.000000,1540.000000
8847.915691,9875.090107,1073.666045,-1040.585463,7598.274362,7835.538129,7853.240711,-20293.573474,13494.597494,9810.717083,8783.743833,-5596.362721,32690.499150,2671.614608,27077.082047,6470.651206,-289.872009,-817.400024,-482.632019,4760.000000,280.000000,1960.000000
8839.131455,9824.776331,1045.614606,-1076.392958,7560.186989,7823.803463,7825.926879,-20317.534544,13470.502313,9783.827935,8771.584484,-5636.685268,32670.337876,2657.935340,27034.747843,6417.543461,-292.312012,-815.447998,-489.464020,4340.000000,840.000000,2100.000000
8828.894356,9759.308071,1003.615678,-1123.666897,7505.358160,7809.431292,7786.520754,-20357.119484,13447.189444,9753.518969,8761.526199,-5684.249781,32649.438995,2645.306605,26986.266909,6359.697146,-297.192017,-820.328003,-489.464020,4060.000000,1820.000000,2380.000000
8839.220862,9747.483998,1005.113245,-1136.429743,7506.252230,7805.698550,7771.992120,-20364.830835,13454.476113,9768.762859,8761.637957,-5689.323627,32651.629466,2653.353233,26974.107560,6354.735059,-296.704010,-818.864014,-488.000000,3920.000000,2660.000000,2660.000000
8880.728052,9854.302985,1091.413330,-1068.927475,7617.005124,7823.132911,7820.629516,-20298.088526,13508.679093,9853.364212,8773.193809,-5616.546347,32688.331030,2681.918762,27031.909172,6441.839807,-303.048004,-818.864014,-485.559998,3640.000000,2660.000000,2660.000000
8924.716285,10023.729208,1205.407227,-955.291206,7769.019338,7856.101734,7913.836290,-20194.108211,13579.444716,9940.871291,8791.812812,-5503.200651,32741.438775,2708.271469,27137.051777,6577.067861,-303.048004,-819.351990,-485.071991,3220.000000,3220.000000,2800.000000
8919.687142,10085.800002,1226.842550,-911.191214,7802.144623,7870.786830,7956.170494,-20163.709839,13598.264885,9940.536015,8803.815699,-5459.681804,32761.354180,2708.115006,27188.170217,6632.030801,-303.048004,-822.280029,-486.048004,3360.000000,2940.000000,2800.000000
8868.479296,9982.937274,1136.049764,-979.654608,7687.167250,7850.670260,7908.695389,-20240.465729,13546.520596,9855.532331,8793.668007,-5525.552395,32730.240551,2683.461032,27139.666932,6561.578102,-305.488007,-821.304016,-483.119995,2940.000000,2520.000000,2940.000000
8837.969165,9893.105613,1079.768071,-1040.183132,7609.718455,7830.441932,7861.913188,-20294.959282,13498.956084,9804.659761,8781.933341,-5590.327750,32699.149275,2667.032500,27082.915852,6492.444157,-303.536011,-821.791992,-483.608002,2520.000000,1540.000000,2940.000000
8829.676667,9840.109627,1054.532952,-1078.225801,7570.401737,7819.377818,7833.973507,-20318.316855,13472.759840,9781.995092,8770.131620,-5633.511321,32677.199862,2654.671985,27038.279419,6442.353897,-299.631989,-822.768005,-481.656006,2520.000000,840.000000,2800.000000
8827.977935,9782.285664,1019.351306,-1117.408409,7522.680762,7808.000780,7802.904582,-20350.793940,13453.872616,9752.133161,8760.341556,-5676.247856,32656.435091,2644.859570,26995.498180,6388.687359,-302.071991,-824.231995,-481.656006,2380.000000,140.000000,2520.000000
8834.661106,9747.483998,1003.906250,-1138.419049,7499.457300,7802.479899,7782.117460,-20370.865806,13449.335211,9748.400420,8755.178303,-5697.839641,32648.164946,2647.340613,26972.475883,6363.832219,-300.608002,-824.231995,-482.632019,2240.000000,-980.000000,2380.000000
8866.646453,9808.347798,1061.774917,-1100.108159,7565.998443,7811.957039,7807.866670,-20336.153547,13484.405098,9812.795796,8763.470800,-5654.164333,32670.002600,2670.228800,27003.254235,6416.358819,-296.216003,-822.280029,-480.192017,1960.000000,-1540.000000,1820.000000
8917.653134,9980.299768,1185.447119,-983.856736,7725.299326,7843.182426,7899.307656,-20230.295686,13557.472951,9919.413617,8787.677740,-5538.471703,32725.457278,2705.656315,27104.485286,6552.100963,-296.704010,-822.768005,-482.632019,1680.000000,-2240.000000,1120.000000
8934.618108,10094.919514,1249.887198,-900.261211,7814.102806,7868.417545,7973.269579,-20159.775932,13600.678873,9955.757553,8804.329789,-5459.882970,32764.773996,2719.894376,27188.438438,6647.140580,-296.704010,-821.791992,-482.144012,1820.000000,-3080.000000,560.000000
8889.020549,10023.282173,1177.936933,-946.082288,7724.472311,7857.733412,7943.005317,-20210.916723,13561.853893,9883.494363,8799.971199,-5503.401816,32743.785708,2696.581506,27166.600784,6604.314638,-293.287994,-819.840027,-483.119995,1540.000000,-4060.000000,0.000000
8856.074078,9919.815948,1101.784539,-1017.876091,7627.085760,7836.901586,7882.856772,-20277.681384,13512.233020,9825.670400,8786.336635,-5573.161611,32706.681813,2675.235590,27103.814733,6522.775474,-290.847992,-820.815979,-482.632019,1400.000000,-4620.000000,-700.000000
8848.005098,9863.847180,1064.837106,-1055.851705,7582.359920,7825.859824,7850.357336,-20308.504439,13486.439107,9796.635484,8776.948902,-5618.178024,32684.061847,2663.702090,27058.865375,6465.376194,-291.335999,-819.840027,-486.048004,1260.000000,-4620.000000,-1260.000000
8839.533787,9812.102891,1029.253129,-1092.262696,7540.718620,7816.829719,7821.143606,-20335.751216,13464.936729,9766.058298,8767.941149,-5660.534580,32662.470062,2652.123887,27019.034567,6414.771845,-287.432007,-821.304016,-485.559998,1260.000000,-4760.000000,-1820.000000
8831.017772,9757.899911,995.859622,-1130.260662,7498.920858,7805.877364,7787.347768,-20367.758914,13446.116560,9747.036963,8759.268672,-5697.392606,32644.029873,2646.200674,26980.768380,6369.710728,-285.968018,-822.768005,-485.559998,1400.000000,-4900.000000,-2100.000000
8844.205301,9769.053432,1014.858605,-1125.991479,7522.725466,7805.653847,7782.899771,-20360.628707,13457.404191,9779.983435,8760.185094,-5683.869801,32651.875335,2657.845933,26981.036601,6385.468708,-284.015991,-822.768005,-490.440002,1400.000000,-4480.000000,-2380.000000
8892.820345,9915.747930,1123.085752,-1028.448466,7668.347081,7832.654754,7858.180446,-20266.438456,13523.855927,9879.247532,8774.289045,-5582.169364,32701.585615,2691.999399,27065.727361,6506.190480,-284.992004,-821.791992,-489.464020,1260.000000,-4340.000000,-2240.000000
8926.124445,10071.628996,1218.147721,-920.824816,7799.216545,7863.433106,7950.224930,-20171.242377,13584.719728,9947.375649,8793.310379,-5476.490316,32750.312418,2716.474559,27167.450150,6629.974440,-282.552002,-821.791992,-482.144012,1120.000000,-3780.000000,-2520.000000
8900.039959,10070.869037,1193.873727,-914.409866,7773.914370,7866.294130,7961.490209,-20183.424077,13577.120134,9910.316457,8802.921629,-5471.729394,32751.586467,2707.243288,27187.253796,6638.088124,-284.992004,-822.280029,-488.976013,1400.000000,-2800.000000,-2240.000000
8851.246101,9952.762419,1108.244194,-994.160890,7658.020575,7840.902548,7899.128842,-20265.566738,13519.877317,9832.934717,8793.310379,-5548.172360,32715.846028,2683.729253,27124.646559,6549.351698,-282.063995,-823.255981,-484.584015,1260.000000,-2100.000000,-2240.000000
8846.798104,9887.025939,1070.939132,-1037.322108,7605.829252,7827.446798,7867.679938,-20296.725070,13495.692729,9804.458595,8779.117021,-5594.015788,32692.421400,2674.788555,27081.954727,6489.136099,-284.992004,-824.231995,-484.584015,1540.000000,-1120.000000,-2100.000000
8840.092580,9831.772427,1039.780800,-1077.823469,7564.433821,7817.880251,7837.370972,-20317.780413,13470.748183,9771.981510,8762.241454,-5639.076905,32670.561394,2659.544666,27036.245410,6432.094447,-283.528015,-826.184021,-485.071991,1540.000000,-420.000000,-1820.000000
8828.469673,9764.359565,998.787701,-1127.220825,7510.811986,7804.357446,7794.925010,-20357.007725,13446.295374,9743.371277,8750.886768,-5687.110804,32648.768443,2645.172494,26985.328136,6372.303530,-285.480011,-823.255981,-487.024017,1400.000000,0.000000,-1540.000000
8835.063438,9748.221606,999.033570,-1139.804857,7509.426178,7800.289428,7776.976559,-20370.798751,13451.928014,9761.342080,8753.121943,-5691.245877,32648.477870,2650.983948,26970.821854,6364.212199,-285.480011,-823.255981,-483.608002,1680.000000,840.000000,-980.000000
8878.023491,9854.526502,1086.138318,-1067.988702,7620.559051,7820.718923,7829.436103,-20305.956341,13503.940523,9847.709220,8768.924626,-5616.233422,32685.022972,2682.343445,27033.116166,6454.021508,-284.503998,-824.720032,-487.024017,1540.000000,1260.000000,-980.000000
8924.179843,10027.506653,1200.713360,-948.362165,7775.143716,7855.721755,7927.068523,-20199.986720,13575.130829,9937.719695,8789.130603,-5500.004351,32740.544705,2714.462902,27142.706769,6591.596495,-284.503998,-822.280029,-485.559998,1820.000000,1680.000000,-420.000000
8921.810558,10089.890372,1221.545186,-904.105711,7812.672295,7869.781002,7968.396898,-20170.147141,13593.168687,9938.971393,8802.116966,-5454.563255,32760.460110,2716.295745,27192.707621,6643.296080,-284.503998,-824.231995,-486.048004,1820.000000,1540.000000,0.000000
8872.144982,9983.361957,1130.417124,-974.737224,7698.141956,7849.530321,7913.411607,-20249.272317,13540.820901,9857.700450,8795.031464,-5522.892537,32726.328996,2689.428948,27141.253905,6565.199085,-284.015991,-824.720032,-488.976013,1960.000000,1820.000000,420.000000
8853.213054,9895.586657,1074.157783,-1032.740001,7620.849624,7830.285469,7866.249426,-20303.229428,13502.465308,9818.964877,8784.593199,-5584.628056,32695.885920,2675.414404,27086.648594,6489.694892,-286.455994,-822.768005,-488.976013,1820.000000,1540.000000,1120.000000
8848.563891,9844.647031,1049.816734,-1067.362853,7582.963417,7819.601335,7840.589624,-20322.787204,13480.292378,9796.479022,8774.311396,-5626.515225,32673.400065,2664.193829,27045.566087,6438.598804,-285.480011,-824.231995,-486.048004,1680.000000,1400.000000,1400.000000
8832.247118,9779.201124,1012.601079,-1110.904051,7533.521358,7807.911373,7807.889021,-20351.531547,13452.419752,9762.996109,8759.849818,-5674.862048,32649.260181,2651.766259,27000.952005,6387.480365,-284.503998,-821.791992,-483.608002,1680.000000,1120.000000,2240.000000
8828.290859,9735.615222,994.384407,-1140.743630,7503.793538,7799.551821,7781.893943,-20374.196216,13442.294412,9754.323632,8752.227873,-5700.633609,32639.179544,2652.503866,26973.459360,6359.093649,-288.407990,-820.328003,-488.488007,1400.000000,840.000000,2520.000000
8854.665918,9793.550944,1049.101478,-1104.310287,7568.725356,7806.771434,7805.922068,-20337.718169,13472.648081,9809.912421,8757.681699,-5657.338280,32660.994847,2672.911009,27003.097773,6408.312191,-285.968018,-821.791992,-487.024017,1120.000000,560.000000,3220.000000
8904.800881,9966.396983,1171.007892,-988.215326,7732.407180,7838.555615,7896.200764,-20230.832127,13546.811169,9912.641038,8777.641806,-5540.371602,32716.874208,2706.058646,27108.061565,6546.557730,-287.432007,-821.791992,-488.976013,1120.000000,280.000000,3500.000000
8920.603564,10081.419060,1233.883349,-907.279659,7822.305897,7861.399098,7964.015956,-20163.933356,13589.659463,9952.695364,8794.919705,-5460.218246,32753.754586,2717.882719,27188.907825,6640.904443,-283.528015,-820.815979,-488.000000,280.000000,560.000000,3640.000000
8877.352938,10016.554298,1164.816459,-947.959834,7738.866835,7849.955004,7937.350325,-20214.716520,13558.992870,9883.963750,8792.751586,-5497.232735,32735.157935,2694.949829,27168.992420,6598.592591,-290.847992,-818.864014,-491.416016,-140.000000,280.000000,3920.000000
8846.172255,9914.809157,1093.022656,-1018.278422,7643.201368,7828.720847,7881.135688,-20279.335413,13514.624657,9826.810339,8781.419251,-5563.907989,32702.882016,2677.001378,27108.128620,6517.679276,-288.407990,-820.815979,-488.488007,-560.000000,280.000000,3920.000000
8839.802008,9859.913273,1061.841972,-1055.136449,7599.526060,7817.589678,7851.989013,-20304.436422,13489.657758,9800.412929,8771.048042,-5604.834033,32682.676039,2668.820640,27065.660306,6459.631796,-288.407990,-819.840027,-488.976013,-700.000000,140.000000,4200.000000
8835.085790,9805.129147,1027.286175,-1089.513432,7552.810914,7809.252478,7823.848167,-20329.939762,13470.234093,9770.305129,8761.481495,-5647.369402,32661.240716,2657.868285,27026.254180,6404.646504,-291.824005,-819.351990,-489.951996,-980.000000,140.000000,3920.000000
8825.161615,9746.835798,992.663323,-1131.869987,7506.632210,7796.154356,7786.833678,-20364.048524,13449.335211,9748.467475,8753.300757,-5693.101071,32642.822879,2647.966462,26982.735334,6355.517370,-289.872009,-821.791992,-489.951996,-1680.000000,0.000000,3920.000000
8836.829226,9758.659870,1010.656477,-1127.891377,7527.084056,7796.511983,7785.738443,-20358.527644,13461.427505,9778.128240,8754.440696,-5684.786223,32650.288361,2659.946997,26982.712982,6370.358928,-290.847992,-820.328003,-487.511993,-2100.000000,-140.000000,3640.000000
8888.797031,9904.929686,1119.867101,-1031.041268,7668.235322,7824.429312,7857.241673,-20269.858273,13528.728608,9878.308759,8771.696242,-5581.923495,32696.981156,2692.871117,27064.140387,6484.308122,-294.752014,-821.304016,-493.856018,-1960.000000,-140.000000,3500.000000
8922.279945,10058.419115,1211.576308,-924.334040,7796.869611,7855.833513,7946.179264,-20176.673851,13586.753736,9945.900434,8790.248190,-5474.746880,32744.143336,2714.842882,27164.432664,6609.254373,-293.776001,-823.744019,-490.928009,-2240.000000,0.000000,3220.000000
8897.827136,10058.910854,1190.856241,-916.287412,7776.462469,7859.610958,7962.093706,-20182.552359,13578.952978,9910.428215,8794.875001,-5466.700252,32747.026711,2705.745722,27188.416086,6624.542966,-295.239990,-822.280029,-493.856018,-2380.000000,-420.000000,2660.000000
8853.034240,9940.893643,1103.997362,-992.171585,7663.697918,7836.387496,7907.376636,-20257.520110,13525.666419,9833.471159,8782.000396,-5539.835160,32711.308624,2683.349274,27132.760243,6541.886215,-295.239990,-823.255981,-490.928009,-2520.000000,-560.000000,2520.000000
8840.919595,9867.512866,1058.869190,-1042.239492,7602.700007,7820.003667,7869.289263,-20298.088526,13495.290398,9800.457633,8771.182152,-5595.558059,32686.341725,2668.977102,27081.462989,6474.272188,-296.216003,-823.255981,-489.464020,-2520.000000,-700.000000,2100.000000
8839.064400,9821.937659,1031.153027,-1074.582466,7565.573760,7811.018266,7846.892815,-20317.936876,13476.045546,9777.681205,8763.917835,-5638.294594,32669.287344,2658.047099,27042.816823,6423.265508,-296.704010,-823.744019,-494.832001,-2380.000000,-560.000000,1680.000000
8830.347220,9763.443144,994.943201,-1114.636792,7517.696323,7800.065911,7818.126120,-20345.697742,13454.766685,9748.802751,8755.401821,-5682.774566,32650.064844,2647.742945,27000.996709,6370.291873,-295.727997,-821.791992,-494.343994,-1960.000000,-700.000000,1120.000000
8837.343316,9747.126370,993.713855,-1129.903034,7511.080207,7794.299161,7803.128100,-20357.857091,13457.180674,9760.112734,8755.245358,-5691.804670,32647.181469,2653.979081,26986.244558,6357.953710,-294.752014,-825.208008,-491.903992,-1960.000000,-840.000000,700.000000
8880.951569,9852.403087,1080.729196,-1060.299702,7618.078007,7812.381722,7853.419525,-20294.467544,13509.662570,9844.691735,8767.538818,-5617.485120,32683.078370,2682.969294,27044.515555,6442.108028,-295.239990,-826.184021,-495.808014,-1820.000000,-1120.000000,280.000000
8928.381971,10026.746693,1201.428616,-939.265006,7776.529524,7850.647909,7950.068468,-20182.597063,13582.238684,9938.122027,8787.230705,-5497.210383,32739.181249,2715.044047,27155.648429,6582.700501,-296.216003,-822.280029,-493.856018,-1260.000000,-1120.000000,420.000000
8924.112788,10093.399595,1228.876558,-891.879307,7813.745178,7867.702290,7993.184983,-20147.571879,13600.053024,9943.240576,8799.412405,-5448.774153,32760.303648,2715.826358,27210.298444,6640.613871,-293.287994,-822.768005,-492.391998,-1400.000000,-1260.000000,140.000000
8873.731956,9987.228809,1136.876778,-964.611884,7693.559848,7845.216435,7938.959651,-20227.926401,13546.118265,9861.701412,8791.365777,-5511.314334,32727.044252,2687.797271,27161.951621,6565.579065,-292.312012,-821.791992,-494.343994,-840.000000,-420.000000,-140.000000
8848.049801,9895.407843,1075.565943,-1031.622414,7608.734978,7821.054199,7885.449575,-20286.711489,13499.581933,9815.165080,8777.664158,-5574.659178,32695.774161,2670.273503,27100.819600,6489.337264,-294.264008,-823.744019,-492.391998,-840.000000,-280.000000,-280.000000
8843.646508,9847.485703,1049.056774,-1062.378414,7570.200571,7807.039655,7858.716888,-20311.499573,13477.833686,9789.237057,8767.047079,-5617.395713,32673.780045,2658.717651,27058.038361,6436.385982,-290.360016,-826.671997,-491.903992,-560.000000,-140.000000,-280.000000
8832.180063,9787.292455,1008.845986,-1097.940039,7524.334791,7797.584867,7828.899661,-20340.936821,13454.118485,9752.244920,8755.334765,-5666.077812,32651.942390,2647.228855,27016.262950,6382.339464,-292.312012,-825.208008,-493.856018,-140.000000,-140.000000,-280.000000
8823.440531,9741.560786,985.890744,-1128.763095,7497.758567,7790.633475,7797.026074,-20365.948423,13440.238051,9740.420847,8750.216216,-5696.096205,32641.481774,2644.881921,26982.467113,6349.840027,-290.360016,-823.255981,-494.832001,140.000000,420.000000,-560.000000
8844.518226,9794.109737,1037.769143,-1094.967257,7562.779792,7800.892925,7814.751007,-20335.035960,13467.797752,9794.824993,8762.532027,-5659.327586,32662.872393,2665.534933,27008.193971,6396.331656,-290.847992,-823.744019,-496.296021,560.000000,700.000000,-420.000000
8901.224601,9966.665204,1162.335415,-977.262971,7727.758018,7836.231033,7908.538927,-20227.345255,13547.325259,9904.259134,8778.960559,-5543.702012,32718.639996,2703.108216,27112.911893,6532.230262,-292.312012,-823.744019,-491.416016,560.000000,980.000000,-420.000000
8926.794997,10088.593970,1232.430486,-888.951229,7824.429312,7862.315519,7985.563038,-20151.081103,13596.387338,9946.928614,8792.237495,-5458.720679,32758.739025,2719.648507,27201.670671,6630.287365,-290.360016,-823.255981,-492.391998,1120.000000,980.000000,-420.000000
8896.843660,10031.194691,1171.074947,-922.098866,7743.963032,7852.100772,7962.227817,-20200.120831,13571.174570,9887.741195,8793.556248,-5486.883877,32744.165688,2701.141262,27187.834941,6591.104757,-292.312012,-823.255981,-493.856018,1120.000000,1540.000000,-280.000000
8867.741688,9928.443721,1098.096502,-991.501032,7647.001165,7828.296164,7906.326104,-20272.875759,13524.012390,9835.840444,8783.922647,-5553.648538,32711.688603,2682.186983,27127.619341,6507.732750,-292.312012,-821.304016,-492.880005,1400.000000,1820.000000,-280.000000
8854.576511,9869.636282,1063.831277,-1031.018916,7601.113033,7815.533318,7877.179429,-20300.346053,13494.016349,9804.570354,8773.640844,-5602.308286,32689.359211,2669.558247,27083.139370,6451.920444,-291.335999,-824.720032,-491.903992,1540.000000,2100.000000,-140.000000
8846.552234,9821.960011,1034.058754,-1064.010091,7562.176295,7805.810309,7851.586682,-20322.876611,13475.151476,9776.563618,8765.705975,-5645.961242,32672.058960,2660.014052,27041.900401,6402.925420,-290.360016,-821.791992,-493.368011,1260.000000,2100.000000,-140.000000
8837.991516,9766.281815,1000.307620,-1103.572679,7516.332867,7792.958056,7815.332152,-20358.304126,13457.381839,9752.602548,8759.447486,-5687.088452,32654.982228,2651.945073,26999.409735,6355.785591,-287.920013,-820.328003,-490.928009,1400.000000,2240.000000,-140.000000
8851.760191,9776.764783,1020.893576,-1100.286973,7539.981012,7794.410919,7812.225260,-20350.391609,13466.724869,9782.553885,8760.386260,-5678.170106,32664.012332,2664.663215,27000.907302,6372.772917,-291.335999,-821.791992,-491.903992,1120.000000,2660.000000,-140.000000
8905.225564,9919.905355,1128.472522,-1006.655515,7681.087575,7819.288411,7881.470964,-20260.202320,13533.556585,9884.410785,8776.524219,-5582.079957,32712.649728,2698.034370,27079.943070,6487.616180,-290.847992,-819.351990,-491.416016,980.000000,2660.000000,-140.000000
8944.922262,10080.972026,1227.490750,-896.215546,7817.880251,7850.804371,7970.766183,-20164.648612,13601.192963,9957.702155,8799.568868,-5473.294017,32764.930459,2721.414294,27182.649336,6611.489548,-292.312012,-818.864014,-490.928009,280.000000,2940.000000,0.000000
8923.933974,10091.007959,1209.430541,-881.642208,7806.950248,7857.219321,7990.838050,-20166.839083,13598.376643,9926.700285,8808.017827,-5458.474810,32771.323058,2713.591184,27212.891246,6629.974440,-286.944000,-821.304016,-491.903992,0.000000,3080.000000,-280.000000
8874.916598,9971.515533,1118.324830,-959.940369,7690.050625,7834.912280,7931.315354,-20247.305363,13539.882128,9848.871511,8794.360911,-5533.062581,32733.570961,2687.305532,27152.854461,6546.423620,-289.872009,-817.888000,-488.000000,-420.000000,3640.000000,-140.000000
8853.838903,9895.206677,1071.453222,-1012.601079,7626.884595,7818.863728,7889.718758,-20288.924311,13500.341892,9809.666551,8779.787574,-5589.858364,32704.983080,2669.759413,27100.886655,6481.201229,-291.824005,-818.864014,-489.464020,-980.000000,4060.000000,-280.000000
8846.798104,9844.803494,1041.233664,-1045.212274,7587.970208,7810.392417,7865.824743,-20310.449041,13477.051375,9778.172943,8768.991681,-5631.901995,32686.989926,2659.544666,27063.983925,6432.273261,-289.384003,-821.304016,-490.928009,-1260.000000,4620.000000,-560.000000
8837.276261,9783.827935,1004.107416,-1088.462900,7536.717658,7799.551821,7832.185368,-20342.859071,13454.721982,9748.065144,8759.671004,-5678.147754,32667.879184,2649.776953,27019.280436,6382.585333,-291.824005,-822.280029,-486.048004,-2100.000000,4900.000000,-700.000000
8840.405505,9762.549074,1002.408684,-1106.612516,7527.084056,7794.634437,7811.688818,-20355.197234,13452.397400,9757.296414,8757.279367,-5690.910601,32665.688713,2653.420288,26998.470962,6370.649501,-291.335999,-821.791992,-485.071991,-2240.000000,5460.000000,-840.000000
8884.438441,9862.595482,1086.272429,-1038.730268,7630.326763,7811.845280,7856.481714,-20295.339262,13503.828764,9840.824883,8769.885751,-5621.329620,32702.189112,2682.499907,27053.746826,6449.618214,-292.312012,-818.864014,-488.976013,-2660.000000,6160.000000,-1260.000000
8933.321706,10034.480397,1205.764855,-917.896738,7786.811326,7845.328193,7953.845913,-20188.766144,13578.528294,9936.132721,8788.884734,-5503.021837,32755.654485,2715.245213,27162.845691,6589.115451,-293.287994,-821.304016,-489.951996,-3220.000000,6860.000000,-1400.000000
8935.154549,10105.268372,1234.576253,-861.592694,7831.090132,7863.857789,8004.427910,-20150.522310,13605.886830,9944.246405,8800.328827,-5448.260063,32775.771055,2719.939079,27224.916485,6653.354365,-293.287994,-822.280029,-488.976013,-3360.000000,7280.000000,-1540.000000
8884.751366,10000.796318,1148.834962,-928.938500,7717.699733,7844.367068,7954.069430,-20221.757319,13556.064791,9861.612005,8791.522240,-5510.956706,32742.042272,2695.195698,27178.223691,6584.063957,-290.847992,-822.768005,-485.071991,-3500.000000,7840.000000,-1680.000000
8864.701851,9919.257154,1092.933249,-985.086082,7642.419057,7825.323382,7907.734264,-20272.451076,13520.614925,9819.657781,8780.726347,-5568.735965,32713.208522,2681.002340,27123.640731,6511.644305,-292.800018,-823.255981,-486.536011,-4200.000000,8260.000000,-1960.000000
8853.883607,9869.301006,1061.216123,-1020.558300,7603.147042,7815.309801,7881.135688,-20297.261512,13494.038700,9788.521801,8772.344443,-5614.646448,32692.644917,2667.837163,27083.251129,6457.284863,-292.312012,-823.744019,-485.071991,-4200.000000,8960.000000,-2100.000000
8840.293746,9808.906592,1022.145274,-1064.188905,7554.643757,7804.960943,7848.122161,-20329.895059,13465.897854,9758.481057,8762.397917,-5664.736708,32672.081312,2657.041270,27036.245410,6400.064397,-292.800018,-824.720032,-485.559998,-4340.000000,9240.000000,-2100.000000
8842.148941,9766.706498,1000.732303,-1098.342371,7524.960640,7796.914315,7818.930783,-20356.694800,13457.046563,9756.558806,8754.194826,-5690.910601,32662.581821,2656.974215,27001.533151,6364.882751,-294.264008,-822.768005,-485.559998,-4060.000000,9520.000000,-2520.000000
8876.324758,9819.702485,1053.013033,-1066.044100,7586.874972,7806.033827,7838.667373,-20326.430538,13491.803526,9816.372075,8760.274501,-5649.537522,32682.988963,2678.744814,27026.678863,6408.535708,-295.239990,-823.744019,-484.584015,-4060.000000,10080.000000,-2800.000000
8931.667677,9989.933370,1174.450061,-952.720756,7745.907634,7837.370972,7924.855700,-20222.271409,13565.474876,9923.235765,8777.083013,-5533.956651,32735.359101,2712.250079,27122.031405,6539.628689,-293.287994,-824.720032,-487.511993,-3920.000000,10360.000000,-3080.000000
8947.649175,10109.358741,1240.387707,-871.159240,7839.516740,7860.974414,7993.654370,-20152.869243,13608.166708,9962.686594,8794.472670,-5452.395135,32770.764264,2724.588242,27200.843656,6637.037592,-294.752014,-821.791992,-485.071991,-3360.000000,10640.000000,-3080.000000
8903.303314,10052.272386,1175.500593,-905.603278,7763.856085,7854.917092,7973.895427,-20196.477496,13576.360175,9894.334959,8794.137394,-5485.207496,32753.776938,2704.494024,27188.863121,6607.510937,-292.800018,-825.208008,-488.976013,-3360.000000,11060.000000,-3500.000000
8864.143057,9944.939309,1097.448301,-978.402910,7660.300453,7831.090132,7916.183223,-20269.053610,13524.794701,9833.001773,8779.899333,-5556.017823,32717.790630,2682.678721,27126.725272,6523.177805,-292.800018,-821.304016,-487.511993,-2800.000000,11060.000000,-3500.000000
8851.693136,9886.154221,1059.696205,-1020.871225,7608.846737,7814.795710,7880.532191,-20300.502515,13493.837535,9803.452766,8767.672928,-5604.588163,32694.097780,2667.971273,27077.082047,6460.905845,-294.752014,-821.304016,-488.488007,-2520.000000,11340.000000,-3780.000000
8839.243214,9830.856005,1025.632146,-1059.897370,7561.572797,7802.949286,7852.413696,-20323.234239,13464.735563,9770.014557,8755.558283,-5652.398545,32674.182376,2654.515523,27034.166698,6405.026484,-290.360016,-819.840027,-488.000000,-2240.000000,11480.000000,-3920.000000
8826.547423,9772.272083,995.412588,-1099.839938,7517.450454,7792.466318,7822.216490,-20351.531547,13440.796845,9745.338231,8742.638975,-5695.291542,32655.831594,2648.100573,26995.364069,6358.937187,-290.360016,-818.864014,-487.511993,-1680.000000,11340.000000,-3920.000000
8839.734952,9780.519877,1013.741018,-1095.660161,7537.075286,7793.025111,7817.589678,-20343.931954,13454.543168,9774.037871,8743.175416,-5686.775528,32660.346646,2656.437773,26995.744049,6370.560094,-290.360016,-819.840027,-487.511993,-1260.000000,11060.000000,-4060.000000
8893.960284,9922.207585,1120.448246,-1003.749788,7674.985549,7818.282583,7885.091947,-20253.832072,13523.610058,9875.872418,8761.861475,-5592.227649,32707.777048,2689.183079,27074.690410,6481.558857,-289.872009,-818.376038,-485.071991,-980.000000,11200.000000,-4200.000000
8934.841625,10082.737813,1225.099114,-892.639267,7812.605239,7849.619728,7975.258884,-20158.859510,13590.687643,9949.454361,8781.463955,-5484.514592,32759.275467,2714.842882,27178.469560,6605.968667,-291.824005,-817.400024,-487.024017,-280.000000,10920.000000,-4480.000000
8917.474320,10098.205220,1218.192425,-873.908505,7804.200984,7855.766458,7995.844841,-20160.580595,13592.028748,9924.733332,8790.315245,-5464.867409,32766.271563,2707.198585,27210.209037,6626.129940,-288.895996,-819.840027,-486.048004,0.000000,10780.000000,-4340.000000
8869.261607,9976.656434,1129.388944,-950.306767,7686.809622,7831.201891,7937.752657,-20241.158633,13534.048323,9847.239834,8778.446469,-5537.622337,32729.860572,2681.829355,27151.938039,6539.874558,-287.432007,-816.424011,-487.511993,280.000000,10500.000000,-4340.000000
8849.994403,9896.860706,1084.104310,-1001.447559,7623.800054,7814.795710,7896.826613,-20280.810628,13496.877372,9810.717083,8763.515504,-5594.775748,32702.591443,2668.932398,27100.551379,6471.746441,-289.872009,-816.911987,-488.488007,280.000000,10220.000000,-4480.000000
8839.869063,9840.064924,1051.716632,-1041.524236,7579.387138,7806.257344,7865.042432,-20302.514172,13470.815238,9781.190429,8750.752658,-5639.434533,32678.272745,2655.811924,27052.070445,6416.023542,-287.432007,-817.888000,-489.464020,280.000000,9940.000000,-4480.000000
8826.905051,9775.669548,1010.455312,-1088.887583,7525.966469,7794.343864,7823.289373,-20335.639457,13445.200139,9748.176902,8738.973288,-5685.188554,32653.171736,2644.099610,27000.370860,6362.558170,-286.455994,-816.424011,-487.511993,280.000000,9940.000000,-4480.000000
8829.207281,9757.989318,1004.465044,-1107.953621,7518.545689,7789.068853,7802.569306,-20347.664696,13442.607336,9756.223530,8735.598175,-5695.783281,32648.477870,2649.821657,26981.304822,6354.399783,-286.455994,-818.376038,-486.048004,280.000000,10220.000000,-4480.000000
8872.077927,9862.662537,1090.072225,-1037.612681,7626.437560,7805.631495,7854.134781,-20285.795067,13492.474078,9841.048401,8747.377544,-5624.570623,32684.710048,2680.018864,27046.571916,6438.196473,-286.944000,-818.376038,-487.024017,-140.000000,10080.000000,-4340.000000
8919.933012,10037.944917,1208.894099,-916.555633,7787.236010,7840.075533,7954.360003,-20181.121848,13564.267881,9934.746913,8768.343481,-5505.413473,32739.740043,2712.183024,27160.141130,6571.770498,-285.480011,-819.840027,-486.048004,-280.000000,10080.000000,-4340.000000
8922.682276,10109.828128,1237.906663,-865.705414,7832.990030,7855.431182,8002.997399,-20145.984905,13587.424289,9944.671088,8782.961522,-5453.736240,32762.985857,2714.440550,27218.367424,6631.270842,-286.455994,-817.888000,-488.488007,-420.000000,10080.000000,-4200.000000
8876.280055,10010.161699,1149.371403,-930.525473,7721.991267,7837.482731,7957.355137,-20216.527011,13542.206710,9865.009471,8775.607798,-5514.868261,32729.949979,2689.317189,27176.904938,6566.070803,-285.480011,-816.911987,-488.976013,-980.000000,10360.000000,-3920.000000
8859.918578,9932.265870,1097.224784,-985.421358,7650.063354,7820.674219,7913.210441,-20266.259642,13511.584820,9828.151444,8765.750678,-5568.780669,32702.591443,2678.476593,27126.837030,6500.177860,-284.503998,-820.815979,-489.464020,-1120.000000,9800.000000,-3780.000000
8855.135304,9882.779107,1067.586370,-1021.832350,7608.265592,7810.995914,7884.041415,-20292.612349,13489.858924,9802.737511,8758.486361,-5612.500681,32683.503054,2667.814811,27083.429943,6443.091505,-285.968018,-821.304016,-488.488007,-1540.000000,9800.000000,-3640.000000
8838.036220,9815.053322,1025.140408,-1068.346330,7552.497989,7798.255420,7847.093981,-20329.895059,13460.645194,9765.208932,8746.081143,-5666.390737,32660.458405,2654.224951,27034.613733,6381.557152,-286.455994,-821.304016,-487.511993,-1680.000000,9660.000000,-3220.000000
8828.782598,9765.834780,1000.084102,-1107.126606,7517.048123,7788.487707,7815.600373,-20359.891100,13442.517929,9751.797885,8738.190977,-5699.493670,32648.321408,2648.011166,26999.096811,6343.603890,-285.968018,-819.840027,-488.000000,-1960.000000,9520.000000,-3220.000000
8854.956490,9810.605325,1048.609739,-1082.450280,7570.893475,7794.790899,7829.659620,-20335.505347,13469.183561,9804.793871,8744.404762,-5666.100164,32667.722722,2665.132602,27019.727471,6381.557152,-284.503998,-821.791992,-488.976013,-2380.000000,9240.000000,-3080.000000
8905.784357,9974.689481,1166.358729,-969.305750,7727.690962,7823.848167,7913.858642,-20233.044950,13539.658611,9904.482651,8765.102478,-5554.944939,32721.769240,2698.213184,27117.985739,6510.124387,-286.455994,-823.255981,-488.488007,-2660.000000,8960.000000,-2660.000000
8923.621049,10105.357779,1236.006765,-873.193249,7833.012382,7848.725659,7992.782652,-20156.266708,13588.385414,9950.639004,8785.688434,-5465.605016,32762.762339,2715.267565,27211.863066,6613.791777,-286.944000,-822.280029,-491.903992,-2940.000000,8820.000000,-2660.000000
8889.378177,10054.999298,1174.539468,-901.602316,7764.750155,7840.567272,7974.722442,-20198.287988,13564.446695,9892.256247,8781.754527,-5490.482508,32748.948961,2696.492099,27205.001081,6587.193201,-289.872009,-821.791992,-490.928009,-3220.000000,8680.000000,-2240.000000
8863.584264,9951.220149,1098.387074,-971.451518,7664.390822,7818.975487,7917.971363,-20267.712506,13517.910363,9831.280688,8769.170495,-5556.375451,32715.153124,2678.588352,27147.422987,6508.448006,-290.360016,-823.744019,-488.000000,-3640.000000,8540.000000,-2240.000000
8860.790296,9892.569171,1063.786574,-1013.226928,7616.558089,7807.397283,7884.622560,-20297.663843,13492.719947,9804.279781,8759.380431,-5600.654256,32693.047248,2668.083032,27102.563036,6450.512284,-288.895996,-819.351990,-487.511993,-3920.000000,8120.000000,-2240.000000
8853.749496,9838.366191,1031.845931,-1053.057737,7574.402699,7799.350655,7857.733412,-20319.568553,13470.748183,9779.692862,8752.071411,-5641.468542,32675.322315,2655.633110,27058.507747,6398.455071,-290.360016,-819.840027,-488.976013,-3920.000000,7980.000000,-1960.000000
8843.870025,9777.614150,997.983038,-1097.582411,7527.173463,7789.359425,7824.876347,-20349.855167,13450.810427,9757.452876,8746.125847,-5680.472336,32660.078425,2650.983948,27015.927674,6351.672870,-287.920013,-819.840027,-488.488007,-4340.000000,7700.000000,-1960.000000
8857.459886,9787.895952,1017.160835,-1091.949772,7546.887701,7789.493536,7824.585774,-20343.753140,13466.210778,9787.963007,8747.779876,-5668.692967,32666.225155,2664.059718,27017.916980,6367.162629,-288.895996,-819.840027,-493.856018,-4200.000000,7700.000000,-1960.000000
8903.303314,9923.749855,1122.526958,-1002.945125,7679.701767,7812.627591,7894.479679,-20263.465674,13528.572146,9885.103689,8762.263806,-5574.726233,32710.772182,2696.536803,27092.728268,6475.657997,-284.992004,-818.864014,-488.488007,-4200.000000,7700.000000,-2240.000000
8939.222567,10080.904970,1221.411076,-896.483767,7819.087245,7844.657641,7986.144183,-20167.353173,13591.089975,9960.518475,8783.095632,-5466.655548,32760.080130,2720.229652,27192.931139,6598.793757,-286.944000,-819.351990,-491.903992,-4200.000000,7420.000000,-2380.000000
8918.413093,10093.310188,1208.268250,-881.709264,7813.387551,7851.474923,8005.970181,-20167.219063,13589.190076,9933.584623,8791.477536,-5451.411659,32766.606839,2713.792350,27223.664787,6616.585745,-287.432007,-819.351990,-490.928009,-4060.000000,7560.000000,-2660.000000
8865.215941,9970.465001,1114.793255,-962.801392,7693.492793,7825.636306,7941.597157,-20250.926346,13529.466215,9850.972575,8778.334710,-5529.978040,32728.072432,2686.366759,27163.918574,6526.932898,-284.992004,-815.936035,-489.951996,-3780.000000,7700.000000,-2800.000000
8847.423953,9899.475861,1067.943998,-1012.668134,7631.354944,7809.006609,7897.050130,-20292.455887,13494.262218,9816.461482,8765.683623,-5582.817564,32703.172589,2671.905180,27113.269521,6457.374270,-286.455994,-818.376038,-493.368011,-3500.000000,7420.000000,-2940.000000
8840.561967,9851.151389,1041.144257,-1047.045117,7590.719472,7800.669408,7869.333967,-20312.460698,13470.569369,9789.035891,8755.357117,-5623.877719,32684.575937,2662.405689,27070.555338,6403.283048,-287.432007,-815.936035,-492.391998,-3640.000000,7560.000000,-3080.000000
8831.107179,9790.555810,1009.248317,-1087.747644,7540.360992,7790.097033,7835.135798,-20343.037885,13450.318688,9761.029155,8748.986870,-5666.413089,32663.364132,2652.548570,27025.337759,6346.666079,-286.455994,-816.911987,-492.391998,-3500.000000,7420.000000,-3080.000000
8832.560042,9763.621958,1002.229870,-1106.590164,7525.541785,7783.413861,7813.029923,-20359.600527,13446.541243,9766.572388,8745.768219,-5680.025301,32658.826728,2653.040308,27005.109430,6328.717629,-286.944000,-815.936035,-488.976013,-3500.000000,7280.000000,-3220.000000
8867.942854,9855.957014,1075.744757,-1045.435792,7621.520176,7796.824908,7854.872388,-20306.939817,13489.791869,9838.768523,8753.188998,-5617.038085,32688.554548,2677.314303,27058.038361,6404.512394,-283.528015,-814.471985,-488.000000,-3500.000000,7140.000000,-3500.000000
8910.075892,10031.977002,1191.973828,-921.942404,7782.139812,7831.201891,7953.264767,-20198.466801,13559.395201,9928.264907,8775.227818,-5499.981999,32744.813889,2711.892451,27172.412237,6549.061125,-281.088013,-814.960022,-489.464020,-3360.000000,7280.000000,-3780.000000
8910.478224,10104.821337,1226.194349,-866.063042,7830.419580,7850.245577,8003.600896,-20157.116074,13581.523428,9942.815893,8789.063548,-5441.867464,32771.546575,2717.256870,27233.901886,6618.731513,-283.040009,-813.007996,-490.440002,-3360.000000,7560.000000,-3920.000000
8871.966168,10007.904173,1144.990461,-927.418581,7721.588936,7834.286432,7957.802171,-20228.261677,13539.591556,9868.026956,8780.011091,-5496.048092,32743.741005,2691.664123,27192.864083,6554.403192,-284.015991,-814.471985,-488.976013,-2940.000000,7280.000000,-3920.000000
8859.672708,9925.269774,1090.608667,-983.454404,7647.224682,7817.097940,7912.450482,-20281.302366,13509.215535,9825.379828,8769.237550,-5552.329785,32714.348461,2677.448413,27142.930286,6483.346997,-279.136017,-815.936035,-488.488007,-2660.000000,7140.000000,-3640.000000
8859.851522,9876.319453,1062.423117,-1016.579690,7611.305429,7806.257344,7887.081252,-20304.928160,13491.602360,9803.206897,8757.592292,-5594.127547,32692.510807,2666.585465,27101.758373,6429.099313,-282.552002,-816.911987,-488.000000,-2520.000000,6860.000000,-3500.000000
8843.892377,9809.823014,1027.241472,-1064.702995,7558.979995,7791.236972,7847.205740,-20338.232260,13460.511084,9767.019423,8746.505826,-5647.659975,32669.533213,2651.162762,27049.142367,6371.185943,-282.552002,-815.936035,-488.488007,-2240.000000,6160.000000,-2940.000000
8835.823397,9763.532551,1009.896518,-1099.325848,7527.598146,7780.485783,7815.198042,-20361.478074,13444.529586,9757.721097,8742.191940,-5679.399452,32659.430225,2647.362965,27013.960721,6339.826446,-283.040009,-814.960022,-489.464020,-1820.000000,5320.000000,-2520.000000
8856.878740,9804.369188,1049.593216,-1078.605780,7572.569856,7785.403166,7825.368086,-20336.980562,13467.976566,9802.446938,8746.036440,-5651.325661,32674.428245,2662.204523,27030.433956,6374.225780,-280.112000,-816.911987,-487.024017,-1120.000000,4480.000000,-1960.000000
8913.383950,9975.762364,1170.560857,-966.578837,7730.104951,7816.717960,7909.231831,-20234.050779,13544.531291,9905.779052,8765.929492,-5537.331764,32729.301778,2698.526108,27129.139260,6501.630724,-281.575989,-815.936035,-492.880005,-560.000000,4060.000000,-1540.000000
8932.070009,10102.340293,1240.164189,-879.228220,7829.994897,7843.338888,7981.271503,-20160.647650,13591.022920,9952.315384,8782.536838,-5450.271720,32768.350276,2715.401675,27214.791145,6600.246620,-280.112000,-817.888000,-491.416016,-560.000000,3920.000000,-1400.000000
8890.585171,10050.640708,1181.267343,-907.905508,7761.039765,7836.208682,7966.586407,-20199.316168,13559.641070,9887.316512,8779.675815,-5477.362034,32753.396959,2697.430873,27206.878627,6571.345815,-279.136017,-816.911987,-493.368011,-560.000000,3500.000000,-1120.000000
8858.264549,9941.631251,1104.466749,-979.140518,7659.294624,7813.611068,7909.701217,-20271.735820,13511.830689,9830.856005,8769.662234,-5547.904140,32720.361080,2676.375529,27145.590144,6485.135136,-277.671997,-819.840027,-496.783997,-700.000000,3780.000000,-840.000000
8851.648432,9877.660558,1065.306492,-1022.279384,7609.226717,7800.132966,7876.821801,-20301.418936,13485.634444,9805.397368,8759.022803,-5598.866117,32698.590481,2662.338634,27096.103382,6424.807778,-279.623993,-821.791992,-497.272003,-280.000000,4340.000000,-420.000000
8842.014830,9818.897822,1030.728344,-1060.836144,7565.283187,7790.141736,7849.105638,-20324.463585,13458.968813,9774.149629,8749.791533,-5647.414106,32677.401027,2651.006299,27052.875108,6370.828315,-281.088013,-819.351990,-498.735992,-140.000000,5320.000000,-280.000000
8832.649449,9759.509237,998.631239,-1101.225746,7519.193890,7778.742347,7816.852071,-20357.097132,13436.304144,9751.909644,8741.431980,-5690.128289,32658.849079,2645.798343,27014.407756,6326.214233,-281.088013,-819.351990,-497.272003,0.000000,6300.000000,0.000000
8844.205301,9766.103001,1013.249280,-1099.303496,7536.360030,7777.580056,7814.393379,-20353.297335,13445.267194,9778.284702,8740.247338,-5681.902848,32664.727588,2656.795401,27015.033605,6339.960556,-281.088013,-820.328003,-503.615997,-140.000000,7140.000000,140.000000
8896.307218,9906.717826,1121.051743,-1004.532099,7676.326654,7803.396321,7884.533153,-20266.796084,13512.322427,9879.739270,8758.709879,-5584.784518,32711.912121,2692.155861,27095.186960,6450.668746,-284.503998,-821.791992,-497.272003,-560.000000,7560.000000,420.000000
8939.915471,10070.444354,1227.267233,-887.230144,7820.316591,7836.119275,7980.824468,-20166.168531,13581.814001,9959.266777,8782.872115,-5472.824630,32764.081092,2720.631983,27205.269302,6578.118393,-286.455994,-820.328003,-496.783997,0.000000,6580.000000,1260.000000
8923.866919,10088.817488,1218.505349,-867.739423,7816.673257,7843.294185,8003.042102,-20162.256975,13584.473858,9936.043314,8792.595123,-5451.009327,32772.105369,2713.300611,27237.522869,6601.252449,-284.503998,-818.376038,-499.223999,840.000000,5180.000000,1960.000000
8876.391813,9970.129725,1126.304403,-947.646910,7697.091424,7818.886080,7941.105418,-20243.617325,13528.080407,9857.275767,8783.363853,-5523.697200,32736.119060,2685.584448,27176.033220,6516.181709,-284.992004,-819.351990,-495.320007,2380.000000,3080.000000,2940.000000
8867.071136,9902.470994,1087.099443,-992.037474,7640.742676,7804.022170,7906.661380,-20285.839771,13500.140727,9824.329296,8775.697205,-5570.546457,32711.532141,2675.235590,27131.709711,6455.653185,-285.480011,-818.864014,-496.783997,3500.000000,2240.000000,3360.000000
8866.333528,9857.923968,1065.462955,-1020.267727,7605.739845,7797.786033,7882.253275,-20308.392681,13481.901703,9802.201069,8770.846876,-5606.264544,32695.975327,2667.747756,27093.957614,6405.741740,-285.968018,-820.328003,-496.783997,4480.000000,980.000000,3360.000000
8863.852485,9806.447900,1036.763315,-1055.270559,7559.270568,7791.616951,7850.580853,-20339.215736,13467.596587,9780.229304,8768.455239,-5643.949585,32683.838330,2663.679738,27054.104454,6353.863341,-287.920013,-822.280029,-491.903992,5320.000000,-840.000000,3640.000000
8870.379194,9785.705481,1034.282271,-1071.564981,7546.328908,7787.236010,7831.514815,-20355.890138,13470.144686,9790.779327,8770.444545,-5657.874722,32681.647859,2669.245323,27037.430052,6338.038306,-287.432007,-820.815979,-493.856018,5600.000000,-2380.000000,3920.000000
8909.248878,9881.840334,1114.837958,-1007.080198,7645.190673,7805.407978,7877.782926,-20295.138096,13517.731549,9867.311700,8781.978045,-5594.127547,32715.086069,2698.727274,27093.912911,6420.069208,-286.944000,-816.911987,-495.320007,5880.000000,-3780.000000,4060.000000
8953.415925,10059.648461,1233.212797,-880.792842,7808.045484,7839.404981,7978.075204,-20181.255958,13589.279483,9960.250254,8805.425025,-5476.982054,32770.205470,2734.400658,27207.526828,6565.132030,-289.384003,-821.304016,-495.320007,5880.000000,-4620.000000,4060.000000
8958.825047,10138.058381,1271.099004,-818.096199,7863.209589,7857.465191,8032.658164,-20133.579687,13617.375626,9976.947007,8816.556193,-5418.152263,32795.373535,2739.496856,27273.464474,6631.807283,-286.944000,-820.815979,-494.343994,5740.000000,-5040.000000,4200.000000
8916.915526,10036.782627,1188.308142,-880.770490,7755.183608,7839.404981,7986.591218,-20201.417232,13573.454448,9895.631360,8806.810833,-5473.808107,32766.785653,2711.892451,27231.934933,6565.132030,-287.920013,-821.791992,-497.760010,5740.000000,-5320.000000,4060.000000
8900.531697,9949.789637,1133.658127,-939.220302,7677.354834,7820.473054,7936.947994,-20256.804854,13538.809244,9853.967709,8796.104347,-5530.603889,32738.510697,2695.285105,27177.396676,6491.103052,-290.847992,-821.791992,-497.272003,5740.000000,-6300.000000,4200.000000
8886.383043,9892.792689,1100.443435,-980.794547,7632.427827,7806.123234,7901.587534,-20284.699832,13505.795718,9823.234060,8781.978045,-5577.743718,32715.778973,2676.844916,27128.334597,6432.139150,-288.895996,-819.840027,-497.272003,5460.000000,-7000.000000,4200.000000
8860.075040,9822.988191,1057.572789,-1030.907158,7576.593170,7790.141736,7861.175580,-20317.087509,13466.769572,9779.849324,8767.672928,-5631.276146,32691.080295,2660.058756,27074.422190,6372.437641,-289.872009,-820.815979,-494.832001,5600.000000,-7560.000000,4200.000000
8845.948737,9765.588911,1028.940204,-1072.146126,7532.537881,7777.222428,7822.775283,-20348.670524,13443.859034,9762.571426,8760.475667,-5670.995196,32674.003562,2655.096669,27033.317331,6330.930451,-291.824005,-821.791992,-495.808014,6020.000000,-8120.000000,4200.000000
8869.596883,9803.765691,1067.921647,-1051.381356,7579.051862,7781.156335,7829.883138,-20325.871745,13468.557712,9813.622810,8766.376527,-5640.820341,32687.593423,2671.391090,27046.124881,6362.692280,-290.847992,-819.351990,-490.928009,6160.000000,-8960.000000,4200.000000
8926.102093,9971.403774,1189.559840,-940.248482,7734.530596,7811.465300,7913.657476,-20223.143127,13545.403009,9921.402922,8789.041196,-5526.267651,32741.751700,2704.695190,27142.662065,6492.600619,-291.824005,-819.351990,-492.880005,6440.000000,-9800.000000,4480.000000
8944.609337,10096.640598,1262.113602,-855.222446,7834.822873,7836.789827,7985.674797,-20148.175376,13588.832449,9968.855675,8803.994513,-5441.800409,32781.135473,2717.122759,27226.726976,6595.508050,-292.312012,-821.791992,-493.856018,6580.000000,-10640.000000,4620.000000
8899.414110,10042.392915,1202.523852,-886.738406,7763.297291,7831.715981,7967.234608,-20186.732136,13552.779085,9903.096843,8801.513469,-5470.500048,32765.779825,2696.022713,27215.998139,6571.256408,-292.800018,-819.840027,-492.391998,7000.000000,-11200.000000,4760.000000
8857.951624,9927.080265,1122.616365,-964.120145,7657.327671,7808.269001,7906.080235,-20260.202320,13496.922075,9835.616927,8788.214181,-5544.260805,32729.860572,2672.106346,27151.915688,6489.024340,-291.335999,-821.304016,-487.024017,7140.000000,-11760.000000,4900.000000
8850.016755,9865.680023,1086.428891,-1006.431998,7608.645571,7794.656789,7869.266912,-20291.852390,13469.854113,9805.062092,8776.077184,-5592.652332,32705.497170,2659.030576,27103.635920,6429.725162,-291.824005,-818.376038,-488.976013,7420.000000,-12600.000000,4900.000000
8844.898205,9819.680133,1055.851705,-1040.339594,7567.607768,7785.447870,7842.310708,-20313.779451,13448.083514,9777.748260,8767.538818,-5633.958356,32686.766408,2648.324090,27061.636992,6378.092632,-289.384003,-819.840027,-488.000000,7420.000000,-12460.000000,5040.000000
8830.034295,9764.158400,1019.485416,-1083.858440,7519.529166,7773.042652,7807.598449,-20344.155472,13423.183670,9752.781362,8759.291024,-5675.800821,32669.622620,2640.679793,27017.760517,6329.075256,-294.264008,-819.840027,-488.976013,6860.000000,-12320.000000,4620.000000
8839.690249,9768.092307,1035.712783,-1081.399748,7535.734181,7775.590751,7803.686893,-20340.310972,13433.197252,9779.759917,8760.430963,-5666.815420,32676.305792,2653.129715,27018.699291,6338.619451,-289.872009,-822.280029,-488.976013,6860.000000,-12040.000000,4760.000000
8892.708587,9905.220259,1141.995328,-988.684712,7672.012767,7800.267077,7870.563313,-20256.536634,13501.191259,9879.716918,8776.546571,-5569.339462,32722.462144,2689.294838,27096.706879,6447.628909,-293.287994,-822.280029,-491.416016,6440.000000,-12040.000000,4480.000000
8934.126369,10069.594988,1245.036870,-876.501307,7814.795710,7832.587699,7961.981948,-20158.233661,13569.162913,9957.411582,8797.579562,-5457.983072,32774.206433,2715.915765,27200.597787,6579.191277,-292.312012,-822.768005,-489.951996,5880.000000,-11620.000000,4340.000000
8916.222622,10092.282008,1236.677317,-856.340034,7813.186385,7840.947251,7987.239419,-20154.545624,13571.174570,9934.411637,8803.480423,-5438.425295,32778.967354,2709.344352,27235.824136,6604.024065,-290.360016,-824.720032,-488.488007,5740.000000,-11620.000000,4340.000000
8866.869970,9973.437783,1142.822342,-934.705250,7696.398520,7817.097940,7929.102532,-20236.732988,13514.669360,9853.274805,8788.817679,-5511.895479,32739.874153,2683.930419,27177.351973,6520.406189,-291.335999,-822.768005,-487.511993,5600.000000,-11200.000000,4480.000000
8852.587205,9896.950113,1093.737911,-984.527288,7636.160569,7799.820042,7889.227019,-20281.324718,13480.672357,9817.802586,8777.440641,-5564.489134,32713.633205,2670.877000,27127.149955,6456.279034,-290.360016,-822.280029,-487.024017,5040.000000,-11060.000000,4340.000000
8848.586243,9845.071715,1064.635940,-1018.099608,7598.095548,7790.499364,7862.673147,-20303.676463,13459.617014,9795.070862,8769.483420,-5605.303419,32693.628394,2660.572846,27086.983870,6402.813661,-287.920013,-822.280029,-488.000000,4900.000000,-10500.000000,4480.000000
8839.176159,9785.794888,1027.554396,-1060.634978,7547.424143,7780.485783,7825.792769,-20336.689989,13439.835720,9768.114658,8762.777896,-5649.470466,32673.489472,2649.754602,27042.302733,6347.850722,-287.432007,-822.280029,-490.928009,4760.000000,-10360.000000,4480.000000
8841.187816,9757.184655,1015.931489,-1082.942019,7529.475692,7775.814268,7802.412844,-20356.471283,13438.069932,9773.367318,8761.056812,-5666.703661,32668.773254,2651.721555,27023.549619,6328.404704,-287.432007,-822.280029,-492.391998,5040.000000,-10080.000000,4480.000000
8883.119688,9842.948299,1090.586315,-1026.593271,7620.626106,7791.058158,7841.349583,-20303.698814,13488.406061,9849.497360,8772.031518,-5605.214012,32701.317394,2677.403710,27070.689448,6398.767996,-289.872009,-822.280029,-490.440002,5180.000000,-9940.000000,4760.000000
8935.914509,10014.542641,1211.889233,-911.861767,7776.663634,7824.272850,7933.595232,-20197.438621,13563.753791,9946.280413,8791.879868,-5486.079214,32757.733197,2706.639791,27170.892319,6535.963003,-289.384003,-822.280029,-492.391998,5180.000000,-9800.000000,4900.000000
8939.647250,10098.205220,1252.234131,-852.137906,7836.298089,7843.674164,7990.726291,-20147.214251,13588.541876,9960.518475,8803.927458,-5426.243594,32784.778808,2710.864271,27235.578267,6612.383617,-290.847992,-820.328003,-490.440002,5320.000000,-9380.000000,5040.000000
8887.902962,9999.701083,1166.291674,-913.046409,7729.680268,7827.379743,7948.570901,-20214.001264,13538.138692,9876.542971,8796.685493,-5484.805165,32755.699188,2684.869192,27198.675537,6552.346832,-286.944000,-819.840027,-488.976013,5180.000000,-8820.000000,5180.000000
8856.074078,9899.341750,1100.555193,-980.727491,7641.592043,7806.771434,7895.999598,-20271.668765,13489.858924,9825.223365,8781.575713,-5550.631052,32723.266807,2668.328901,27139.175193,6478.407261,-289.872009,-820.328003,-489.951996,5040.000000,-8400.000000,5320.000000
8839.802008,9841.383677,1064.054795,-1019.485416,7598.319065,7794.589733,7870.451554,-20295.249855,13456.621880,9790.354644,8768.276425,-5599.603724,32698.948109,2653.822619,27095.343422,6425.165406,-288.895996,-820.328003,-488.976013,5040.000000,-7980.000000,5320.000000
8822.747627,9778.843496,1026.392105,-1062.020786,7548.541730,7780.798707,7837.773304,-20325.849393,13426.827005,9756.178827,8759.760411,-5651.236254,32677.445731,2639.651613,27046.862489,6368.034347,-289.872009,-820.815979,-491.903992,4760.000000,-7280.000000,5320.000000
8824.491063,9736.464588,1008.197785,-1093.693208,7519.417407,7770.874533,7806.391455,-20352.582079,13417.327513,9753.384859,8751.467914,-5680.762909,32665.889879,2640.165703,27011.211456,6332.428018,-289.384003,-821.791992,-487.024017,4200.000000,-6300.000000,5180.000000
8854.330642,9781.212781,1051.359004,-1066.826411,7570.804068,7779.211733,7820.964792,-20329.336265,13445.334249,9803.162194,8755.155951,-5648.934024,32684.397123,2660.706956,27032.780890,6371.342405,-290.847992,-819.351990,-489.951996,3780.000000,-5740.000000,5180.000000
8913.853337,9950.862521,1175.053558,-950.977320,7728.987363,7812.113501,7909.008313,-20231.256811,13521.665456,9913.646867,8775.026652,-5532.257918,32739.293008,2698.079073,27131.977931,6504.178823,-291.335999,-819.840027,-493.856018,3640.000000,-5460.000000,5040.000000
8938.887291,10085.017691,1254.424602,-853.099031,7837.840359,7841.014307,7989.295779,-20153.942127,13573.745021,9967.760440,8795.947885,-5438.984089,32782.275412,2715.781655,27225.296465,6612.607135,-292.800018,-820.815979,-493.856018,3500.000000,-4760.000000,4760.000000
8899.190593,10039.196615,1197.584116,-877.037749,7774.227294,7836.923937,7976.577637,-20188.699089,13546.565300,9904.035616,8796.953714,-5461.492295,32769.333752,2697.766149,27221.139040,6590.389501,-293.776001,-820.815979,-493.856018,3360.000000,-4480.000000,4480.000000
8863.606615,9930.343620,1117.117836,-948.518628,7671.029290,7813.253440,7917.412569,-20259.799988,13498.017311,9838.522653,8784.369681,-5531.073276,32732.453374,2677.202544,27160.811682,6505.385817,-292.312012,-820.815979,-490.440002,2800.000000,-4060.000000,4200.000000
8853.056592,9869.993910,1079.432795,-990.159928,7624.582365,7798.501289,7884.488450,-20291.450058,13470.368203,9807.409025,8770.779821,-5579.196582,32706.167722,2662.942131,27116.756394,6445.483142,-292.800018,-823.744019,-491.416016,2660.000000,-3780.000000,3920.000000
8842.059534,9813.041665,1045.480495,-1030.638937,7577.643702,7785.872553,7852.726621,-20317.668655,13441.623860,9774.775478,8758.933396,-5626.448170,32686.811112,2647.742945,27069.907137,6389.536725,-292.800018,-819.351990,-494.832001,2380.000000,-3780.000000,3500.000000
8834.974031,9752.379030,1008.130730,-1073.822507,7527.195815,7774.227294,7816.427388,-20351.129216,13422.133138,9750.590891,8751.512617,-5667.150696,32669.332048,2638.198750,27025.516573,6340.184073,-289.384003,-820.815979,-491.416016,2100.000000,-4200.000000,3080.000000
8847.491008,9752.155513,1022.167626,-1077.890525,7538.259928,7774.987254,7808.425463,-20350.749236,13434.046618,9777.234170,8753.256053,-5659.953434,32676.194033,2646.915930,27020.889762,6347.068411,-287.432007,-816.424011,-489.464020,2100.000000,-4200.000000,2800.000000
8895.189630,9883.047328,1125.164464,-992.685675,7666.782459,7797.093129,7870.675072,-20269.210073,13494.999825,9870.887979,8766.778859,-5570.367643,32720.808115,2678.074262,27093.622338,6450.445229,-284.015991,-818.864014,-493.368011,1680.000000,-4900.000000,2240.000000
8934.618108,10047.511464,1231.469361,-879.898772,7808.537222,7828.542033,7963.993605,-20169.409534,13562.345631,9945.788675,8785.777841,-5459.391231,32770.071360,2703.801120,27198.407316,6579.571257,-288.895996,-820.328003,-492.391998,1820.000000,-5600.000000,1820.000000
8920.648267,10078.043947,1233.481018,-851.042670,7813.499309,7838.823836,7995.956599,-20155.730266,13566.570111,9925.649753,8794.472670,-5432.032696,32782.230709,2702.527070,27238.640456,6612.405969,-285.480011,-821.304016,-488.976013,1820.000000,-5880.000000,1540.000000
