-4.81988,-4.11727,-3.89092,-5.66659,-4.75791,-0.867317,-2.37859,2.71513,-0.578794,0.967803,3.3871,-1.40074,3.71098,2.24859,0.757485,4.50164,39.04,-824.72,-556.808,-560,4340,-3220
-6.25959,-3.99973,-3.96153,-6.83861,-6.81546,-1.77179,-5.21767,1.8519,1.30164,2.12847,5.17342,-0.855836,4.3517,4.12373,-0.457711,3.27904,37.576,-826.672,-558.76,-980,4340,-3220
-6.55217,-6.04863,-3.63671,-7.66808,-7.26385,-3.45757,-7.15013,-0.174874,3.72296,5.8141,7.50848,0.00694786,5.35046,3.85013,-1.20593,1.95104,38.552,-827.648,-556.32,-1120,4340,-3220
-2.42402,-1.68002,-0.187727,-3.07523,-2.98156,-2.13901,-3.17807,-1.89633,3.88879,6.59248,5.30022,1.24027,2.30061,0.566351,-0.144308,-1.46996,39.04,-825.696,-554.368,-1260,4340,-3220
-0.409482,2.6002,1.54472,1.18575,-0.27904,-1.76595,0.146756,-2.42981,1.75337,3.31204,-0.654273,0.770429,-1.41692,-2.16104,0.213298,-3.95239,39.528,-826.184,-554.856,-1400,4200,-3220
2.13768,7.76173,4.48264,5.43703,5.78025,0.87121,5.26086,1.89063,1.58633,-0.17293,-4.03939,1.61896,-3.42069,-2.66038,2.62798,-2.58765,35.624,-828.624,-556.32,-1820,4200,-3220
1.68821,5.11014,3.49092,3.70682,4.71239,1.41581,3.33739,1.49708,2.94718,1.53621,-2.28003,1.70376,-1.60611,-1.32475,2.71629,-1.14352,40.504,-831.552,-551.44,-2100,4200,-3220
-1.49514,-2.64823,-0.528945,-2.4068,-1.18766,-0.320087,-2.19962,-1.70622,2.50021,4.06378,1.10043,1.865,2.89888,1.65511,2.84618,-0.286085,36.6,-832.04,-548.512,-2240,4340,-3220
-1.70567,-3.83788,-0.457927,-2.14147,-0.876249,-0.276458,-1.58604,-2.64615,-0.64403,2.03189,0.831951,1.39913,2.4567,1.61566,2.68359,-0.976274,37.088,-832.528,-549.976,-2520,4340,-3080
-2.89491,-7.01171,-0.489819,-3.63083,-1.97588,-0.414208,-3.04949,-0.286485,-2.86307,1.29103,2.83682,0.981765,4.18943,2.27399,0.16344,0.180588,38.064,-837.408,-549.976,-2660,4340,-3080
3.03356,-0.61159,3.40245,0.705512,3.58084,2.44848,1.19829,3.86124,-1.23899,-0.148609,1.38954,2.41522,2.46443,2.38441,-1.12301,-0.117544,39.528,-834.48,-548.512,-2940,3920,-3080
5.28435,3.9644,2.92334,3.54472,5.00772,3.10223,1.99095,3.09543,-1.06424,-3.1897,-0.753528,1.19287,-0.115983,0.522995,-2.72759,-0.75343,35.136,-832.528,-548.024,-3080,4060,-2940
3.30414,4.84651,2.1351,3.79131,3.85184,2.10843,2.05514,2.70522,-4.0778,-5.93846,-2.72646,-1.1249,-0.889437,-1.59409,-0.294715,0.0798293,39.04,-832.04,-548.024,-3360,3500,-2940
-1.48668,1.29466,-0.206634,4.21288,1.40455,0.899591,2.79459,2.70633,-9.76776,-8.72169,-5.43347,-4.78875,-3.53597,-3.49429,1.45884,-0.9116,40.016,-833.504,-549,-2940,3500,-2800
-6.6245,-4.00282,-3.18261,1.78471,-0.724945,0.631178,2.88988,2.32848,-10.0509,-8.56786,-6.5256,-4.76642,-3.59932,-2.14013,1.78114,3.13459,39.528,-831.064,-550.952,-3080,3080,-2940
-4.87409,-4.34396,-3.33377,-1.67236,-2.89311,-0.588063,-1.17563,0.0228097,-1.33508,-3.07159,-1.108,-0.599056,-0.913666,-0.998139,-1.85858,4.70308,40.504,-830.088,-548.024,-3220,2940,-2660
1.58359,2.08279,0.072148,-0.247115,-0.839246,-0.245094,-0.0962445,-0.840341,5.90263,0.0859649,1.04352,1.99526,-1.45756,-0.967371,-4.27818,1.35399,40.016,-832.528,-551.44,-2940,2520,-2520
7.10075,6.73319,2.51061,2.73349,3.17498,0.300424,2.76566,0.494933,7.80133,1.19679,0.640198,1.68161,-2.10194,-1.72529,-3.16948,-1.70189,41.968,-830.576,-548.024,-3080,2380,-2380
8.4856,6.29912,2.53208,3.30295,3.24197,-1.48221,2.26418,0.814434,6.96378,1.52066,0.126616,0.0691824,-2.43459,-2.91438,-1.26811,-2.51122,43.92,-833.504,-550.952,-2940,1960,-2100
4.5686,1.17198,0.984392,1.54536,-0.487818,-2.10484,1.34356,1.34626,2.20495,0.82335,-1.80744,-1.96498,-1.14898,-1.80994,-0.0469872,-1.20269,41.48,-835.456,-549,-2940,1820,-2100
-3.12717,-6.58241,-2.23183,-2.61964,-4.69235,-1.66588,-1.1441,1.70284,-4.64731,0.635283,-0.805202,-2.72274,1.26145,0.904031,0.112499,1.18312,41.48,-832.04,-550.952,-3500,1540,-2240
-5.68034,-7.5794,-1.74634,-2.8704,-2.92257,-0.00235517,-1.46145,-0.878039,-6.63079,0.500991,-0.395474,-1.15128,1.09445,2.65626,-0.779679,2.25901,42.944,-831.064,-551.928,-3500,1260,-2240
-3.15626,-5.18409,-0.707706,-3.2249,-2.29123,0.513286,-4.25188,-5.25548,-2.05176,2.97406,2.98869,1.04899,2.13543,2.89719,-1.61998,0.921977,43.92,-832.04,-554.856,-4060,1260,-2660
0.871579,0.91672,0.0319784,0.0812841,0.63034,0.657247,-1.47303,-5.94339,1.60442,2.90982,2.03194,0.307755,-0.203272,0.139068,0.00273123,-2.16251,45.384,-834.48,-553.88,-4060,1820,-2940
3.41901,5.38237,0.519298,2.73991,2.48879,0.0508546,1.13349,-5.56214,3.68121,1.82983,-0.760261,-0.109195,-2.01455,-1.64129,0.901441,-4.19959,45.872,-837.408,-552.904,-4060,2100,-3080
4.55945,6.63768,1.79859,3.14226,4.00001,1.46732,2.93047,-3.55695,3.77899,0.92811,-1.46115,1.61479,-1.9358,-0.0823684,2.74781,-2.67501,44.408,-837.896,-550.464,-3920,2660,-3500
3.40821,6.10521,1.64194,3.03556,4.73939,3.1669,3.22597,-0.254101,1.82574,-0.116161,-0.732669,1.49667,-0.337354,1.4106,3.38507,-2.3486,44.896,-840.336,-549.488,-3640,3640,-3500
-0.00505198,2.36049,0.296243,-0.796333,1.13285,1.47903,-1.29913,0.270553,1.96564,1.29374,2.46039,1.63845,2.36597,1.16554,1.19293,-1.23952,42.944,-839.848,-549.976,-3500,3780,-3360
0.76262,3.90518,0.909543,0.185611,0.612666,0.805013,-0.471423,1.27075,4.21556,1.16063,0.30774,0.455152,1.19573,-0.835183,-0.0617963,-1.57392,40.016,-836.432,-548.512,-2660,3780,-3080
-2.29804,0.187136,-0.483564,-2.11706,-0.522654,0.084923,-1.43645,2.88562,4.64806,1.1084,1.09008,1.69515,2.88276,1.6641,-0.163149,1.64707,42.944,-834.968,-549.976,-2100,3640,-2800
-9.39204,-11.6133,-4.56464,-6.33561,-5.12798,-1.70809,-3.55028,3.56349,-3.03094,-1.44173,1.43829,-1.0592,3.72582,2.48254,0.65802,4.53602,41.48,-833.992,-550.464,-1540,3920,-2100
-7.45187,-11.7057,-4.7476,-4.96177,-5.82487,-2.499,-4.38219,1.97717,-3.05925,-2.09698,-0.0669358,-1.06515,1.44082,0.361245,-2.02534,2.00992,41.48,-833.504,-550.464,-1260,4060,-1680
-1.59314,-5.18766,-1.25991,-2.70418,-3.5872,-1.1435,-3.83916,0.451243,2.52898,0.893638,1.8557,2.9525,0.560961,0.835423,-4.19428,0.238732,39.528,-831.552,-554.856,-840,3780,-1260
-0.254991,-2.12052,0.693879,-0.36276,-0.502864,-0.454327,-0.227849,-0.0889319,0.800718,0.322705,0.687036,0.789298,-0.90423,-0.235642,-1.09886,0.945288,39.528,-828.136,-552.416,-560,3920,-700
1.48058,1.011,0.436987,0.416871,-0.568826,-1.23,-0.0838907,-2.31818,-0.980679,0.554606,-0.513329,-0.381878,-1.66551,-1.63587,-1.0796,-1.26499,36.112,-827.648,-553.88,-700,4060,-280
4.38529,4.11558,2.26438,0.606314,0.0823749,0.243546,0.826068,-0.761246,-0.419376,2.79202,0.302722,-0.149148,-0.42083,-0.223397,-0.122487,-2.17596,33.184,-823.744,-554.368,-1120,4340,280
4.0912,1.80316,2.30591,-1.40184,0.290266,-0.262692,-0.387261,-0.29227,1.89519,6.28993,3.8464,1.72145,2.77522,2.74232,0.533157,0.403366,35.136,-824.232,-555.832,-1260,4480,840
2.44382,1.48636,0.571317,-0.982756,0.0153149,-1.86934,0.193655,-2.19002,1.04407,2.95735,1.95665,-0.00593362,1.8229,1.41957,1.87356,0.334439,31.72,-821.792,-555.832,-2240,5040,1260
0.538641,2.15167,-0.200906,0.885131,-0.748936,-2.33963,0.606114,-1.72392,-1.71649,0.0502809,-0.243781,-2.43373,0.110099,-1.21874,2.47829,-0.340769,33.184,-820.816,-560.224,-2940,5460,1680
-0.990701,2.52241,-0.43893,0.748725,-1.17648,-1.59862,0.689949,-0.744621,-3.77578,-1.15004,-2.26224,-2.94108,-0.821403,-1.06473,2.01896,0.159526,31.232,-824.72,-557.784,-3780,5600,1820
-1.1859,4.25465,0.212799,3.16143,2.02345,0.350633,4.15461,2.81667,-5.93276,-6.34206,-5.9347,-2.89039,-3.87374,-1.56876,2.28142,2.17137,28.792,-825.696,-561.688,-4480,6020,2100
-4.67463,-0.690179,-1.41919,4.02997,2.22608,1.92419,6.06901,7.41036,-12.0934,-9.2151,-5.39964,-2.9507,-4.8631,-2.11051,3.17687,3.53579,30.256,-823.256,-558.76,-4900,6020,2240
-4.64865,-1.79264,-1.06629,3.57507,0.724761,2.63675,3.74087,5.31804,-10.9625,-8.42531,-3.40754,-1.30112,-4.54659,-2.3218,2.09621,1.48149,28.792,-822.768,-563.152,-4900,6160,2380
-2.65755,-2.30182,-1.42319,-0.843505,-2.3761,1.13594,-2.74885,-0.863113,-1.04921,-1.34471,0.807754,2.63423,-0.449956,0.278497,-0.788969,0.537395,28.792,-826.672,-563.152,-5180,6020,1960
-0.966625,0.153291,-0.59178,-2.23111,-0.808765,0.683498,-2.70264,-2.1031,2.9864,2.24443,1.15692,4.05499,2.04181,1.92235,0.379324,2.38985,31.232,-824.72,-562.664,-5460,5740,1820
1.22267,1.06233,0.748755,-1.01055,0.0739882,0.570203,-0.962122,-1.27081,3.9445,2.57868,2.07526,4.7553,2.32994,1.66444,1.86142,2.71796,32.208,-827.648,-558.76,-5180,5040,1540
3.26021,2.69694,1.70183,0.904163,2.88384,1.25538,1.72828,0.474978,3.72172,2.27264,1.34628,3.00407,1.10555,0.118885,2.54578,1.33622,34.648,-829.112,-558.76,-4900,4480,840
7.76378,6.70807,3.62681,3.1957,5.44461,0.964419,1.03612,-0.652848,6.27147,3.72466,1.40252,2.35879,-0.00812801,-1.50179,-1.53148,-2.51965,36.6,-832.528,-556.808,-5320,4060,560
4.51705,2.57018,1.43406,1.8294,2.61052,-0.818614,-1.30307,-2.333,2.66778,2.61628,2.42961,-0.712228,0.384264,-2.25557,-5.44004,-3.92484,36.112,-832.528,-556.808,-4900,3080,140
3.01584,3.59628,1.32624,3.72961,3.43955,-0.425565,0.72064,-0.61954,-0.936838,-2.15234,-1.89806,-3.95813,-2.25433,-3.73957,-6.23752,-5.69905,37.576,-833.016,-557.784,-4620,2520,-280
3.84471,4.50233,2.75518,3.92868,5.0828,-0.229726,2.08012,-0.109654,2.84701,-2.67702,-2.01123,-3.3225,-3.01086,-2.54768,-5.48565,-5.4806,39.04,-834.968,-556.32,-4480,1820,-700
1.10673,2.42936,2.45606,3.38509,5.20022,0.806883,5.00336,2.25694,2.79701,-3.42873,-2.52697,-2.7834,-2.94734,-1.16318,-2.76468,-1.15395,40.992,-834.968,-554.368,-4060,1400,-1120
-5.74817,-6.4342,-2.35666,-2.47694,-0.993799,0.621732,2.50495,1.13985,-0.614808,-2.70306,0.128742,-0.973729,-0.143577,1.983,1.51192,2.81444,43.92,-833.992,-556.32,-3640,1260,-1260
-6.95403,-12.1343,-3.73947,-7.99495,-5.1937,-0.713517,-3.47126,-1.17677,0.540381,3.09745,5.55362,1.01309,5.18855,5.69609,0.959918,4.1794,44.896,-833.992,-552.416,-3080,980,-1400
-3.21716,-11.1446,-3.12699,-9.78927,-7.34964,-1.96934,-8.68255,-2.24279,5.83381,7.99739,9.1249,2.81799,8.10757,6.27007,-2.33016,3.35162,44.408,-836.92,-552.416,-2800,700,-1680
1.41205,-6.56455,-1.82882,-9.26939,-8.22794,-2.14756,-10.9104,-2.97068,12.6199,10.471,11.4029,5.01325,8.62212,5.1431,-5.43072,1.09437,47.336,-835.944,-556.808,-2240,420,-1680
0.858294,-2.78129,-0.29119,-3.48218,-4.68495,-0.71388,-4.5439,-0.489948,6.77311,3.8453,4.97492,1.24393,3.83091,1.44509,-1.99758,-0.940129,44.408,-833.016,-551.44,-1820,420,-1680
1.1023,4.04909,2.29884,6.34453,3.04067,1.59177,6.02845,1.13877,-4.24755,-6.40097,-8.14889,-5.36628,-4.61554,-3.63627,6.46775,-3.5784,45.384,-834.968,-553.88,-1400,420,-1680
2.53431,4.23648,1.45556,7.41776,2.05285,1.39656,5.43998,0.167419,-4.78237,-6.77048,-10.4237,-5.64065,-5.28004,-4.55203,5.69864,-4.77053,43.92,-833.016,-554.856,-700,560,-1680
-5.14285,-5.87767,-4.91095,-0.311312,-6.13515,-1.03604,0.697711,0.404538,-7.6277,-5.49759,-5.11819,-4.56609,-1.46713,-2.00049,4.86858,0.0226387,47.824,-834.48,-551.44,-560,560,-1540
-2.38476,-1.76466,-2.33239,0.88349,-3.01914,-0.298139,1.85538,1.57514,-5.89626,-4.59772,-5.5746,-4.048,-2.57,-1.0509,3.33675,0.964476,44.896,-830.576,-554.368,-280,840,-1540
3.3381,6.78102,0.414348,4.4109,0.954137,-0.0397426,0.963141,0.00702163,-1.18544,-3.73968,-6.62,-2.82998,-5.69615,-3.84771,-0.292559,-2.61423,44.408,-830.088,-556.808,0,1260,-1400
4.51344,6.68914,1.54405,2.2621,1.39032,1.39128,-1.74397,0.0465302,3.63571,2.10723,-1.89151,1.87522,-2.71089,-1.45587,-2.19816,-1.36545,44.896,-829.6,-554.368,140,1680,-1260
2.33347,2.22348,1.56535,0.623336,1.02721,1.78308,-0.877741,-0.342074,3.2206,3.01492,0.83365,1.63119,-1.03982,0.162149,-1.59832,0.312424,46.36,-830.576,-550.464,-140,1960,-980
-0.237995,2.47106,2.1456,2.42178,3.88382,1.50941,2.48208,0.42133,-3.69637,0.0491588,-1.83873,-0.835119,-1.54871,-0.749901,0.811618,-0.508138,46.36,-830.088,-551.44,-280,2380,-980
-0.732827,2.03062,2.14692,1.23924,5.16422,1.04262,1.93837,0.595952,-4.54016,0.933683,-0.696135,1.45265,-0.188111,0.741157,0.761448,-0.495242,43.432,-828.136,-552.904,-560,2520,-560
-3.83487,-2.29624,-1.91095,-4.53029,-1.43198,-2.40053,-3.93036,-1.56717,-1.41149,2.70896,4.18375,4.11052,2.62732,2.21872,-1.74991,1.8491,43.92,-828.136,-558.76,-280,2520,-280
-7.25477,-3.90594,-3.43006,-6.81966,-3.76059,-2.52836,-4.23379,-0.677102,-3.12452,3.48314,4.9822,4.62515,4.18501,2.95731,-0.306207,5.0569,46.36,-827.648,-558.272,-980,2940,140
-2.91486,-0.0799422,0.0897087,-3.04993,0.00597154,-1.58788,1.06268,0.516742,-3.05639,4.57239,3.42349,4.58,3.38936,2.45527,3.03318,4.54463,43.432,-824.72,-556.32,-980,2800,280
0.268111,2.74165,1.65556,-1.32127,1.24015,-1.27371,1.05994,-1.27283,0.719082,5.00962,4.90606,4.89483,3.87323,2.24739,0.866363,2.30383,44.896,-824.72,-559.248,-840,2940,560
0.021075,1.32851,-0.43438,0.215182,-0.450578,-0.730472,0.605725,-2.09097,0.782458,0.416399,2.818,1.12582,1.82661,0.0177527,-1.09567,-0.288278,44.896,-827.16,-557.296,-980,2660,840
1.27479,0.471796,-0.589806,0.992311,0.360955,-0.322303,1.15613,-2.19961,-1.97636,-0.170812,0.942011,-0.308507,0.985116,-0.246415,-0.277635,-0.16948,44.408,-830.088,-557.784,-1120,2660,1120
0.00847727,0.226629,0.539517,1.98647,3.82426,1.13005,3.34975,-0.406419,-4.68146,-3.04011,-1.56412,-0.648682,-2.27731,-0.313334,0.986021,0.761004,43.92,-829.112,-558.76,-980,2520,1540
2.33408,2.26089,2.10555,3.57599,4.67386,1.93069,3.00709,1.51353,-1.74092,-2.6411,-1.7096,0.473215,-3.12146,-0.406052,0.553374,-0.387677,43.92,-830.576,-557.784,-560,2240,1680
6.2599,6.48087,4.28876,4.17356,5.03938,2.87059,2.72135,2.89511,3.54097,1.64098,-0.175455,2.92067,-1.12012,-0.27944,1.47402,-0.863795,44.408,-833.016,-556.808,-420,2100,2100
5.04819,4.69457,3.0981,3.86064,4.12369,2.7231,3.79148,4.85574,3.3328,0.417079,-1.12527,1.47207,-1.59026,-0.395479,3.69752,0.790824,42.944,-833.016,-558.76,140,1960,2380
-0.0932832,0.441899,-0.461551,2.68996,1.23679,1.02307,1.25354,1.8488,0.421436,-3.06289,-2.78826,-1.28165,-3.33824,-2.547,1.77845,-0.226684,42.456,-832.04,-557.784,560,1400,2520
-3.73338,-5.9275,-2.36195,-1.35694,-1.62813,-0.1265,-2.14815,-0.364122,0.375507,-2.35653,-1.28108,-1.30988,-0.307461,-1.73523,-1.15269,0.787707,41.968,-833.504,-555.832,840,1120,2660
-1.27362,-3.83003,-1.33359,-0.918412,-0.674353,0.21013,-0.710761,-0.287436,1.68016,-2.41374,-1.49522,-2.36052,-0.781931,-2.05375,-1.82026,1.3603,43.432,-832.04,-554.856,1400,840,2800
-0.975281,-3.02034,-1.17177,-2.19869,-1.15512,-0.678626,-1.58176,1.4481,3.16231,-1.28137,-0.0829453,-3.39413,0.594587,-0.209904,-3.11255,1.1086,42.456,-831.552,-552.416,1960,280,2940
2.42006,-0.861728,-1.08407,-3.05542,-3.5094,-2.67109,-3.4547,0.28824,6.3989,0.825945,0.987616,-1.54359,1.11998,0.555538,-5.84707,-2.00613,43.92,-833.504,-556.32,2380,-140,3220
7.1646,4.87729,1.96387,1.91843,-2.99484,-0.989462,-1.33436,0.833998,5.28678,-0.753589,-2.03086,-1.25385,-2.28014,-2.18988,-7.18936,-6.94138,43.432,-833.016,-555.344,2800,-420,3220
1.6193,-3.65542,0.502047,-4.06926,-6.68392,-0.0676396,-3.43959,0.66145,1.81257,2.62216,5.48022,0.65637,4.83048,2.89922,-3.97999,-2.06432,42.456,-835.456,-554.856,3080,-840,3220
-0.904244,-6.1834,-2.09834,-3.61958,-7.07523,-0.349927,-3.3856,-1.76581,-1.96506,-0.225149,3.84344,-2.12552,3.72266,1.14354,-2.23166,-2.552,41.48,-831.552,-556.808,3640,-980,2940
-0.231651,-4.04084,-2.59404,-1.2415,-4.4261,-0.788462,-3.83755,-2.69725,-2.55702,-0.983945,1.08748,-3.83663,1.50142,0.0271127,-1.49624,-3.31896,39.04,-833.016,-557.784,4060,-1540,2940
-4.31334,-5.74198,-4.59226,-2.33106,-4.57629,-2.41618,-2.75036,-2.32714,-4.61339,-2.77163,-0.747422,-4.86051,-0.514255,0.823398,2.99932,-0.197136,39.04,-833.016,-555.832,4060,-1400,2660
-5.63068,-1.5613,-3.8883,0.526518,-0.569306,-1.42733,2.02864,-1.53419,-4.46765,-6.66598,-4.79425,-6.15123,-3.15224,-0.0904335,6.08034,1.25061,40.992,-831.552,-559.736,4480,-1680,2520
0.87295,6.37261,1.77551,3.32138,5.53719,1.99152,4.78553,-2.01824,3.04796,-4.02298,-4.82566,-1.80715,-3.8024,1.39229,4.65422,2.54257,38.064,-830.576,-562.176,4900,-1820,2380
3.47322,7.08887,3.64525,6.75413,7.47787,2.72919,5.25139,-0.394068,-0.0351416,-5.33342,-8.67533,-1.69631,-6.85025,-0.722726,0.758457,0.722852,35.136,-830.576,-558.272,5460,-1540,2240
-1.06899,0.482137,1.36333,0.787961,3.5664,0.167152,0.0984376,0.0440539,0.298136,0.312622,-0.979694,2.51662,-0.067782,1.59383,-0.414132,2.75699,34.16,-832.528,-558.76,5600,-1400,1960
-8.46379,-7.37701,-2.60416,-6.76738,-1.79507,-1.43433,-3.0449,0.303493,-1.38556,4.28917,5.71447,4.51858,5.84866,3.08202,2.61372,5.94894,33.184,-833.992,-556.808,6020,-1260,1820
-12.2788,-9.83095,-5.6129,-9.53647,-4.97077,-2.7216,-4.32824,-1.44555,-2.68399,4.75116,7.36711,4.33752,7.29128,2.43836,5.24502,5.06013,35.624,-831.064,-557.296,6580,-1400,1680
-5.50467,-3.82977,-1.20529,-6.12641,-3.14246,-2.79578,-3.95242,-2.27851,1.78454,8.16515,7.87891,6.81264,6.50166,1.69856,3.36828,0.738997,33.672,-832.04,-561.2,6580,-1400,1680
3.97287,5.00458,4.10748,1.16588,1.30695,-1.06049,-1.63009,-3.37863,5.61601,6.95921,5.66718,6.4782,2.44606,-1.56056,-1.25758,-4.55156,33.184,-833.016,-555.344,7140,-1120,1680
8.20572,7.44385,5.41209,2.9428,2.36156,-0.661159,-0.462417,-1.61577,5.8724,6.38927,3.74417,6.05889,0.354415,-2.07434,-2.43249,-5.77717,31.72,-832.528,-558.76,7280,-1120,1540
8.60889,9.78055,5.14884,8.50276,6.14938,-0.471865,6.16722,3.9241,-2.43472,-0.381096,-5.84454,-0.0152506,-6.90553,-5.40852,0.741643,-6.65763,31.72,-835.944,-557.784,7980,-1260,1540
4.80864,7.37611,2.72227,8.71589,5.68619,1.35956,5.79121,5.09853,-4.3115,-4.23977,-7.13327,-2.83563,-6.59685,-4.88051,1.09053,-4.23228,31.232,-832.04,-558.76,8260,-1120,1540
1.32657,1.70901,0.431907,1.60895,-0.255597,1.75852,0.109123,1.48039,0.836735,0.911157,-1.55288,-0.658783,-0.641688,-1.8497,-0.297188,0.067017,30.744,-830.576,-558.76,8540,-1120,1820
1.58894,0.0041014,0.630124,-0.58881,-1.19313,1.33864,-1.70528,-0.104301,4.65706,4.12927,0.919607,1.19803,2.15347,1.0381,-2.24198,2.29373,34.648,-830.576,-559.736,8540,-980,1820
2.07208,2.23245,2.83092,0.830093,3.0141,2.56638,1.48434,1.196,3.11874,3.87458,1.07469,1.29528,1.85919,3.02682,-2.59423,3.74311,34.16,-829.6,-554.856,9100,-980,1820
-1.94551,3.08063,1.52755,3.44919,5.73015,4.17776,5.9622,2.59528,-3.84121,-3.50783,-4.71971,-4.051,-2.66326,1.36258,0.0803821,4.75648,30.744,-829.6,-559.248,9240,-840,1820
-6.80583,-3.01585,-3.12519,1.18303,1.42972,2.9927,4.02479,3.07542,-8.99152,-7.30209,-6.77867,-7.4687,-3.47573,-0.029164,0.908555,5.26148,34.16,-829.112,-558.272,9380,-560,1960
-3.62558,-3.4317,-1.91131,1.22782,0.154817,2.23758,3.0844,3.28961,-7.32473,-5.15654,-4.85242,-5.45535,-3.80019,-0.623558,-1.16443,3.34973,35.136,-827.648,-557.296,9800,-420,1960
-0.0246488,-5.2433,-1.30764,-1.51072,-2.83606,1.14502,-0.28071,2.1441,-2.37431,0.0351467,1.42732,-1.08048,1.22108,1.74435,-3.07053,2.99678,35.136,-828.136,-559.248,9940,-700,2100
1.10005,-4.22366,-1.48134,-3.51224,-4.66158,0.127948,-2.41591,-0.807773,2.98338,1.34091,4.7384,2.32324,2.80799,1.39051,-3.36063,0.364344,36.6,-828.624,-560.224,9940,-700,2380
6.04451,3.06917,2.10699,1.52147,1.05195,1.77783,1.28083,-1.19951,3.90954,0.202256,2.91155,2.92993,0.708397,0.0198547,-2.16877,-3.42269,37.088,-822.768,-558.76,10500,-840,2380
6.55131,4.06729,1.36941,4.0184,1.98595,0.103339,2.63897,0.427006,0.961622,-2.56892,-0.00813121,-0.447076,-2.25057,-2.9066,-0.194704,-4.0071,37.088,-828.624,-559.736,10920,-840,2660
0.326578,-1.19567,-2.61867,1.52607,-1.55959,-3.2701,-1.68551,-1.06682,-3.54927,-6.68338,-2.79454,-3.88438,-5.04592,-3.44805,-3.52657,-2.84714,38.064,-824.72,-555.832,10640,-1120,2660
-4.02985,-6.9259,-4.93598,-3.15399,-5.41985,-4.24891,-7.03896,-1.43116,-4.15054,-3.60918,0.799,-3.76318,-1.43996,-0.323962,-7.03781,-1.83255,38.552,-826.184,-560.224,10920,-1400,2940
-3.88337,-7.22147,-3.6728,-5.55973,-5.80667,-1.90798,-6.43319,0.777034,-0.43133,1.18136,3.70673,-0.229078,3.0357,2.47173,-2.94494,-0.305946,39.04,-826.184,-558.76,10780,-1540,2800
-2.99369,-4.84173,-3.47636,-6.68375,-5.6077,-2.78308,-5.12185,-2.06517,1.15713,3.45744,2.59177,1.58588,3.62896,2.55816,2.20759,-0.313418,38.552,-827.648,-556.32,11060,-1400,3080
-2.71727,-2.44974,-2.57833,-6.71985,-5.53772,-3.28459,-5.63043,-5.18881,0.759501,3.80558,2.45707,3.31653,3.96206,2.18213,4.67888,-2.29739,38.064,-827.16,-556.32,10640,-1680,2800
-2.87555,-3.06497,-1.57036,-8.50471,-5.80322,-2.4305,-6.54077,-7.02399,1.64267,5.37822,6.06651,5.61502,6.8076,3.66489,6.74589,-0.952845,40.016,-824.72,-557.784,10360,-1680,2800
1.67952,3.69126,1.07904,-1.80797,-0.644606,-1.5433,-1.21079,-2.23329,3.32593,1.32179,0.910303,3.05759,1.74464,0.0953219,8.01402,-0.166409,40.504,-826.184,-554.368,10080,-1680,2800
5.29043,8.99497,4.46476,3.13127,4.27938,0.770896,3.35485,0.660078,3.89684,-0.214039,-2.97734,1.91239,-0.0776686,-0.070458,8.06188,0.681519,38.552,-827.648,-557.784,9660,-1960,2660
1.91849,5.05135,3.53497,3.82434,5.26936,2.34856,6.2397,0.968448,-2.10358,-0.749538,-3.67265,-1.0044,0.190805,-0.0400055,7.77226,2.71468,39.04,-828.624,-551.928,9660,-1820,2660
2.61856,5.44514,3.0107,7.15741,7.32177,2.92127,8.26794,3.35676,-2.42809,-1.9462,-6.23165,-3.60506,-2.6023,-3.20875,5.95047,0.549212,42.456,-828.624,-554.856,9520,-1820,2660
5.61108,7.9589,3.76479,7.2751,8.04781,2.6905,6.71133,2.5906,2.43207,-0.800257,-4.74664,-2.32877,-3.32732,-3.01524,-0.0887953,-1.56087,41.48,-827.16,-554.368,8960,-2100,2800
7.46544,10.1897,5.69989,6.06144,8.9412,3.02284,4.49628,0.0592798,4.73782,0.598514,-1.58243,1.49594,-0.821014,-1.67216,-5.5936,-1.97057,42.944,-831.064,-557.296,8960,-2520,2660
0.352801,-1.05801,2.80025,-2.51051,3.15144,1.709,-0.677183,-0.511197,4.39382,4.0553,5.48276,5.28338,6.54419,4.18388,-5.50678,3.21797,42.456,-831.064,-555.832,9100,-2520,2520
-7.28065,-12.3084,-2.59956,-8.53993,-2.63697,-0.956678,-2.90486,-0.186121,1.27427,2.18449,6.67434,4.82961,6.87079,6.45111,-4.76302,7.75713,38.552,-830.576,-557.296,9240,-2800,2660
-4.60114,-5.64934,-2.71735,-3.0089,-2.33261,-2.6711,-1.3265,-0.323725,2.51993,-1.39599,2.38436,1.7464,-0.673915,0.0843017,-2.40136,2.66497,41.48,-828.624,-556.32,9380,-3080,2800
-6.00186,-3.38383,-3.17347,0.3646,-2.304,-2.64627,-1.12603,-0.153514,-2.018,-3.42055,0.0311515,-2.17596,-5.08458,-2.64402,-1.0753,-0.547408,38.552,-831.064,-555.832,9380,-3220,2940
-6.6363,-6.82148,-4.72946,-0.536189,-3.30636,-3.09756,-5.41435,-3.09474,-2.74383,-3.08946,0.333478,-2.36055,-6.29122,-2.5629,-4.96172,-3.1516,40.016,-830.088,-553.392,9800,-3220,2800
-3.20729,-4.80273,-2.65376,1.55806,-3.01781,-1.46436,-2.34121,-1.24934,-0.033814,-1.48173,-0.374918,-1.68249,-5.5501,-3.07606,-4.50422,-3.39788,39.528,-828.624,-555.832,9940,-2940,2660
-2.23913,-1.64793,-1.77975,2.87155,-2.40796,-0.247423,1.83016,1.98252,-0.0265497,-0.838285,-3.10488,-2.72674,-3.8562,-3.34264,-1.42636,-2.09938,38.064,-826.672,-559.248,9660,-3080,2660
0.19671,4.74493,-1.02355,5.7695,-0.208745,0.292057,3.45453,2.73829,2.48514,-3.2126,-7.09177,-3.91436,-6.68914,-4.7347,0.17203,-4.88211,38.064,-832.528,-555.832,9800,-3220,2660
0.497095,8.01277,-0.847714,6.6833,0.624664,1.20518,2.38216,1.7312,0.445064,-4.7755,-7.1216,-4.31695,-7.67506,-5.32068,-1.44436,-6.28671,39.04,-829.6,-558.76,9940,-2660,2660
0.0697012,6.13435,0.402669,3.90761,0.07728,1.44971,1.16567,1.38358,-2.09573,-0.433547,-1.56317,-2.82839,-2.87755,-2.67198,0.378829,-3.11495,39.04,-827.648,-555.832,10080,-2800,2380
0.982064,2.07503,1.12305,-1.36436,-1.27746,0.728438,-1.08363,0.578951,-0.471607,4.59346,2.96532,0.228691,3.82474,2.22173,1.62487,0.936826,37.088,-831.064,-554.856,10500,-2520,2520
0.703117,-3.08007,-0.458945,-6.28506,-3.89204,-0.647428,-3.90027,0.0467011,0.688605,5.54745,4.52805,1.23692,7.9418,4.96545,1.95287,3.36049,36.112,-831.064,-555.832,10500,-2380,2520
-0.598109,-6.40496,-2.06207,-7.07275,-5.11651,-1.4352,-1.38926,2.1214,-1.52762,3.90838,3.51861,-0.568878,7.79942,4.7038,4.38608,4.75149,37.088,-830.088,-552.416,10640,-2380,2380
-0.0518761,-5.95241,0.649828,-3.90701,-2.15688,1.15801,1.57642,3.76971,-6.94763,0.087045,0.744769,-2.38201,5.40674,4.83056,2.59744,4.4289,36.112,-832.528,-552.416,10640,-2380,2380
3.77594,-0.360706,6.58561,0.655244,3.70426,3.39306,1.23586,0.407958,-8.44241,-1.18285,0.0382332,-0.0506905,2.52877,4.33963,-1.52469,0.806162,39.528,-830.576,-554.368,10780,-2380,2380
7.02729,2.76634,8.4715,1.19488,5.82251,3.41701,-2.44438,-3.40204,-3.4195,2.33246,3.40608,4.97282,3.57078,4.19956,-6.377,-0.541961,35.624,-827.16,-556.32,10920,-2240,2240
3.43091,0.316527,4.06676,0.121606,3.88032,3.252,0.336766,1.28076,-1.98651,0.769197,3.23753,3.24194,3.3362,2.76891,-1.42846,3.9086,37.576,-828.624,-558.272,10920,-1960,2380
-0.419138,-0.229932,-1.15731,0.901826,1.59625,1.06458,2.39155,3.28001,-1.55971,-4.37024,-0.548833,-2.05892,-1.15537,-2.66194,3.46412,3.56574,38.552,-830.088,-555.832,10920,-2100,2380
1.26709,3.26277,-1.1678,2.38911,0.99359,0.437208,1.92667,1.6414,0.812729,-4.02695,-2.12002,-1.9062,-2.26597,-3.85389,3.26683,0.640114,36.6,-830.088,-555.832,11200,-1820,2240
0.42967,2.15108,-1.21375,-0.0732736,-1.40003,-0.954499,-1.75434,-2.38557,1.25307,-0.0665874,-1.02218,2.18244,-0.191241,-0.640688,-0.0210052,-0.626286,34.16,-829.6,-555.344,11060,-1680,2100
2.54469,3.71172,-0.437034,-1.55204,-2.0344,-1.8945,-3.18391,-4.73857,5.09366,3.20587,1.94348,4.50592,1.48115,-0.119084,-1.45566,-1.00423,38.064,-830.576,-551.44,10920,-1120,1960
2.93455,5.4374,-1.53814,-0.955663,-1.34622,-2.74244,-1.31796,-3.19398,5.53799,2.97276,0.933743,1.96955,-0.0124267,-1.93748,1.85758,-0.590722,32.696,-833.016,-555.344,10920,-700,1820
0.613591,2.28643,-3.49211,-0.286762,-1.17251,-3.5279,-1.26165,-3.18442,2.71888,0.0827266,-2.3191,-2.24548,-2.69843,-3.23023,3.08981,-0.713244,34.648,-832.04,-556.808,10780,-420,1680
-0.15301,0.196314,-2.84479,0.983877,0.0336228,-2.0448,-0.677877,-4.55974,0.119224,-1.66258,-2.41188,-2.61606,-3.74955,-2.99576,1.70795,-1.06858,34.648,-832.04,-552.904,10500,0,1680
-1.6764,-2.73689,-1.6206,1.02102,0.285379,-1.53815,-1.03225,-4.51586,-0.723007,-1.56712,-2.0936,-1.49775,-3.57752,-1.54116,-2.57942,-2.24616,34.648,-833.016,-553.392,10640,700,1680
-1.67234,-5.08425,-0.45989,-1.92336,0.688901,0.689113,-2.85303,-1.38392,4.04511,3.95884,2.40343,3.50564,1.71882,4.02553,-5.95961,-0.0678528,34.16,-837.408,-553.392,10360,1120,1680
-4.83498,-10.5396,-0.429772,-7.11858,-1.34627,1.54526,-3.76119,1.96088,3.35923,6.91494,7.38132,6.44516,6.23168,8.16511,-5.39885,4.51456,31.232,-833.504,-549,10080,1960,1680
-4.56709,-9.18938,-2.06537,-5.29068,-1.51104,-0.415229,-0.463526,3.77577,2.04967,3.77259,4.5406,4.0793,2.6919,3.41967,-0.495339,1.76064,32.208,-835.944,-548.512,9940,2380,1680
-0.789296,-0.621083,-0.448991,3.36529,4.08883,1.34223,5.92655,3.76274,-2.09336,-3.65009,-4.85266,0.102887,-5.08812,-2.68156,3.7179,-3.38257,33.184,-835.944,-552.904,9660,3220,1680
2.15833,2.32359,3.16086,6.05235,6.37064,2.59486,8.32407,3.6342,-1.67276,-3.97622,-6.03606,-1.60458,-4.82861,-2.65471,5.64302,-2.30333,35.624,-836.92,-549,9520,3780,1680
5.05873,4.59676,4.80583,3.19278,3.97273,1.75428,5.21722,0.677779,6.62712,3.12739,1.47684,1.5783,0.809978,-0.426723,4.49915,-1.48198,36.6,-834.968,-551.44,9100,3920,1680
4.87394,8.2061,4.01398,2.4113,0.681052,-0.244993,2.14326,-1.6443,9.05286,2.2951,2.67622,0.995601,0.476287,-1.58818,1.84034,-4.22541,34.648,-834.48,-549.488,8540,4340,1540
1.94317,8.77513,0.652599,1.85828,-1.88608,-1.3813,0.519418,-0.617082,6.64961,0.131406,-0.226269,-1.21002,-0.595667,-3.08488,1.62828,-4.41992,37.088,-835.944,-548.024,8120,4200,1400
-0.651458,5.66594,-1.39275,3.07081,-1.94006,-1.91408,0.549586,0.352601,0.112592,-4.68105,-5.13494,-4.83763,-3.68977,-5.69238,0.028472,-4.40738,37.576,-834.48,-548.512,7840,4340,1540
-5.56233,5.04744,-3.07142,10.521,2.06656,-1.10152,6.90589,4.21957,-14.0512,-16.2402,-15.949,-12.2894,-11.544,-10.9191,1.42904,-6.50107,38.064,-832.528,-550.464,7700,4340,1120
-9.94421,1.51645,-4.17187,10.2665,1.32171,-0.483738,8.10962,5.71665,-21.4607,-18.7002,-17.9996,-12.6148,-11.896,-10.7574,1.55999,-4.2761,38.064,-832.528,-546.072,7560,4340,1260
-6.14113,-7.19797,-3.45973,-5.74672,-6.69374,-1.03916,-4.21463,1.2219,-6.70706,0.895147,2.28978,1.05245,3.74038,2.97853,-2.63947,5.82722,38.552,-834.48,-547.048,7000,4060,1260
-0.379523,-5.90147,-1.22769,-10.8563,-6.57481,0.234717,-7.93887,0.15436,3.66314,10.3417,10.9813,8.32156,9.97402,9.31913,-3.18045,9.58074,39.04,-832.528,-550.952,6720,3780,1260
1.18201,-1.51679,0.0927733,-6.173,-2.80447,-0.151883,-7.95164,-1.5888,1.962,4.22782,6.27253,4.19106,4.33296,6.519,-4.10198,4.06744,40.992,-830.088,-548.024,6300,3640,1400
-1.53779,-5.28724,0.210485,-7.06276,-1.70973,0.614378,-8.32412,-2.80309,-2.2049,4.50603,7.93471,2.78098,5.98405,8.19617,-4.64714,4.95162,43.92,-829.112,-549,6020,3500,1260
-4.70989,-14.0996,0.0667948,-13.5225,-6.29649,0.241627,-11.4615,-4.41239,-0.82257,10.3166,16.1792,6.45952,13.109,12.0425,-5.03158,9.19028,42.456,-830.576,-546.56,5460,3080,1260
-2.91495,-8.77311,0.815624,-7.72157,-2.79603,1.11275,-5.40363,-3.28982,-2.7062,6.04968,11.5855,3.92725,8.15966,8.21036,-0.205291,6.5592,42.456,-830.576,-551.928,5180,2660,1260
4.25762,6.7445,3.45899,5.76729,6.71799,2.1225,5.04721,0.593974,-2.04169,-4.1097,-3.43872,-1.30019,-3.67232,-1.8265,1.93574,-1.47662,42.944,-830.576,-550.952,4900,2520,1260
5.69906,8.88884,2.09671,6.49008,5.0793,0.536261,6.48732,2.49204,4.53042,-5.17325,-5.41744,-3.71655,-5.44315,-4.01617,3.60559,-2.87266,41.48,-829.6,-552.416,4760,2380,1400
1.22949,1.42551,-0.927515,3.17913,1.10489,-0.0558698,7.04142,4.38297,2.93112,-3.01123,-1.9233,-5.37375,-2.05144,-2.55878,7.08743,1.89164,42.456,-831.552,-551.928,4200,2100,1400
1.96987,1.33943,-0.941119,2.12619,-0.439033,-0.418862,3.64187,0.657453,5.06833,-0.595694,-0.423485,-3.67198,-0.451063,-1.73389,3.23697,0.312601,43.92,-833.992,-548.512,4480,2100,1120
8.62791,9.85383,1.90222,4.86125,1.76653,-0.309194,-0.357482,-2.64083,11.4429,3.26614,-1.58183,-0.175638,-1.47969,-3.52692,-5.41165,-5.66965,45.384,-832.528,-552.904,4480,2240,1120
5.67662,4.25438,0.467665,1.07361,-1.1631,-1.39304,-3.14138,-2.27164,12.1677,5.73486,0.323844,2.62822,0.603247,-1.89031,-6.23526,-3.52003,41.48,-835.456,-556.32,5180,2660,1260
-0.2957,-4.81905,-2.59563,-1.3382,-2.50063,-2.44436,-1.32491,-1.3025,4.83027,3.50008,-1.12214,0.248352,0.592442,-0.805893,1.26607,0.0398603,41.48,-837.408,-553.392,5880,2660,1400
0.28373,-3.19075,1.15107,2.99534,2.54411,-1.12133,0.0234448,-2.31064,-1.72283,1.12693,-3.49876,-0.788964,-2.13939,-2.64845,0.351142,-4.08866,43.432,-835.944,-551.928,6720,2940,1820
0.446878,-0.144067,3.70336,4.97003,5.39833,0.883486,2.73113,-2.4523,-5.59231,-0.767063,-2.80519,-0.328304,-3.70865,-3.38958,0.528,-6.31073,39.528,-836.92,-548.024,7140,2800,1960
3.71595,0.568096,3.29672,2.10257,3.44101,1.3266,0.468168,-3.46902,-1.56322,2.76612,1.41909,1.80179,-0.373092,-0.788732,0.233617,-4.15885,41.48,-834.968,-548.024,7560,2660,1960
1.74914,-0.725225,-0.385859,-0.697138,-1.71775,0.57002,-0.868411,-2.93181,0.436818,2.20583,1.60236,0.725629,0.609666,-1.66878,1.05959,-2.51096,39.528,-834.48,-551.44,7560,2660,2100
-2.29713,-0.472654,-1.83163,-0.344613,-1.53485,0.463585,0.496925,-0.337499,-3.29125,-1.19699,-2.17396,-0.816365,-1.36825,-3.45515,1.06167,-0.0852756,39.528,-836.432,-548.512,7560,2800,2240
-2.14655,-1.10122,-0.219417,-1.54415,1.94002,1.87246,0.86601,-0.167042,-5.74645,-0.145474,-1.57707,2.20478,-0.397778,0.83146,-0.213106,3.17252,35.136,-835.944,-554.368,7560,2940,2100
-4.47307,-4.90421,-0.944445,-4.68019,1.00525,1.09434,-1.79377,-1.90604,-6.32472,0.853821,-0.315348,4.17393,1.78999,4.229,-0.826489,4.47333,37.088,-836.432,-556.808,7980,3080,2240
-2.77025,-0.14943,1.12505,-0.685584,2.12254,0.457542,-1.14577,0.74901,-2.69161,-1.99407,-4.01643,2.3097,-0.794335,0.0244178,-1.83794,0.920748,38.552,-837.896,-554.368,8540,3500,2240
-2.00528,4.52606,-0.0580499,4.26882,1.70686,0.0261663,3.4351,5.17689,-4.32699,-7.87696,-8.92111,-3.66269,-5.18513,-5.79639,-0.709343,-3.76956,36.112,-836.432,-555.832,8680,3360,2380
-5.34314,0.764137,-2.37476,3.09759,-0.888114,0.0725253,3.33759,6.99312,-8.78825,-10.6949,-8.98289,-5.15561,-4.44859,-3.02348,0.761423,-3.09393,37.576,-833.504,-552.416,9240,3640,2240
-1.03141,4.51729,-0.443729,5.13551,0.338877,-0.28304,1.91383,5.0337,-5.53878,-9.80745,-6.14596,-2.58754,-5.50959,-2.92658,0.362701,-5.7436,36.6,-833.016,-550.464,9240,3780,2100
6.44284,11.7618,2.9333,6.73921,3.6872,0.817127,1.59552,3.31201,-0.479824,-6.63103,-2.18445,1.84221,-5.18735,-1.87085,-1.53351,-5.9875,37.088,-829.112,-555.344,9380,3780,1960
3.04544,0.0981463,1.35362,-4.05734,-1.07235,0.989599,-2.3153,4.07262,1.86789,1.10346,8.15843,6.82366,5.59415,6.46077,0.747272,4.27948,38.552,-832.04,-555.344,9380,3500,2100
-3.97858,-9.86072,-4.32203,-9.95082,-7.91025,-2.3798,-6.45158,2.52003,2.09089,2.85834,10.3367,5.1358,8.9035,7.29429,1.53392,7.72864,35.624,-828.136,-556.32,8960,3360,2240
-4.57218,-7.69832,-5.835,-8.33987,-8.21806,-2.89216,-4.56958,1.21442,3.95078,2.66071,8.0516,2.61018,7.07476,5.18807,3.15947,7.10649,38.064,-830.088,-553.88,8680,3080,2240
-2.61594,-5.93116,-5.45558,-7.03141,-6.43371,-2.32386,-0.846959,0.373258,4.83314,4.28406,6.66427,-0.861961,5.50988,4.57796,3.74467,6.56248,37.088,-826.184,-556.808,8540,2940,2100
-2.41588,-5.22982,-3.36452,-5.214,-2.28314,-0.103243,2.38793,-0.039612,2.43177,4.80432,5.03773,-2.65022,3.57818,5.49897,3.93581,7.80163,36.6,-825.208,-551.44,8260,2660,2240
-1.09372,-3.53844,-0.515727,-4.86307,-1.56101,0.216257,-0.698744,-1.99559,5.79073,8.24013,7.38311,-1.43311,4.16792,5.30367,1.88645,7.15337,37.088,-825.696,-558.272,8260,2940,1960
1.65155,0.659837,2.48727,-2.0475,-1.26089,1.44582,0.255367,-3.46985,8.09976,8.72472,6.08401,1.41112,2.77517,3.14905,1.43178,5.32499,37.576,-823.744,-556.32,8540,3080,1960
-3.55535,-5.8929,1.7564,-5.86028,-2.80511,0.618484,-0.975676,-5.14203,6.43019,9.98797,7.37728,3.78296,5.36013,5.0833,2.51655,6.90673,39.04,-827.16,-552.904,8400,3080,1960
-2.17826,-2.86394,0.613542,-2.36092,-0.106677,-1.15216,-0.222623,-5.73637,7.00726,6.68877,3.22106,-0.537626,1.86999,-0.367672,-0.028538,0.784139,38.552,-825.208,-555.344,8400,3360,1820
3.73235,7.26019,2.0625,7.01649,5.44493,0.0293693,4.49645,-3.44708,5.352,-0.647111,-4.96095,-4.80192,-6.0336,-6.90636,-2.05514,-6.07692,39.04,-822.768,-552.416,8260,3500,1680
6.98861,10.4278,4.7358,11.4978,7.28431,0.769792,6.42342,0.0198483,0.202879,-4.80237,-8.88808,-5.83434,-9.60932,-8.87972,-4.52423,-9.21388,40.504,-822.768,-549,7700,3780,1400
11.4785,16.5143,6.72867,18.1229,10.4638,1.71274,8.09128,0.48591,-5.24492,-11.6977,-15.1954,-6.97001,-15.7034,-13.1159,-7.85644,-14.5452,39.528,-826.184,-548.512,7280,4060,1400
9.91299,17.3584,6.6051,16.6782,10.9963,1.93892,5.34931,0.389668,-7.44804,-12.5978,-15.968,-5.02629,-14.2396,-10.63,-9.79789,-14.0221,39.04,-825.696,-548.024,6580,4340,980
2.99427,5.71385,4.01648,4.63235,3.7982,0.974332,-1.58001,-0.447804,-4.58539,-4.55701,-4.40654,-0.169139,-1.82575,-2.08297,-8.11481,-5.40797,41.48,-828.624,-546.072,6160,4480,700
-2.73837,-5.8597,-0.712007,-5.31762,-2.98868,-1.11135,-6.32236,-1.21157,-1.63088,2.48399,3.91165,1.59384,6.40665,4.06202,-4.81541,2.39521,40.992,-829.6,-544.12,5460,4480,700
-7.46473,-13.8524,-4.70256,-11.6109,-7.29321,-2.38871,-10.3407,-3.61569,-2.72324,7.04763,8.30687,2.81341,10.6853,6.16169,-2.63658,6.41222,37.576,-830.088,-544.12,5040,4620,560
-4.6485,-9.16364,-2.99694,-6.34662,-3.39802,-1.34293,-6.58131,-4.37885,-3.52024,3.54727,2.24644,1.65301,5.75556,2.9619,0.143825,4.21092,39.04,-833.016,-545.096,4760,4760,560
-2.26223,-3.63541,-0.616528,-0.571342,1.13424,0.965663,0.525645,-0.269645,-3.67317,-1.45419,-2.97117,-0.202592,1.33103,1.92577,6.76367,2.09741,38.064,-831.064,-546.072,4340,4480,700
-2.31528,-0.366407,-0.888885,4.05764,3.27759,1.91966,2.53329,3.24789,-4.02068,-7.14659,-6.14816,-3.99204,-3.63461,-2.22695,8.98406,-2.30368,37.576,-833.016,-549.488,4340,4760,700
1.17301,4.06923,0.965233,4.60058,2.30023,2.06371,0.80094,3.94645,0.810401,-3.78438,-3.11221,-1.9582,-3.53313,-3.69686,6.58547,-4.74816,36.6,-831.064,-547.048,4340,4480,840
-1.26098,-0.889622,-1.65764,-1.51538,-3.68476,-0.548322,-2.78356,2.28886,1.63682,0.333989,2.14401,1.34115,0.346286,-1.23665,4.87562,-2.35929,39.528,-832.04,-547.536,4340,4480,840
-2.60816,-3.68038,-4.66152,-3.02109,-4.69146,-1.70658,-0.24698,1.6488,-1.2115,-1.33011,2.6389,1.03538,-0.326321,-0.456332,6.39796,0.462667,35.624,-828.624,-549,4340,4480,840
-1.68669,-5.70817,-5.66484,-6.54252,-6.58446,-2.83364,-2.14163,0.161319,1.31447,2.23706,6.75645,4.00031,2.84561,2.01154,4.56395,2.38464,38.064,-828.624,-546.56,4200,4060,980
1.78742,-1.06192,-3.63266,-3.34994,-3.02862,-2.98689,-2.08905,-0.0408575,3.40096,1.28946,1.74625,1.77958,1.32754,-0.338351,-0.301931,-0.693101,36.112,-829.112,-543.144,4200,4200,840
3.0075,6.28959,-0.236703,3.4108,2.63003,0.217627,3.07504,1.86041,-0.58352,-2.83042,-5.19347,-0.287497,-3.11068,-2.29514,-0.942823,-2.8573,34.16,-829.6,-547.536,4200,4340,840
1.38166,4.77258,1.3996,3.22378,1.14502,0.912956,3.16115,1.65845,-3.44985,-2.0889,-3.59742,1.16705,-1.89227,-0.533155,-2.1631,-1.52206,37.576,-829.6,-544.608,3920,4060,700
0.56176,1.4761,2.59126,1.00537,-1.65178,0.779547,2.46512,1.61085,-3.35612,1.67317,1.48827,2.15912,0.463696,1.05209,-6.02775,0.676679,36.112,-832.528,-546.56,3780,4340,840
-3.67599,-3.82299,1.94365,-4.84537,-3.03413,0.781283,0.609967,1.74596,-1.46355,6.55016,6.09999,5.73921,5.83327,5.41702,-5.99308,5.82927,38.064,-830.088,-542.168,3920,4340,840
-6.1553,-9.07518,0.0531998,-10.1186,-4.34204,-0.665524,-2.24032,0.674682,-0.259137,9.97097,9.26651,7.14713,8.95239,8.25454,-1.51888,9.12543,41.968,-833.504,-540.216,3920,4200,700
-0.175327,-4.3129,2.06295,-5.58597,-0.262174,-0.345416,-0.285006,1.45466,1.45905,7.793,6.66797,6.22444,4.81732,6.10381,0.38565,5.90364,34.648,-833.504,-547.048,5040,4480,420
2.93615,0.329655,3.68783,1.10531,4.91475,2.01253,2.99772,1.17033,-0.818453,0.655097,0.313524,2.32062,-0.0987132,2.48951,2.27431,1.36086,35.624,-833.992,-541.68,3360,4340,700
-1.95447,-3.37643,0.142696,0.40786,2.96746,1.57418,3.81198,1.62857,-3.96893,-2.69258,-1.2426,-0.916147,-0.617099,1.74887,5.61263,2.67531,37.576,-834.48,-545.584,2800,4060,420
-4.88129,-9.07474,-2.5733,-5.0953,-2.30177,0.734534,-0.0762133,1.4757,1.06983,2.83194,5.11263,0.415016,4.93259,4.73469,5.77174,7.02235,36.112,-834.968,-546.56,2940,4480,140
-0.255709,-0.892659,-1.22439,-1.11374,0.240848,1.12062,-0.702123,0.559188,5.28239,2.9617,2.52591,-1.87941,1.54999,0.704939,2.22141,4.16633,34.648,-833.504,-544.608,2800,4900,0
2.45045,7.8144,1.2408,4.29694,4.79997,1.35331,0.211736,-2.37362,4.41856,-1.12077,-1.80223,-3.68567,-2.41382,-3.46968,-0.165224,-1.6136,37.576,-835.944,-544.608,2380,5040,-280
6.18253,11.03,3.19934,7.40156,7.22191,1.6946,1.76736,-5.94202,4.67518,-4.22652,-5.62035,-3.68054,-4.66777,-5.41458,-1.2407,-5.35524,35.624,-834.968,-542.168,2380,5180,-420
6.19623,9.57886,1.90364,6.75906,4.44867,0.723543,-0.571619,-8.1186,5.93591,-5.57101,-6.34766,-4.46424,-5.50199,-6.32994,-2.73849,-5.74303,41.48,-835.456,-541.68,1960,4900,-560
4.56148,8.86091,0.148545,6.23469,2.10061,-0.374734,-1.81691,-4.28946,5.43542,-6.01286,-6.89233,-5.79055,-6.36192,-6.04897,-5.17184,-6.87997,38.064,-834.968,-539.24,1960,4760,-700
5.44151,10.4662,0.702132,10.0933,3.69328,-0.455764,1.86939,0.880303,3.06646,-8.95123,-12.1002,-7.57569,-10.1914,-8.51091,-6.606,-9.40771,37.576,-830.576,-543.144,2100,5320,-700
0.33158,2.06013,0.0945365,4.35298,-1.20934,-0.438115,-0.756578,2.32923,2.80461,-4.14037,-5.42652,-3.82688,-5.03876,-3.32645,-6.89404,-4.82157,39.528,-829.6,-542.656,1400,5460,-700
-1.10404,-1.59648,-0.423876,-1.65133,-4.97826,-1.1531,-2.85105,2.45921,4.80417,1.7089,2.51626,1.021,1.25231,0.669024,-3.8515,-0.239188,41.48,-831.064,-543.144,700,5320,-700
-3.28365,-2.76778,-2.06014,-2.35345,-3.74531,-0.542568,0.990625,4.45829,-1.23482,-1.19245,2.10434,0.0847635,0.330194,0.541148,3.61454,2.6264,40.016,-832.04,-542.168,700,5320,-700
-3.79187,-4.99052,-1.84078,-3.74574,-2.79534,-1.10181,2.43157,3.14888,-3.94576,-2.61888,2.27571,0.395944,1.0907,2.75962,5.04574,3.06669,40.992,-831.552,-541.68,280,5740,-560
-4.272,-8.4411,-3.23903,-7.00177,-6.89165,-4.28678,-3.79202,-2.81885,-2.73707,1.40648,3.98266,0.689273,3.77861,2.48017,-0.251666,-0.123541,40.992,-832.528,-540.216,0,5600,-560
-4.04497,-7.63211,-3.84703,-6.3249,-5.0339,-3.30938,-2.07541,-2.98897,-3.45558,1.96675,2.38549,0.595152,3.8498,3.3885,0.0865811,2.56866,38.552,-833.504,-542.656,-560,5460,-420
-3.73079,-5.11969,-2.7097,-3.0492,-0.495919,-0.276567,1.56954,-0.714938,-5.38278,-1.50564,0.645362,-0.455429,2.04637,3.52063,2.89237,3.98544,38.064,-834.48,-541.68,-420,5040,-140
-6.82861,-8.993,-2.61099,-5.69134,-3.15752,-0.0627705,-1.04769,0.664598,-5.4419,0.556786,5.23064,0.416608,4.45283,4.73887,5.47735,5.58062,40.992,-837.896,-543.144,-980,4900,0
-1.75163,-3.86029,0.865967,-1.61834,-2.3803,-0.508217,-0.794271,-1.58479,-3.96141,1.4507,3.44911,1.28484,1.56944,0.0345483,3.1646,0.424204,40.016,-840.336,-541.68,-1400,4760,280
7.34167,7.35647,4.41293,6.80455,3.10902,0.343841,0.834839,-2.16611,-3.23534,-0.272199,-3.66084,-0.786877,-5.30696,-6.24069,-1.53797,-6.84597,42.456,-836.432,-545.096,-1540,4340,420
5.32354,6.2193,2.86194,4.26865,2.86673,0.0561659,-1.87635,-0.320544,-5.26352,1.79384,-2.03783,-0.102324,-2.74254,-3.06059,-3.15483,-4.4231,40.992,-837.896,-544.608,-1540,4060,700
1.38958,1.9193,1.59513,1.12915,1.82031,0.0609338,-4.42689,0.453245,-6.53981,3.51874,-0.678096,0.670766,-0.524593,-0.441977,-6.21303,-3.10699,40.992,-836.92,-541.68,-1540,3780,1260
1.18568,1.0205,1.86084,0.449482,2.78626,1.64214,-1.82033,1.29981,-3.74938,4.14067,1.88479,1.57044,1.55131,0.855837,-2.0803,-0.602403,42.456,-843.264,-544.608,-1120,3220,1400
-1.4389,-4.63399,0.396531,-4.19801,-1.57772,1.41805,-1.57972,2.35823,-2.95316,6.73472,6.11592,3.70348,6.1607,4.24359,0.714635,3.15781,41.48,-842.288,-544.608,-980,3220,1540
-4.4708,-9.73229,-2.27551,-8.17838,-5.92839,-0.107944,-5.86037,0.178378,-0.282526,7.32098,7.12467,5.49465,8.747,5.39786,-1.36565,3.7823,40.992,-838.384,-548.024,-280,2660,1680
-8.04365,-10.6417,-4.91054,-7.24475,-5.33562,-1.48309,-2.7301,-1.47495,0.41371,2.38102,3.23019,4.11415,5.59364,3.16472,1.77293,3.84876,39.528,-838.872,-547.048,-280,2240,1820
-2.32505,-1.15521,-2.61435,-1.44383,-0.176594,-1.7675,2.29046,-1.34295,5.14771,-1.02133,-1.6996,1.59883,0.774491,-0.232572,3.09788,1.25223,42.944,-837.896,-546.072,0,2240,1820
3.5904,7.40381,-0.0479839,4.08945,4.50246,1.2271,4.93299,1.23713,7.29738,-1.87762,-3.94843,-1.54403,-2.83051,-3.14255,2.72785,-1.05033,43.92,-839.848,-545.584,0,1960,1820
6.69968,12.891,4.16647,11.5714,8.4132,4.28633,7.06854,1.2495,3.28662,-6.19977,-8.76745,-4.49825,-8.85734,-7.08543,-0.452504,-5.73765,42.944,-837.408,-545.584,560,1820,1820
11.7325,18.5444,8.2793,15.6192,11.346,4.45242,6.71988,-0.0717959,5.43001,-5.06093,-9.18404,-3.59613,-11.1858,-8.30556,-5.18256,-10.2407,43.92,-837.408,-550.952,280,1820,1680
5.4481,7.40374,4.68963,6.95422,5.67522,2.58885,4.76332,0.740138,3.72161,-1.43131,-2.7807,-1.75526,-4.33752,-2.50135,-2.07657,-2.97125,38.552,-839.848,-541.192,420,1540,1400
2.65277,2.20886,2.52974,2.23041,3.35155,0.546269,2.15709,2.84666,4.21874,-0.264342,0.91571,0.153464,0.440943,1.22884,-0.859843,1.01396,42.944,-836.432,-545.584,280,1400,1120
2.98257,5.18227,4.17935,4.95696,6.72365,1.21059,5.65828,5.27242,2.84321,-3.70095,-1.45737,-0.503144,-1.80477,-0.375389,1.65945,0.0652889,39.04,-833.992,-547.536,420,1260,840
2.94206,4.74538,4.13514,2.30738,3.70978,1.46027,3.82063,2.16248,5.22388,-0.686693,0.252792,1.93298,-0.486655,0.559841,2.18864,2.30098,40.504,-832.04,-547.048,560,980,560
-0.520004,-1.60249,-0.188144,-2.90921,-1.1386,-0.210302,1.16648,0.619895,6.49253,3.07895,2.69434,2.13047,2.35423,3.16636,3.45027,7.05526,40.016,-830.088,-543.632,420,1120,420
-4.4039,-4.93985,-2.40201,-3.66095,-0.638369,-0.239299,3.64226,0.82624,2.01519,0.0923204,0.44561,0.0814262,1.43629,3.40267,7.08336,9.04457,40.992,-832.04,-549,140,1120,0
-0.520088,-0.567343,-0.718971,-1.06738,0.744654,-0.206501,3.4474,0.117548,1.92713,-1.55933,-1.51188,-0.114201,-1.74985,1.53964,5.20328,3.95126,42.944,-828.624,-546.56,-140,1120,-420
1.9467,1.42215,-0.219306,0.284372,0.0946638,0.396652,1.52386,-0.911566,1.31216,-3.23692,-0.760853,-0.640122,-2.09151,-0.489167,1.31689,-0.288136,40.016,-826.184,-547.536,0,1400,-700
4.61239,1.99222,0.896301,-0.559299,0.580511,0.995685,-0.0225312,0.19174,2.43035,2.29045,2.71816,1.42374,1.68728,1.18483,0.356413,0.714878,40.016,-823.744,-549.976,0,1540,-700
-1.39562,-5.29193,-2.01498,-5.92271,-2.96635,0.394386,-2.93027,0.955722,-2.42574,4.10448,3.87356,1.64275,5.19228,5.35218,2.26214,4.88101,40.016,-822.768,-549,-280,1680,-980
-5.60254,-7.46363,-5.23395,-8.15706,-6.03793,-1.88665,-6.72962,-0.969174,-5.43946,2.1067,2.36911,1.13979,4.47894,3.61858,1.95624,3.05977,40.016,-818.864,-546.56,-560,2100,-1120
-4.08117,-3.44215,-4.49639,-3.00624,-5.24431,-3.05708,-5.80681,-2.3047,-7.79012,-2.39254,-3.63275,-0.716246,-0.228183,-2.43811,0.75468,-2.67643,39.528,-821.304,-553.392,-700,1960,-1260
-8.56739,-9.41654,-7.0522,-8.19778,-9.80161,-3.03649,-8.29646,-3.35562,-9.19647,-0.819451,0.557431,0.915338,4.7074,0.989698,-0.171515,-0.588296,40.992,-820.816,-547.048,-1120,2100,-1260
-9.82371,-12.4712,-8.55298,-11.9167,-13.2732,-4.2866,-11.0401,-2.74541,-7.38019,1.43683,4.58051,2.22659,6.6879,3.18685,-2.24112,0.0990843,39.04,-816.912,-553.88,-1400,1960,-1120
-8.78351,-10.6101,-7.55328,-9.92328,-12.261,-4.9927,-11.9857,-2.48063,-5.38101,0.0162583,3.52597,2.12524,3.7808,2.25445,-3.95482,-1.5422,37.576,-814.472,-551.44,-1540,1960,-980
-9.51569,-14.1232,-7.6512,-9.92768,-11.5074,-5.7849,-12.0285,-3.80448,-4.6744,1.60714,5.61603,0.0118861,4.66815,2.56135,-4.81299,-0.42003,38.552,-814.96,-554.368,-1400,1960,-1120
-9.18103,-14.7513,-6.36577,-7.79225,-9.88427,-4.15338,-10.0879,-4.13874,-4.72732,1.20223,5.49711,-2.05348,3.58023,3.37694,-8.88251,0.0978439,37.576,-811.544,-551.44,-1400,2100,-700
-7.96535,-10.246,-4.41401,-5.71865,-6.63629,-2.437,-6.7666,-3.91134,-2.66736,0.945596,4.34125,-2.05185,3.19851,2.95072,-6.71486,0.210199,34.16,-814.96,-553.88,-1680,1960,-700
-6.56622,-5.88881,-2.60301,-4.67978,-4.85298,-1.33903,-3.65764,-4.22358,-0.890758,1.15457,3.53224,-1.50709,2.91199,1.52866,-1.8064,1.43314,37.088,-818.376,-553.88,-1820,1260,-140
-4.27648,-2.4982,-0.462938,-1.41278,-2.31739,-1.43808,-1.21781,-4.87624,-0.608149,1.50962,3.85553,-2.18125,2.28538,-0.464525,0.0349266,-0.0695902,40.016,-817.888,-552.416,-1820,560,140
5.38052,9.3544,4.80382,8.13548,5.22508,0.272451,4.46262,-2.94772,1.87281,0.492736,-0.823611,-3.86696,-4.71353,-5.85351,-2.77123,-5.93683,38.552,-820.816,-552.904,-1400,-140,560
12.9427,17.4462,8.88012,14.0537,10.1866,3.31448,8.63722,-1.02153,5.48207,-1.5519,-4.70536,-4.7328,-10.5772,-9.64379,-1.99371,-8.72613,40.504,-820.328,-552.416,-1120,-280,840
15.3584,19.7322,9.46039,17.0339,12.5459,4.44757,13.0268,1.39829,7.57354,-3.64057,-8.40371,-5.86353,-12.8505,-10.6639,0.317899,-8.38843,36.112,-820.816,-549.976,-420,-980,1260
16.7065,22.3863,11.392,19.8073,17.8526,5.79218,17.7281,4.87813,5.86069,-5.76246,-12.2168,-4.24939,-14.0653,-8.4693,2.10645,-7.05445,38.064,-821.792,-549,-420,-1400,1540
17.2262,24.4715,13.6988,22.8801,22.5248,6.76672,19.7928,8.00553,2.63087,-8.54132,-15.2669,-2.87066,-13.3349,-7.56841,1.29522,-8.19093,36.6,-826.672,-551.928,-280,-1820,1960
13.1099,17.5769,11.2901,16.6932,16.1609,6.7774,14.694,9.35987,2.34647,-5.36784,-9.66578,1.77472,-7.79172,-3.8256,-1.09205,-3.49287,36.6,-825.208,-550.464,140,-2520,2240
12.5013,11.2413,10.3152,6.84014,8.43616,5.33179,5.51508,4.97977,10.3147,4.9473,2.70157,10.0071,1.48511,1.33706,-2.08754,0.449505,40.504,-831.064,-550.952,420,-2940,2380
9.7382,7.51788,7.10639,2.13572,4.87263,2.89227,1.91885,3.15125,11.6525,7.65631,5.00622,10.1389,4.20913,3.7103,-1.01546,0.924673,40.016,-830.576,-549.488,840,-3220,2800
0.982475,-2.06216,1.80774,-1.75338,1.80845,1.93444,2.00078,4.72129,1.89002,4.36305,2.61552,4.68336,4.68223,4.37062,4.55749,5.78743,36.6,-831.064,-550.464,1260,-3080,2800
-7.56975,-9.78259,-2.25695,-3.05294,0.598239,0.465811,1.67721,4.59201,-8.2156,-0.229657,-0.795688,-0.420732,3.7218,3.21566,8.93983,7.44111,39.04,-835.456,-547.048,1400,-2800,2800
-11.8738,-13.6793,-5.80964,-7.56983,-1.85567,-1.6359,-0.545016,4.14092,-11.5418,0.0213966,0.685044,-1.47725,6.1924,5.05791,10.9058,9.26775,39.04,-834.48,-544.608,1680,-2660,2800
-6.20231,-5.89394,-4.73204,-4.9466,-1.08689,-0.579563,-1.07699,2.04679,-6.19345,-1.15733,-0.127371,-1.55502,3.57266,1.51469,5.25944,5.06994,41.48,-836.92,-543.632,1400,-1820,2660
-7.23202,-7.24387,-5.73416,-5.83459,-3.88424,-0.800401,-2.50017,-0.12147,-5.76993,-1.43984,0.127293,-2.1937,2.37374,1.37585,3.30594,3.24993,39.04,-833.992,-543.632,1260,-1120,2660
-7.88016,-10.0362,-5.97703,-10.0167,-8.07239,-1.70214,-6.28568,-2.44032,-3.3184,1.41751,3.09668,-1.01674,4.21662,4.75788,0.240489,4.84431,41.48,-835.944,-543.144,840,-560,2380
-1.50812,-0.126439,-3.42021,-1.65076,-2.80401,-1.93463,-3.75279,-2.24114,-1.58714,-5.52831,-4.14074,-4.31398,-4.53873,-2.42601,-3.86804,-1.74264,42.456,-835.456,-544.12,280,140,2100
-1.29571,-0.613643,-4.23328,-1.58195,-3.71781,-2.43055,-4.63051,-2.49178,-0.360605,-5.21345,-3.52839,-3.66559,-4.76165,-3.66829,-3.25958,-1.51112,42.456,-835.944,-543.144,-140,700,1960
-7.13751,-10.8663,-7.51363,-10.4787,-12.095,-3.37721,-10.8142,-4.14185,0.874337,1.62603,5.32401,0.279904,5.10998,2.24833,-3.30116,4.39352,42.456,-833.504,-543.632,-560,1120,1820
-3.72571,-11.7076,-6.63541,-13.0721,-13.2129,-3.75825,-12.7535,-4.7671,5.24686,7.08688,10.2693,3.41697,9.77796,4.69245,-3.65901,3.67018,43.432,-832.528,-541.192,-1400,1820,1680
-0.597523,-4.62725,-4.04132,-6.93301,-7.27201,-1.93269,-6.70401,-3.32354,4.79132,3.67113,6.16503,2.53172,5.22199,2.10996,-1.476,1.04445,40.504,-834.48,-541.68,-1960,2240,1400
0.0658656,-1.34596,-1.29737,-3.10111,-4.53699,-1.20387,-2.36434,-1.74028,4.60823,3.992,5.08388,2.01246,3.29175,2.18263,1.28265,0.802423,42.456,-833.016,-542.168,-2660,2660,1260
0.632037,-0.421665,-0.341462,-1.90074,-2.7002,-0.292583,-1.41488,-0.348898,5.54508,4.31229,2.85253,0.569386,1.8713,1.89443,0.90452,0.240409,40.504,-833.016,-543.632,-3640,2800,980
1.37351,5.43591,1.49695,4.33711,2.95045,1.23113,2.23083,0.799825,0.30365,-3.1125,-4.02838,-1.74939,-4.21369,-2.07208,0.26085,-4.11325,40.504,-831.552,-541.192,-4620,2940,980
-3.82698,1.23103,-0.8032,1.42042,-0.499563,-1.05781,-2.75363,-2.34383,-2.34955,-2.23536,-1.78171,0.932267,-3.18263,-1.20882,-2.31064,-5.55881,39.528,-831.552,-543.144,-5180,3080,560
-8.49243,-6.70821,-3.17824,-6.71534,-6.22455,-1.9877,-8.03017,-3.63604,-0.906252,4.42274,6.24142,5.05691,5.46097,5.66695,-5.08418,-0.19467,39.04,-829.112,-540.704,-6020,2800,280
-7.22275,-8.81398,-1.98926,-9.60233,-7.04472,-1.63972,-6.62968,-2.42242,0.549869,8.10617,10.851,6.57217,8.52499,8.34798,-3.88848,4.23395,35.624,-828.136,-543.144,-6580,2660,0
-4.83511,-5.97664,-0.977176,-5.78134,-2.84828,-2.23142,-0.543743,-2.69843,-0.685171,3.98747,5.99624,3.61703,4.68282,3.84007,0.45929,3.50757,40.504,-825.696,-542.656,-7000,2520,-140
3.75448,6.57347,3.41149,4.34126,4.13457,-0.188902,6.88255,-2.02704,1.31019,-1.01603,-2.79772,-0.0803677,-2.53783,-2.7953,3.91001,-2.63082,38.552,-829.112,-543.632,-7420,2660,-560
10.1136,16.7986,5.45823,13.2015,10.6969,1.35205,9.90116,-0.237357,-0.180305,-7.24786,-11.9767,-4.33775,-10.4226,-8.96705,3.37143,-7.74027,36.6,-823.744,-542.656,-8120,2660,-840
9.72884,16.7635,5.09964,15.4527,12.1666,1.59927,10.1038,-1.20757,-3.78038,-11.6949,-14.8853,-5.97982,-13.7086,-9.77246,1.42241,-7.96013,39.04,-823.744,-548.512,-8820,2940,-1120
3.2797,4.30739,2.15064,8.0652,6.49955,1.58238,6.24358,0.0495808,-5.62896,-6.81798,-7.02136,-4.39985,-7.86506,-5.68472,0.274112,-2.3113,33.672,-823.256,-547.048,-9380,3080,-1540
0.108038,-4.00798,0.875212,1.09633,4.22032,1.70854,2.98643,2.31751,-2.48977,0.496586,1.34403,-1.49091,-0.0738306,-0.562928,2.21049,2.76518,37.576,-821.304,-552.416,-9660,3360,-1540
0.137205,-1.49137,2.29917,0.378433,2.381,0.786248,0.695946,1.57508,0.231736,3.08791,3.2596,-0.40413,1.51065,0.435314,1.12623,1.60953,39.04,-825.208,-547.536,-10220,3780,-1820
-0.287941,-0.665502,2.30164,1.65505,-0.185441,-0.700377,0.0809806,1.05108,-0.988176,1.28991,1.98313,-2.06098,0.280974,-1.60705,-0.704414,-1.32269,35.624,-824.72,-545.584,-10500,4340,-2380
0.917916,-0.475638,2.11643,0.932484,-0.169248,0.416246,-0.585641,3.62076,1.31263,1.40073,1.09189,-1.65752,0.721285,0.50536,-2.11028,-1.64236,36.6,-823.256,-551.44,-10920,4480,-2520
1.19558,-2.7261,0.690447,-1.10706,-2.29282,0.284083,-4.47467,3.50271,1.63706,1.91086,1.14898,-1.08016,1.7641,2.62636,-5.4707,-0.591265,37.088,-824.72,-549.488,-11480,4760,-2800
1.35774,-1.13529,-0.415333,3.16765,-0.36047,-0.720573,-1.13021,2.7364,-1.11741,-4.64758,-5.71736,-3.39674,-4.19304,-1.91258,-4.82031,-3.16161,35.136,-824.72,-551.44,-12040,5040,-2940
1.8797,-0.656851,0.756937,3.44316,1.09448,0.977424,2.3063,3.7951,-2.83531,-5.96811,-5.57587,-2.03629,-3.135,-1.68563,-2.32817,-2.25875,38.552,-827.16,-549.976,-12180,4760,-2940
-2.75194,-8.65356,-1.0084,-4.93265,-2.97063,1.16223,-1.24438,3.09621,-2.00917,1.52568,3.99857,3.37108,5.97102,4.53616,-0.864808,4.89038,40.016,-828.624,-552.416,-11900,4620,-2940
1.28523,-1.51485,-0.369353,-3.99991,-0.599976,0.650765,-1.33218,0.283582,4.44955,4.62908,5.14424,5.24424,4.58898,4.03677,-0.0199335,4.12362,40.016,-831.064,-551.44,-11760,4480,-2940
6.40718,10.0067,2.30801,4.99445,5.22142,1.31478,5.0162,-0.610769,4.66931,-0.854971,-2.23708,-0.0234621,-3.88375,-3.65177,1.74201,-2.39888,40.016,-830.576,-554.856,-11620,4200,-2940
6.83751,13.0722,2.91688,11.9532,8.49513,3.21225,9.23103,2.18738,-0.101273,-7.22408,-9.07141,-4.09632,-8.74163,-7.79967,1.43999,-6.89909,42.944,-831.064,-552.904,-11200,3780,-3080
1.78398,3.68528,0.445534,3.69179,2.87205,3.00968,4.34533,1.80201,-0.12749,-3.14814,-2.47135,-0.652205,-0.274011,-1.73461,2.18427,-1.78203,42.944,-828.136,-556.808,-10500,3360,-3220
-5.43007,-4.44862,-3.11867,-6.78318,-4.00174,-0.573834,-2.97722,-1.21547,-1.10135,2.95688,3.82423,2.86357,7.65777,3.42258,3.12294,4.20473,41.48,-827.16,-553.392,-9940,2940,-3360
-7.84679,-5.73301,-4.24868,-8.53748,-5.63022,-0.327884,-2.72197,-1.08316,-1.98695,4.33609,3.98306,3.17617,7.91178,4.2216,6.43981,8.35713,40.016,-828.136,-556.32,-9100,2800,-3360
-5.64204,-5.14168,-3.61383,-6.76278,-5.54316,0.0151847,-0.402983,-1.01929,-0.389963,5.16782,3.45782,2.50173,5.04559,3.47447,6.16201,8.07114,39.04,-830.088,-555.344,-8540,2380,-3500
0.0618856,0.0429545,-1.23505,-3.681,-3.75416,-1.2397,-1.67109,-2.29668,4.53448,6.56831,2.07673,3.17795,0.786325,2.01343,-0.549374,2.87689,39.528,-832.528,-552.904,-8260,2520,-3780
1.72789,-0.331331,0.855305,-7.04334,-3.70088,-1.27166,-7.44372,-4.47162,8.98255,11.0645,7.35362,7.53154,4.89468,5.30363,-6.58901,2.16775,40.504,-831.064,-550.464,-7560,2520,-4060
-4.26387,-6.92251,-2.03189,-7.21874,-4.2669,-1.48154,-7.16689,-3.50624,-1.41042,4.8617,5.81921,4.30792,4.54319,5.02003,-4.6162,2.19117,39.528,-833.504,-551.44,-7280,2240,-4200
-10.2829,-12.0225,-4.702,-5.62583,-3.50678,-1.61055,-1.78265,-0.492606,-12.4335,-3.51454,1.35255,-1.37099,1.8321,3.64785,1.64759,4.48584,40.992,-833.992,-549.976,-7140,1960,-4480
-5.83229,-5.48877,-1.90554,-0.414677,-0.797601,-0.659827,0.59208,-2.08582,-11.5329,-5.34001,-0.892931,-4.40677,-2.30382,0.203781,3.16947,1.1917,42.944,-832.528,-551.928,-6440,1960,-4620
2.03322,6.49733,2.51424,7.97926,5.90163,2.11715,4.90188,0.562676,-4.53395,-7.61274,-5.79474,-6.70212,-7.98076,-4.82962,3.167,-2.93185,43.432,-839.848,-552.416,-5740,1260,-4620
10.9608,14.9849,6.13414,11.7469,10.0385,1.60281,5.6108,1.48853,6.05971,-6.53223,-6.41691,-4.02863,-9.84864,-6.67637,1.09227,-6.30233,41.968,-838.384,-551.928,-5180,1260,-4620
7.00703,4.13739,1.53248,2.42376,1.13053,-1.81599,-0.162454,-0.0130245,9.59168,0.612514,0.433353,-1.65623,-2.84598,-2.99427,2.12207,-1.1848,42.944,-841.312,-550.464,-4200,1120,-4340
1.03193,-1.40373,-1.83211,-2.44831,-3.92866,-3.26116,-5.19037,-1.38205,7.29414,3.62829,3.32613,-0.868272,1.79889,-0.920363,0.738311,-0.315047,41.48,-841.312,-548.024,-3360,1120,-4200
2.35555,5.15057,-0.903814,3.5876,-1.30748,-3.5183,-2.24117,-0.113988,3.32538,-3.07209,-3.6841,-1.91847,-4.36454,-5.38993,-0.228898,-5.24335,42.456,-840.336,-549,-2240,840,-3920
4.30107,9.66391,1.87914,8.90048,3.27064,-0.315406,5.24871,1.66089,-2.35573,-7.79296,-9.56331,-2.74533,-7.11741,-7.26126,2.56325,-6.24294,39.04,-843.264,-552.416,-1400,980,-3500
8.59911,13.5913,5.73096,10.0517,5.3821,2.3267,4.02548,-0.145952,0.18702,-5.97166,-8.78816,-1.29722,-5.77263,-6.00446,-4.98899,-9.54686,39.528,-842.776,-549.976,-840,700,-2940
3.97679,5.19077,4.31182,1.98452,2.38816,2.72047,-4.544,-1.1182,0.330567,-0.709314,-2.07577,1.79237,0.928297,0.575006,-13.8068,-6.88331,39.04,-843.264,-549,280,560,-2380
-6.60095,-11.4497,-0.648905,-9.971,-4.72595,1.81087,-9.80331,-1.30348,-2.49394,6.57122,7.82848,5.28467,11.4063,9.68179,-12.9473,3.72249,38.064,-841.312,-549,1120,280,-2100
-9.36786,-19.2905,-5.18985,-14.4674,-10.2309,-0.337372,-8.33139,-2.0497,-2.99408,8.72242,12.2901,4.60086,13.5071,10.2274,-3.22252,8.86156,40.016,-842.776,-548.512,1680,560,-1680
-8.20431,-14.1495,-5.66415,-10.1102,-6.93942,-2.71302,-3.01541,-2.49427,-3.6976,5.15712,10.6621,1.61839,7.78757,4.97311,4.46137,4.30441,37.088,-835.944,-547.536,1820,140,-1260
0.919209,-3.02285,-1.42664,-4.95572,-2.40638,-3.86822,0.0109131,-0.327183,5.76807,4.47037,8.11019,2.18819,3.57579,2.69917,3.94475,-0.142639,37.576,-837.896,-548.512,2240,140,-980
4.34276,3.63261,0.186423,-0.738382,1.30714,-1.54138,4.5991,3.38445,8.6486,3.71726,2.74356,1.06281,0.614735,1.15466,6.59757,1.2149,37.576,-833.504,-549,2240,280,-700
0.273489,2.02709,0.176347,0.121879,1.97964,-0.109447,5.20939,4.64888,4.9105,2.11047,-0.720609,-0.57082,-0.369499,0.625833,7.36902,3.82735,38.552,-833.016,-547.536,2240,0,-560
0.952074,2.13428,0.726957,4.77225,3.89688,1.31694,5.67571,3.22594,1.4721,-2.13654,-6.18955,-3.84634,-4.76791,-3.07221,4.88597,-0.167835,41.48,-833.504,-549.488,2100,0,-420
-3.35208,-4.901,-2.45674,1.87858,1.28575,0.513702,3.74965,3.59784,-0.670818,-2.43263,-5.07749,-4.38294,-2.12494,-1.53452,4.36034,2.08618,39.04,-829.6,-547.536,1960,-420,-280
-5.16012,-3.00111,-2.28901,6.09671,4.71159,-0.783572,3.30927,2.00967,-6.82316,-9.3329,-11.3054,-5.28116,-7.42253,-5.55217,1.14917,-3.28654,37.576,-828.136,-549.488,1820,-840,140
-3.17012,4.74664,0.510384,12.1757,8.76121,0.630723,6.14833,2.93477,-9.16519,-15.407,-15.4919,-5.78701,-14.2318,-9.21958,-1.92214,-7.49126,41.48,-825.696,-549,1260,-840,420
-4.94672,-4.00901,0.109199,0.285293,0.464824,1.9763,-1.41955,1.6646,-5.23468,-2.24725,-0.0130172,0.820987,-1.38054,0.676656,-2.61973,0.570807,41.968,-824.232,-550.952,980,-980,840
-6.42585,-8.04524,-1.39002,-3.90029,-3.41759,1.78776,-2.65692,0.266831,-6.91017,4.55418,5.54549,2.53538,3.32663,3.1829,-1.56799,4.7835,42.456,-820.816,-548.024,280,-420,980
1.50151,6.65065,2.34113,4.49823,2.85147,3.17947,6.95491,1.73669,-5.06659,-0.755204,-1.6119,1.00441,-4.70136,-1.86793,1.40173,1.86935,41.48,-818.864,-553.88,-420,-840,1260
9.48653,13.9785,5.05624,5.89941,3.36556,2.14179,5.653,-2.31318,2.50826,1.25729,-0.528845,2.60121,-4.08665,-2.98665,-1.88553,-1.62969,41.968,-819.84,-553.88,-1260,-420,1680
11.6635,12.1233,5.36519,2.83554,0.90947,0.633325,0.55251,-5.74741,6.84398,4.18719,3.55025,4.44264,0.231714,-1.72977,-4.44087,-1.86145,42.944,-817.4,-551.928,-1960,-280,2100
5.2203,4.83022,3.34437,-0.832926,-0.203265,0.184116,-1.18108,-6.21725,0.82257,5.20415,4.37023,4.25398,2.53411,0.851979,-1.96172,-0.247932,44.408,-818.376,-557.296,-2520,140,2520
0.0229681,-4.79771,0.471013,-7.08268,-3.68877,-0.856107,-5.65819,-4.03331,-2.19629,8.35199,8.19208,5.63512,8.07634,6.20039,-1.5006,3.11128,40.504,-817.888,-556.808,-3360,420,2800
0.802815,-2.24516,0.564688,-5.88377,-1.68258,0.589518,-5.95494,-0.637117,1.23287,5.84912,5.80593,4.02198,7.27363,7.05633,-1.33224,2.90189,39.04,-816.912,-557.784,-4060,700,2940
1.32961,0.117354,-0.17688,-4.44012,-2.55027,0.522389,-7.49291,0.880665,5.7971,3.04411,3.61529,2.52868,5.84504,5.48252,-3.65216,2.1107,37.576,-818.864,-559.736,-4620,980,3360
0.692846,-2.32044,-1.89754,-5.70788,-4.03788,-0.419561,-7.83811,-0.262015,5.97117,3.2556,4.44815,0.888299,7.34368,4.45129,-2.61232,2.0037,34.16,-819.84,-560.712,-4760,1680,3360
-2.5154,-3.75276,-2.42455,-1.4014,-1.1054,0.300947,-1.28171,1.00004,0.263095,-2.9768,-1.51226,-4.01007,2.98332,0.297282,1.57247,0.406337,33.672,-821.792,-560.712,-5040,2240,3220
-3.37126,-2.52394,-1.71795,5.40948,2.97794,0.448687,6.39277,2.01494,-6.13522,-10.4808,-11.131,-9.26051,-5.62226,-5.73273,4.80161,-2.69455,33.184,-824.72,-561.688,-4900,2940,3080
-5.76664,-9.05875,-4.69944,0.837576,-3.0618,-2.1492,4.69297,1.54794,-5.29424,-7.65911,-7.2773,-9.97368,-3.66435,-4.08968,6.2576,-0.370252,35.136,-826.184,-564.128,-4620,3640,2660
-3.84084,-6.90485,-2.12213,-1.35672,-3.84429,-1.31741,0.45164,1.89608,-1.63653,-3.76043,-0.613498,-4.76946,0.212727,-1.26485,2.97694,0.311891,34.16,-825.208,-563.64,-4200,3920,2240
3.01826,1.15074,1.98891,-2.44566,-2.51597,-0.938416,-5.31856,-2.89503,6.50746,3.6765,5.97402,2.91871,3.01757,0.76033,-3.07619,-2.62085,33.672,-826.184,-560.712,-3780,4340,1540
0.896596,0.0954869,-1.2777,-4.14449,-3.63855,-2.13753,-5.01477,-4.51286,5.02096,3.84187,5.34254,3.48765,2.01498,0.763102,-3.11149,-1.79466,33.184,-829.112,-559.736,-3220,4900,980
-3.72314,0.835713,-3.53887,-1.06403,-0.757559,-2.58713,-0.1187,-1.23,-2.66282,-1.96804,-2.01387,-0.840529,-2.65922,-1.27243,0.579113,-0.496479,37.576,-830.088,-564.616,-2660,4900,420
-4.70726,-1.06102,-3.07398,-3.46659,-3.11651,-2.08466,-1.67018,-1.3734,1.12107,1.56445,1.58411,0.605355,-0.191687,0.877651,1.48431,1.76096,35.624,-833.504,-562.664,-1960,4480,-420
-2.68896,0.710424,-1.98456,-0.22086,-0.530755,-1.28074,1.66338,0.678502,0.338226,0.282495,-0.951493,-0.851199,-2.83009,-0.911441,5.68057,2.05196,40.016,-831.552,-559.248,-1260,4340,-980
6.94216,13.1164,2.29857,6.42396,4.40544,-0.427038,2.20239,1.98441,6.25798,-0.49616,-3.83159,1.25246,-5.70279,-4.75495,0.0924134,-2.96641,43.432,-834.968,-552.416,-700,3640,-1680
7.58837,15.0929,5.30784,7.05792,6.52169,1.35052,2.46106,3.12428,6.98826,0.522911,-2.73609,3.52933,-4.42751,-4.15194,-3.53328,-2.62502,43.92,-829.112,-554.368,0,2800,-2380
-0.613513,4.42051,3.02774,4.43763,5.61933,1.48005,2.85551,4.3183,-2.09859,-1.58529,-2.31896,2.46817,-2.71029,-1.65005,-0.892937,1.09166,46.848,-830.576,-551.928,560,2100,-2660
0.868313,3.67764,3.63365,3.43133,4.76018,1.52892,-0.437349,-0.157372,-0.573675,0.0470854,-0.529188,3.0449,-1.45322,-0.251547,-3.89852,-1.31114,48.312,-832.04,-549.488,1260,1120,-3360
1.1335,4.98246,2.73996,6.42727,4.04029,1.19414,2.30589,-0.599739,-3.75663,-4.58395,-3.76314,-1.52196,-5.4892,-3.09847,-0.982807,-5.39736,48.8,-832.04,-550.952,1680,420,-3500
-5.83362,-7.56607,-2.14634,2.25839,1.56909,0.975986,6.10066,2.5579,-12.1652,-5.60138,-2.02976,-3.95004,-3.63761,-0.879556,5.8129,0.525317,47.824,-833.016,-550.952,1960,-840,-3640
-4.36845,-13.7461,-2.96824,-5.25933,-1.33057,0.987528,4.08914,3.36121,-3.34263,2.02314,4.47824,0.670785,3.58221,5.15071,6.84689,7.50302,49.776,-833.016,-550.464,2240,-1540,-3640
1.07749,-5.49024,-1.01869,-0.778512,-0.821758,0.487047,3.2348,1.53175,3.96291,0.392481,0.93611,-0.150553,1.21818,1.17986,3.06843,2.38205,51.24,-832.528,-555.344,2660,-2380,-3640
2.92424,-5.02937,0.756957,-2.25695,-1.63889,1.12319,-0.853471,-0.773608,4.47796,4.58858,2.36983,1.90285,3.56056,3.13695,-2.29919,1.192,51.728,-834.48,-556.32,3080,-2520,-3780
3.1632,-4.89511,1.18977,-2.48006,0.840787,2.62466,1.43434,0.846117,0.670747,3.78,1.60144,2.17055,4.86424,4.67209,-0.0326438,3.10896,51.728,-830.088,-554.856,3780,-2240,-3640
5.22698,-1.49321,0.777405,-1.8375,-1.6723,1.41087,0.64359,1.56545,2.66963,3.66675,2.42366,1.3362,4.49966,2.43992,1.31395,0.607442,49.288,-827.648,-555.832,4060,-1960,-3500
1.79419,-4.67703,-1.68463,-4.04641,-6.02169,-1.13234,-2.91502,-1.14908,1.76801,2.67986,3.25567,-0.105018,3.13652,1.51993,1.03893,-0.677788,51.24,-829.112,-558.76,4620,-1400,-3360
1.3939,-2.93866,-0.590668,-2.38571,-3.58532,-1.75608,-3.75873,-5.03112,-0.957572,1.04501,1.561,-0.288849,2.19022,-0.356932,1.18497,-2.36679,50.264,-829.6,-558.272,5460,-700,-2940
6.57506,6.18068,1.75411,-1.23296,-1.82496,-2.31178,-8.9398,-9.87883,6.2196,3.68339,0.76862,3.42372,1.71194,-0.758577,-8.83813,-6.45677,46.848,-827.648,-560.712,6160,280,-2800
2.1436,14.6299,2.69764,8.12359,5.75181,-0.454232,-2.45923,-5.81293,-6.80407,-9.9116,-12.8896,-3.12453,-8.38413,-4.67948,-13.8257,-9.52494,46.848,-824.232,-560.224,6580,980,-2660
-5.30668,5.63651,4.50318,3.77684,6.87405,3.51628,-0.33967,1.45658,-17.2731,-7.26442,-7.87515,0.550707,-2.35442,2.73672,-13.5928,-2.01533,50.752,-826.184,-556.808,7140,1820,-2240
-6.71765,-2.91571,3.10622,-2.33069,5.34524,2.72106,1.928,2.65326,-14.7289,-0.728673,0.740057,3.18042,3.60748,7.14587,-3.18223,4.40886,47.824,-826.672,-558.76,7840,2240,-1960
-4.00837,-2.67745,-2.55696,0.0719803,-1.41924,-1.91488,3.38539,0.622718,-4.64205,-1.92976,0.194223,-3.63759,-1.56658,-2.50924,6.125,-0.0547166,49.288,-825.208,-559.736,8120,2940,-1680
-6.8614,-7.16534,-6.88572,-1.52724,-6.53671,-4.18234,2.32239,0.679001,-0.261742,-0.600861,0.691598,-6.55224,-1.8243,-5.59293,11.7792,0.732587,49.288,-828.136,-561.688,8820,3220,-980
-0.0936,-0.0818004,-3.21315,0.595244,-2.80286,-3.01763,1.91559,2.17994,6.54962,2.21777,0.500919,-4.50358,-1.38026,-5.90076,9.4765,0.197055,47.336,-829.6,-560.224,9520,3080,-560
0.33239,2.13056,-2.74701,2.01008,-2.05555,-0.73272,1.05166,2.34306,7.19669,-0.979681,-0.570785,-5.21424,-2.74601,-6.00774,4.32065,-0.364782,47.336,-830.576,-560.224,10360,2660,280
-10.0593,-4.09295,-4.59779,1.49336,-3.54661,0.681775,1.96929,4.26486,-3.35722,-7.50341,-3.04042,-9.12374,-3.37862,-4.41196,5.32251,2.73261,44.896,-833.016,-555.832,11340,2380,980
-13.0606,-10.7843,-4.49591,-5.89722,-8.03891,0.0255818,-3.62615,2.96148,1.53664,0.63018,5.11091,-3.21801,4.88869,2.6189,2.21208,7.25847,44.408,-833.016,-557.784,12460,1680,1680
1.47974,0.762907,1.45883,-6.14422,-3.89053,-0.762257,-9.52952,-0.449964,14.9295,9.47881,10.0258,6.89507,7.23233,4.89719,-7.45156,1.86572,43.92,-836.432,-558.272,13580,1260,2380
21.2591,21.1666,9.60001,-2.40655,3.45331,0.989106,-14.9716,-4.84381,31.9635,15.4421,11.3279,16.3826,6.35318,4.76106,-22.4658,-6.68191,43.92,-837.896,-561.2,14420,1120,2660
11.1808,6.55859,3.6506,-11.8096,-1.54272,1.24819,-13.3598,-3.4487,25.7933,17.7561,18.0053,16.5132,14.3251,12.7572,-14.2372,4.83371,42.944,-839.36,-558.272,15820,980,3220
-2.84848,-8.07831,-3.37486,-9.0204,-3.46197,0.15892,-0.90808,1.68249,1.26489,6.88026,11.0958,1.33975,8.47534,7.35406,3.93128,9.75774,44.408,-838.384,-558.76,17500,700,3500
-5.10337,-10.3949,-5.02533,-7.3409,-5.39239,-2.43864,-1.30678,-1.18903,-5.03208,2.85983,6.26785,-2.28273,4.87352,3.24017,3.40602,6.3968,44.408,-838.384,-555.832,18900,840,3780
-2.87141,-2.41259,-2.02709,4.06531,3.97441,-1.3229,9.24075,2.51923,-12.1148,-9.19267,-9.27541,-5.80894,-6.9975,-3.63764,8.05871,2.47845,41.968,-839.848,-555.832,20160,700,3920
6.62143,9.40969,4.08006,13.0531,12.266,1.48893,13.5975,4.82985,-9.05717,-11.7344,-15.0048,-2.18062,-12.4032,-6.75281,5.94718,-2.70721,41.48,-837.408,-555.344,20580,560,3920
5.24385,2.04468,4.51968,2.13638,5.53539,1.42145,0.918067,-1.36463,-6.06159,1.57484,-0.988417,9.18029,0.290332,2.2934,0.156725,-0.774645,40.504,-835.456,-554.856,22120,560,3920
-6.06273,-14.717,-0.494511,-5.39946,-1.40731,0.813433,1.19706,-3.67358,-12.8007,4.79376,5.1017,6.26164,5.89253,5.85862,10.8064,4.80711,38.064,-833.992,-558.272,22960,420,4060
-1.71198,-8.2162,-2.09598,2.41564,-1.37993,-0.52585,8.09018,-2.51285,-5.55098,-2.74351,-3.45215,-2.37833,-3.6044,-2.85172,15.5941,0.573585,43.432,-834.968,-556.808,23800,0,4060
2.26007,3.57066,-2.66394,11.0822,0.805413,-0.663742,12.6964,0.101438,-2.04607,-12.1669,-14.0144,-8.89914,-13.2446,-11.555,14.8497,-4.80422,41.968,-833.992,-558.76,25060,-560,4340
1.95269,8.15311,-2.70221,9.90973,-0.812491,-1.87181,8.01746,-0.742797,2.95755,-12.4407,-13.5755,-7.78088,-12.839,-11.8505,7.56129,-6.93149,40.504,-832.04,-558.76,25760,-700,4200
11.3204,27.4041,2.38861,17.8951,3.81445,-0.996432,5.32783,-3.5935,8.71262,-13.8481,-18.1959,-7.84933,-18.9784,-17.5679,-1.40769,-18.1825,40.504,-832.04,-560.712,26880,-840,4340
-0.835941,5.0679,0.939054,11.3852,3.26307,1.91304,10.1648,2.19283,-14.918,-9.19403,-10.6999,-12.0575,-10.7202,-8.4767,6.80817,-7.88289,40.992,-830.088,-563.152,27440,-1120,4200
-0.181934,3.25997,6.87535,24.0647,18.6148,6.60385,30.252,13.2665,-31.6197,-19.7365,-24.0768,-20.7152,-22.129,-10.7214,15.6725,-5.00107,42.944,-828.136,-563.152,28280,-700,4060
8.31556,16.3485,8.03249,24.2835,16.2647,4.89612,18.9969,10.2884,-12.6467,-16.4839,-21.1402,-15.0848,-21.5365,-13.2172,0.539775,-12.0283,42.456,-829.112,-562.664,28980,-420,3920
0.856566,18.1173,6.35188,9.82134,9.3504,2.66225,-13.4882,-0.269688,-10.6907,-11.0282,-10.756,-2.06286,-7.06258,-3.84457,-38.8759,-17.6267,42.456,-829.112,-560.712,29820,140,3780
-9.43253,-0.516897,9.3727,-16.5855,6.56199,5.65473,-34.6773,-4.16604,-9.57248,12.0861,16.1863,24.4216,23.8608,27.0751,-62.9999,1.19495,46.848,-830.576,-562.664,30380,560,3500
-38.0466,-66.7986,-7.83533,-64.2112,-22.7258,1.11963,-39.7356,-1.47124,-4.98358,46.3641,58.9366,36.1136,65.2737,59.885,-22.1171,47.3558,47.824,-832.04,-563.64,31360,1260,3640
-17.6912,-45.8048,-13.5372,-44.0997,-26.7874,-8.41304,-22.8351,-6.82758,14.3786,35.4174,42.0501,16.4014,38.5187,26.6956,14.0945,27.5543,49.776,-835.456,-565.592,33180,1820,3780
13.2951,6.06904,1.23637,2.86792,-0.343868,-4.41554,4.59336,-7.23306,12.7485,6.06364,3.85637,-0.951854,-2.76015,-7.3889,20.4009,-6.66027,48.8,-837.408,-565.592,35140,1960,4200
-4.92783,-1.38042,-6.35074,6.39717,-4.78326,-2.89094,7.44153,-0.845098,-5.72919,-13.2862,-9.52765,-12.9745,-9.00539,-12.667,21.4421,-5.97239,50.752,-836.432,-568.032,36680,1960,4760
-8.53004,6.20206,-14.6079,2.71142,-14.0431,-5.38441,-1.91706,1.43723,11.085,-18.7094,-16.857,-13.8379,-10.5686,-15.8704,12.3185,-5.19271,50.752,-837.408,-568.032,38500,2100,5040
11.6898,18.0045,-5.45327,1.91248,-9.32457,-4.83908,-7.27779,-2.12619,33.151,-1.17929,-7.88862,-0.797011,-6.29027,-12.2669,0.950844,-7.93361,48.8,-836.92,-561.2,39900,2380,5180
29.7429,22.263,6.96851,3.92404,-2.57034,-2.89732,-3.67261,-5.9842,42.8898,18.167,5.42624,9.75751,0.126439,-7.73828,-4.10375,-7.99495,45.384,-833.504,-562.176,41580,3220,5460
27.0693,24.3951,10.0923,9.08834,5.55538,0.725312,0.142663,-3.56664,29.4712,12.4088,0.0343089,7.42073,-3.03054,-6.893,-9.6998,-8.43121,46.848,-830.088,-566.08,43400,4760,5320
24.462,14.5893,12.9928,-1.21563,2.098,1.10948,-14.5758,-6.39655,24.2051,23.7087,16.4885,18.657,8.91184,3.74545,-26.9739,-4.73822,40.992,-830.088,-560.712,44240,5740,5040
11.1509,-7.83766,10.6612,-16.8802,-1.94614,3.0246,-13.8428,-3.10746,17.6404,31.04,30.698,25.0535,22.4465,20.0217,-19.5815,13.4469,41.48,-832.04,-561.2,44940,7700,4620
-30.6751,-32.9254,-10.1412,-9.4666,-1.04031,3.73395,9.17155,6.54697,-30.1711,-12.1607,1.42601,-8.77032,3.81045,10.1141,13.1528,18.4486,41.968,-828.624,-552.416,45080,9100,4200
-28.4253,-13.4654,-9.91291,11.2169,11.6512,4.82714,22.9575,8.4253,-38.4203,-38.9508,-26.6896,-24.221,-18.2822,-4.44978,16.1517,5.47362,40.992,-825.696,-554.856,44240,10360,3780
3.5696,1.20341,0.414683,3.28439,5.35286,1.33046,8.86624,3.57531,0.4668,-4.12041,-0.342203,-2.12332,-3.51353,1.494,2.64412,3.54488,42.456,-826.184,-550.464,42840,11200,3080
18.3374,12.6119,8.00744,6.18033,7.30605,2.20656,12.5292,4.57014,9.28693,6.32608,5.0361,3.36168,-2.14708,0.615995,7.0413,2.31997,40.992,-821.792,-546.56,41580,11760,2800
7.49062,8.53899,3.52488,12.1585,7.09924,0.886717,18.789,5.00731,-10.5875,-6.13345,-4.57088,-7.56441,-9.75606,-8.22802,15.6435,-1.40991,38.552,-826.672,-541.68,38780,12320,2240
-8.54338,-10.1859,-8.03681,1.37736,-9.58416,-4.44466,6.06501,-2.28099,-13.1982,-4.42371,1.16771,-11.4646,-3.56334,-9.66485,18.9051,-2.76136,41.968,-827.648,-538.752,36680,12740,1680
-24.3974,-14.0484,-20.0726,-5.46498,-21.3403,-8.87873,-7.00006,-5.91018,-8.03684,-15.5809,-7.53992,-17.1726,-5.52571,-11.9778,14.3885,-5.53388,37.576,-830.088,-536.8,33600,13580,840
-26.113,-7.7913,-15.256,1.82304,-11.5508,-3.7769,-2.8319,-4.29097,-15.8237,-25.934,-19.772,-19.2099,-10.5875,-11.9538,11.1203,-9.4934,39.528,-829.112,-541.68,30940,13720,-140
-5.68605,3.27818,-1.13996,6.4308,0.468023,0.00267877,-0.842473,-1.04726,-9.11002,-11.4143,-12.5287,-6.65441,-8.22865,-6.90507,0.924885,-9.14693,40.504,-832.528,-537.776,28980,14140,-700
13.8808,30.3755,16.221,28.5629,25.6456,5.03141,14.2546,4.1935,-21.3022,-13.8962,-23.1608,-2.82194,-22.1353,-12.5556,-7.58543,-18.5128,39.04,-831.064,-538.752,27300,14280,-1820
-12.2766,12.0381,9.63197,23.8002,30.0453,11.1061,29.474,15.858,-51.7224,-29.1077,-29.6512,-11.3229,-20.1744,-1.60405,6.63325,0.184766,39.528,-834.48,-534.848,25760,14140,-2520
-38.4953,-32.4117,-9.64991,-4.74712,6.81761,5.13949,22.3454,18.6215,-54.6923,-20.7921,-10.3226,-13.4344,-0.0419741,11.5454,20.4786,25.7412,40.992,-834.48,-530.456,24080,14140,-3500
5.04457,-7.68343,1.82097,-9.98898,-1.35568,-1.16583,-1.14117,2.53688,7.9401,16.6434,12.9234,10.2471,11.8469,8.99144,0.84848,10.8494,39.04,-835.944,-527.528,22120,13720,-4480
31.4177,12.5867,9.36314,-8.40458,-4.95832,-3.58265,-19.1619,-7.11434,43.227,33.6044,20.2608,21.4139,13.0753,4.14857,-15.4246,-4.97899,38.064,-832.528,-528.016,20580,12880,-5180
32.6028,22.6625,8.78339,2.43476,2.26181,-1.75972,-7.74107,-4.30853,41.4537,19.7664,5.72066,11.6302,1.27897,-4.55593,-10.2005,-8.20739,42.456,-836.432,-528.016,18480,12040,-6020
26.1131,35.5173,5.75607,11.6238,6.7005,-2.4415,-5.14038,-1.34117,29.6493,5.56666,-3.81017,2.41914,-8.11811,-11.9259,-21.6648,-12.6442,37.576,-839.848,-524.112,17360,11620,-6720
15.8411,40.6421,12.8643,2.0279,0.988097,-3.00369,-50.0411,-21.6456,20.6969,9.85654,5.7953,19.3043,7.25317,0.514814,-76.8296,-33.9317,38.552,-844.24,-526.552,16100,10500,-7140
-16.8978,-39.4258,1.37977,-64.8276,-36.0164,-3.98045,-84.1426,-28.6875,26.1736,60.9514,66.7281,52.9273,72.2684,55.6618,-68.8334,13.3318,40.016,-848.632,-537.288,15260,10220,-8120
-32.0551,-82.0946,-15.8063,-66.76,-39.5333,-6.1195,-36.4755,-9.8693,9.35632,52.3403,63.2066,29.5955,63.6006,49.3758,10.2189,44.8882,36.112,-848.144,-539.728,15540,10080,-8540
-6.91977,-21.3366,-11.8292,-4.54835,-7.41556,-3.92721,12.4912,1.45448,3.46092,-5.83003,-2.02902,-9.9866,-0.741761,-5.06039,34.9906,8.94599,37.576,-853.024,-527.04,16100,10920,-9100
-2.57928,-1.45685,-6.74533,12.183,4.2893,2.89627,20.3314,11.1391,-4.75218,-23.416,-21.1503,-16.863,-16.8138,-12.6339,25.1947,0.202127,33.184,-850.584,-528.992,16520,10640,-9240
-8.46321,-2.58474,-3.84048,25.1201,18.0699,9.27601,44.0069,23.199,-32.8011,-38.5118,-34.2916,-26.0948,-30.4118,-13.7313,36.7934,7.28804,32.208,-850.096,-523.624,16380,10220,-9660
18.5068,20.0939,8.81636,33.46,24.1847,7.61889,45.4689,12.3364,-13.0139,-23.7794,-27.7548,-15.2956,-31.9604,-17.5451,27.6824,-3.83059,30.256,-849.608,-520.696,16240,10780,-9940
35.6858,31.9204,13.0898,25.5212,15.1301,3.12365,28.0151,1.63801,18.1758,-1.99421,-9.93301,-1.82366,-22.0144,-16.0146,10.2657,-9.4879,33.672,-847.656,-517.28,14980,10640,-10640
21.6756,21.2936,10.5108,18.6717,11.719,3.49074,21.5174,2.7403,7.38798,-3.27343,-8.09815,-3.18886,-16.5788,-11.2263,7.47632,-5.33916,34.16,-847.656,-520.696,13440,10500,-11200
-15.4359,-16.8608,-4.2138,-5.47967,-5.67186,0.70238,4.82452,3.57701,-14.7585,-2.38837,3.12657,-6.45177,1.10879,3.41115,9.15335,9.60236,39.528,-845.704,-509.96,11760,10640,-11620
-16.416,-17.1093,-9.21528,-12.4499,-11.6921,-2.71937,-7.00882,2.25536,0.0840147,1.57178,4.90321,-4.20772,5.23525,4.83773,4.76481,8.60892,34.648,-846.192,-513.376,10080,10920,-12180
17.2465,11.2148,0.0585032,-11.9641,-14.0575,-8.77967,-26.3501,-13.0419,45.0831,24.9963,18.633,12.8845,9.63591,-0.474401,-13.2537,-9.69269,41.968,-845.704,-510.936,7700,10780,-12600
19.2566,22.2208,6.54213,2.24514,1.52573,-5.20146,-14.3514,-13.3745,28.0226,12.8809,6.16841,7.55114,-1.68494,-6.66028,-14.4262,-15.0874,41.48,-844.24,-511.424,5460,10220,-12880
9.18038,34.8995,9.92681,15.699,15.1358,0.45459,-6.54794,-8.6593,4.20251,-11.7831,-15.4901,0.733778,-12.7863,-9.35879,-23.5566,-21.5542,45.384,-843.264,-511.912,3500,10080,-12880
-8.00107,28.9243,8.44661,31.751,29.2681,6.2103,24.3951,8.74578,-41.8317,-38.4072,-37.3908,-16.7115,-28.759,-15.3281,0.0850337,-14.4225,45.384,-843.752,-511.424,1960,9240,-13020
-49.9855,-26.767,-11.4864,16.6297,11.4401,5.74536,32.2316,16.5532,-86.9545,-48.785,-32.7782,-35.5927,-21.055,-10.6059,31.703,4.42517,54.656,-846.68,-509.96,420,8120,-12600
-51.54,-50.5934,-23.0189,-11.3267,-17.9609,-1.44068,5.18566,7.71166,-53.7985,-22.1678,-3.5319,-25.1188,3.16175,-0.578643,27.7675,11.9938,54.168,-844.24,-510.936,-280,6860,-12180
-13.9326,-13.0153,-10.0911,-7.46983,-10.9994,-1.77251,-6.6979,-0.148214,-3.40272,-3.66909,0.454996,-5.25775,4.49007,0.111404,3.38172,1.05624,53.68,-851.072,-506.544,-980,6020,-11480
-0.290197,16.9147,0.26475,2.04584,-3.4129,-1.45554,-25.1974,-9.90766,1.51451,-3.86383,-3.99088,3.54296,1.12284,-4.96093,-36.411,-19.7354,56.12,-851.072,-511.424,-1120,4620,-10780
13.2914,9.99875,10.4147,-18.5569,-7.6128,0.183239,-46.3837,-16.0479,25.1791,32.0603,27.5939,32.9466,29.8824,18.5157,-63.1614,-8.70595,57.096,-853.024,-512.4,-1120,3500,-9940
-9.23924,-49.4122,-5.65773,-57.401,-29.3982,-0.521627,-37.2349,-5.17482,31.9366,57.9215,60.1022,41.4308,61.839,49.8848,-19.6871,41.491,55.144,-850.584,-513.864,-420,2520,-8960
-3.2711,-42.1012,-8.3012,-39.6118,-25.9902,-5.86482,-16.57,-6.83465,30.1597,41.9609,44.4526,21.2524,40.7201,28.013,14.8718,28.5805,56.12,-850.096,-514.84,-280,1120,-8120
7.4749,-19.1738,-9.74236,-23.5311,-24.0801,-7.81964,-10.1411,-6.63583,40.367,28.3032,27.9904,8.98559,21.9094,8.50087,19.134,14.6532,52.704,-849.12,-519.72,140,420,-7280
36.4935,22.0519,3.79666,5.5854,-6.36666,-6.3038,3.67541,-6.26012,51.4597,18.4615,5.65318,4.36992,-3.53359,-13.3747,17.3315,-9.02044,52.704,-848.632,-518.744,840,0,-6300
38.4802,34.123,13.3031,22.4086,14.149,-1.18386,21.9224,-2.89327,33.4939,2.97224,-11.2716,-0.183174,-17.9503,-15.8918,19.1073,-15.3412,53.192,-844.24,-517.28,840,140,-5460
18.9299,30.2953,5.60341,33.8301,24.0313,3.3747,42.1818,13.3664,-2.2788,-25.9601,-34.1495,-19.091,-35.8943,-22.1911,27.2466,-7.82284,47.336,-839.36,-515.816,-140,-700,-4900
7.50426,22.2811,1.89411,26.7653,18.9636,3.39158,30.4519,13.1553,-15.3683,-28.1558,-30.4478,-19.7461,-29.723,-17.9198,14.4538,-5.55021,45.384,-838.872,-514.352,-1260,-980,-4200
2.2863,28.2992,4.82336,31.1779,25.1973,5.61086,24.8559,12.7864,-29.1495,-36.7807,-37.9412,-20.335,-31.5562,-18.9161,-5.38478,-11.0926,43.432,-839.36,-517.28,-3360,-1540,-3920
3.62366,44.7833,9.07386,35.8451,25.5428,5.96581,7.36326,8.68167,-34.68,-39.5843,-41.691,-14.657,-34.0082,-24.013,-33.6465,-26.2431,43.432,-841.8,-517.768,-5040,-2240,-3220
-41.894,-1.02838,-4.64875,25.4753,19.8268,7.95014,18.8048,15.0393,-93.7749,-55.0454,-44.1984,-29.0794,-29.3975,-13.5514,-9.03679,-5.39102,48.312,-840.824,-517.768,-6440,-3080,-2800
-52.9584,-51.3661,-12.9626,-8.45303,-3.35232,3.66951,10.6523,9.87152,-81.9715,-21.9354,-6.12706,-17.1841,4.17409,9.9131,14.8615,20.8102,48.8,-844.728,-518.744,-7560,-4480,-2100
-31.6849,-70.8696,-17.2057,-45.3175,-28.7194,-1.04556,-9.363,6.06858,-6.73257,27.8463,41.1123,8.37646,40.2156,33.8495,22.4053,44.583,50.264,-839.36,-532.896,-7980,-6160,-840
23.8567,-6.59365,0.828074,-27.7453,-18.2669,-3.72307,-23.0429,-3.89059,65.6396,43.3437,37.4755,24.0753,27.506,18.4837,-6.97658,15.1785,41.968,-831.064,-517.768,-8120,-6580,-280
54.2282,48.2465,36.821,5.6209,23.1009,7.52659,-16.3775,-9.657,58.9751,35.2681,16.1712,41.4113,10.5863,16.6759,-37.9135,-13.184,56.608,-840.336,-525.088,-8960,-8120,700
1.89975,3.05898,11.5602,-2.0161,8.0827,5.22545,-5.80093,-2.05732,-3.80484,9.04796,9.1348,15.0341,6.38474,12.03,-8.24889,0.0671616,46.848,-828.136,-523.624,-10080,-9660,840
-30.9495,-44.6858,-19.3571,-25.7629,-27.9218,-5.37755,-15.3931,-3.53596,-10.7837,8.06363,21.9756,-3.78514,15.0864,6.96671,19.7973,13.4141,44.896,-829.112,-506.056,-12880,-10500,700
-1.87432,-14.9617,-6.40114,-16.1198,-17.9794,-6.75164,-16.572,-11.0859,24.5685,16.0818,19.9977,5.0761,11.0485,3.43612,11.2099,-0.0448181,43.92,-829.6,-497.272,-15680,-11900,560
20.9792,11.5951,2.99268,-3.99561,-5.91269,-6.81625,-10.9057,-14.3853,43.211,18.0887,14.3082,10.4828,3.55991,-3.35304,4.33538,-10.2609,33.672,-807.152,-459.696,-22680,-14560,-140
33.1285,36.1801,10.6465,19.561,12.2182,-2.07092,7.87748,-8.1758,36.7682,-2.837,-13.066,1.91399,-18.1756,-17.6093,5.53319,-22.6374,31.72,-801.296,-445.544,-37520,-18900,-1540
27.5577,55.4377,14.664,39.2186,24.9317,1.54356,12.0506,-1.06768,3.91615,-27.524,-38.4307,-9.2608,-35.3448,-30.4904,-15.4051,-37.1986,54.168,-850.096,-496.784,-50400,-23660,-2800
-4.43699,10.1151,3.18977,10.1291,6.57328,0.03723,-9.60135,-2.04789,-21.7575,-13.3776,-13.3832,-3.45527,-5.64685,-7.28129,-31.7701,-16.672,56.12,-859.368,-567.056,-59780,-27440,-3920
-34.3552,-64.794,-24.2508,-52.9956,-42.7348,-8.39464,-38.9784,-6.38191,3.31485,33.2555,46.4412,11.8446,45.814,28.6293,-9.91798,28.6596,54.168,-849.12,-559.248,-54600,-25060,-4060
11.0752,-16.4763,-4.59431,-30.6123,-27.1284,-9.7376,-32.1816,-16.4417,48.5005,40.8978,38.8365,19.7029,29.1984,12.735,-5.82061,2.02135,47.824,-864.248,-526.064,-47880,-25060,-3080
24.0624,28.9396,7.58107,11.919,8.04729,-0.502721,7.18115,-1.28416,31.5503,2.19073,-8.36871,2.87167,-8.80269,-7.1758,0.938487,-11.3153,56.608,-889.624,-559.248,-48440,-26740,-3080
-12.8282,16.0021,-1.94816,31.438,21.9215,5.17952,34.808,10.3299,-42.4335,-42.6047,-42.484,-28.8691,-33.5803,-20.2932,16.0113,-8.75835,34.648,-870.592,-520.696,-44100,-25200,-3220
-17.2485,12.0368,-2.39759,31.7239,18.7977,4.13477,30.2445,8.15348,-58.8624,-41.6675,-37.6959,-30.404,-34.2944,-22.6319,11.4641,-11.5567,38.064,-885.72,-543.144,-44240,-26600,-2660
-24.5051,-7.96364,-7.53409,14.2362,10.0537,6.41878,29.4357,16.9631,-52.4652,-28.6449,-21.048,-22.7135,-18.3711,-6.33985,11.3067,11.7823,30.744,-867.176,-520.696,-42140,-26180,-2800
-34.7459,-32.3795,-19.8069,-19.3246,-18.135,-0.34968,-7.09127,6.5465,-24.6288,-3.35854,10.8759,-8.31022,11.2374,10.7541,-10.9211,23.4705,23.424,-862.296,-519.72,-42980,-24780,-3080
-34.0305,-45.4007,-0.110159,-40.5511,-9.09367,6.54366,-25.2775,-3.62871,-20.4048,20.8413,32.5066,28.2777,44.1374,47.8403,-20.748,33.2772,21.96,-859.368,-513.864,-43540,-24360,-3220
-30.9603,-43.1355,6.27787,-30.6612,2.97926,6.63557,-11.3712,-4.3827,-31.3132,11.4998,19.1733,23.7923,37.5395,42.6008,3.15704,26.1907,21.96,-861.808,-515.328,-44520,-24920,-3360
-5.67845,-13.2333,-0.766918,4.95317,13.3752,3.35981,24.6958,9.52036,-15.9953,-10.4821,-12.9033,-8.41663,-3.55526,1.41249,27.6389,12.7049,22.936,-857.904,-522.16,-44240,-24640,-3780
20.4451,22.7839,4.66622,25.668,19.1529,1.57853,35.2698,10.0677,5.81125,-15.4388,-25.1716,-12.3623,-23.4263,-20.0029,28.6222,-3.93762,20.984,-854.488,-520.208,-43680,-24220,-4060
14.7699,21.7849,-5.15335,24.8516,2.75503,-2.36922,22.9944,10.6844,0.477915,-16.6669,-22.7868,-21.3078,-27.409,-30.8858,25.0176,-10.2215,21.472,-858.392,-514.352,-43960,-23800,-4480
21.2559,7.37492,-0.715867,2.73282,-10.5269,-3.73147,-3.08806,0.417387,27.8778,14.7606,7.48296,-3.22709,-1.67627,-11.26,2.10558,-6.46275,21.96,-861.32,-514.352,-43820,-23660,-4760
61.8345,36.8388,11.8514,-14.5215,-22.9764,-11.879,-40.3979,-21.6541,103.965,58.236,42.0096,31.8338,20.6493,-1.25798,-33.9561,-18.6706,19.032,-861.32,-517.768,-43400,-23940,-4900
72.199,65.6849,25.4634,1.26066,-0.243527,-5.81556,-34.1092,-22.2717,102.523,46.0012,23.9429,38.5105,8.64526,-0.309977,-44.8152,-28.5703,22.448,-864.736,-519.232,-41860,-23380,-5180
18.794,31.0777,10.8465,11.9149,9.76432,-0.40044,-2.58076,-7.50379,15.2258,1.3284,-5.34663,5.79677,-8.57525,-5.56682,-8.42745,-17.5676,22.936,-858.392,-530.456,-41580,-22400,-5460
-46.6419,2.36188,-18.6812,29.1994,3.49574,-1.5242,17.7508,6.72352,-87.3004,-62.9596,-48.9742,-46.9868,-40.3637,-34.7658,20.0298,-21.8429,19.52,-870.104,-518.744,-42420,-23800,-6020
-76.331,-39.3704,-32.6576,23.2811,2.96499,3.57779,45.3724,26.6662,-125.827,-79.4976,-55.3517,-63.8041,-41.2201,-27.7627,52.1989,8.93966,28.792,-935.984,-503.128,-40880,-25480,-5600
-12.3346,-36.3131,-9.95466,3.55926,2.03566,4.75863,39.8616,21.1456,-27.6513,-12.2442,-7.31874,-22.0721,-7.23358,-2.31339,53.1215,25.8138,23.912,-851.56,-540.704,-36120,-32620,-3500
52.9619,21.7621,13.691,1.93178,-0.0461357,-1.64666,1.80268,-2.66067,72.2018,33.1121,18.6608,16.5686,2.54972,-2.19474,7.58359,-2.63309,-30.744,-737.368,-465.064,-18900,-18760,-4760
46.2395,34.2435,18.7731,-3.29642,-2.73408,-1.46561,-26.1868,-11.693,67.5255,35.2171,24.6695,29.2447,8.40343,3.65732,-30.7794,-13.3887,20.984,-853.512,-509.472,-32340,-25900,-4060
24.6009,21.3321,21.3677,-7.3948,5.2066,3.11683,-32.1811,-11.9969,31.6013,28.6648,23.2059,34.1479,19.7185,15.4035,-52.3454,-10.432,1.952,-946.232,-408.456,-34300,-32480,-2100
2.1185,-18.8035,13.8385,-41.5579,-9.93014,3.06217,-51.8338,-16.2594,35.1158,48.9963,49.9099,49.9454,60.5728,44.5011,-55.6773,13.248,44.896,-1035.05,-564.616,-31220,-38220,-1120
-10.898,-35.3943,4.35268,-39.4716,-8.17733,2.25902,-25.9569,-8.15751,26.0712,30.7348,33.9062,33.5317,49.5556,41.5528,-4.20744,24.5784,4.88,-745.664,-494.832,-10500,-29400,-2940
-20.4528,-2.02827,-9.54239,15.2832,9.85982,2.26417,20.5859,8.2902,-20.7519,-37.7742,-32.6012,-23.0913,-22.9243,-14.1779,28.7384,-4.30111,49.288,-872.056,-601.704,-6020,-21280,-1260
-68.9181,-41.6751,-26.34,-3.16396,-9.90916,1.66576,5.95445,11.4398,-71.7344,-47.5177,-27.8243,-31.9094,-10.8782,-3.36447,20.6304,6.07979,62.464,-1066.77,-656.848,-1260,-28700,700
-70.8764,-42.6019,-20.2399,0.045611,-1.23497,1.29677,7.48169,9.13327,-94.7925,-48.1422,-29.6422,-29.0954,-6.80058,0.657506,8.35476,6.22368,30.256,-851.56,-549.976,34160,-15400,2940
-27.5791,-15.0706,-3.48641,-14.9058,-9.28335,0.177977,-30.1956,-4.27984,-28.6586,-1.87774,6.92673,6.39565,11.7278,14.9705,-44.0325,2.78878,-1.464,-716.872,-528.992,39620,-13860,2660
24.4026,6.41994,18.0982,-13.9886,5.60015,0.557433,-19.7843,-11.4423,32.2796,37.323,29.0739,34.4637,20.1001,24.81,-34.9057,4.51315,63.44,-915.976,-442.616,18760,-18760,4200
26.212,7.96948,2.98529,2.06322,2.37433,-3.99397,14.0169,-2.67753,36.8614,18.9278,12.355,3.94912,4.10335,-1.30988,10.6269,4.73774,77.592,-909.632,-640.744,28980,-36680,8680
9.72903,8.26333,-6.47065,19.0582,6.34552,-1.07671,38.5774,12.5555,1.44096,-13.5965,-15.9535,-25.5419,-26.7524,-19.9532,29.5848,5.10272,47.824,-721.264,-625.128,39200,-26460,8820
6.36829,6.83624,-9.41573,17.5702,1.27094,-2.30559,30.2615,10.2807,-7.2821,-13.1455,-15.0239,-26.6347,-32.9351,-23.2472,17.2393,2.41219,62.464,-685.152,-613.416,41300,-10780,6860
16.3728,10.6421,0.263285,15.1185,4.09567,-2.34024,21.7402,3.18395,-0.943147,-1.66645,-5.55827,-11.5624,-27.0847,-17.6784,5.1577,-2.10788,88.328,-910.608,-705.16,33320,-16660,5040
14.3544,7.14248,7.89293,4.39293,3.60717,-0.553635,1.12489,-5.97937,4.06827,6.54513,3.74918,7.07955,-1.51689,-2.41944,-8.33573,-3.94991,11.712,-695.888,-438.224,55860,-9240,6860
-14.5107,-10.1563,-7.74265,-16.2404,-18.5093,-5.33157,-28.2715,-11.2932,-0.807484,3.78979,11.8506,6.70594,14.9649,3.63099,-20.148,-0.851058,57.584,-742.736,-595.848,23660,-16660,5460
0.0613368,13.7322,9.6729,-0.686925,8.94845,1.87798,-15.6699,-10.0354,-5.29917,-0.834183,-2.04681,14.9976,6.44672,7.48118,-26.5662,-9.58391,78.568,-842.776,-669.048,14840,-22680,5320
10.9919,7.5679,10.3585,-6.12163,9.88776,5.10575,-0.108995,-0.494176,2.44466,12.9926,7.07138,22.109,16.0582,15.5088,-1.01095,5.16086,30.744,-802.76,-576.328,36960,-9380,4620
-6.64213,-19.4908,-6.66994,-22.8331,-15.6513,-0.130576,-10.7948,-1.78263,-3.08335,18.7973,20.0899,11.6487,20.7326,14.1125,25.5035,10.549,43.92,-815.448,-582.672,35980,-4900,3920
0.668801,-10.489,-5.53389,-11.0747,-9.00395,-0.0251898,0.0512168,1.94917,5.12057,10.7647,10.4379,1.86537,7.53405,5.95999,37.3902,4.93522,52.704,-778.36,-570.96,35280,-7560,4340
20.3833,20.6491,-0.425803,15.7863,5.90181,-1.37076,17.4547,4.32514,15.4385,-5.18193,-12.1766,-9.71837,-20.2135,-17.6246,33.2795,-11.168,56.608,-786.168,-609.024,29820,-7000,4480
18.0603,22.5836,-4.20794,9.03676,-4.9545,-3.29758,1.42116,0.858066,27.2833,-0.725193,-7.13918,-8.58896,-13.417,-16.6954,9.31492,-10.5382,61,-808.128,-631.96,30520,-7980,5320
24.6645,24.2341,6.1973,13.6702,5.32741,-0.2868,5.41988,-0.0855284,25.3732,2.72484,-6.46492,-3.79388,-11.4619,-11.7205,0.592102,-11.788,22.936,-832.528,-554.856,32480,-8540,4200
39.1336,42.4827,16.4682,33.3048,19.8192,0.916247,20.1432,1.97868,27.4276,-7.33983,-19.5239,-7.91648,-22.4523,-23.0354,6.40015,-24.7127,35.136,-848.144,-568.032,36960,-6720,3920
4.03335,32.7649,-0.461332,39.2791,12.8626,-1.32688,23.829,10.3192,-16.5395,-40.3073,-40.33,-34.0073,-35.6294,-37.2932,9.37373,-27.3646,30.256,-785.192,-535.336,37940,-8540,3360
-58.8989,-25.1562,-16.306,17.2577,7.66711,3.11412,20.3115,15.0655,-85.9434,-56.4934,-39.4048,-41.2838,-21.2139,-14.2871,6.95315,-0.877306,41.48,-832.528,-553.392,29680,-12320,3640
-53.8722,-43.4905,-3.34171,-9.25442,7.97459,9.24882,1.09166,12.2048,-66.6281,-20.8071,-7.47286,-6.66765,12.2244,20.6531,-13.9017,20.1655,59.536,-855.952,-592.92,29540,-16800,5040
-37.3765,-63.7414,-9.34111,-54.4022,-30.6133,0.156597,-47.5582,-4.19145,1.29656,38.0495,50.9322,25.0616,55.5598,44.5979,-30.0224,33.3838,37.576,-831.552,-566.08,39900,-12740,5460
23.7068,-6.94016,5.01059,-37.585,-24.4579,-7.71065,-44.5467,-18.0964,77.2568,56.6028,52.1955,37.0969,42.0364,25.0578,-26.5398,9.8673,31.72,-780.8,-515.816,42000,-13300,5180
33.5239,17.3967,7.87105,-25.9863,-17.7486,-6.34669,-38.1862,-14.5006,86.7301,46.2695,37.6112,35.5423,30.3813,16.7097,-27.0619,2.39858,41.48,-840.824,-550.464,35140,-16660,4900
14.6527,16.7787,3.89578,10.3217,9.39592,-0.506382,14.2111,2.81476,19.5922,-4.65632,-9.86415,-0.848,-7.76514,-6.81395,11.8605,-0.530298,47.824,-856.44,-533.384,37380,-16940,5600
5.74283,21.8412,5.48415,38.0511,23.3824,1.33175,34.4336,0.378183,-35.4412,-35.3914,-38.0377,-25.9634,-35.9667,-29.2208,20.1038,-22.0374,43.92,-876.936,-551.928,38920,-19180,6440
-2.9333,13.6239,7.90038,25.8728,18.7789,4.32596,9.00625,-4.92283,-43.837,-28.2044,-28.3219,-12.1144,-23.205,-13.7884,-15.9852,-20.5332,53.192,-892.064,-586.576,43680,-21280,7560
-3.59785,-9.15028,4.62152,-5.50955,4.67955,3.04053,-7.52003,-4.61454,-11.4083,2.19336,1.82444,10.1828,6.85289,13.1416,-22.4889,5.08954,49.288,-868.152,-563.152,55440,-15540,7840
34.5158,0.247651,7.53125,-18.6239,-9.51432,-3.07489,-14.7234,-10.3875,56.7945,41.1951,30.7547,28.1865,19.9143,16.2013,-10.9547,8.53846,50.264,-851.56,-547.048,60060,-12320,8680
39.4213,39.3507,7.92167,4.83522,2.56073,-0.940163,-5.84534,-7.01637,53.2027,14.1465,0.413314,17.3845,-7.21772,-3.83203,-17.6471,-8.84509,47.336,-814.96,-512.4,61460,-12880,9520
-39.3904,-11.7586,-13.2619,8.27789,7.89045,5.33348,20.2548,12.8551,-65.1888,-39.2314,-30.3428,-21.7729,-19.261,-3.75419,11.1323,9.16034,67.832,-878.4,-566.568,55300,-14560,9380
-76.9125,-77.3625,-25.4279,-17.6703,-8.71753,3.98381,22.6309,16.4204,-104.958,-29.1931,-4.03314,-28.0239,9.56004,13.4322,40.658,34.89,53.68,-873.032,-549,60060,-10640,9520
-51.4406,-60.78,-24.378,-24.9996,-20.8848,-2.55867,6.07706,7.30197,-49.2095,-7.06272,12.6932,-15.9215,19.8919,10.9914,37.3424,26.9282,48.312,-875.472,-547.536,64820,-8120,9520
24.2461,43.3951,14.5454,33.4603,25.9066,3.03986,18.1232,3.17348,-5.73659,-19.6461,-30.0398,-5.68011,-28.1111,-21.6939,2.16051,-24.1508,48.312,-854.488,-523.624,68740,-7840,9800
20.4861,23.8056,14.5004,5.79301,9.23925,3.66994,-12.6682,-2.9425,10.6075,11.4027,3.35384,18.378,0.00298618,2.13277,-25.6888,-11.0645,52.216,-843.264,-534.36,66500,-13300,9800
11.5998,-14.4389,1.91253,-33.2979,-19.3751,-1.31517,-29.5709,-6.79892,42.2956,47.7116,45.891,33.3023,35.6923,25.5214,-12.8768,17.042,60.512,-829.112,-577.304,67060,-14000,9660
-6.13739,-20.2391,-9.00624,-28.2183,-20.6758,-2.95497,-14.2441,-0.542653,30.0313,29.2132,35.2148,14.4499,25.0486,16.74,4.11899,19.801,46.36,-828.624,-562.176,68320,-8960,9520
3.0133,6.82127,4.22494,2.75103,3.15876,-0.957373,4.54312,-2.35,11.5621,4.57912,5.6745,3.47237,-1.10604,-1.21937,4.12745,-3.19673,38.552,-815.448,-530.944,66360,-7560,9940
25.2764,20.3421,7.37209,5.79216,-0.406814,-2.84622,3.99412,-2.30301,36.1443,15.7424,7.24981,8.18385,-2.14008,-7.3734,4.28616,-7.10677,48.312,-821.792,-544.12,63280,-8400,9660
2.0274,21.1997,-4.92806,20.6388,3.45553,-1.71846,19.2362,7.81147,-2.43605,-18.8883,-21.0452,-18.773,-25.6292,-22.799,15.1833,-11.331,48.312,-832.04,-585.6,62020,-9940,9380
-24.0333,-16.3319,-12.0338,1.83781,-9.12314,-1.6402,3.2666,4.57806,-25.3651,-15.4872,-8.21407,-19.766,-10.2252,-8.171,11.6014,-0.820039,37.088,-843.752,-571.936,64400,-6020,9240
-6.86603,-24.7542,-11.7725,-18.2105,-25.9493,-8.15086,-21.0643,-7.21007,19.495,15.6688,20.7225,-2.31034,9.72047,1.54615,3.68435,2.98517,27.328,-860.344,-553.88,66360,560,9520
36.9449,60.2068,15.9765,45.3214,29.3916,1.84466,22.448,1.29744,17.7193,-29.0759,-39.266,-14.8557,-45.3567,-32.7947,-4.33522,-32.9827,33.672,-888.648,-540.216,63980,-420,10220
29.0942,25.9027,12.708,12.4909,9.23243,3.54193,3.38882,1.48281,28.5556,1.96099,-4.51759,5.26862,-9.87844,-5.48973,-14.87,-8.90504,30.256,-873.032,-549.976,67340,-1960,10220
29.3339,-0.850116,2.19931,-28.0731,-24.7402,-4.87329,-32.3565,-10.9566,69.8207,43.5659,36.9739,26.7485,27.2415,15.7117,-21.722,8.67859,27.816,-813.984,-523.136,73220,420,10360
7.88069,13.513,0.0390503,7.82471,1.53089,-2.29097,0.237445,-3.27622,7.13519,-11.0078,-14.2496,-8.05833,-11.7463,-8.81177,-5.98607,-8.29377,38.552,-813.008,-553.392,67340,1680,9940
-28.7659,-10.138,-3.07091,15.9977,19.3812,7.06565,21.1999,9.40028,-55.4882,-44.0346,-37.8066,-24.4043,-19.7834,-2.78597,7.75129,1.03226,36.112,-822.28,-527.04,63280,-1540,10640
-32.5412,-5.73094,-2.60136,26.0494,25.896,8.05012,30.092,13.1721,-76.4395,-54.8493,-46.1226,-30.5875,-24.2355,-11.1554,15.5709,-4.3563,24.4,-856.928,-527.04,49980,-3080,10500
-16.3574,-7.08807,2.8785,6.58066,8.20241,1.34691,-4.98308,-2.70665,-42.8145,-18.4385,-12.2389,-7.25833,3.60228,-1.06587,-10.177,-10.1893,29.28,-865.712,-513.864,40320,-4760,10780
15.5773,8.67098,7.40597,-13.4042,-5.14017,-3.47858,-31.8211,-12.2552,24.3682,23.5501,20.0906,21.6375,25.9664,12.6328,-36.4781,-6.26322,32.696,-887.672,-511.912,53480,-5880,11480
-9.39843,-18.7624,-4.11002,-19.1704,-10.4929,-3.96183,-18.3356,-9.425,-6.74804,16.8159,20.283,8.7566,24.9819,14.3004,-5.53497,5.78257,23.912,-874.984,-498.736,61180,-8260,12320
-17.6877,-40.3012,-7.38559,-30.5246,-13.6913,-2.3092,-12.8592,-5.1125,-9.00837,22.8642,27.9161,11.9016,32.0505,25.235,14.6253,20.6241,18.056,-852.048,-466.04,63840,-9800,13720
16.7304,-0.289751,3.57134,-10.4339,2.86098,-1.06873,2.48326,-0.413668,25.3362,21.5827,13.4645,15.8709,13.2742,12.0139,10.3171,8.24654,32.208,-849.12,-505.568,60620,-14420,14420
1.2322,8.61018,-2.27208,4.43293,5.16891,1.20066,13.0394,4.68926,-3.34306,-2.66759,-6.3941,-3.45626,-6.79131,-2.66704,9.87471,1.80532,21.96,-865.224,-486.536,70980,-11900,14840
-24.1673,0.51453,-7.25551,13.7663,9.07918,3.02243,21.3234,8.67392,-47.423,-25.3519,-23.1123,-19.9859,-18.9872,-10.8248,12.5342,-0.526151,31.72,-894.992,-506.544,67900,-13020,15120
-8.28809,-16.7724,-4.95741,-10.7044,-7.42769,-0.481227,-0.11586,0.704582,3.39417,13.8005,11.8348,2.96756,8.61605,6.57752,6.6114,10.0296,31.232,-872.056,-508.008,71680,-13300,15400
16.0598,-1.49418,0.848544,-18.1204,-16.1537,-3.72971,-19.7098,-5.70046,54.5337,33.9085,28.1153,20.3838,18.3705,9.93596,-6.3961,4.50645,25.376,-834.968,-508.984,71120,-7980,15260
13.7747,14.4564,4.91133,8.03501,4.90544,1.41617,8.96869,4.88329,23.6802,0.577629,-3.18422,2.05556,-7.74056,-5.71884,4.05483,-2.93562,42.944,-837.896,-501.176,65100,-7700,15680
25.4193,29.5973,14.012,19.6056,17.2783,7.30613,15.8901,7.1661,21.483,-5.72195,-12.2565,3.81774,-13.8024,-8.62016,-4.14096,-7.02067,31.232,-831.552,-458.72,60480,-11620,15960
5.17406,7.89341,-0.257561,3.97037,-3.3342,0.649019,0.222826,3.6538,8.57437,-1.27304,-1.71772,-0.43927,-4.51106,-7.51913,-3.36666,-0.284969,37.576,-865.224,-563.152,55720,-15540,15820
-29.0919,-21.1405,-12.8704,0.0993572,-13.5122,-3.26628,3.53557,4.3355,-40.4601,-14.1005,-1.84027,-18.1122,-7.35533,-11.1197,14.3986,4.94248,25.376,-849.12,-513.376,66920,-10640,15960
-37.8506,-38.6096,-10.4701,-6.51542,-9.82996,0.700862,4.13924,6.00184,-52.5527,-11.7259,3.89877,-14.0411,1.08821,1.09065,19.1105,12.8349,27.816,-881.816,-560.712,63840,-7420,16100
6.55674,-0.699858,-0.692942,-0.047812,-1.09913,-0.564739,3.46148,4.23648,7.59354,3.80928,3.83845,0.915804,-3.74003,-2.76309,6.97701,3.62584,51.728,-854.488,-552.904,63560,-8260,16240
18.1328,10.5906,2.44741,-2.59937,-3.38186,0.801939,-6.76695,2.3392,24.6935,12.7453,7.80249,8.80313,-0.957875,0.422659,-8.44437,-0.528481,21.472,-767.624,-516.304,68460,-3920,16380
24.2204,21.9945,10.0933,9.60551,8.29252,2.81174,0.421627,-1.0965,16.3842,5.21466,-3.80649,6.37912,-8.13479,-4.62551,-7.84069,-10.999,30.744,-794.464,-488.488,53060,-420,16100
29.4246,56.5139,29.3763,43.9382,44.4756,10.0228,19.5292,-3.53078,-16.0066,-26.5905,-40.5348,1.64387,-31.4933,-15.6238,-15.782,-33.1757,36.6,-829.112,-521.184,44940,-7000,16800
-30.1874,-17.1999,-0.918414,-3.72461,2.74486,0.826358,-11.6419,-6.75618,-51.1671,-14.1521,-3.88715,-0.66559,5.29874,8.45311,-17.2127,-1.1491,24.888,-849.608,-621.712,46200,-5180,15540
-27.5767,-48.4406,-12.8329,-40.8849,-29.8998,-8.94629,-36.8106,-15.2852,-9.01684,27.3518,40.3483,16.6207,37.5145,25.9571,-15.0743,18.4079,21.472,-836.92,-525.576,55020,1960,14700
-12.2337,-38.349,-16.1112,-39.0699,-29.8336,-8.97977,-23.3037,-11.0784,29.5035,29.4577,35.1769,13.8566,32.5712,22.5378,3.4774,23.678,14.64,-818.376,-536.312,47600,3780,13720
20.755,21.9489,-0.531478,0.56741,-0.417511,-4.97529,-3.82314,-7.85413,48.4971,1.62047,-4.31627,5.85635,-3.46166,-3.40551,-4.79886,-4.6331,18.056,-844.728,-503.128,54320,10640,13020
28.81,31.8703,5.9316,14.3476,8.38633,-1.1359,8.19875,-3.80806,39.0909,-4.84618,-12.4843,0.640518,-12.2098,-10.607,0.919362,-10.8833,7.32,-847.168,-450.424,44520,9520,12600
20.1032,20.8299,5.11131,15.7226,5.96951,-0.347159,13.4363,-3.06417,20.9168,-6.95192,-10.9799,-9.02611,-11.3777,-12.5598,11.727,-11.27,28.304,-969.656,-545.584,34720,1260,14000
15.0543,21.8113,9.96858,11.5491,6.77079,1.76552,-0.275864,-3.27824,12.9813,-2.75792,-8.01868,-3.2249,-6.38054,-3.93286,-9.1988,-12.9408,-1.464,-905.728,-535.824,45500,1820,13720
-1.38763,21.9192,3.55935,31.6466,25.2829,6.65604,35.4833,15.0998,-25.2353,-34.5419,-39.0211,-26.4596,-33.1533,-16.1765,12.5498,-6.82063,-6.832,-798.856,-508.496,53900,11060,12600
-11.4844,15.5385,1.29478,31.5581,22.0272,6.64631,31.4969,16.7514,-39.9935,-39.2901,-40.0759,-30.9527,-33.1355,-19.1211,6.31796,-8.77829,2.928,-809.592,-466.04,48580,12880,12320
-20.0949,-36.7013,-13.1528,-33.6183,-26.8429,-3.76591,-23.3691,1.11553,10.739,24.8099,32.1988,5.35872,31.4523,18.9442,-10.2776,20.9222,16.104,-833.992,-477.264,41300,9100,11480
3.87079,-14.7388,-2.84996,-20.7604,-14.2017,-3.7218,-14.6809,-2.60348,27.5057,27.8649,27.5376,12.9313,22.9645,11.2854,-4.61982,8.35622,9.272,-888.16,-498.248,42980,7980,11760
-2.57471,-22.7138,-8.61701,-25.175,-24.9077,-5.6899,-22.0442,-3.96113,20.6802,29.0436,31.7135,10.7216,25.2129,8.83582,1.00914,6.73977,16.104,-900.36,-537.776,42140,2940,11620
-15.2033,-15.1498,-9.88345,-12.139,-13.6694,-3.16843,-10.0267,1.14941,-4.86841,3.72063,8.32446,-0.178365,9.053,2.23907,2.79635,3.63748,15.616,-858.88,-499.224,49420,7700,11340
-32.5258,-13.5481,-6.3952,-3.40287,-0.233976,0.714937,-4.69775,3.26332,-47.8475,-16.4816,-8.13077,-4.17932,-0.471705,2.44318,-6.33766,0.921836,19.52,-852.048,-475.8,47880,7000,11200
-46.5443,-38.77,-8.30503,-6.83646,3.62767,2.17366,4.88805,2.34057,-76.4935,-19.5623,-6.90609,-7.69016,1.83213,8.52973,11.4671,10.1313,25.864,-860.344,-519.232,42420,3920,11480
-40.7617,-28.2066,-11.7475,13.4987,11.4518,3.98671,28.6215,12.917,-81.0592,-41.0873,-30.4913,-27.2408,-21.5486,-9.20631,31.8985,6.07841,23.912,-868.152,-501.176,42000,4200,10920
-3.84205,3.32605,1.6834,20.123,16.1982,5.71192,23.2918,8.35029,-37.4396,-25.3183,-22.7684,-12.9073,-20.6513,-12.8386,18.5249,-4.44484,18.056,-822.28,-513.864,44100,4900,10500
39.3192,28.1591,19.3293,3.12564,10.3534,4.4907,-7.40061,-4.63226,38.1301,21.5091,13.2318,26.1603,6.36118,5.37893,-16.638,-7.16298,29.28,-833.504,-489.952,39480,6720,9240
45.7139,26.714,12.6793,-11.0643,-3.16456,-1.37888,-14.7195,-6.93623,72.3097,38.7994,26.4748,32.1569,16.6231,10.3863,-10.4608,0.977856,28.304,-838.872,-490.44,35000,3920,8680
50.693,47.9797,14.8387,19.1014,11.6988,-0.335179,8.86673,-1.28903,52.9543,10.4352,-6.04259,9.24279,-11.3323,-14.1117,3.37657,-16.9509,21.472,-866.688,-479.704,31780,2100,8540
35.0669,36.2863,11.3222,17.7177,11.8522,2.79079,11.1152,2.53233,30.6274,3.51002,-7.63273,4.12281,-8.35667,-11.2827,1.0171,-11.456,24.4,-878.4,-480.68,29960,-1820,8540
6.09557,4.86119,0.447241,7.32824,3.2738,0.61901,11.644,-0.100395,-0.465785,-1.8134,-3.28895,-5.51646,-2.84022,-6.03458,11.0662,-1.42217,10.736,-846.68,-423.584,29540,-2800,8400
-10.561,-11.1708,-6.11987,-3.51822,-9.05702,-2.53468,-4.45174,-2.67254,-7.22334,-1.43904,2.58871,-5.86973,4.3239,-1.37301,3.306,1.80321,78.08,-1005.77,-637.328,20440,-7140,8120
-13.5387,-17.8066,-2.73153,-19.9884,-14.3284,-4.6418,-30.3306,-14.0074,2.79066,15.736,21.5235,11.8001,20.1253,14.1655,-24.4416,2.76815,21.96,-892.064,-471.896,37520,-3080,7560
2.66538,-18.0291,1.99921,-36.5131,-17.9058,-3.09286,-39.9296,-13.6612,39.2271,43.2557,42.0594,31.861,37.2836,32.3822,-35.3634,16.8882,26.84,-907.192,-519.72,42420,2660,8120
-1.37122,-9.19876,-5.50453,-15.4414,-8.62553,-3.56029,-10.5246,-1.42296,25.0283,13.1211,8.94337,6.40085,8.46265,11.1452,-6.79508,13.7891,21.472,-892.552,-451.888,38080,1120,7560
-6.82877,-8.9883,-9.21798,-4.78266,-9.85419,-3.07455,-5.33026,3.67452,7.77732,-3.51755,-4.23541,-10.1856,-3.8365,-1.58342,-2.43438,6.57983,19.52,-877.912,-482.144,41020,1400,8260
-17.3216,-10.1568,-8.00811,-0.906899,-3.52621,-0.437615,1.92897,3.26439,-11.6057,-13.4701,-8.66655,-13.3423,-8.31038,-1.62978,4.19208,7.56831,11.224,-836.92,-479.216,39900,2520,7840
-29.9002,5.10107,0.660172,36.9757,29.8879,6.46884,39.7353,8.9999,-71.1726,-59.678,-53.3735,-35.1826,-44.1738,-21.482,23.6834,-10.1765,13.176,-833.504,-481.656,37940,6020,7140
-20.8387,-6.99575,-1.83703,25.9404,15.7529,4.37561,28.9532,8.23211,-52.8832,-39.4368,-34.3391,-29.0652,-31.0161,-18.269,23.123,-7.79609,16.104,-830.088,-476.288,35560,6720,6440
2.06461,0.456354,0.133782,14.3573,2.86358,-0.84668,11.9502,1.8983,-5.80917,-10.4156,-10.1488,-12.9063,-16.2113,-16.1681,12.5527,-10.735,13.664,-832.528,-471.896,32340,6440,6160
42.4979,38.6646,21.5841,12.0778,9.89945,0.643098,-8.75558,-8.67925,45.0172,19.1826,6.45816,19.6255,-1.157,-6.36279,-24.646,-24.1464,14.152,-848.144,-476.288,28420,5460,6300
32.3078,17.3255,9.15343,-18.9741,-17.029,-6.49141,-35.8738,-16.7915,60.111,44.7126,38.2527,31.2142,26.8874,8.671,-34.2419,-11.6939,15.616,-854.488,-483.608,25900,4760,6580
2.17036,-8.12711,-8.52124,-22.8271,-22.8698,-4.58232,-14.6216,-1.3375,30.7083,26.2841,28.3225,11.2629,22.4726,9.73644,-2.75371,9.12335,12.688,-852.048,-473.848,27160,5180,6720
-11.335,-7.79169,-7.40606,-2.25749,-2.53996,2.31488,14.7945,10.7247,-9.21206,-5.7524,-1.94587,-7.36658,-0.317834,3.16637,16.055,8.61369,11.712,-848.144,-473.36,26460,5320,6440
-14.7109,0.696251,2.77361,17.731,18.303,6.39002,21.6351,8.1819,-48.6085,-28.1369,-22.7457,-14.3705,-16.7186,-5.09223,9.34998,-7.49561,14.64,-854.488,-482.632,24220,5740,5880
-24.1143,-7.21539,0.188297,19.7444,17.5242,5.71773,23.5751,7.40136,-75.0144,-35.4623,-25.8714,-20.8294,-18.9759,-9.0567,12.643,-7.65929,10.248,-834.48,-471.408,23940,6580,5740
-32.8198,-29.1706,-8.51911,-2.11528,0.935095,5.73621,13.973,13.119,-59.1548,-21.8438,-11.1648,-11.7498,1.08345,6.06137,12.6108,15.8703,14.152,-834.968,-455.792,20720,6440,4900
-5.31188,-11.3408,-0.0269011,-14.955,-2.84221,3.6329,-4.46322,4.83212,-1.71797,7.43427,10.2063,14.2365,18.7135,18.2116,-8.27153,18.5293,11.712,-834.968,-444.08,14980,4200,4060
5.68306,-11.9359,-3.3105,-31.0405,-16.9046,-3.15024,-24.4913,-6.1711,35.6301,33.4665,34.3089,26.3259,34.4506,23.4902,-14.8263,19.0188,24.4,-871.08,-543.632,10920,2520,2940
0.251349,-11.7164,-9.32029,-26.4373,-19.5151,-6.82675,-23.9674,-9.20671,31.0051,23.4924,24.6398,13.589,23.6295,12.1538,-4.41081,11.2255,15.616,-832.04,-495.32,32620,8960,2520
20.7437,18.682,1.25063,1.8674,-1.32465,-5.7252,-4.85209,-9.50969,30.4134,8.66951,1.01284,3.76124,-3.39495,-8.38711,3.62696,-9.57557,23.912,-851.072,-482.144,30100,10360,1400
26.16,29.1567,7.11861,12.9275,7.46325,-2.47275,3.23167,-6.22116,29.2318,3.61114,-6.97509,0.719383,-10.9642,-13.2862,3.47401,-14.6679,27.328,-842.288,-475.8,26600,10220,1540
0.15075,6.90196,-0.329816,8.02947,4.17055,0.252344,8.19094,2.73363,0.18417,-8.05319,-9.99993,-8.08416,-8.41752,-7.60776,9.76418,-2.27778,22.936,-839.848,-491.416,23940,11480,840
-9.30138,-4.56672,-4.85514,4.18033,2.27707,0.186824,7.11283,5.94935,-11.6345,-10.504,-8.80851,-10.5533,-5.92792,-4.84219,9.63909,3.84001,30.744,-894.016,-515.328,23520,12740,280
-15.6713,-19.0017,-9.89985,-9.90865,-10.3309,-3.88426,-6.57226,1.38894,-6.50738,0.5178,5.957,-6.68583,5.32627,1.99801,4.41813,9.2428,22.936,-850.096,-457.256,28840,13020,280
-0.0334178,-7.49746,-1.31305,-6.54832,-7.28754,-3.87597,-12.0517,-3.04261,13.1832,9.09505,8.01823,1.59355,4.18166,1.97723,-4.05346,1.35779,19.032,-837.896,-465.552,26320,12600,-420
28.7866,30.7138,18.5352,18.67,18.8886,0.441432,0.765917,-6.19011,21.8769,3.15245,-9.62812,8.02581,-13.1213,-8.88927,-10.2938,-19.2311,20.496,-842.776,-475.8,19460,11480,-980
22.588,22.5667,9.67278,14.5966,8.07082,-0.353261,2.2318,-3.03551,17.5173,2.00517,-7.14115,0.941764,-10.8295,-11.922,-5.83059,-14.1582,21.472,-846.192,-475.8,16100,10640,-1120
-4.10284,-7.68799,-2.51524,-8.70033,-10.1092,0.0682207,-12.8793,-0.549599,2.29555,7.31757,8.84153,2.70557,8.54063,5.1603,-9.90871,3.25722,24.888,-858.392,-471.896,13860,8820,-1120
-15.6854,-15.6655,-2.64992,-4.7341,-0.500364,4.22502,0.532342,5.03053,-19.7268,-4.5409,-0.542851,-1.6119,4.37306,9.234,0.0650654,8.58147,23.424,-860.832,-465.552,12040,5600,-980
-0.944196,5.35373,2.54626,13.6476,11.0316,6.64527,16.4972,8.08978,-13.4306,-13.7757,-13.2603,-9.66872,-9.84958,-4.49319,7.43266,-1.44312,23.912,-863.76,-446.032,10220,3500,-1120
14.112,18.7592,9.6294,16.1842,11.665,5.7842,9.78049,1.70462,3.78537,-6.24065,-8.98019,-1.18403,-8.19905,-7.19666,-0.83779,-11.3489,45.384,-919.88,-535.824,7000,980,-1680
18.1888,17.1054,7.19827,11.1539,5.06711,2.58302,4.57382,-0.191322,15.2265,-0.0589818,-3.04037,0.340593,-7.1792,-6.80161,-2.2172,-12.1739,21.96,-851.072,-462.624,20020,4760,-1540
5.06878,-0.370015,-0.585904,-6.60275,-5.9011,-0.799041,-6.1514,-2.58132,16.6071,8.14438,8.46002,5.71081,4.98731,5.44703,-4.94216,0.170706,31.232,-869.616,-463.6,16240,5320,-1820
-16.0344,-11.8361,-7.42644,-10.1993,-9.02148,-1.88212,-9.91114,-4.43896,-9.37319,-3.79547,3.23649,-0.0403667,3.92664,6.46789,-8.6276,2.59233,36.112,-868.64,-466.528,13440,6300,-1680
-47.042,-20.3266,-12.2592,15.8999,13.2905,5.02915,32.3498,13.1125,-88.9453,-51.6173,-36.4454,-30.2369,-27.4221,-7.88086,25.1432,6.7666,36.6,-856.928,-483.608,11480,7840,-1960
-29.1084,-12.7063,-3.60118,29.6603,24.9058,5.25433,45.7721,13.631,-87.6229,-49.5978,-40.6667,-31.7647,-36.3985,-17.0468,34.9069,0.655812,37.576,-858.88,-480.192,11060,9800,-1960
6.04528,-17.5949,0.20317,-20.9363,-12.8797,-4.56123,-18.2952,-9.0014,12.3178,28.2256,29.8943,18.4274,21.6563,14.9785,-9.1288,9.208,34.16,-863.76,-463.6,10500,9660,-1960
16.6923,-12.9625,0.0123782,-43.0306,-26.6293,-7.42395,-43.3281,-16.2918,54.8947,56.0636,52.5602,40.0119,45.0734,28.1427,-23.4226,15.4543,28.304,-873.032,-449.936,9520,8120,-1820
18.7764,-0.753993,1.00873,-33.7293,-21.3983,-7.79039,-39.6048,-14.8039,57.2162,49.3051,42.0241,32.9134,34.5447,18.2932,-25.5473,8.34163,31.232,-865.712,-454.328,6860,3360,-1820
17.364,10.5553,3.10965,-13.5442,-7.10358,-6.31972,-19.7267,-11.2474,41.2075,28.1442,17.9387,19.0395,13.6707,5.57695,-15.8473,-0.222727,28.304,-875.96,-454.328,4200,2240,-1820
2.06933,15.7482,4.89676,8.49787,8.2221,1.29781,-0.190584,-5.18541,2.36071,-5.92571,-12.2878,0.864365,-5.7124,-5.36874,-7.48806,-9.13875,31.232,-890.6,-458.232,1540,1260,-1400
-25.5795,-16.6065,-12.0476,-6.87316,-6.6541,0.235257,0.167855,4.56662,-14.6702,-9.99654,-6.21178,-7.52328,2.53806,2.3403,3.70123,9.83139,28.792,-884.744,-454.816,2380,140,-980
-11.1285,-4.01461,-7.22463,9.84407,5.3908,2.41746,24.9513,14.6666,-11.7052,-20.0972,-19.7127,-17.9048,-14.5849,-7.85515,21.2741,7.55772,27.328,-882.792,-457.256,1960,-840,-700
7.82353,10.9733,3.96105,18.5106,10.1762,4.58808,23.2658,11.0288,1.02215,-15.0144,-17.0546,-13.4694,-16.2612,-12.2676,13.0645,-5.24828,28.792,-882.304,-462.136,1120,-1680,-560
6.74499,9.21727,3.56233,15.3792,6.04209,2.36076,12.6756,5.84555,1.5488,-9.51639,-8.9961,-10.6809,-11.6475,-12.8599,6.40245,-10.3472,27.328,-882.792,-469.944,560,-1260,-560
-10.237,1.31694,-2.33205,19.0499,7.4807,1.3111,17.9536,5.79044,-27.9594,-24.1047,-18.5594,-21.9969,-19.2383,-16.6368,13.53,-11.1214,23.424,-885.232,-470.92,420,140,-700
1.29788,0.770964,0.64836,9.37051,0.674747,-0.542682,10.1375,4.08808,-4.48229,-8.00113,-5.39018,-11.2559,-9.21125,-9.25673,10.3101,-5.62038,21.96,-887.672,-470.432,140,1540,-420
13.4777,3.52915,1.40298,-10.6921,-13.8898,-2.30087,-15.5477,-1.63564,35.8667,19.4179,18.7072,10.4717,13.8601,5.74127,-7.93186,0.790683,23.912,-886.208,-476.776,1120,2800,-280
2.60199,1.15343,-0.828513,-10.2719,-9.32131,-3.74865,-18.3787,-4.34216,17.4086,11.3816,13.2179,10.9078,11.4222,5.12079,-11.6287,-2.06018,23.424,-876.936,-478.24,1400,4060,-560
-2.70268,4.0104,3.69896,2.72526,5.42933,-0.953096,-4.75792,-2.61303,-11.3495,-6.81571,-3.66063,3.34109,-0.862592,0.294776,-8.28377,-6.47923,24.4,-875.96,-483.608,700,4480,-700
0.79835,-3.03128,0.484144,-2.82473,-1.38674,-0.846259,-3.60102,-2.12774,-1.15895,0.176802,2.49448,2.69931,4.22966,1.85819,-0.189421,0.991041,19.52,-866.688,-480.68,560,5180,-980
11.7707,8.99556,6.07615,1.26818,4.2631,0.296112,-1.19084,-3.44213,11.3504,3.34285,0.993869,5.96576,1.46393,2.0134,-1.66481,-1.73405,17.568,-866.688,-477.752,-840,4760,-1400
-8.88057,3.8805,2.78301,11.8313,14.1846,3.36283,12.5395,0.975595,-31.1064,-19.3371,-20.1007,-9.03743,-11.9303,-2.16946,3.65498,-3.82965,18.544,-864.248,-480.68,-2660,4200,-1820
-21.4476,-16.637,-4.98896,0.944721,3.60547,3.79439,9.76667,8.04875,-39.9158,-14.2598,-12.2704,-11.1156,-4.34299,3.50495,7.39402,9.47123,17.568,-867.664,-481.656,-4340,3080,-2380
6.26617,-5.68065,-2.15116,-15.8975,-9.62979,-1.14834,-13.6416,-0.458885,19.4233,21.4489,15.4822,13.2797,14.0379,12.0428,-9.85378,11.4749,18.056,-864.736,-480.192,-5460,1960,-2800
22.1285,18.2402,4.53156,3.79696,4.68336,-0.505019,1.41979,-2.59145,27.6148,10.9646,0.703627,6.11304,-3.18348,-2.80702,-2.42848,-2.03386,20.008,-867.664,-483.608,-6440,560,-3220
7.9203,15.5597,5.47063,14.3336,12.1312,3.81084,9.52091,0.0395481,-5.22759,-7.25495,-11.3254,-6.50584,-11.4112,-6.84343,-1.30152,-5.57385,20.984,-869.128,-482.144,-6720,0,-3640
-4.49429,-10.69,-1.78114,-8.68434,-5.68965,0.907018,-5.27448,-2.6052,-4.31141,10.2652,13.7254,3.08477,10.3686,6.50199,-0.309138,6.84375,25.376,-871.08,-482.632,-7000,-560,-4060
-4.38867,-11.2929,0.470108,-9.91817,-4.52275,-0.349382,-11.3882,-6.36775,-5.35188,10.3407,15.8633,7.61012,11.5102,8.50261,-4.4399,1.48192,27.816,-870.104,-482.632,-6860,-980,-3920
-11.0405,-10.4957,-1.42511,-10.2605,-4.08193,-1.15601,-16.714,-6.07248,-9.83007,5.84065,11.2495,7.43366,10.7378,8.68467,-12.9612,-0.926878,28.792,-871.568,-481.656,-6580,-1120,-4200
-19.0561,-17.6488,-10.1078,-10.8899,-6.67187,-1.54957,-2.24227,3.05042,-15.739,-1.97674,4.0387,-1.26116,7.40211,6.3678,7.96028,10.7714,28.792,-874.008,-486.048,-5740,-1120,-4200
-4.76797,-8.35856,-6.28513,-7.39412,-7.27172,-2.50204,-2.87997,-1.17199,3.55015,2.91834,4.7122,-0.244191,4.36624,1.14293,7.56181,4.57427,27.328,-872.056,-485.56,-5320,-840,-3920
14.8623,12.1421,1.85063,-1.86528,-5.15556,-2.65123,-7.38587,-5.53924,27.7731,10.3713,7.72169,5.30981,2.07764,-3.08275,-5.08592,-4.93546,24.4,-873.032,-484.584,-4620,-560,-3780
10.3512,19.1837,4.63749,8.79722,7.76154,1.23172,3.92641,0.774016,9.89936,-5.55214,-9.90897,-0.267163,-8.90497,-4.10448,-6.46287,-5.86212,26.352,-879.376,-484.096,-4340,-280,-3920
7.73473,13.4759,4.53308,10.0997,9.60228,2.66081,11.223,2.95928,2.24956,-7.42682,-12.0293,-2.98367,-8.90891,-3.79935,2.42223,-2.72658,23.424,-878.888,-483.608,-3360,-140,-3780
12.6091,9.4397,0.735155,9.70312,3.86132,0.413236,13.5548,1.54388,9.43604,-2.20489,-6.28115,-7.24297,-8.3522,-9.44022,12.9685,-3.49101,24.4,-877.912,-482.632,-3080,0,-4060
-0.732514,3.30416,-2.0447,13.2699,5.54746,1.6597,17.9146,6.25058,-12.7436,-15.0805,-14.1616,-14.9079,-13.5337,-12.6086,15.6011,-3.29357,23.424,-881.328,-484.096,-2660,280,-3780
-22.7408,-14.5086,-3.45916,4.89776,2.61181,2.12378,8.0887,6.34991,-39.8283,-18.4329,-11.5392,-10.7846,-6.88618,-3.85091,8.40522,1.47945,23.912,-883.28,-485.56,-1820,560,-3780
-8.28909,-17.1785,-2.85125,-9.47738,-9.93554,-2.03398,-8.70907,0.288781,-2.1954,6.05499,10.6381,5.392,7.55006,2.98027,-0.797654,4.10347,22.448,-882.304,-484.584,-700,980,-3920
23.7605,13.5615,10.4469,1.38509,0.460394,-0.265305,-2.88609,-0.835477,36.1295,13.5588,7.68183,13.559,1.09569,-0.908899,-5.20601,-4.57794,24.4,-876.936,-483.12,140,1120,-3780
14.1154,14.3946,10.6195,7.06968,8.53223,1.90866,1.85895,0.0797566,18.0694,1.0133,-5.8613,7.05882,-5.74308,0.820801,-8.56579,-6.28674,24.888,-881.816,-483.608,420,1540,-3920
-11.7327,-11.8326,-5.07716,-4.64077,-2.709,-0.630184,1.18321,2.1965,-4.78156,-6.21974,-4.18632,-1.95626,0.48259,5.68988,-0.145529,6.44575,25.376,-876.448,-481.168,1400,1960,-3920
-16.5478,-23.1513,-13.1721,-10.2174,-12.1482,-4.36576,-2.77306,-1.91336,-6.74818,-4.38582,2.32758,-6.94615,3.49916,1.59045,5.92291,6.48556,28.304,-871.08,-483.608,2100,2100,-3920
-0.488125,-5.6899,-5.46172,-2.35307,-7.22946,-3.7672,-4.42514,-2.95936,5.61279,0.106665,1.35282,-2.7255,-0.96223,-4.44035,-1.31432,-2.67012,27.816,-874.008,-483.12,1680,2240,-4060
7.88623,10.9419,5.62543,6.92994,5.25337,1.38406,-0.703932,0.331883,4.62154,0.391998,-1.78778,1.12737,-4.27321,-4.43628,-6.60644,-8.33893,29.28,-871.568,-488.488,1400,2100,-4200
4.56329,13.736,5.60314,12.881,9.96213,2.99417,5.55878,1.91063,-5.16219,-8.50846,-9.12925,-5.0806,-8.54238,-6.55708,-3.84251,-10.0416,30.744,-873.032,-486.048,1680,2520,-4340
2.05881,3.34712,2.08335,-2.12825,-1.19241,1.33868,-6.16282,-0.393139,7.52545,4.86873,3.96267,2.41119,4.82419,3.76,-11.6266,-0.642125,30.256,-873.52,-487.512,2240,2800,-4340
1.45347,-4.2278,0.193506,-15.4917,-8.68939,-0.563507,-14.9106,-4.4304,13.9029,18.9373,17.9184,10.6168,17.0272,12.1785,-11.1446,6.65884,30.744,-871.568,-485.072,2380,2660,-4200
-3.37631,-2.87115,0.537801,-5.28549,1.03532,0.517079,-0.770916,-0.86454,-5.69644,5.43345,4.2061,2.91832,6.45718,6.94028,2.72612,6.17137,30.256,-870.104,-486.048,2380,3080,-4200
1.28092,5.43474,4.06117,2.95056,6.88228,1.14514,2.23437,-1.21897,-7.72099,0.611891,-2.56672,0.867494,-1.04338,1.0572,1.43478,-0.607015,30.744,-870.104,-487.024,2660,3360,-4340
-6.73323,6.4261,1.59008,10.0875,9.98198,1.62527,7.79804,1.01413,-24.6236,-12.8485,-13.9766,-6.59161,-10.2198,-4.9976,2.66146,-5.15995,30.256,-869.616,-489.952,3080,3500,-4060
-19.6714,-15.0558,-6.09752,-1.51518,-1.59221,0.439735,4.79959,4.38116,-31.013,-9.08982,-4.41658,-7.66382,0.138372,0.93456,9.80916,5.45974,30.256,-871.08,-488.976,3780,3780,-3920
-6.63129,-10.3086,-5.73451,-11.0947,-11.1506,-4.22968,-10.319,-1.32701,0.419996,7.38401,10.0166,3.56956,11.3038,4.23942,1.87067,4.91355,30.256,-872.544,-488,4200,3920,-3920
-1.35937,2.63319,-1.86204,-1.598,-2.04978,-1.45388,-3.7588,-0.397396,1.37221,-1.35673,-0.713273,2.14662,1.91596,0.48489,-1.17054,1.33262,30.744,-870.104,-488.976,4620,4200,-3920
-0.14184,-5.75825,-6.01464,-9.63716,-10.136,-2.2449,-6.49571,-1.65702,10.6139,6.90106,8.53135,4.1951,7.36134,3.35398,1.10762,7.78941,30.256,-870.104,-487.024,4620,4060,-3780
-0.506269,-7.25662,-6.19732,-7.42265,-8.87519,-1.45907,-2.08649,0.450202,6.36906,5.55595,7.81162,1.90038,4.83779,1.51295,5.08976,7.1748,29.28,-873.52,-485.56,4620,4620,-3780
-0.241761,0.570438,-1.77189,6.32051,3.35685,2.00451,11.6217,5.53382,-10.2736,-8.03018,-6.78602,-6.27306,-7.18596,-5.10726,8.8584,0.265628,28.304,-871.568,-485.56,5180,4760,-3640
-5.09475,-2.74023,-0.954134,5.37808,5.49938,1.12756,11.4065,2.55798,-19.534,-9.29127,-6.1241,-6.39173,-6.78384,-3.13921,7.69138,-2.33001,27.816,-873.032,-488,5460,5040,-3640
-0.890673,-6.22142,1.02836,-6.30626,-1.71485,-1.07954,-7.12799,-4.46532,-1.61044,6.73798,8.85179,6.77123,5.64901,5.13521,-6.45617,-2.16042,29.768,-875.472,-487.024,6160,5460,-3500
16.956,8.2445,4.04738,-6.27157,-4.87641,-3.5872,-14.7107,-8.14603,30.6757,18.5669,14.1086,12.6948,7.84206,2.45784,-13.9011,-7.41929,25.376,-874.984,-485.56,6580,5460,-3220
20.6909,22.5535,8.76557,12.7178,10.8798,0.793515,5.78664,-1.75331,21.3677,0.611668,-7.60419,0.24899,-9.81567,-7.3709,-3.65038,-12.1115,25.864,-874.008,-484.584,6720,5600,-3220
16.7895,17.2781,6.26014,14.5634,9.23431,1.12163,9.30454,1.84376,14.2201,-4.5656,-12.5185,-5.85956,-12.8105,-9.49354,1.48951,-8.41326,27.816,-874.008,-484.584,6720,5740,-3220
7.07299,6.09932,3.365,4.52812,2.14749,1.01586,3.41363,0.764798,11.4503,-0.120664,-2.64301,-2.02623,-2.36805,-2.04862,1.40534,-0.497628,26.352,-871.08,-479.216,6300,5740,-3080
-1.93406,1.50989,2.70316,-2.3215,-0.149443,1.83595,-5.53228,-1.64341,8.35611,1.12578,4.14562,2.56253,5.40084,5.13407,-10.2168,2.78232,25.864,-872.544,-482.632,6020,5740,-3220
-8.3724,-6.72463,-1.97851,-7.46333,-4.97513,-0.405875,-7.57004,-2.70155,2.60216,2.86638,7.8013,2.7199,7.46074,5.71129,-5.99265,7.8942,26.352,-874.008,-479.216,5880,5740,-3220
-14.9813,-12.8874,-5.78634,-5.15307,-4.81249,-1.62421,-2.31294,-3.4062,-9.69879,-2.73007,3.25961,-4.75208,3.00943,1.0454,3.21518,7.0568,25.864,-874.984,-477.752,5740,5880,-2940
-27.084,-20.3632,-6.56972,-3.87399,-2.69406,0.452889,3.07996,-0.297688,-31.0692,-9.58794,-2.57676,-8.93155,1.84699,2.48697,9.24473,9.00243,29.28,-876.448,-479.704,5740,6160,-3080
-20.2086,-21.4581,-5.73306,-8.99262,-4.50291,0.630579,1.49967,1.72124,-20.4646,-1.05531,3.23247,-1.18661,5.73613,6.13214,11.2908,12.9358,29.28,-876.936,-481.168,6160,6160,-3080
-0.711354,-1.79895,1.23068,0.218164,4.79557,2.07836,6.69875,4.84763,-1.10584,-1.35445,-2.028,1.3002,-1.57918,1.06634,9.29661,6.07486,28.792,-879.376,-483.12,6580,6160,-2940
12.2599,11.6737,5.84204,2.85119,6.57357,2.35357,1.88279,0.709194,15.463,2.86361,-1.32949,6.16804,-1.58109,0.201727,0.203503,-2.96954,28.792,-878.4,-480.192,6720,6300,-2940
20.3003,17.2123,4.35069,7.43039,2.94866,0.474014,4.55569,-0.152262,21.3487,2.84798,-2.37953,2.03322,-6.66182,-7.54387,1.08725,-8.03326,27.816,-879.864,-480.192,6860,6580,-2940
17.0564,10.8744,2.22932,6.90763,-2.43828,-0.299628,-0.0642283,-1.61637,16.1111,2.66355,-0.969513,-0.363869,-6.03116,-9.04624,0.913308,-10.436,29.768,-880.84,-479.216,6720,6440,-2800
17.9347,16.466,6.20165,8.81447,2.1996,0.489162,-5.49273,-4.38313,12.9162,0.678715,-2.94782,1.64557,-6.09737,-7.20506,-8.02192,-16.7256,28.304,-879.376,-479.216,6580,6300,-2380
27.0163,27.1495,14.2895,16.3387,14.675,3.68935,5.33547,1.9917,11.7724,-1.31906,-8.48298,5.37211,-11.0102,-6.06054,-8.08769,-15.3819,26.84,-877.912,-475.312,6020,6160,-2100
18.2984,25.7368,13.4528,24.6204,22.6083,6.4742,20.086,9.65213,-11.6016,-15.4776,-20.8601,-3.46432,-19.6651,-9.6708,-1.56551,-13.4197,31.232,-874.984,-482.144,5740,5600,-1820
-24.0277,-7.7806,-2.59961,19.6309,16.9141,7.55988,28.458,19.7712,-64.6046,-36.5714,-29.9202,-23.5317,-21.0011,-7.61229,10.7682,0.377793,33.184,-874.984,-479.704,5460,5320,-1540
-23.3254,-28.6296,-9.8705,-12.1784,-8.71168,-0.126213,-5.7119,7.19511,-31.0157,-2.35018,3.90626,-4.35406,8.20429,10.5121,-6.99278,11.1366,29.28,-872.544,-482.632,5180,5320,-1540
1.39944,-6.27818,-3.69062,-5.78915,-5.33539,-2.97338,-1.40875,1.7684,2.6603,4.92844,3.42475,0.492426,3.45014,3.45458,0.705657,5.51573,30.744,-874.496,-484.584,4340,5460,-1260
3.86729,-0.970303,-1.98083,-1.93825,-5.26701,-2.53999,0.0953383,0.699094,5.09375,3.33066,2.21116,-1.46515,1.25609,-0.889995,2.55955,3.18013,32.208,-871.568,-487.024,4060,5460,-1540
8.13068,9.48105,5.17013,0.00379699,0.758901,-0.842298,-5.63873,-3.10516,8.73265,6.50375,2.27863,5.11556,3.01753,1.3294,-10.0268,-2.7084,29.768,-875.472,-487.512,3920,5600,-1540
