-9.87378,-14.0133,-8.26113,-8.22872,-8.37859,-1.94338,-5.15432,-2.44958,-10.689,-6.18385,-2.41122,-8.06561,-6.54408,-5.38636,-6.11256,-5.10367,-271.816,-801.784,-525.576,7000,-6440,-3780
-1.77025,-3.34866,-5.89764,2.62409,-3.7107,1.67792,3.60085,-0.886677,0.776711,-4.45229,-0.312482,-1.31429,-5.19752,-2.92505,4.41253,-2.32206,-269.864,-801.784,-522.16,7700,-7420,-3080
8.92443,7.63886,3.52608,7.56631,4.51608,4.21256,5.33813,1.78218,10.1505,4.86856,3.05225,7.18728,0.317431,2.17359,6.9401,2.21771,-274.256,-809.104,-519.232,9240,-6020,-3500
6.45904,3.47706,1.84053,4.27018,1.61,3.60271,2.82704,1.51522,6.00562,1.36582,2.13807,3.29049,2.9102,1.73863,5.46894,1.3037,-277.184,-813.496,-519.72,9520,-5320,-3220
-7.649,-8.25491,-3.63373,2.73457,-1.55674,1.056,2.55763,-0.081446,-9.27684,-6.65198,-1.62485,-5.45905,1.43903,0.67925,8.46808,1.34675,-275.232,-811.056,-520.696,8820,-4340,-2520
-3.18725,-5.73818,-2.19336,-2.12089,-0.426534,-0.833063,-5.42686,-1.25329,-5.92116,-1.7758,0.887877,-6.79559,3.22534,-0.266109,-0.954294,-0.461266,-273.28,-806.664,-515.816,8400,-4480,-1820
3.30526,-1.5624,-1.05063,-2.06044,-0.0501742,0.0162642,-5.0461,-2.66942,0.940199,0.25406,4.89633,-3.91452,5.24731,-1.06032,-2.1614,-0.635413,-273.28,-807.64,-517.768,8540,-4340,-1400
13.4472,18.1924,8.52713,12.0287,12.2958,2.93151,4.58526,1.17983,14.9739,10.1955,7.95301,8.26137,7.93229,2.74275,7.51783,6.24209,-276.696,-808.616,-518.256,7420,-3220,-700
5.65944,11.2682,2.40289,6.53885,5.1332,0.389975,3.47046,0.550027,7.72432,1.43871,2.25693,2.96126,2.39684,0.29997,3.21378,5.30739,-274.744,-807.64,-518.744,6300,-3220,0
0.933456,12.9534,4.0628,8.78212,7.9887,1.01927,7.65893,6.35664,2.10998,0.373048,-1.42939,5.1431,3.21286,4.22089,6.70866,10.3035,-277.184,-811.056,-517.768,5460,-2380,560
-7.30551,6.12245,1.44288,7.16964,7.23311,0.778462,8.65682,5.73836,-9.17794,-4.87657,-5.44412,2.83996,0.775057,6.86959,7.1023,8.56073,-280.112,-816.912,-519.232,4900,-1540,980
-13.64,-4.17967,-2.07585,-2.25887,-0.12415,-2.18649,3.90329,3.72399,-15.7994,-8.43753,-7.37078,-3.369,-1.65065,2.34214,-0.664998,3.33538,-280.112,-812.032,-517.768,4900,-1540,980
-4.70717,-6.53417,-4.01732,-11.3417,-9.86973,-4.74254,-6.56748,-3.88384,-6.37855,-3.57731,-3.38521,-5.82738,-2.41033,-1.95506,-14.0621,-4.76065,-276.208,-803.248,-516.304,2380,-2100,2940
4.46385,0.452448,0.394341,-5.78948,-5.87135,-3.18071,-5.13647,-4.49573,3.66249,1.96971,-1.36246,-2.63569,-2.56991,-4.40859,-10.5372,-4.01599,-274.744,-810.08,-515.816,2380,-2100,2940
8.18883,2.75716,5.74051,-0.533965,-2.11054,-0.441631,-2.27713,-2.52504,7.77967,7.41431,2.02399,-1.34587,-0.785792,-2.608,-3.79978,-3.45167,-278.16,-811.544,-511.912,2800,-2520,3220
9.31553,0.354556,3.85312,-4.24105,-2.99972,-1.649,-6.22093,-3.84481,9.81826,10.354,1.36843,-3.90807,-2.2651,-1.12773,-8.37494,-7.03887,-282.064,-810.08,-514.352,3080,-2380,3220
5.94619,-3.56325,-3.24796,-2.11035,-4.25991,-0.12368,-2.5328,-5.6676,9.73224,2.98909,0.523739,-3.50976,-3.81018,-0.0736685,-2.9443,-8.01407,-279.136,-809.104,-512.4,2800,-2380,3780
6.89174,3.67123,4.38475,4.397,6.77221,4.1041,1.9515,1.84503,9.98562,7.62645,3.64878,5.22303,0.985942,5.44216,4.27799,-1.16424,-278.16,-804.224,-512.888,2520,-3080,3920
3.75847,-5.65651,-3.75201,-5.4585,-3.93985,1.39256,-5.88485,0.0366361,6.8328,2.96984,2.93994,0.225824,-0.762471,0.215901,-5.29938,-7.09293,-276.696,-804.224,-511.424,2660,-2800,3500
0.283885,-4.58578,-4.50917,-0.373017,1.16899,2.42434,1.1222,4.73288,2.29952,4.56202,1.72462,1.9033,-0.446126,2.2065,3.28744,0.32055,-278.648,-810.568,-508.496,3500,-3080,3220
-2.78908,-7.11238,-5.85572,-2.26451,0.585409,0.233375,2.65126,3.18404,-0.990024,1.55773,0.785012,-0.159176,-0.790184,-1.01931,4.16387,2.66643,-282.064,-813.496,-513.376,5040,-3220,2240
3.2149,-4.15482,-3.9155,-4.82062,-2.55195,-2.16787,-1.28634,-0.451238,4.58289,1.68321,1.79144,0.353351,-2.21843,-2.69925,-2.04254,0.250396,-279.624,-811.544,-513.376,5460,-2940,1680
2.66137,3.37239,2.11297,1.24186,1.52065,-0.0416148,2.91956,3.32301,0.902574,2.04988,0.923967,4.56457,-1.4618,-0.00690868,2.74766,6.12069,-281.088,-813.008,-516.304,5460,-3080,1400
-9.08197,-2.16711,0.17606,3.40465,-0.0189111,0.993845,5.30434,2.93713,-16.9814,-10.0332,-4.34121,-0.652822,-3.58669,1.43198,9.47656,6.60762,-279.136,-807.64,-512.4,5180,-3500,1260
-19.7191,-5.24873,1.66096,7.45928,3.39055,3.47193,9.47306,5.48561,-31.4593,-17.0497,-7.27673,-2.26632,-1.71623,3.12623,15.5616,9.65775,-282.064,-811.544,-513.376,4760,-3780,1540
-20.0754,-12.768,0.13056,-1.80462,-3.08333,0.365911,1.12807,0.0709674,-28.8414,-14.7441,-6.50931,-7.19904,-2.73545,1.40374,3.34948,2.03891,-278.16,-812.032,-513.376,4480,-3920,1120
-9.41929,-4.14337,-0.638812,-4.34185,-4.84077,-0.82699,-5.86566,-4.21845,-5.27339,-8.29187,1.27026,-3.27018,1.06476,-1.72218,-6.41627,-3.21002,-280.112,-812.52,-516.304,4620,-3780,1120
-4.83491,-5.6422,-3.47719,-7.66308,-6.33679,-3.63566,-7.83592,-5.03563,-0.220359,-2.83977,0.575071,-3.87524,2.48178,-4.82405,-9.47881,-4.37249,-281.088,-811.544,-517.28,4900,-3640,980
4.12218,4.68234,-1.96041,0.807098,-2.62904,-3.04584,-1.72283,-2.68574,9.30253,-1.44169,-0.362086,2.71651,3.08412,-4.64975,-2.32167,-0.970803,-281.576,-813.008,-519.232,5180,-3500,840
9.36783,10.864,3.58959,5.91976,0.995282,-2.3209,0.37771,-3.04175,13.8831,3.68364,0.920692,7.27806,3.67031,-3.43156,1.44691,-0.712413,-280.6,-807.64,-516.304,5740,-3500,420
12.5447,10.0905,7.20942,1.80653,1.46623,-1.73292,-1.944,-3.25311,15.6777,9.26788,2.67613,6.31901,2.88354,-1.96695,-1.54644,-4.46864,-280.112,-805.2,-515.816,6300,-3360,140
3.69724,1.23195,0.183372,-2.30056,-3.5217,-0.374573,-1.84576,-4.64785,4.55763,0.716892,2.10057,-0.836929,0.125176,-1.82409,-3.05844,-7.83032,-275.72,-804.224,-513.864,7280,-3500,-280
0.186888,5.95369,5.42728,3.62004,6.89398,2.57434,5.89473,5.37097,-1.53425,5.19776,0.360243,1.97241,1.47648,2.05651,3.26786,0.0813614,-278.648,-808.616,-511.912,8260,-3500,-840
1.04055,0.741824,-2.29774,-3.46908,-1.56537,1.37772,0.871356,3.52787,0.343063,2.12739,1.05044,-1.90757,-1.35834,-1.4597,-3.53138,-3.38688,-279.136,-810.08,-511.424,9380,-3500,-1400
14.0157,13.1916,3.77157,4.57723,5.8482,2.56148,3.70602,7.469,14.571,9.99984,3.84015,7.18248,1.38495,2.4426,0.58465,2.4664,-278.648,-810.08,-516.304,9660,-2380,-2100
14.1003,13.5622,3.46358,6.34513,7.76216,2.80182,3.46444,5.48327,14.2883,11.1988,3.33265,9.17497,1.36302,3.47518,-1.71965,4.09948,-281.088,-811.056,-514.84,9240,-1960,-2240
7.47623,13.4743,2.04014,4.13305,9.21233,2.44707,-0.0534098,2.65964,7.42788,7.87098,1.38279,8.33258,2.05832,2.87803,-6.05255,2.77546,-281.576,-814.96,-514.84,9380,-1680,-2380
-4.72793,2.33059,-4.58785,1.96702,5.74049,1.77782,-0.0275163,0.455153,-5.24978,-1.50042,-2.3404,1.97594,0.189869,3.73174,0.365841,2.57582,-282.064,-816.912,-516.792,9240,-1120,-2520
-14.7823,-9.51231,-6.91392,-0.318678,2.89747,1.83756,1.81831,3.91817,-16.6171,-10.4028,-6.30264,-6.94185,-2.66867,3.00086,6.15047,4.89815,-282.064,-809.592,-516.792,8540,-840,-2100
-6.09207,-10.2165,-5.02659,-7.32943,-6.09403,-2.48591,-7.93831,-1.89094,-3.51104,-7.70966,-1.79507,-7.93859,-4.10235,-1.45994,-5.21684,-0.903667,-281.576,-811.056,-516.792,8820,-1540,-1680
0.838994,-12.2676,-2.35695,-10.0278,-10.2548,-5.45694,-12.9991,-8.25104,2.0543,-1.94975,0.167251,-9.4621,-4.48453,-3.99404,-8.23453,-3.66875,-280.6,-810.568,-517.768,9940,-1820,-1120
1.98953,-10.9435,-1.31586,-2.51277,-9.25106,-3.45208,-5.19264,-10.8016,3.35734,-4.20832,1.14629,-7.1247,-1.82098,-2.5327,3.16654,-2.2606,-280.6,-803.736,-513.864,10640,-1680,-1120
0.178547,-2.44341,5.21828,9.83477,4.19024,1.51508,7.907,-3.006,0.0275304,3.10045,1.58463,0.174104,2.50715,3.92654,14.8864,6.0187,-284.504,-802.76,-511.424,10920,-1540,-980
-3.20489,-5.27687,2.0086,6.38212,2.93371,3.20625,7.04964,-3.27586,-5.4274,-1.07619,0.752026,-1.02664,2.11405,3.00495,8.5672,2.1462,-284.016,-801.784,-513.376,11340,-1260,-1260
-2.31052,-2.73438,1.84729,2.10696,2.10413,2.31618,1.03209,-2.15281,-4.90312,-1.19449,0.846558,-2.91953,3.49101,1.35843,-0.0179147,-1.2711,-284.504,-801.784,-511.912,12180,-840,-1540
1.50867,1.57636,-0.688392,1.509,1.87117,1.19803,0.540904,2.20143,2.72326,-0.398237,0.485003,-2.00977,2.35502,-0.809952,0.43665,-1.4003,-283.04,-806.176,-516.304,12600,-420,-1680
3.29883,-0.567701,-3.75598,-2.79671,-2.81049,-0.670338,-0.377629,0.00464803,5.45492,2.0792,1.16758,0.260515,-0.316947,-0.286893,-0.305871,-3.14855,-284.504,-805.688,-514.84,13160,-840,-1680
-3.82928,3.82654,0.0182863,3.67675,2.78132,0.737102,5.50734,3.76189,-2.8956,0.759122,-0.346592,4.799,0.844141,2.89111,4.69975,0.884063,-288.408,-803.736,-514.84,14140,-840,-1680
-15.5586,-9.9888,-5.77537,-5.30989,-3.8006,-2.02362,0.252839,1.33059,-19.4011,-8.99037,-5.62077,-3.81678,-2.43019,-1.4999,-4.2321,-4.23616,-285.48,-799.344,-510.936,14700,-1680,-1680
-6.29556,-5.02009,-1.71649,-6.77067,-2.52259,-2.11489,-2.10421,2.79229,-7.78724,-1.73312,-1.88336,-0.872477,1.75468,-3.1036,-8.25105,-2.27159,-286.944,-806.664,-516.304,15820,-2100,-1400
4.26379,-3.08696,-0.200258,-11.5969,-9.60546,-6.2524,-9.94879,-4.96983,4.10618,4.53157,1.09724,-1.86921,1.04701,-5.58949,-17.9103,-8.32158,-286.456,-806.664,-511.912,16940,-2940,-1540
3.95546,-0.440987,1.22775,-7.68556,-9.30722,-4.57803,-4.80094,-5.55783,3.07985,-0.330114,0.149773,-2.38548,-0.0266348,-5.70262,-10.9076,-5.91495,-288.896,-806.664,-514.352,16660,-3220,-1680
0.229376,-0.155371,-0.115525,-2.1212,-6.10778,-2.43105,2.70852,-3.19538,0.743445,-3.3964,-1.26448,-2.33155,-2.75948,-2.15172,2.35723,-0.635407,-286.456,-805.688,-513.376,16800,-3640,-1540
5.65526,1.31883,4.55413,-3.21598,-3.77682,-0.5072,0.878918,-0.892168,5.64208,2.35537,-0.174888,0.347996,-2.45002,-0.311767,1.82883,0.825129,-284.992,-805.2,-511.912,16940,-3920,-1260
8.85425,14.9326,13.8447,9.46767,10.6706,6.06311,7.61237,9.18408,7.91172,8.55479,2.37666,9.28335,2.45846,6.01691,9.30817,11.0832,-284.016,-812.032,-509.96,16940,-5180,-1120
1.34399,9.11619,5.50093,10.0827,9.05082,5.45642,7.69714,6.74191,-1.70118,3.33257,0.0187139,5.50131,0.204289,3.97753,9.51686,9.25439,-283.528,-811.056,-506.544,18200,-6020,-1680
-5.12198,-0.486322,-5.98834,5.03911,1.65939,3.20207,4.27242,-1.89758,-6.38761,-4.60915,-1.91176,0.751713,-4.27061,-0.333986,7.66987,3.63997,-281.576,-812.52,-501.176,18480,-7000,-1680
-0.487104,13.1736,1.503,13.9102,14.2964,4.96689,8.37712,2.04057,0.948414,4.9859,-0.220499,8.65221,-0.750197,5.90994,13.4796,9.91642,-281.576,-818.376,-506.056,18620,-7140,-2100
-3.05097,2.72497,-6.02536,3.29983,5.34178,2.81072,0.628626,-0.697552,-3.2311,0.818305,0.891645,2.12502,-0.789942,3.42051,1.87579,2.36124,-284.504,-819.352,-508.008,17780,-7140,-2380
-0.49155,-0.537498,-5.80193,-2.9538,1.44011,0.424972,-5.09126,1.33739,0.287836,2.4932,2.4034,-0.699964,-0.406102,-0.735988,-3.4955,-0.494942,-282.064,-818.864,-509.472,16520,-6720,-2940
11.1887,0.451582,-4.03046,-7.4122,-6.56724,-3.25685,-11.5001,-2.34335,13.8634,5.03687,6.76258,-0.984034,-1.19113,-4.35087,-8.48004,-7.84238,-281.088,-821.792,-506.544,15540,-6580,-2940
10.6233,2.16986,1.17469,-3.52979,-3.63884,-2.35254,-6.65611,2.43817,10.4902,2.04721,4.90157,0.242361,-1.98241,-3.06422,-4.41758,-5.38358,-278.16,-817.4,-506.056,14840,-6580,-3080
8.77469,5.20087,4.64345,0.457683,0.831265,-2.24957,-2.71915,4.8101,10.4049,3.2279,2.96406,4.28455,-0.138,-0.93572,-2.03662,-4.3167,-278.16,-819.84,-503.616,14560,-6440,-3080
2.03643,-0.617303,2.09088,-2.48568,-0.357762,-5.31377,-4.64578,3.97242,4.56301,-1.37391,0.29036,1.18759,0.563338,-3.03768,-2.96635,-5.62541,-281.088,-819.84,-500.2,14000,-6580,-2800
-1.47313,-6.72844,-1.74832,-6.05587,-2.02831,-5.39594,-4.54808,2.44063,1.19522,-3.66375,-0.843101,-2.40675,0.81046,-3.96132,-2.94826,-4.5343,-277.184,-818.376,-500.2,13440,-6580,-2800
-2.70581,-5.68382,-2.17875,-7.29978,-4.12741,-4.29174,-4.84224,-0.506191,-0.453342,-2.41959,-1.27582,-2.80139,1.71986,-2.67542,-7.72768,-4.15819,-276.208,-814.472,-498.248,12180,-6720,-2240
-6.57888,-4.66297,-1.6156,-4.76778,-4.8814,-0.67596,-2.17406,-3.40852,-3.27731,-9.64891,-2.97532,-1.50606,1.67298,-1.34493,-5.5586,-2.03414,-278.16,-816.912,-497.76,12040,-6860,-2240
-9.68016,4.75596,5.65665,8.51328,8.4462,4.8027,9.1372,2.87946,-9.89503,-4.75133,-4.96507,5.20116,4.26234,6.689,8.16168,8.62507,-277.672,-816.912,-496.784,12460,-6580,-2380
-26.7606,-8.20137,-2.12009,8.28653,6.63999,5.61621,11.798,3.94116,-31.1968,-16.1192,-12.2537,-4.32538,-0.0561589,6.58194,12.9611,10.5937,-276.696,-819.84,-497.76,12040,-6020,-2100
-22.1792,-9.60261,-0.657125,1.27121,5.24466,5.20402,5.82485,4.48078,-24.8267,-10.5485,-10.0727,-5.27607,-0.045046,3.05984,5.23347,8.77165,-278.648,-820.328,-501.176,11760,-5880,-1960
-4.89294,-6.47143,-0.359676,-2.94367,-4.43358,2.53947,-0.169703,-2.36461,-3.60175,-1.78138,-2.77364,-2.94158,1.90971,-0.99587,-2.1161,0.095872,-277.184,-818.376,-499.712,11480,-6020,-1400
5.02552,-4.61486,-2.01196,-2.8914,-6.94452,0.573236,0.692086,-3.73558,6.78975,3.07865,1.95157,-3.33374,2.49181,0.714018,-1.1401,-2.22585,-276.696,-816.912,-502.152,11340,-5740,-840
12.5086,2.17648,-1.64592,0.362925,-3.88767,-0.436467,3.15109,-4.34668,14.0898,6.91571,4.75279,-1.99692,1.72447,0.199776,1.01915,-1.50914,-275.232,-820.816,-503.128,11060,-6020,140
16.9459,0.878743,-2.3156,0.764572,-5.81787,0.366527,2.18165,-8.18456,16.0603,8.7455,6.45322,-3.21745,-0.296537,-0.342172,-1.02864,-3.64967,-276.696,-815.448,-499.712,11200,-6020,840
16.0649,4.75869,1.66232,5.70493,-0.850308,1.54104,5.32847,-3.23406,14.1621,10.0257,5.60651,1.015,0.627576,-1.1441,1.78617,1.21069,-276.208,-812.52,-499.712,10640,-5740,1120
9.00278,-2.30566,-2.56481,-0.382524,-4.23714,-2.15297,-1.44765,-3.23138,4.41301,6.52154,2.93839,-3.31061,-3.03484,-2.80963,-4.79024,-4.6666,-278.16,-812.52,-506.056,10640,-5460,1540
5.73531,-3.21272,-3.58263,-1.86647,-5.66758,-3.47615,-5.71697,-1.45767,3.67889,5.4967,2.89649,-4.11036,-1.45701,-3.3,-6.04365,-4.6316,-277.672,-807.64,-499.712,10360,-4340,1400
3.95958,3.91666,2.11786,4.99877,2.56106,-1.43656,-1.89236,0.0433603,3.29338,6.43756,2.90105,1.68135,3.22462,0.596997,1.76095,1.68151,-275.232,-807.64,-505.568,10780,-3780,1820
-7.69462,1.32786,2.06598,4.77551,5.40755,-0.0524997,-0.722919,-1.0357,-11.1246,-2.64639,-0.0247912,-0.829352,0.0805198,1.9628,3.39005,4.03578,-284.504,-814.472,-505.568,11340,-4200,1540
-12.0977,-0.936098,0.379303,-0.893156,1.87964,-0.448446,-6.75993,-2.92546,-13.0968,-6.42377,-2.05907,-3.55001,-3.12773,-0.167863,-5.62399,-0.524644,-283.04,-813.984,-507.032,12460,-3220,1260
-6.91996,1.37141,1.24638,-4.48181,1.95104,0.294828,-9.12023,-0.732067,-5.33758,-3.96415,-3.42822,-0.499106,-3.34679,0.626824,-10.1675,-2.74312,-283.528,-818.376,-510.448,12460,-3080,1960
-3.2838,1.75308,-1.27327,-3.32871,1.32775,-0.325164,-5.37898,0.637606,-0.842768,-4.49633,-3.55589,2.48843,-3.45988,0.377792,-5.40516,-0.778279,-284.504,-818.376,-503.128,12740,-3360,2100
1.92533,11.9927,7.82196,6.51271,10.7662,2.0173,3.29836,8.16029,2.78909,4.88408,-0.481563,8.29623,1.17614,3.23368,5.51836,5.50712,-280.112,-807.64,-506.544,12880,-3640,2240
2.57171,4.27122,4.41566,0.479761,1.83804,-0.558362,0.212374,1.2767,2.35604,-0.316483,1.6423,4.61926,-1.35006,-0.177735,3.18106,-1.24946,-284.016,-813.984,-506.056,13020,-4480,2660
8.49939,7.05505,7.51907,-3.21313,4.37878,0.95942,-0.927946,1.47759,7.34943,3.45606,4.80877,7.68214,-0.152907,-0.167352,-1.15089,-0.866166,-284.992,-817.4,-501.664,13160,-4480,2520
8.56505,4.35922,5.4509,-3.488,0.729035,1.60254,0.0974981,-1.77099,8.36904,2.07854,3.19332,6.49959,-1.27518,-1.09621,-1.92644,-4.77182,-282.552,-813.008,-500.688,12600,-3220,2100
2.579,5.03774,3.13886,7.07154,4.9807,2.6377,11.9692,4.61433,1.84372,-0.457974,-0.195498,6.67182,0.253843,2.06893,11.7243,3.06248,-280.6,-816.912,-499.712,11340,-2380,1680
-6.46565,-8.72108,-8.5562,-4.72626,-5.77229,-2.47831,5.22714,0.521761,-7.74833,-7.33137,-3.08695,-4.29436,-3.49864,-2.41754,6.50182,-1.04052,-285.968,-820.328,-496.784,10920,-1540,980
-4.94435,-8.75067,-8.14466,-9.07887,-7.81127,-4.3747,-2.08893,-2.96303,-5.73047,-4.08411,-1.66563,-5.45786,-4.09535,-4.79922,-0.592478,-4.73343,-288.408,-822.28,-496.784,10920,-1120,280
0.554945,-0.189845,-1.1602,-1.77329,-2.18197,-1.67232,-0.411351,-2.55271,3.44252,2.0774,1.0991,0.317465,0.962692,-0.231998,2.70848,-2.10192,-284.992,-819.352,-497.76,10220,-980,140
-0.497755,-0.405978,2.40971,-4.26001,-1.74831,-3.15496,-3.49872,-4.14524,2.36058,4.04725,0.0742705,-0.168329,1.96213,0.805423,-3.40084,-5.37448,-283.04,-816.912,-498.736,9800,-2100,700
-6.92771,-7.07217,-4.75455,-6.7182,-8.04775,-2.77801,-5.36135,-7.07735,-3.9407,-3.42636,-1.63621,-5.56665,-0.0508811,-2.84876,-8.15408,-7.76423,-284.504,-817.888,-495.808,9240,-2520,840
-8.84747,-0.199294,0.0222264,5.6209,1.58133,0.908381,3.45898,0.939161,-6.78548,-0.404477,-3.07292,-1.39239,2.58872,0.836361,2.13756,2.17532,-279.624,-812.52,-496.296,8820,-2520,980
-10.3537,-4.71973,-1.62408,6.74411,1.37214,2.20867,8.91733,6.32064,-11.0301,-5.0537,-3.4288,-3.23734,0.863394,0.456995,8.736,8.0314,-279.136,-812.52,-493.368,8260,-3220,1260
3.22146,1.278,1.15059,3.5947,-0.640677,2.24494,4.22434,5.14357,7.01736,1.48048,1.71626,0.839413,4.69196,1.81603,3.90434,5.89886,-278.648,-815.448,-492.392,7700,-3500,1260
7.48549,3.33387,0.701758,2.9909,-0.495741,1.7883,1.52164,2.67788,11.0484,2.87328,1.41976,3.69466,6.66067,1.44085,1.35843,4.26622,-271.328,-805.2,-489.952,6720,-2800,1120
3.54921,-1.30897,-4.39771,0.768076,0.172818,1.79548,2.45256,2.67926,3.65191,1.10492,-0.0718779,2.42409,3.30836,0.647198,3.7364,5.8747,-277.184,-810.568,-490.928,6440,-2660,1120
8.58755,5.55116,-1.44417,2.65928,4.55861,3.57363,0.717167,3.54499,7.72101,9.07046,2.77332,5.37711,3.50421,1.3269,2.95215,7.05002,-276.696,-815.936,-490.44,8400,-3080,140
7.16201,-1.61225,-4.49239,-4.04817,0.216775,0.984476,-5.84476,-1.89253,4.56864,4.45792,2.9805,1.77095,0.698774,-0.600836,-3.63768,2.07341,-273.768,-821.304,-489.952,9100,-2240,-280
4.22679,2.53148,0.575759,3.23932,7.09171,1.77982,-0.0512385,2.84228,2.35686,0.149148,3.00526,3.74307,2.03921,2.98523,3.7137,7.40667,-275.232,-817.888,-489.464,9800,-2520,-140
3.11363,3.22016,1.95223,2.84598,5.36287,1.3237,-1.41844,1.76879,1.67472,0.0304013,2.36013,0.249355,0.89763,4.12785,-0.0225113,2.85666,-274.256,-811.544,-490.928,9520,-3640,0
-1.49611,-2.28633,-2.56699,-5.18249,-4.69933,-1.96601,-9.60133,-3.19236,-3.3853,-5.01041,-0.0537158,-6.22082,-2.08292,-1.3496,-11.6027,-6.41162,-274.744,-814.472,-493.856,9380,-4340,140
-5.22969,-7.20483,-4.67791,-10.1804,-8.47652,-4.73029,-15.0528,-4.23067,-9.67967,-4.44286,-2.8291,-11.199,-4.58079,-5.91046,-17.8386,-9.48988,-273.768,-817.4,-498.248,8820,-5320,280
-7.88874,-8.8922,-5.29247,-8.42775,-8.67992,-3.51607,-8.98099,-1.03166,-11.0786,-8.01733,-3.40625,-11.2316,-6.35477,-5.77427,-12.3958,-8.03082,-275.72,-818.864,-499.224,8540,-5740,420
-10.0536,-10.8992,-6.91107,-6.31196,-9.64347,-3.07808,-2.31086,-1.60835,-12.8216,-10.5766,-4.51029,-12.0365,-7.1525,-2.51249,-5.05101,-6.66467,-272.792,-819.84,-495.32,8400,-6300,560
-4.76302,-6.02834,-0.618112,-1.55421,-5.8184,-1.50994,2.7267,0.25594,-7.25096,-4.72878,-3.77935,-7.54623,-4.01362,-1.64225,-0.735892,-3.536,-272.792,-822.28,-497.76,7980,-6440,420
1.70424,4.73904,5.26208,10.0197,1.73972,0.330567,9.02291,1.66456,3.14695,-0.62277,-3.00177,2.03322,-1.80906,0.639856,9.24547,0.801076,-273.768,-821.792,-500.2,7700,-6720,420
1.45745,12.7677,10.0613,16.6511,11.6916,0.933113,11.9868,5.16447,3.44247,4.30859,-2.65267,7.75956,0.453517,3.98446,11.968,5.05974,-275.232,-821.792,-495.808,7420,-6720,280
-4.77099,-1.94201,1.84382,2.87219,-0.275837,-2.71549,-0.012706,-4.80949,-5.37634,-0.752998,-2.43885,-1.89472,-2.54447,-1.9572,-2.37034,-5.40957,-274.744,-820.328,-498.248,7280,-7000,420
3.04167,8.11808,10.7201,6.66281,9.30088,1.79368,4.54584,-0.780064,5.23106,8.64988,2.0769,5.59781,4.05128,1.98631,3.73119,0.932037,-276.696,-820.816,-498.736,7140,-7000,420
5.86875,10.7928,9.97907,10.2391,10.9581,4.3877,9.47346,0.568398,10.7533,6.33791,4.62141,9.85779,3.11605,6.14046,11.5139,4.72433,-280.6,-821.792,-495.808,7280,-6300,420
2.77802,9.66374,8.08863,11.1895,11.2881,4.94782,9.86829,3.86913,5.45104,4.04979,3.2598,10.5619,0.518089,7.56593,11.5815,7.42363,-281.088,-823.256,-494.344,7000,-5740,420
0.318658,4.2186,3.37322,3.4097,6.13198,4.32956,5.41327,3.62585,0.889188,1.84971,1.23499,7.07148,-0.632244,5.99809,3.24577,4.6699,-282.064,-817.888,-495.808,7140,-5460,840
0.231937,0.941999,1.30668,-5.36475,1.23087,1.77221,-1.33947,1.08695,0.612098,1.47391,1.19201,3.82574,0.140488,1.80627,-5.79116,0.400045,-280.6,-819.352,-499.712,6860,-5040,1120
-4.081,-7.57291,-2.8124,-11.7652,-6.51135,-0.937417,-5.05945,-1.01994,-2.70873,-3.09613,0.716315,-2.23645,1.13657,-3.71031,-7.97876,-1.33507,-284.016,-820.328,-502.64,7280,-4620,1680
6.06921,-2.84367,-3.1322,-12.2809,-6.97616,-3.01983,-8.49308,-4.08161,8.19669,5.2798,3.66633,-0.652479,2.03004,-4.62229,-7.23633,-5.16652,-285.968,-821.304,-500.2,7280,-4200,2240
6.40434,-1.95101,-5.79494,-7.86801,-6.84973,-2.21135,-5.45956,-5.74883,7.03606,1.52195,1.65332,0.0240749,0.989808,-5.91498,-1.72171,-4.52329,-286.944,-819.352,-501.176,7560,-3920,2940
3.86379,2.59341,0.844791,2.56783,4.32446,2.38051,5.32499,1.90299,1.11947,1.93027,-0.311248,3.94629,2.8106,-0.428171,10.353,5.76363,-290.848,-819.352,-501.664,7420,-3640,3640
0.838875,-4.33765,-3.10669,-2.81927,-4.68602,1.49934,-0.303025,-3.12882,-0.810718,-1.88505,0.182593,-0.266984,1.10089,-2.74312,1.02867,0.206604,-294.752,-820.328,-498.248,7700,-3360,4060
0.99672,-3.60923,-3.99037,-5.50737,-6.47698,-1.32735,-6.71959,-5.96424,-0.59033,0.64718,0.0751305,0.118959,1.38748,-3.23297,-5.84333,-2.72709,-298.656,-819.84,-502.152,7700,-2800,4760
2.58745,-2.31586,-4.77767,-2.67417,-5.77803,-2.32017,-6.0861,-3.91363,2.39532,0.211469,1.82166,-0.154972,1.93081,-3.88161,-1.69897,-2.93987,-299.632,-819.84,-500.2,7420,-1960,5040
-0.814588,-5.47232,-6.19422,-3.21957,-7.04924,-4.21653,-7.18996,-3.05053,-1.58413,-1.03751,1.25395,-4.46445,-0.456199,-3.19396,-2.19862,-3.4758,-303.048,-821.304,-501.664,7140,-1400,5320
-2.13527,2.31064,-1.25621,3.58005,2.89702,-2.80235,-2.76014,-0.232148,-2.96838,-0.4245,1.12668,0.390382,0.782253,1.81347,2.22269,0.475366,-302.56,-821.792,-496.784,6860,-700,5320
-9.42545,-3.82808,-5.67515,-1.09353,-1.50893,-3.09667,-5.71722,-5.91073,-9.00737,-7.67549,-2.92493,-5.10523,-3.8599,-1.38383,-4.48861,-3.86866,-302.56,-819.352,-494.832,6160,-280,5320
-8.25145,-3.10974,-1.3113,-4.14304,0.389582,-0.879207,-2.25447,-2.40534,-6.64507,-2.6835,-2.09528,-4.60249,-1.26407,-2.75563,-4.74848,-0.159061,-301.584,-817.4,-495.32,5320,560,5320
-1.48628,-3.09522,0.198013,-4.70177,-0.656408,-0.829772,0.936999,-3.51724,1.35793,0.715493,-0.688404,-4.39115,0.561784,-0.147614,-2.85949,0.191026,-301.096,-816.424,-494.832,4900,0,5040
6.85794,4.99366,2.15311,0.584967,1.65466,1.0734,4.84064,2.58342,10.1856,2.07297,1.96177,0.872548,2.91785,2.90189,-0.488797,3.40622,-299.632,-822.768,-493.368,4620,140,4620
1.90883,0.402496,-1.24772,-0.616822,0.240295,0.431769,4.83078,10.553,2.94859,-0.297991,0.0348688,0.138803,0.314215,4.76984,2.12345,3.17606,-299.632,-822.768,-493.368,4200,-280,3500
-0.0934313,-1.71136,-1.9613,0.660008,-0.483576,1.06146,4.23606,9.53636,-2.09072,-1.11496,-1.42075,-2.75044,-2.53916,4.09053,3.59081,0.683721,-303.536,-829.6,-493.368,4620,-280,2660
2.46387,3.28145,4.03875,6.11915,2.08384,2.95614,3.26021,2.60843,0.282684,0.823023,-0.809816,-0.659792,-0.3768,4.45914,2.17667,-1.49745,-303.536,-829.6,-493.856,3920,-1120,1820
-0.0924926,5.57323,6.47375,7.69665,7.43501,3.31412,1.78084,-1.71719,-3.58348,-1.38078,-4.4907,0.607429,-0.466235,4.89394,-0.432163,-2.0019,-297.68,-828.624,-493.368,3360,-2240,1120
-8.2434,-3.2566,0.603663,2.33863,4.94631,3.17874,3.11283,0.753294,-14.1991,-8.77503,-5.45986,-2.87325,-1.24952,3.14838,-0.707364,-0.444411,-293.288,-826.184,-496.296,2660,-2660,560
-7.25696,0.359891,2.04121,7.56191,9.07199,3.52147,8.1123,10.9592,-9.70877,-3.90789,-3.76005,-0.304987,0.748259,4.58275,7.3106,5.88012,-293.288,-830.088,-498.248,1820,-3780,0
-2.49299,0.132133,-3.74428,6.525,2.23541,1.17635,4.31977,9.95553,-1.51847,-4.65268,-1.57945,-0.400449,-3.05988,1.54062,6.62897,2.8512,-291.824,-829.112,-501.176,1120,-4760,-140
-4.73194,1.3028,-0.87346,4.23429,3.48134,-0.0251233,3.99468,13.512,-4.26685,0.319673,-0.219585,2.51689,-2.40087,1.30191,5.47974,7.71573,-282.552,-824.72,-499.712,-840,-5460,-420
-1.13861,-1.38216,-2.58825,2.09539,-1.26102,-1.95329,2.72652,5.60953,-2.42655,2.5486,2.30661,-0.373979,-1.77086,-1.69451,4.15272,3.33798,-284.504,-827.648,-503.128,-1120,-5180,-1960
5.86145,-0.0236579,-1.46946,-1.02829,-4.09437,-2.74002,-1.75785,-2.5281,5.3622,4.58741,2.98523,-0.389707,-1.52279,-3.86471,-1.24994,-3.21144,-277.184,-825.208,-500.688,-1540,-4340,-2660
8.66436,-0.868924,0.0772588,-5.80481,-6.07564,-3.27399,-7.47595,-7.15775,9.52733,5.93439,3.40251,0.351672,-1.81906,-6.16841,-9.54749,-5.9181,-280.6,-829.6,-506.544,-1540,-3500,-3920
9.67664,0.743079,2.43537,-1.51015,-5.01696,-1.54404,-2.42381,-7.00092,10.8728,5.4573,4.57945,0.948328,-0.0267311,-5.05691,-3.22993,-2.07962,-279.136,-824.72,-505.568,-1680,-2940,-4620
6.83997,-0.758595,2.91186,-1.03242,-5.45355,-0.539591,-0.231134,-5.25155,8.46458,3.95833,2.809,-1.52694,1.00494,-2.82293,1.55448,-0.492939,-272.792,-830.576,-505.568,-2100,-2380,-5460
7.80499,4.74384,8.6139,0.0596722,-0.503272,0.725381,-2.46184,-4.00631,7.69945,8.15646,1.33202,1.48137,0.892171,-0.176623,-1.0813,0.30316,-278.16,-819.84,-503.128,-560,-1680,-6160
3.40522,2.90345,5.43464,-4.24224,-3.9978,1.6617,-4.89138,-6.0073,4.95606,1.87824,0.0700865,1.58003,0.130462,-4.01835,-4.87197,-0.185916,-276.208,-819.84,-504.104,1260,-2800,-5880
-1.12764,2.67126,4.58718,-4.08324,-1.14078,0.258265,-3.00597,-4.0911,1.45141,1.87045,-0.873138,2.53778,0.724951,-5.35384,-3.43415,0.685021,-275.72,-818.376,-502.64,2800,-2100,-5460
-6.95405,-4.86068,-1.67984,-7.5867,-6.9779,-2.72272,-5.73036,-7.69785,-4.68106,-6.7834,-1.91913,0.205164,-0.363031,-6.96069,-5.14591,-5.14916,-275.232,-815.936,-496.784,3360,-1120,-5460
-4.84472,3.3226,3.39269,0.627801,1.12505,0.501978,-2.43592,-2.98034,-2.85202,-0.836304,0.327755,8.17641,4.46777,0.0121789,-2.05132,-1.17549,-274.256,-814.472,-492.88,3500,-1120,-5180
-3.36747,2.3397,1.5788,2.35595,2.01387,1.42515,-3.05822,-5.09085,-1.95152,1.3302,2.44841,7.45616,3.97443,2.27135,-2.85047,-1.20062,-275.72,-809.592,-494.832,4900,-2380,-4200
-2.33682,0.0739494,-3.34566,0.101401,1.53162,1.2409,-4.49075,-5.1077,-1.53207,-0.970062,2.63646,4.18428,3.67527,0.810571,-3.67712,-1.95444,-277.672,-814.472,-494.344,6160,-2520,-3640
-4.00978,3.4093,-3.65022,2.49678,5.43428,1.38306,-0.730074,-1.03089,-2.47413,-1.7199,-0.00799093,4.0304,4.79656,2.82751,-1.28034,-0.382279,-276.208,-813.984,-492.88,6860,-2660,-2660
-9.23862,-4.77791,-8.09126,-1.44086,-0.0280112,-0.821027,1.01923,-3.04222,-9.31485,-7.42353,-2.63431,-3.76763,0.867006,3.36643,1.42567,-2.85248,-276.696,-812.032,-491.416,7280,-2520,-1820
-5.57368,1.57127,-3.53583,7.29441,6.47473,1.91941,11.068,5.12137,-4.34939,-3.28977,-1.36928,0.455953,0.833016,7.49435,14.42,5.99026,-275.232,-814.96,-492.392,8120,-2240,-980
-1.03708,0.0475036,-2.46129,3.94715,5.89986,0.267505,7.35751,4.84652,-0.13926,-0.756867,-2.21158,-0.963596,-1.29548,6.48983,9.95617,4.49602,-278.648,-813.008,-492.392,8400,-1960,-280
-4.94736,-8.4315,-6.02063,-3.49664,0.504304,-2.24146,1.5007,0.971232,-7.29415,-6.28537,-4.52263,-8.29295,-4.70093,-0.364354,1.9846,0.665631,-278.648,-816.424,-497.76,8680,-2100,560
-0.871801,-7.14934,-4.77967,-3.87197,0.396742,-3.52844,-1.01593,-0.166811,-4.00107,-0.850139,-3.1411,-8.59375,-5.28007,-0.766766,-2.13038,-0.34622,-279.136,-811.544,-498.248,8960,-1960,1120
2.87189,-4.55613,-3.53428,-2.37329,-0.941712,-2.32221,-2.02772,-0.605392,1.25401,-1.44439,-1.28096,-6.57035,-2.69532,-2.24389,-4.1177,-0.579562,-277.184,-819.84,-502.152,9240,-1820,1680
1.44585,-8.63176,-5.5777,-5.63163,-4.74997,-1.05665,-4.58523,-2.06163,0.111411,-4.09923,-0.68428,-6.80623,-2.85979,-1.27716,-5.56155,-3.27751,-281.088,-816.912,-498.736,9380,-980,2100
8.81148,1.48442,1.91981,-1.2314,1.04137,1.6407,-0.0212474,2.75017,6.63984,5.00053,1.28461,-1.31416,0.211924,2.28513,-0.343211,0.868672,-284.016,-819.352,-500.2,9940,-1820,2660
12.0768,8.89893,2.53939,2.2476,1.09734,2.09818,4.12173,4.20785,10.3015,4.44742,1.91473,1.61001,1.50074,2.54549,4.69869,0.989025,-281.088,-816.424,-500.688,11340,-2800,3080
11.0042,15.6961,9.52788,6.66039,10.3958,2.69691,6.9632,10.6486,9.34788,8.70901,1.66111,7.72516,3.72823,5.21655,5.95142,3.60604,-284.992,-816.912,-500.2,12180,-3780,3080
4.20139,-1.85108,0.180408,-7.64855,-5.24752,-2.25204,-5.56995,0.902289,2.32307,1.39996,1.28463,-2.54367,-1.94747,-4.37208,-7.56555,-7.57323,-284.016,-816.424,-498.736,12180,-4060,3080
5.7213,2.84851,6.29908,-2.61124,-0.64013,-0.394445,-2.95342,5.34939,4.52956,6.60964,3.0276,1.21665,0.424264,-2.81487,-1.4316,-2.03669,-289.384,-819.352,-496.784,12040,-3640,2800
0.521646,-2.13283,5.06539,-1.25168,-2.54597,-1.14136,-0.573534,1.77874,0.633457,2.82935,1.88195,0.620383,-0.471408,-2.95689,1.85605,-0.0935078,-287.432,-820.328,-493.856,11340,-3220,2520
1.53362,2.55408,7.92887,4.6402,2.59893,1.33147,5.48338,2.61709,3.30722,4.26531,2.52825,4.08863,1.69889,1.58618,6.05844,6.02397,-288.896,-821.304,-494.832,10920,-2800,1820
0.461743,4.52427,8.4703,7.60819,3.00598,2.27732,9.01836,3.00907,2.73314,1.53065,0.770095,4.15765,1.75763,3.65568,8.67376,8.11662,-289.872,-824.232,-496.296,9800,-1820,1120
-1.00948,3.90482,5.44605,8.09024,-0.668826,1.15718,6.74084,1.04461,1.27694,-1.04612,-0.673586,3.08533,0.461966,2.37504,6.64986,5.60568,-292.312,-820.816,-492.88,8820,-1820,840
-4.23934,-0.656856,-0.780607,2.97658,-4.85053,-0.307117,-0.774226,0.442077,-2.34861,-2.19703,-0.983124,1.72673,-1.18004,-2.09294,-2.31129,2.20862,-291.824,-818.376,-490.928,8400,-2240,280
-6.7401,-6.24287,-5.01255,-4.36046,-8.19099,-2.52874,-8.49141,-3.69019,-6.76731,-1.60414,-1.52426,-2.08126,-1.92132,-4.13078,-11.5936,-4.99346,-293.288,-824.72,-493.368,8260,-1960,-420
-17.3204,-14.098,-10.7459,-4.74051,-10.6676,-2.47839,-6.78732,-5.9543,-18.1877,-13.0732,-2.05395,-8.37557,0.0242622,-2.90867,-7.83739,-5.53713,-294.264,-826.184,-492.88,7700,-2100,-700
-18.2133,-8.26505,-8.99888,-0.569918,-5.79141,-3.19993,-4.39956,-4.05757,-15.4447,-11.1714,-0.102023,-6.44055,0.960805,-0.31565,-4.10168,-4.77383,-292.312,-820.816,-491.416,7140,-2380,-1120
-11.7398,-5.29234,-10.4616,3.15833,-4.84038,-1.72685,-0.350489,-5.2669,-8.05177,-10.3273,-3.11625,-5.13397,-2.45255,-0.465176,-2.12337,-5.30485,-288.896,-817.4,-492.88,7000,-2380,-1540
-5.48377,-6.31801,-6.77209,-3.85444,-2.85725,0.391266,-2.65317,-3.43685,-6.314,-6.51577,-2.06192,-4.42614,-3.03919,-2.7051,-8.32253,-3.52026,-292.312,-819.84,-496.296,6720,-1820,-2100
9.01494,2.67204,-0.143075,-4.13249,0.329535,1.7822,-6.44815,-3.9279,7.40952,3.6746,4.22252,4.73863,0.451235,-1.92108,-10.9718,-4.00801,-293.288,-817.888,-498.248,6720,-1680,-2660
9.90939,5.26285,3.01279,-1.46963,6.05989,4.30722,-2.94727,-1.45042,6.10261,7.74189,2.44382,9.35726,0.999069,0.462253,-4.35636,-2.52987,-294.752,-815.936,-495.808,6440,-1960,-2660
4.54196,5.49319,6.33028,2.23471,12.5734,6.47612,6.06296,6.20243,0.25796,8.95568,-0.0555927,7.95641,1.15254,1.93561,6.98821,4.95083,-291.824,-818.376,-497.272,7420,-2520,-2660
5.71765,5.50361,2.19205,1.98017,8.06153,3.72038,5.92518,5.25243,6.01746,6.51913,0.461642,4.11667,-0.0704252,-0.662629,10.5547,5.08477,-292.8,-824.232,-498.736,8120,-2660,-2800
11.2576,12.6506,4.23072,0.455228,7.31655,3.71806,3.45282,5.10093,14.4912,8.23938,2.97318,7.22067,3.25999,-0.36007,8.20778,5.38547,-294.752,-819.352,-496.784,8260,-2100,-2800
6.85358,8.24249,2.30087,0.843849,4.68242,0.731563,2.96434,1.33984,7.91378,3.17725,-0.558354,3.03159,1.01248,0.247908,7.95117,4.13135,-293.776,-826.672,-501.176,8680,-2380,-2940
0.653389,2.12496,1.65483,1.13202,2.98816,-0.278749,3.34527,-0.0696823,0.738144,-1.6119,-1.43421,-2.19507,0.276919,-0.095803,7.68531,3.43067,-291.336,-818.864,-498.736,9380,-2240,-2940
3.57953,3.15808,3.28713,-0.0787535,0.965344,-2.26207,-1.86997,-6.09944,3.51928,3.34162,-0.762735,-1.87103,0.516644,2.54731,-0.47841,-1.25152,-289.872,-817.4,-496.296,9660,-3360,-2240
2.5622,-1.21206,1.71682,-4.06386,-4.72603,-3.83905,-6.68342,-8.96564,3.29831,2.32662,-1.53062,-3.38188,0.135439,0.0165062,-6.62726,-5.75503,-289.384,-820.328,-496.784,9520,-3080,-2380
-0.612599,-4.06379,0.0394188,-2.52517,-2.93583,-2.87797,-3.22745,-2.31576,-2.07653,-0.184563,-2.30078,-2.81737,1.66409,0.813511,-0.813954,-1.30544,-290.36,-819.84,-498.248,9940,-2380,-1820
-5.19165,3.42347,3.43154,9.91899,7.96619,0.762299,7.03662,6.33985,-7.74363,-4.02494,-4.11824,1.68602,2.76703,6.98127,10.4921,7.3764,-291.336,-816.424,-497.76,10360,-2520,-1400
-14.872,-10.7442,-5.18014,3.08033,0.172027,0.574981,4.34293,0.259591,-18.3065,-14.574,-4.43255,-7.34313,-0.638417,3.25873,4.91048,2.8223,-288.408,-817.888,-494.832,10780,-3080,-1260
-2.5192,-4.23673,-2.27889,1.53675,1.09157,1.34883,2.61191,2.06816,-2.97068,-3.88011,1.99508,-4.36435,-0.122757,2.75492,-0.205665,4.15673,-287.92,-819.84,-496.296,11200,-2800,-1260
5.73807,-3.46887,-5.20964,-3.45443,-8.48184,-2.52328,-2.65428,-1.63677,6.67534,-0.150947,3.73885,-3.63793,-3.33733,-0.645144,-6.64894,-2.08704,-289.872,-815.936,-488.488,11480,-2520,-700
3.63167,4.23279,2.66719,-0.184286,-2.12934,-1.84416,-3.22271,2.89498,5.00321,4.20023,1.46018,3.79579,-0.457496,1.41147,-8.3625,1.13586,-284.504,-820.816,-492.88,12180,-4060,-700
-3.17173,-7.70617,-2.99257,-12.454,-13.236,-6.46284,-11.6775,-3.31134,-0.097702,-3.7677,-0.648919,-4.03274,-3.42218,-6.7908,-15.6392,-6.51864,-288.408,-820.328,-493.856,13020,-3500,-700
-2.79177,-5.91392,-0.87036,-7.50322,-7.98508,-4.84849,-1.92002,0.208976,-0.21344,-2.07435,-1.3361,-3.50911,-2.79705,-6.54573,-1.14294,-4.19981,-285.968,-820.328,-491.416,12740,-3500,-280
-1.17853,-3.46197,-0.35885,-1.97105,-2.65694,-1.1217,2.00503,0.609587,1.88393,-0.813417,-1.93295,-2.18806,-1.73891,-2.08903,2.1148,-3.55837,-284.992,-817.888,-494.344,12460,-3500,-280
-3.88991,-12.3722,-3.89212,-15.0231,-9.50385,-4.75929,-8.01573,-4.02522,-2.83007,0.548592,-0.048745,-9.05534,-3.87149,-7.46572,-12.5784,-10.0603,-284.992,-817.4,-494.832,12180,-3360,-140
3.64395,-3.10373,0.159441,-5.57748,-3.37732,-1.61781,-2.14255,0.840522,5.42,6.48221,3.67919,-1.80391,-1.14367,-3.79056,-4.46241,-3.08904,-282.552,-813.984,-495.32,11760,-3220,0
8.70792,10.2417,3.68048,11.4617,7.46973,1.39009,5.28567,4.57879,10.5009,7.12861,3.32282,5.95041,0.255718,1.4903,8.15179,2.38987,-282.064,-818.376,-491.904,12040,-2940,0
4.9545,8.64637,-0.767452,11.1284,4.95326,2.06728,3.90417,1.35419,7.49053,1.48834,2.98667,4.57989,0.380759,0.226866,8.61325,-0.205928,-283.528,-818.864,-494.832,12040,-2940,140
7.97053,12.5915,1.3031,11.9341,9.21354,4.02519,4.03293,2.01384,7.14319,7.34746,3.8035,8.7226,3.7611,3.36527,10.4698,1.62394,-282.064,-819.352,-493.856,12320,-3500,280
5.75766,13.9806,3.16715,14.3182,9.57874,5.77641,6.17348,0.470635,2.82411,2.53854,2.6148,11.3539,4.82626,5.64197,11.6662,2.09645,-281.576,-815.936,-497.76,13020,-3640,420
-4.65468,10.887,6.94106,14.9681,13.6753,6.06782,7.27414,2.06986,-7.84866,-0.766386,0.711402,10.7387,5.17399,7.69284,9.60752,3.46081,-284.992,-816.912,-493.856,13440,-3780,700
-17.9856,-9.6909,-0.791525,-3.46282,0.681751,0.924225,-0.288941,1.1548,-24.3988,-9.10608,-3.0331,-4.0003,-0.592711,-0.311563,-3.77492,-1.85554,-280.6,-816.424,-495.808,14000,-4060,840
-7.77763,-11.7516,-3.91411,-8.19913,-6.19017,-1.72898,-2.85735,-2.35111,-12.22,-5.70856,-1.04101,-5.43409,-0.627848,-2.45376,-8.00745,-4.00307,-281.576,-816.912,-492.88,14000,-3920,840
-0.373759,-4.15961,0.274103,-5.09111,-1.52794,0.545175,-2.96545,-1.10359,-2.58039,0.893922,-1.29569,0.491642,0.313198,-2.23956,-10.8179,-0.654629,-278.16,-815.448,-493.856,13720,-4340,840
-6.04511,-11.1558,-8.74928,-9.5574,-9.23762,-0.635908,-4.73142,-4.50165,-7.25965,-5.37387,-6.53367,-4.79591,-4.65211,-4.08745,-10.7347,-2.73695,-282.064,-816.424,-495.808,13160,-4200,980
2.12783,4.71735,-0.525002,7.18787,5.50169,4.10682,6.3125,1.32973,4.89265,1.40064,-2.82657,5.62326,-0.0511662,5.20458,7.04175,7.59805,-278.16,-808.128,-490.928,12320,-3780,1260
5.00359,-0.671259,-1.4653,-2.9146,0.097621,0.824787,-1.58814,-4.39348,6.03458,1.81238,-0.716269,-0.0718133,-0.50039,2.00609,-2.04292,2.01401,-281.576,-818.376,-491.904,12740,-3080,560
5.0366,-2.93994,-1.42342,-6.32579,-2.79174,0.728684,-0.526487,-3.89315,4.91385,0.290885,0.572472,-3.24173,1.1632,0.0524251,-1.35805,3.21072,-285.48,-817.888,-493.856,12600,-2660,840
7.10131,1.46754,1.66029,-3.71631,-0.0674436,0.659998,2.58136,-0.990836,8.17634,3.45901,1.65412,-2.14386,1.55079,3.33459,4.07518,5.57147,-278.16,-815.448,-492.392,12600,-3500,980
3.14943,4.80264,3.67073,0.956341,0.799323,0.347825,7.69865,0.831138,6.43276,0.589672,0.373032,-0.684168,0.964552,3.26866,11.4144,7.8836,-284.504,-821.792,-493.368,12320,-3640,980
-2.75223,5.45054,7.197,4.79074,3.73895,-0.289674,8.86548,4.18049,0.0520872,1.09654,-1.44547,0.77508,0.0739892,2.4902,13.5818,11.9938,-282.552,-819.84,-493.368,12040,-3640,1120
1.99359,11.6235,10.2717,9.93957,8.50653,0.604915,7.92121,8.0258,5.05802,4.35241,1.61038,4.60449,2.67668,3.27523,15.0526,12.0642,-281.576,-821.792,-499.712,11200,-3220,1260
1.29554,3.41611,3.02498,1.64711,-1.10481,-2.6215,-0.900409,1.9337,3.42676,-2.14475,2.63362,0.442726,1.34111,-1.81462,6.45236,2.84597,-282.064,-822.28,-497.76,10360,-1820,840
-2.60966,0.190962,2.81598,-2.0194,-0.866874,-3.45697,-4.54302,3.02637,-4.41888,-2.39439,0.738979,-1.49659,1.70405,-4.93079,-0.407124,-0.795165,-280.6,-825.696,-498.736,9380,-1120,280
-2.11828,-5.9892,-2.22926,-2.44455,-6.17339,-2.7904,-6.73283,-1.43266,-5.35888,-6.79728,-0.778099,-4.39058,-0.128571,-5.64736,-6.56124,-6.81899,-284.016,-826.184,-495.32,8820,-560,280
1.44314,-0.232119,0.0333794,-2.07544,-1.81356,-0.423731,-11.3121,-0.372541,-2.30453,0.223978,1.41167,-0.603498,2.18325,-2.50011,-15.0908,-8.91221,-287.432,-824.72,-496.784,8120,-420,560
-3.86762,-7.33221,-5.54409,-12.1742,-9.82715,-0.34462,-20.6948,-3.40406,-6.71226,-2.84236,0.747284,-5.15566,0.5203,-3.43152,-29.6348,-17.3847,-283.528,-821.792,-494.832,7280,-700,1260
-8.12171,-11.8259,-7.4664,-18.0929,-12.3612,-3.29586,-20.8162,-1.67681,-9.50161,-3.23771,-2.40263,-10.0836,-2.45788,-5.11023,-27.8335,-17.9852,-288.408,-819.84,-491.416,7000,-980,1680
-9.79274,-9.43907,-6.31372,-9.06582,-5.54942,-1.0551,-7.35517,1.63998,-11.1815,-4.26582,-4.12808,-9.77642,-5.39188,-2.91905,-9.79964,-11.2838,-283.528,-817.4,-487.512,6440,-1120,1960
-5.55969,-3.92187,-5.84047,2.10133,-1.1468,0.91258,2.73235,0.273739,-4.06699,-3.21538,-2.37834,-5.60062,-6.28504,1.58297,2.62901,-6.67298,-284.992,-822.768,-486.048,7560,-1540,1820
4.66562,5.07198,-2.52629,9.2515,3.0783,2.07945,6.37705,-1.22317,9.92944,2.21849,1.87215,3.44076,-3.79509,4.56024,8.04354,-1.34837,-284.992,-820.816,-484.584,9100,-1820,1400
7.16746,3.1507,1.54095,4.39455,4.12091,-0.504769,4.00613,-1.83421,10.2894,6.84135,3.30184,4.30277,-1.58759,1.74559,1.51534,0.529543,-284.504,-817.888,-483.12,10080,-2520,1680
0.936981,-4.93595,-4.39729,-0.605013,-1.23595,-1.48179,4.08278,-3.83789,3.08109,-0.654586,-0.40953,-0.983939,-0.648555,-2.3753,1.55662,1.91834,-287.92,-817.4,-480.192,10220,-3780,1820
11.8584,10.6062,2.78907,12.2185,10.2247,0.81608,10.3835,-1.88953,16.7727,10.116,0.452693,9.7394,3.62737,2.41523,12.5643,7.16174,-284.992,-814.96,-481.168,9660,-4480,2380
11.0119,6.08177,1.84643,9.15177,5.2261,0.496593,9.83613,-5.59128,17.3186,8.60643,2.50206,7.35823,2.07697,-1.67124,12.1939,5.60534,-281.576,-821.792,-484.584,9380,-5460,2520
3.87358,-1.58495,-0.449892,1.87553,2.44145,1.16288,7.30271,-4.6231,3.83388,4.53059,2.48182,2.73503,0.555344,-1.39187,6.67274,6.16744,-286.456,-821.304,-480.192,10920,-4620,1260
0.682681,-2.83684,-0.17471,-0.174316,3.75476,1.52908,5.22219,0.651071,-2.58124,2.32951,1.36931,2.36541,2.43181,1.75353,2.59068,7.1041,-285.48,-823.744,-483.12,10920,-4900,1400
-2.7551,-2.63744,-0.641682,-1.26448,2.97567,-0.268829,1.55449,3.79965,-6.29986,-0.868599,-1.72152,3.49437,2.52484,0.702924,0.539302,6.92879,-285.968,-823.256,-484.584,11060,-5320,840
-5.7147,3.82983,3.55409,5.23436,7.75871,0.0642892,6.09234,8.69791,-8.46634,-1.06331,-1.35927,6.63467,3.77834,2.56666,8.57157,10.7509,-288.408,-823.744,-481.656,10920,-4760,560
-6.88955,-1.6059,0.710174,0.0984277,0.198048,-0.477263,4.88927,4.84423,-8.6639,-5.21144,-1.12946,1.48718,1.38577,2.99713,7.00214,5.18914,-288.408,-821.304,-483.608,10220,-4620,560
-0.0180563,5.77422,6.54512,2.86289,3.34418,1.49817,6.65862,7.0575,-0.41019,-0.435213,0.597216,4.58137,1.67726,3.19372,7.19116,5.51769,-288.408,-822.768,-483.12,9240,-4760,840
0.0851665,2.54623,3.74261,0.670885,-0.103764,1.82671,5.4603,5.9752,-1.82638,-1.71292,-0.955358,1.16053,-2.50843,3.62406,3.79728,3.1636,-288.896,-827.648,-482.144,8820,-5040,700
0.544657,4.86038,4.11303,5.02335,2.03461,3.8691,7.2504,7.34509,-3.62399,-3.01037,0.123482,1.50458,-1.25971,6.10804,6.93525,1.50039,-292.312,-829.6,-484.096,8260,-4900,700
2.1643,5.36729,3.8367,5.31493,0.153021,1.52569,2.80622,3.43388,-1.74533,-2.0094,-0.0106675,-0.677581,-2.46037,3.48531,3.58217,-3.79494,-291.336,-826.672,-481.168,7560,-5180,840
2.50771,4.97329,3.14956,0.351255,-2.16685,-0.140332,-4.8197,-4.45883,-0.350707,-2.85127,0.732549,-2.73245,-2.57583,-0.926026,-4.84602,-8.29357,-294.752,-829.112,-479.704,7560,-5600,840
0.649835,5.40884,4.61462,-3.64667,-0.489496,-0.022078,-7.91099,-7.4709,-0.8032,-1.1195,1.00787,-1.77085,0.287591,-3.02306,-7.02814,-4.61411,-292.312,-823.256,-479.216,7280,-5460,1260
-4.54182,-2.5944,-0.874494,-9.90925,-7.70515,-2.00167,-12.7747,-7.93174,-5.17822,-3.9823,-0.577249,-5.55159,-0.541302,-6.92169,-10.4036,-6.72136,-289.872,-825.208,-482.144,7280,-5320,980
-6.2229,-8.54687,-6.58452,-8.96621,-13.4865,-4.41011,-14.7155,-7.87448,-5.09273,-6.8919,-1.80226,-9.33873,-2.09446,-8.51197,-10.066,-9.11364,-287.92,-824.232,-479.704,7420,-4340,420
-3.50312,-2.90997,-3.3541,-3.94596,-7.3912,-4.2414,-10.1705,-2.66053,-3.21062,-0.248502,-2.56188,-6.29521,-1.38713,-4.54187,-4.43974,-5.74021,-285.968,-825.208,-481.168,6860,-4060,-280
-8.54164,-13.988,-13.7872,-10.3566,-15.0856,-5.66898,-12.1281,-8.26213,-10.1718,-7.02135,-3.67492,-12.1473,-5.64169,-6.89469,-7.24271,-12.3352,-286.456,-827.16,-481.656,6300,-3500,-840
-3.73536,-4.12782,-7.70411,-1.81673,-2.4934,-1.82881,-3.25455,-0.65085,-2.96459,-0.108427,-2.57312,-2.05192,-2.59999,-1.62981,-0.0699439,-1.8369,-284.992,-824.232,-478.728,5320,-2800,-1120
0.660714,-3.52115,-5.33305,-4.2504,-0.212512,-0.0704207,-4.06879,-0.986958,2.52506,0.99124,-1.1945,1.65021,-1.52991,-0.47303,-6.17943,-0.0253416,-284.504,-828.624,-478.728,5040,-3360,-1260
1.19778,-4.00698,-0.174556,-7.82043,2.07739,0.962647,-9.88546,-0.470147,3.57438,4.89426,1.28792,2.01531,1.30068,-0.375579,-18.2441,-0.0422884,-284.504,-826.184,-479.216,6020,-3500,-1820
4.66729,-1.22163,2.3918,-2.60185,1.39709,1.57974,-6.81246,-2.02074,9.09697,7.35105,3.56784,4.15894,2.99096,1.95258,-13.7619,1.15485,-284.992,-826.672,-478.24,7000,-3080,-2380
13.5443,8.22211,5.62189,5.37978,6.20616,2.17427,2.09207,-0.682784,20.6243,10.7799,5.29427,10.0773,4.45457,5.3885,-0.718708,4.52065,-285.968,-823.256,-476.776,7140,-3360,-2520
11.6925,8.34592,7.24576,8.77432,11.2021,4.68184,11.5084,3.74959,17.1634,9.22605,4.0765,8.30914,7.06411,4.8601,11.4337,8.98206,-287.432,-826.184,-474.824,6440,-3500,-2240
6.08797,2.84762,3.86305,6.74353,10.3899,4.22062,14.0385,5.12266,5.77328,6.2017,0.089695,2.90149,4.83076,3.80078,13.9815,10.0024,-282.064,-818.376,-476.288,5320,-3640,-1680
-2.49157,-2.09355,0.585198,3.95316,5.02966,3.71735,10.6253,4.05333,-4.71681,-3.16491,-1.94331,-0.336036,2.58234,3.68608,10.724,7.59611,-281.088,-815.936,-475.312,3920,-3360,-1260
-10.9065,-2.44386,3.53334,2.53333,5.35664,1.3454,6.27604,3.07061,-14.2963,-6.94679,-1.41578,-2.51088,2.1806,2.7145,4.26217,4.45919,-282.552,-819.84,-476.288,2240,-3360,-840
-19.4383,-11.3092,-2.36801,-6.45823,-3.81123,-2.14067,-0.136649,-1.66649,-20.4773,-14.151,-1.42886,-10.4176,-1.54224,-3.55982,-2.54295,-3.68904,-280.6,-819.352,-478.24,1540,-3220,-560
-7.86472,-1.89467,0.679667,-1.41089,-0.031873,-1.90305,2.75416,1.62208,-6.11862,-4.86028,-0.200487,-5.76604,0.331361,-1.12152,3.62079,-2.397,-275.232,-819.352,-476.288,560,-2520,-560
5.12795,4.81817,0.90598,3.96317,-0.481783,-0.900018,4.29285,2.23705,7.32086,1.04461,2.91448,0.292515,0.589842,1.40599,5.71559,-2.81834,-280.6,-820.816,-477.264,140,-2380,-280
8.96803,1.93514,0.140227,3.77225,-2.42797,0.319687,4.04377,1.98787,7.8344,5.04019,2.19829,0.36153,0.0803678,2.31658,4.74006,-2.47279,-277.184,-820.816,-476.776,-700,-2100,0
8.83418,4.9452,2.75904,8.0219,2.32107,0.931205,6.94018,4.08054,7.55006,8.22871,1.41164,4.01102,0.0155071,3.63395,7.83248,1.68063,-279.136,-819.84,-477.752,-1540,-1820,280
8.76904,5.53879,-1.07869,7.63052,-0.0516303,-0.749856,3.00234,-2.19719,10.1775,4.33083,0.943238,5.60486,-2.6663,1.95148,4.17096,-1.62289,-276.696,-822.28,-477.264,-1680,-2100,420
7.99876,10.9612,3.64948,10.4843,5.56675,1.5173,4.42986,1.42464,10.1337,4.35736,1.68779,8.39054,0.841912,2.15407,5.18714,3.21688,-277.672,-819.352,-480.192,-2240,-1820,1120
-2.13279,-2.40176,-2.81544,-1.86084,-3.78555,-1.14506,-1.83885,-0.501542,-2.08512,-1.80265,-2.86062,-2.43998,-4.4693,-4.35629,-2.89015,-0.606992,-276.696,-818.864,-474.336,-2660,-2240,1540
-5.1133,-2.73642,-6.57094,-2.93808,-3.85754,-0.827936,-2.20127,0.673726,-5.47026,-5.05561,-5.39343,-4.11429,-5.25326,-3.76794,-2.15922,0.0774651,-273.28,-816.424,-477.752,-2380,-2380,1680
-5.8142,-1.68569,-5.87895,-0.353049,-0.41937,0.150919,-0.583255,0.642594,-7.41682,-3.63518,-5.34854,-2.25602,-3.27006,-1.00265,2.15146,2.50064,-276.696,-820.816,-474.824,-1820,-1680,1400
-2.22591,2.87308,-1.21578,1.07718,1.83093,0.0172862,0.647044,2.90002,-5.22501,-1.70417,-2.87028,1.66021,-0.725012,-2.4905,4.00732,5.21464,-276.208,-821.304,-477.752,-980,-1680,1400
-2.16576,2.97655,0.32041,2.05297,1.14499,0.389462,0.821811,3.90461,-4.21218,-2.18072,-0.893441,2.23225,0.497957,-3.21703,4.29889,4.48136,-276.696,-819.352,-481.168,-560,-1540,1400
-4.2758,-3.93724,-3.58806,-4.68341,-4.72439,-0.772939,-3.58283,2.2273,-7.82917,-4.55391,-0.27193,-2.5969,-0.104387,-3.84462,-5.51617,-1.19781,-280.112,-816.424,-483.12,-420,-2100,1400
-4.27496,-9.27607,-6.95973,-8.61395,-9.69152,-1.68145,-7.86243,-1.99719,-7.93421,-7.45475,1.75822,-4.36716,-1.00544,-2.47644,-9.4226,-5.03266,-279.624,-815.448,-489.952,-560,-2100,1820
6.35076,6.21691,3.94402,1.1179,2.36706,-1.31099,-4.93237,-0.913866,5.59308,4.87947,4.26281,5.18523,2.03668,1.99481,-4.87601,-1.90211,-283.04,-817.888,-487.024,-420,-2100,2380
2.43159,-2.18866,1.46258,-6.21111,-5.41883,-4.85508,-10.2775,-7.63962,1.10505,-0.891949,3.29521,-0.36666,-1.94711,-1.10481,-12.582,-9.64592,-279.624,-815.936,-480.192,-560,-2240,2520
-0.477453,-1.96829,8.79527,-6.44536,-0.842463,-4.07205,-8.88501,-2.54968,-2.48025,2.23498,2.59577,0.0937922,-0.187176,0.461577,-13.0479,-5.01221,-283.04,-814.472,-479.704,-840,-2520,2800
-3.59584,-7.04817,5.59582,-10.0293,-5.25312,-5.18945,-10.1153,-5.71473,-5.54291,-1.43114,-0.422768,-3.91379,-2.0165,-1.55785,-14.5758,-6.32255,-282.552,-813.496,-480.68,-1260,-2660,2940
-1.51402,-0.286516,5.06769,-3.34835,1.03212,-0.77377,-1.79744,-1.10259,-1.11817,1.09573,-1.74061,1.71039,-0.179579,1.51716,-3.81091,-1.46147,-281.576,-817.4,-479.704,-1960,-2660,3080
-0.11368,-1.54304,0.890839,-5.52323,0.522114,1.88511,1.65371,-1.40321,1.23646,0.805926,-0.40252,0.429447,1.84519,0.735021,-2.78698,-2.31733,-283.528,-815.936,-480.68,-2240,-2660,2940
2.62958,-0.866053,-0.401332,-2.93692,2.3898,3.12402,5.00754,-4.37065,3.95719,2.74465,1.12476,0.663534,0.76993,1.06467,3.50938,-2.54771,-285.48,-818.864,-482.632,-3220,-2800,2940
7.66707,8.40061,2.86506,5.07369,8.62557,4.9494,7.83156,-2.01152,11.3043,6.63013,3.79636,6.0391,3.85576,4.40914,11.3074,1.80402,-284.992,-814.96,-484.096,-3360,-2520,2660
4.73272,4.94328,1.33316,0.552612,5.77189,3.50975,2.78495,-0.830102,6.91047,6.58693,1.68244,1.03917,2.0752,2.52668,6.27632,0.915476,-286.944,-813.008,-485.56,-3500,-2520,2660
-0.0118592,0.763046,-2.51186,2.33113,2.34762,5.07049,3.72506,1.2947,3.49195,-0.205854,-1.99231,-1.01225,0.30369,0.840573,8.52577,3.58291,-286.456,-816.912,-483.608,-3640,-2380,2380
-2.65178,2.06586,-0.920991,3.86637,3.66135,4.19812,4.18102,2.29339,-0.368899,1.55525,-3.5504,-0.756932,0.889156,1.95453,10.0788,6.66773,-285.48,-821.304,-486.536,-3920,-2380,2100
-1.59444,0.764903,-2.40114,5.09795,0.126559,2.46512,3.76545,1.25691,-0.957832,1.2052,-0.123331,0.437453,2.36721,0.636713,9.35213,5.62207,-288.408,-818.376,-484.096,-4340,-2240,1820
0.798092,2.27228,-0.911827,7.71207,0.972498,1.34643,4.20874,3.03152,0.854998,2.4703,1.27925,2.56054,4.42467,-1.93275,5.60393,6.91867,-285.48,-816.424,-483.608,-4200,-2380,1540
-3.54017,-2.33514,-2.72576,5.72725,-2.91453,-1.21021,0.504277,-1.10912,-2.69376,-3.06441,-0.816608,-1.62816,1.09082,-3.78939,0.8556,2.38347,-285.48,-814.472,-485.56,-4200,-2380,1260
-7.11296,-5.73447,-3.46177,1.00518,-3.6687,-1.80445,-4.6567,-1.54787,-7.31611,-5.53673,-2.00459,-5.7466,-1.09327,-2.69332,-5.55738,-0.730767,-284.504,-816.912,-485.072,-4900,-2240,980
-5.78929,-4.53968,-1.75935,-1.48847,-2.20962,-2.21921,-3.04762,2.81264,-6.6013,-4.03495,-3.58382,-6.51757,-2.38618,-0.718221,-7.1347,-0.420213,-286.456,-813.984,-483.12,-4900,-2380,700
-5.98507,-12.0144,-6.58715,-8.21645,-9.66615,-3.43821,-6.37775,-0.18355,-6.9842,-8.96293,-4.54635,-9.31476,-5.2779,-3.7722,-10.5768,-5.90271,-288.408,-814.96,-483.608,-5320,-2520,840
-4.74381,-5.59872,-2.78457,-5.71749,-3.43361,-1.58289,-4.36978,0.731268,-7.2911,-5.28867,-1.49298,-2.09669,-1.19771,-0.745163,-6.70447,-3.15834,-285.968,-815.936,-484.584,-6160,-2380,700
-2.14227,-1.57203,-2.10225,-0.89886,-0.148357,-2.21251,-1.62081,-0.895757,-3.15263,-3.25198,0.449955,1.35259,-1.32357,1.86569,-0.676934,-2.65663,-283.528,-805.688,-484.584,-6440,-2660,840
3.26935,4.15103,0.931508,0.629546,2.36528,-0.582089,1.28756,2.08307,4.49985,-1.72646,1.47377,3.66457,-0.497727,1.30177,0.798992,-0.179624,-285.968,-807.64,-487.024,-6720,-2660,980
5.10688,2.42342,1.71238,-0.509163,0.62971,-1.22492,1.47668,0.766249,5.89283,1.62196,2.06427,2.65397,-1.25702,3.9529,-0.20498,0.868447,-285.48,-807.64,-486.048,-7560,-2100,1120
1.38583,3.40907,2.46297,4.49487,2.28597,-0.185007,4.55599,3.56109,2.10911,1.10979,1.43171,1.81534,0.598094,3.34317,4.48347,6.64997,-287.92,-810.568,-484.584,-8820,-1680,1400
-4.70643,-3.58897,-4.45147,3.13693,-2.42707,-3.34469,3.44629,1.55193,-3.95171,-5.2651,-1.00218,-3.37839,-1.41639,1.14894,5.73518,4.28747,-282.064,-806.176,-483.12,-9380,-2520,1680
2.35257,0.463447,-2.13961,1.51056,-0.800186,-4.37991,-0.0016607,0.313248,4.13355,1.03831,0.808061,-1.26728,-1.18182,-1.4587,3.68713,-0.425107,-288.896,-820.328,-483.12,-10640,-1120,1820
10.3553,5.70941,1.26248,1.96572,-0.546565,-1.40323,-1.28567,-1.97266,12.094,4.4918,3.45968,2.90698,1.35154,-1.94554,1.44598,-2.51299,-288.896,-821.304,-488,-12040,-1680,2240
8.10487,10.4138,5.87928,10.9084,9.79394,2.95572,7.99848,5.88311,8.21072,7.35215,1.12943,5.98215,1.03271,3.32536,10.3531,5.16635,-286.456,-820.816,-489.464,-12180,-2100,2380
2.87413,-0.892889,0.760762,1.72458,0.592767,1.88472,1.98713,-1.06955,3.48063,2.33065,0.315461,-0.379157,-3.17648,0.00965043,2.65291,-3.62204,-284.016,-823.256,-492.88,-11900,-2100,2240
10.036,9.32539,8.76279,4.35005,7.59604,4.45203,2.96352,1.67524,10.5779,12.4089,3.91102,7.02785,1.42542,2.13163,0.972124,-1.37394,-284.992,-820.816,-488.976,-11900,-1960,2240
4.16332,5.22501,3.59144,2.9227,3.78043,3.72295,3.15835,0.671094,3.30108,5.55752,2.11704,3.89339,2.86759,-0.211725,-0.431927,-2.06084,-284.992,-822.28,-488.976,-12320,-1120,1820
2.86318,4.94609,1.35704,3.59332,3.02816,3.06003,4.04802,1.70705,1.69841,4.62386,1.44287,5.0898,3.73082,-0.561993,0.309263,0.0619988,-288.408,-827.16,-489.952,-11900,-280,1260
5.08458,8.28296,4.4716,3.16091,3.79296,3.23149,4.39721,1.10694,4.00788,6.49418,2.14499,8.15883,4.08092,0.843902,-0.619742,0.666512,-285.48,-819.84,-485.072,-11620,-420,980
1.11944,3.11766,3.9555,-2.43282,-1.5735,2.1068,-0.237123,-2.33553,-1.98258,1.19825,3.02268,4.46046,1.30544,-0.0643105,-5.30218,-2.82538,-288.896,-820.328,-481.656,-10920,-980,840
-2.12586,-0.0189249,3.25794,-4.53337,-2.36579,1.75312,-1.72499,-2.48192,-6.39369,-1.26662,1.53417,2.4592,0.408017,-0.517995,-3.77614,-1.07362,-285.968,-820.328,-481.168,-10640,-1960,980
-7.27317,-8.07237,0.67595,-12.598,-7.33372,-0.559507,-7.39614,-3.91335,-11.0261,-2.41913,-0.237357,-4.60752,-1.63728,-4.28912,-9.49129,-3.43579,-287.432,-823.744,-480.68,-10780,-2380,980
-6.06693,-7.37797,-1.8251,-10.2324,-6.17877,0.279276,-4.1032,-1.87536,-6.67399,-4.85305,-0.620989,-5.57775,-0.21454,-4.53429,-4.293,-2.10914,-286.456,-832.04,-478.728,-11900,-1400,280
1.58391,1.8908,1.85741,-0.045515,3.74175,1.07077,2.18835,1.14023,4.94735,0.308627,-1.41561,-1.08841,2.86436,2.22663,5.40283,2.21267,-284.504,-828.624,-479.216,-13300,-700,420
0.933471,-2.19575,-1.79176,0.152112,1.16168,-0.278332,1.90133,0.368128,4.10019,-1.93253,-1.57616,-4.39964,0.576504,1.57256,7.37697,3.00927,-283.528,-823.256,-479.704,-13720,-560,140
3.19098,3.61675,1.90889,7.34104,9.03963,0.435123,4.98018,3.88605,6.05617,3.02232,-0.641362,1.36888,1.93185,4.58473,14.5342,8.55314,-286.456,-820.328,-479.216,-13160,-700,-280
-0.233488,-1.89197,-3.58372,2.55651,0.287031,-2.61063,-3.43872,-0.781073,0.424327,-2.21966,-1.52486,-1.78333,-2.2131,1.9605,3.99038,0.449358,-283.04,-822.28,-481.656,-13300,-1260,-280
-7.28835,-13.9435,-8.47101,-11.4836,-10.7584,-5.89398,-13.6024,-5.83357,-11.8281,-9.2038,-4.94872,-9.019,-5.34674,-2.31181,-13.4367,-7.95955,-288.408,-829.112,-479.216,-14840,-420,-560
-10.7513,-10.977,-4.08593,-10.7382,-6.01045,-3.45884,-10.9121,-3.31611,-16.2029,-10.1343,-5.26012,-9.28873,-2.69181,-2.91641,-15.9421,-4.29393,-287.432,-829.112,-483.12,-15400,-700,-420
-16.7725,-17.1186,-9.86202,-13.5888,-12.5932,-5.92323,-11.9899,-8.1201,-19.8583,-17.2447,-8.57504,-15.7699,-5.98404,-7.28173,-19.7476,-8.08692,-284.016,-823.744,-482.144,-15820,-1120,-280
-8.95274,1.2684,-0.189542,4.39518,2.90922,-0.879359,1.61003,1.40794,-5.23717,-6.65418,-7.19329,-2.40499,-0.332944,0.47109,-1.04219,5.29016,-287.432,-819.352,-483.12,-15400,-1540,-560
-10.6131,-2.6024,-4.83754,4.55604,0.288006,-2.05721,1.73645,0.741133,-7.47145,-5.90968,-6.88645,-2.04049,-1.45653,2.75079,1.24041,4.87458,-291.336,-821.304,-486.048,-15400,-1540,-700
-9.77341,-6.73241,-8.49929,-3.11573,-6.93168,-5.0972,-4.37696,-0.711781,-6.67546,-5.05123,-4.80135,-3.32598,-3.48354,-2.28296,-4.44315,-1.91803,-288.408,-822.768,-487.024,-16520,-1680,-560
-7.70229,-10.9399,-9.42579,-10.6694,-11.1034,-6.6663,-9.9657,-4.71848,-7.52797,-3.40222,-3.09083,-6.98659,-5.61606,-5.25503,-10.4336,-9.51918,-288.408,-821.792,-488,-17080,-1960,-560
-8.49887,-12.8963,-8.24772,-14.1304,-9.50284,-3.99274,-10.4703,-2.09862,-10.4294,-4.73165,-1.13611,-8.27852,-3.85884,-6.0261,-14.3117,-9.74099,-286.456,-820.328,-491.904,-17500,-1820,-420
-1.67601,-5.08296,-4.14318,-9.91364,-4.39966,-0.644485,-7.85666,2.0801,-2.07716,1.37853,3.21417,-3.59973,-0.277023,-6.05845,-11.1004,-4.91142,-286.456,-816.912,-491.904,-16800,-2240,-560
7.55336,8.12223,2.97483,4.35699,3.57619,4.22304,2.5337,5.77085,9.84404,7.82889,6.68632,5.28634,1.81373,-2.56211,4.73028,2.20127,-286.456,-818.864,-488.488,-16240,-2380,-560
14.4634,17.271,7.0767,20.137,10.8499,7.78278,16.2126,5.33788,18.2811,9.01606,8.84529,13.8056,3.93895,4.98377,26.6115,7.77366,-285.48,-819.84,-491.416,-15820,-2800,-280
19.2643,19.751,13.1585,20.7908,16.8952,5.86075,17.1974,4.76058,18.8759,16.0851,11.2617,17.0948,5.68653,9.13821,27.1744,8.76214,-283.04,-815.936,-491.416,-15400,-2940,-280
19.2228,17.1481,12.944,16.7681,12.8945,4.9731,14.6442,2.10456,19.6472,12.0269,8.72786,15.4688,5.3027,8.80967,20.724,6.74139,-277.672,-812.032,-494.832,-14980,-3080,-280
17.7539,22.6932,15.8279,23.1212,20.7817,7.67042,22.8534,8.40834,18.8102,12.1855,5.70418,18.9732,7.23488,10.2892,26.3135,13.9269,-284.504,-821.792,-491.416,-14840,-980,-700
12.1684,9.77831,7.50317,10.2854,7.21483,5.22869,12.8057,1.67148,9.83533,6.76394,5.34786,9.90974,4.44578,4.44107,12.9315,6.68401,-283.04,-827.16,-494.344,-15820,-140,-840
5.3831,2.28331,4.82037,-0.484228,-0.16741,3.09714,4.75789,-1.52225,1.89197,3.73862,4.60577,3.93084,2.90782,1.97328,1.67502,2.89325,-286.456,-825.696,-495.32,-16660,0,-280
6.70406,2.06262,4.0103,-0.252611,0.107574,3.65065,4.98529,-2.18223,5.69684,5.33575,4.74605,4.73153,1.86403,2.21092,1.02437,3.34121,-283.528,-821.792,-497.272,-16940,840,-280
11.4299,2.53298,3.18864,-1.87034,-0.89288,1.83955,-0.312084,-2.91895,10.9522,8.99008,3.96018,4.35123,2.46555,1.05256,-7.95072,0.952961,-288.408,-822.768,-497.272,-17360,1260,0
6.54639,-0.118693,-0.528297,-4.23679,-4.20717,-0.971309,-5.90571,-3.65237,7.86888,5.77656,2.54441,0.1441,1.94219,-1.36674,-13.3009,-3.084,-285.968,-818.864,-497.76,-17640,1120,420
-4.47357,-6.33208,-4.91531,-7.35621,-7.1237,-3.5256,-8.1346,-2.01838,-2.29133,-1.65158,-2.11484,-7.68894,-2.62164,-3.35521,-13.64,-4.7543,-289.384,-823.744,-497.272,-17780,1540,420
-7.43817,-3.12053,-5.24502,-3.50497,-4.47557,-1.41771,-4.96159,1.70612,-3.2657,-7.83896,-3.85801,-7.05687,-1.08297,-5.33577,-8.00932,-1.02655,-287.92,-827.648,-497.76,-18060,2240,700
-1.46876,5.82634,1.33566,3.06061,4.40794,0.926772,-3.65912,5.00513,1.23916,0.525145,-3.76329,-1.11811,3.3406,0.138226,-3.83064,3.06562,-288.896,-826.184,-493.856,-17500,2240,700
-10.1935,-4.1012,-3.08896,-3.67531,-2.91308,-1.12088,-10.5805,-0.801273,-8.03429,-7.67437,-7.50578,-8.27928,-1.12824,-1.75686,-11.8827,-4.80194,-290.36,-821.792,-494.832,-17080,1820,840
-19.0722,-13.1166,-6.39306,-11.9941,-8.51854,-4.7649,-14.7659,-4.4039,-18.1777,-13.1546,-11.8343,-15.2075,-6.18678,-5.89918,-16.6519,-11.6586,-287.92,-821.792,-492.88,-16380,1120,1120
-17.682,-11.6193,-5.80662,-7.71848,-4.52112,-4.80816,-5.05585,0.0529908,-18.4518,-11.833,-10.6286,-13.7368,-6.82651,-4.19193,-4.53207,-6.62964,-292.312,-827.648,-493.368,-15960,700,1120
-6.11943,0.519706,-1.18069,3.34953,0.983332,-2.79823,1.60521,0.580529,-4.21112,-3.65754,-3.62039,-2.52898,-2.93314,0.318873,7.35481,-1.94658,-289.872,-827.648,-494.832,-15960,560,1260
-12.6708,-16.8274,-6.90207,-15.195,-10.0757,-7.81002,-9.51304,-2.31039,-18.0841,-7.26482,-2.47652,-10.5605,-5.32186,-5.39457,-8.13109,-7.84511,-288.896,-822.28,-495.808,-16240,700,1260
-15.8648,-26.788,-13.2136,-20.6867,-16.1309,-8.39347,-10.5884,-5.17592,-24.7867,-13.0121,-5.63265,-15.9063,-8.23329,-6.75136,-9.08515,-9.72268,-293.776,-824.232,-499.712,-15820,700,1400
1.08671,5.60593,-0.127377,8.47072,6.74352,-0.152406,9.21228,4.01423,0.944177,-0.976131,-2.67282,6.71318,-0.755703,5.24121,18.0951,5.45061,-294.752,-825.208,-499.224,-15680,1120,1400
3.20692,6.13794,0.219646,6.91113,4.44251,-0.152375,6.89129,-1.55161,3.69644,-1.13975,-1.46925,7.12105,-1.41952,5.04132,12.3366,2.41773,-294.752,-826.184,-501.664,-15540,1120,1540
2.83653,2.04685,0.592581,0.0701568,1.24536,0.0893565,1.71197,-2.82768,1.56081,-0.750385,2.62427,5.68053,1.06871,0.611172,0.386014,0.982189,-295.728,-823.744,-502.64,-14840,1120,1400
6.3613,1.32379,-1.4958,-3.77755,0.617628,-0.346304,-2.0603,-3.55245,4.61985,3.23824,5.52052,4.76035,3.22585,0.939229,-7.35717,0.404613,-296.704,-824.72,-506.544,-14420,1680,1120
8.89515,1.8237,-1.80709,-3.39118,-1.67596,2.0664,-2.06045,-3.45486,9.19892,3.17392,5.80649,3.38622,1.96458,0.599547,-7.12326,-0.138768,-297.192,-824.232,-504.104,-13300,1680,840
3.23335,-2.81839,-0.879398,-6.69755,-4.73421,2.27833,-5.30813,-5.10008,4.96994,0.231149,7.16559,-0.906299,0.309484,-0.869773,-8.11452,-3.51871,-297.68,-829.6,-506.056,-12740,1960,840
-2.40216,1.10365,4.43496,5.20857,3.89092,5.01365,4.66565,1.20497,-1.56743,0.8148,3.05193,0.335121,1.32983,2.53738,5.55655,2.50159,-301.096,-824.232,-504.592,-12040,1820,700
-7.08299,0.833907,3.98011,18.2715,8.5522,8.32228,19.2009,8.428,-8.05842,-5.57093,-5.60092,1.15305,0.34055,5.71512,26.4269,13.4678,-299.632,-825.696,-502.64,-10780,1820,560
1.05556,5.42956,8.74846,12.686,8.31084,6.03797,9.98362,8.82751,-2.6497,3.73428,-3.54408,2.55417,2.17691,2.54059,13.5121,12.0844,-300.12,-819.84,-505.568,-10080,2240,420
11.0488,3.87297,4.82794,1.03153,-1.57318,2.76343,-2.11283,0.366735,9.13511,6.59732,1.87607,3.00846,1.86349,-3.34164,-4.59897,0.713042,-300.608,-819.84,-508.496,-9660,2520,0
19.5585,18.7708,11.356,10.7066,9.29218,7.02613,6.5071,5.28279,21.3738,15.3267,5.86077,12.866,7.73372,2.9485,4.16464,5.78218,-301.584,-818.864,-504.592,-9380,3500,-280
14.6858,13.4675,5.62825,6.62438,3.22686,2.4012,2.58279,-0.412895,16.7813,12.0978,7.07119,7.20789,7.33565,-0.785729,0.47825,-0.113932,-297.192,-817.888,-503.616,-9240,3780,-700
2.96808,5.36347,1.16833,-0.200747,-0.386239,-1.82791,-3.75536,-2.96009,6.02387,6.28083,2.85943,1.22329,5.6948,-3.36349,-4.7836,-2.78956,-296.704,-815.936,-503.616,-9100,4340,-1120
-1.32393,-2.30655,-0.977383,-8.65086,-5.50038,-4.30596,-13.1047,-3.85975,1.92167,3.05908,2.15826,-2.70211,3.63425,-5.08976,-15.5286,-7.80196,-297.192,-816.424,-505.568,-9240,4620,-1400
-2.40752,-8.88013,-5.20694,-14.8243,-10.752,-6.7118,-17.1452,-5.02094,-0.773215,0.211386,1.58874,-6.84302,-1.83346,-5.53965,-20.2724,-10.8863,-294.264,-816.424,-501.176,-9100,4900,-1540
-3.24215,-7.02519,-4.74015,-10.0714,-6.73949,-4.31608,-10.3408,-0.990005,0.338751,-0.137775,0.606681,-4.65175,-3.53644,-2.33924,-11.1718,-5.662,-293.288,-815.936,-501.664,-9380,5180,-1820
-8.79888,-9.8172,-6.82969,-2.37935,-2.79999,-3.98011,0.821278,4.6832,-7.89295,-6.40686,-5.29333,-4.87962,-6.71289,2.06116,4.07302,0.667983,-293.776,-817.888,-501.176,-9380,5460,-1960
-11.0863,-6.57211,-8.09475,8.74543,1.56655,-3.42834,10.1478,8.33277,-10.3419,-12.6185,-7.11807,-1.83574,-7.29216,3.07945,19.082,6.481,-293.776,-818.864,-500.688,-9800,5460,-1960
-6.80622,-2.65398,-2.59326,5.22435,3.53716,-4.37099,4.43259,5.69694,-8.88155,-4.03525,-2.34172,0.196564,-5.35026,1.65991,10.0655,3.87793,-290.848,-817.888,-503.128,-10220,5880,-1960
-8.51311,-1.50652,-2.16343,7.53821,4.67713,-1.63613,9.267,3.30917,-10.2463,-7.22521,-1.97923,0.900889,-6.36529,2.38485,15.7953,4.17502,-292.312,-819.84,-506.544,-10360,6160,-2240
-6.81151,6.68748,4.00292,11.4657,12.0698,2.24017,15.7471,4.86844,-5.67143,-5.13116,-0.897429,4.86432,-4.48989,6.14164,21.6736,8.28398,-288.408,-817.4,-507.032,-10360,6300,-2240
-6.18632,2.70047,2.62841,1.54894,7.22255,2.62474,11.7013,4.55488,-8.17201,-4.82257,-0.773893,1.55019,-2.03433,3.26056,10.5357,4.79811,-290.36,-819.352,-510.448,-10220,6300,-2240
5.11745,-0.424046,1.66814,-11.3815,-2.37152,-0.259401,-5.57166,-4.93738,3.43614,3.49852,3.33606,-0.286422,1.06723,-1.86612,-13.5295,-8.92049,-286.944,-817.888,-512.888,-9660,6020,-2240
11.794,-0.0483066,1.04428,-17.3975,-6.90932,-0.132183,-15.0593,-7.92771,9.8892,8.32065,4.41641,-2.14313,2.18158,-3.76068,-27.0436,-14.118,-287.92,-814.96,-507.52,-9240,5600,-2240
15.2857,9.37111,0.44378,-4.06053,-2.52723,0.981173,-7.57861,-5.41533,16.2086,6.83335,2.44311,2.251,2.11663,-1.04688,-14.3969,-8.53563,-285.968,-814.96,-508.496,-8540,5180,-2240
13.4348,17.5766,6.65927,6.8524,5.86085,4.68092,1.47482,0.0941179,16.6021,8.97364,2.8978,8.27887,6.90983,3.10965,-2.31685,1.53645,-283.04,-811.056,-511.424,-8120,5180,-2380
0.808348,-2.33873,-1.78328,-7.12922,-7.04829,1.97536,-6.53375,-6.44849,-2.42772,-0.905695,0.355977,-1.992,4.1801,0.725806,-13.6168,-3.36475,-283.04,-811.544,-508.496,-7560,4760,-2380
3.95982,0.229109,4.97286,-6.17675,-4.0099,3.22239,-9.68918,-8.06378,-1.11629,2.49928,4.80146,3.71479,7.96233,4.33414,-16.7335,-2.19925,-282.552,-807.64,-502.64,-7560,4200,-2660
-6.6431,-8.79333,3.65338,-6.29416,-2.81713,1.47536,-5.38319,-3.62948,-11.8722,-2.32463,-0.270459,-3.28727,5.04432,1.20266,-6.50212,2.43781,-280.6,-809.592,-505.08,-7420,3920,-2380
-9.21925,-8.4831,-3.86219,-1.02127,-3.69051,-2.37639,-0.248649,-2.75358,-9.2166,-8.16844,-5.76121,-6.84831,-1.34778,-3.70934,2.19153,2.39525,-279.136,-809.592,-503.616,-7700,3360,-2520
-19.4051,-11.3401,-12.7697,-0.542569,-4.62201,-2.79011,3.48101,-0.099404,-15.8044,-18.0214,-16.3499,-12.2525,-7.15515,-4.99174,6.73045,5.91975,-278.16,-813.008,-502.64,-8260,3080,-2660
-28.995,-22.918,-15.8169,-9.75366,-10.8445,-4.00254,-1.98654,1.56694,-30.259,-21.1473,-19.5489,-21.6663,-9.58934,-9.17453,1.6207,6.07359,-278.648,-813.984,-503.616,-8680,3220,-2800
-6.3565,-8.16764,-5.43544,-1.8216,-6.95328,-2.35174,-6.74042,-5.41204,-4.34147,-2.56862,-1.35144,-7.75388,-0.626214,-9.04319,-0.509011,-0.679852,-278.648,-813.008,-503.128,-9100,2380,-2660
4.4494,-1.24215,-1.41051,-1.34748,-3.51323,-2.91261,-8.01417,-6.88484,8.23789,6.95791,3.75033,-3.45237,0.650797,-9.02117,-5.51284,-6.03004,-277.672,-814.472,-505.568,-9240,2520,-2380
9.9611,-6.0354,-5.56832,1.5602,-5.88037,-2.07866,-0.392802,-7.85343,10.9696,5.33694,4.98692,-3.91597,-2.06663,-4.545,3.21688,-4.64092,-280.112,-818.376,-506.056,-9940,2520,-2380
14.3831,5.78657,7.22191,11.8517,10.9087,2.99118,12.7326,2.46564,11.8879,16.4439,9.46716,8.32342,4.72963,4.30244,17.0861,9.91863,-278.648,-820.816,-507.52,-10500,2380,-2100
18.1101,11.209,11.382,18.1271,15.6174,2.84623,18.6924,3.55363,17.1344,17.8597,12.4329,14.6627,4.99735,7.7464,24.8233,11.6368,-278.16,-823.744,-508.008,-10920,2660,-1960
15.8091,14.8059,13.6861,21.3342,18.5895,3.57822,22.5056,8.19917,18.4104,14.8233,9.62432,15.494,3.26732,11.3126,28.1058,13.6883,-278.648,-824.232,-508.496,-11340,2660,-1540
6.07609,3.56098,5.08266,5.38802,4.20038,2.21461,8.23042,4.51159,8.97962,3.47243,4.174,5.62729,0.17222,6.40763,8.32218,2.33865,-279.136,-826.672,-510.448,-11480,3080,-1260
10.8274,13.9958,6.70101,9.25814,7.3858,3.41954,10.0331,11.6431,16.6987,4.03179,1.91637,10.5867,2.28167,8.84045,7.68743,4.06071,-280.6,-829.6,-510.936,-11760,3220,-700
0.0529245,19.0858,5.09628,16.0386,12.7545,5.17703,14.6309,15.8212,5.71958,-5.48001,-7.11849,11.0413,0.23189,10.1751,16.102,6.36332,-281.088,-833.016,-512.4,-12040,2940,-280
-7.70076,17.5438,0.602292,14.7354,10.371,1.60328,3.16827,10.2143,-2.09119,-13.3274,-11.9018,9.49417,-2.10034,8.06382,7.15921,-2.9115,-279.624,-827.648,-509.472,-12460,2520,420
-1.12458,8.28777,2.76086,-8.55605,-5.13994,-2.46795,-22.447,-1.04658,-1.31293,-4.21727,0.723441,8.83397,2.16375,-2.38912,-30.2104,-18.1124,-281.088,-830.088,-513.376,-12880,1540,1400
3.03868,-0.0896826,5.63006,-14.4655,-6.44164,-1.22137,-23.1855,-1.42617,-2.46439,5.9746,5.36035,5.35535,2.81843,-3.37832,-30.8347,-16.2701,-282.064,-828.136,-518.744,-12600,1260,1960
1.52536,-2.10547,1.04703,-4.31769,-5.88557,2.18702,-7.97459,2.32179,-3.97294,1.39103,1.42631,0.922698,0.83957,-1.41076,-7.31306,-8.29593,-279.136,-835.944,-520.696,-12040,140,2940
14.925,9.82685,4.84667,6.56587,0.859275,3.36111,1.19726,5.26765,15.05,11.5008,5.0145,7.4674,2.06345,-0.0655978,5.02808,-2.50011,-284.504,-845.216,-520.208,-11480,-420,3220
11.5835,-2.15263,-1.05296,-5.77307,-7.42869,-2.2581,-7.82983,-3.2426,11.674,12.3501,8.00322,-3.29845,-1.24036,-8.27058,-5.4378,-7.54419,-290.848,-848.632,-527.04,-11340,-700,4340
2.53193,-6.43503,-2.91497,-6.04496,-8.88765,-4.47149,-7.07016,-13.5819,1.30144,6.36687,6.89189,-7.26261,-2.85962,-8.49368,-1.22841,-8.67345,-292.8,-847.656,-528.992,-12320,-1400,5600
-6.27308,-5.01061,2.52898,3.06596,2.64774,0.433193,11.2508,-2.45568,-11.7718,1.25577,3.28249,-3.50544,-2.25812,1.2675,14.7476,8.23415,-290.848,-834.48,-529.968,-13580,-2100,6440
-17.3778,-9.51017,0.00275911,2.24611,3.5745,1.9006,16.5486,-1.47256,-25.2581,-8.61879,-0.891537,-6.12452,-3.89391,3.04461,17.7983,15.1175,-289.872,-833.504,-526.552,-14420,-2100,7280
-24.7886,-6.13144,-2.38284,2.51845,8.26189,4.38195,15.2961,3.0556,-29.1734,-17.0469,-8.217,-4.06194,-3.21287,6.50032,8.70425,18.8921,-291.824,-837.896,-525.088,-15680,-980,7700
-43.6019,-39.2684,-24.2382,-32.835,-19.0626,-4.34981,-14.1509,-6.91037,-52.6962,-33.2788,-16.573,-29.8718,-11.7557,-6.68383,-27.8437,-4.22448,-294.264,-832.528,-521.672,-17920,-420,9380
-71.3044,-63.0609,-44.0146,-46.553,-32.5933,-12.6735,-20.7885,-6.06355,-72.7782,-57.3144,-35.707,-54.1459,-22.9203,-21.007,-24.9908,-11.2209,-299.632,-824.232,-516.792,-19740,0,11060
-50.8561,-53.7985,-36.2117,-44.1282,-30.7823,-11.8828,-24.0668,-5.65251,-51.9601,-39.3362,-23.9761,-45.2025,-15.4766,-20.0825,-27.3811,-13.3858,-287.432,-817.4,-510.936,-22680,-280,12600
12.7767,4.1155,-2.31451,-4.47439,-1.433,-1.01296,-3.85905,2.77813,20.5409,6.49195,2.75569,-0.93701,3.47529,-0.915807,-2.06854,0.0479304,-295.728,-823.256,-508.008,-24080,140,13440
39.7726,27.5413,15.1988,19.3638,15.5031,2.69551,13.9313,8.05716,49.1517,24.457,11.874,18.7529,11.0886,10.3376,20.8264,11.2048,-289.872,-792.024,-500.688,-27440,840,15120
49.1491,43.2797,24.9592,31.0349,27.0494,4.33972,11.1695,4.96088,55.0036,30.8648,15.3613,31.9827,15.489,12.7942,16.217,10.7904,-286.456,-795.44,-494.832,-29820,-280,15680
40.4157,36.3887,18.8196,5.77058,9.74165,0.384278,-22.7907,-8.79694,48.2696,21.3087,10.1265,27.7008,12.4513,3.92708,-37.4797,-9.24399,-289.384,-804.712,-500.688,-29260,1680,14000
24.5541,3.58347,11.7919,-37.4859,-14.9817,-4.04735,-47.2692,-12.8289,22.3953,20.4109,12.2837,7.54444,9.99989,-4.57025,-76.8681,-20.9701,-283.04,-796.904,-493.368,-30100,3780,13300
8.88669,-13.4439,1.99263,-28.2361,-20.4269,-6.68639,-29.887,-19.0605,1.33792,10.8367,12.7259,-5.26262,5.95048,-8.58332,-36.8691,-21.2433,-287.432,-805.2,-498.248,-28980,4200,11900
19.0769,10.8673,10.4411,7.7812,-1.0336,-4.92975,2.38703,-11.0603,16.9816,19.5407,15.6764,6.12244,9.07412,-1.97813,11.1994,-6.18034,-299.144,-808.616,-497.76,-28980,6020,11200
16.7521,20.8024,7.94525,36.6132,16.0034,3.98817,36.1982,8.64722,18.5216,12.1941,6.40785,13.7528,4.83082,9.75926,48.1448,19.9729,-299.144,-798.368,-497.272,-32340,6300,12600
6.0384,20.0919,3.09256,41.6608,21.5815,7.17391,42.2512,16.4803,10.2781,5.42993,-0.191284,13.3638,2.19079,10.6899,54.6131,28.079,-295.24,-797.392,-501.664,-35840,4480,14840
6.68041,19.1362,-0.0127455,35.1504,15.6184,5.28589,30.559,10.0373,12.4338,5.90141,0.625625,11.0691,0.533815,4.44881,44.6286,17.4424,-305.976,-786.168,-498.248,-39060,2240,15820
-16.2829,16.3589,-5.87008,40.1989,16.4274,5.08054,32.3508,11.2406,-7.60923,-15.1706,-14.9136,6.36548,-7.07482,2.68593,49.896,14.5432,-287.432,-807.64,-503.128,-41580,-1540,18340
-38.1239,-7.8425,-10.5559,22.6001,9.1227,7.13108,26.2869,12.7571,-39.5697,-26.8463,-18.1882,-2.9494,-8.37208,3.8727,31.4987,13.199,-311.344,-812.52,-501.176,-39060,-980,16520
-20.7782,-21.5058,-0.582111,-3.43006,0.634538,7.59299,6.60879,3.74432,-35.5307,-4.67757,-0.347803,-2.46535,-0.84898,7.52221,-5.64868,0.755647,-304.512,-838.872,-511.424,-38220,-3640,17500
2.70437,-10.1898,6.49431,-10.6547,-2.58362,7.60828,-0.216727,-0.0981429,-2.89826,7.82441,8.71951,3.90595,2.6383,3.81406,-13.7153,-4.22962,-321.104,-832.528,-514.352,-38220,-2100,16520
13.2077,5.00591,8.57481,0.217032,3.83391,4.15966,0.165149,-1.03688,16.2019,12.6199,4.01883,8.1464,-0.269661,1.31324,1.41794,-4.77786,-305.976,-803.736,-512.888,-41160,-5460,18340
13.8587,8.03026,2.2042,-0.963378,-1.49571,-0.222602,-11.7932,-9.0141,21.1639,6.26776,-0.220521,6.48261,-4.24803,-3.17641,-3.64012,-13.94,-316.224,-848.144,-521.184,-42140,-7280,16940
12.7265,4.40222,4.08708,-10.2155,-5.38367,-2.58304,-26.1765,-16.2082,16.0418,8.30563,1.66794,1.7445,-1.82571,-4.79242,-19.6716,-22.15,-320.616,-835.944,-515.816,-41160,-7000,15680
0.974895,-6.67728,0.847933,-13.4287,-6.23694,-2.82223,-16.4198,-5.21084,1.14141,-3.35388,-4.41012,-9.08713,-5.04559,-5.15196,-14.724,-9.70455,-310.368,-833.504,-516.792,-40460,-10500,16800
-7.5872,-10.6945,-3.41297,-13.4976,-5.7515,-2.4461,-5.3671,5.95584,-2.6553,-16.1195,-11.9994,-12.9432,-8.37138,-5.08784,-8.97618,6.62183,-315.248,-818.864,-506.544,-39760,-12320,15540
-13.696,-7.78275,-5.05154,-8.76714,-4.73386,-7.09583,-0.20654,5.62735,-4.77641,-20.9363,-13.6465,-13.6206,-10.1138,-4.5744,-0.749851,8.1373,-295.728,-835.456,-505.08,-39620,-14140,14840
-2.30752,-9.6658,-3.0042,-9.27637,-5.58674,-4.55973,0.0479982,0.0266091,-7.00862,-2.91535,4.80821,-7.29194,-1.91001,-0.255276,0.727186,3.04035,-314.272,-830.576,-502.64,-36960,-12040,10640
6.79326,-10.3991,3.24944,-24.0566,-10.0251,-3.11827,-16.0349,-2.8568,-6.19171,15.0474,14.2766,-4.98065,7.25136,-1.51116,-25.0497,-8.28493,-296.704,-801.296,-501.176,-38360,-13300,11480
-11.4842,-26.2676,-10.9345,-34.2399,-21.1646,-9.09061,-20.2084,-3.6525,-27.0548,-0.18125,6.29762,-20.8767,-0.43939,-9.39314,-29.2973,-14.5393,-298.168,-815.936,-501.664,-40880,-15120,9940
-5.07443,7.59506,0.20124,3.77708,5.25314,1.53586,9.1299,9.09342,-5.3336,-4.49528,-1.07861,0.351806,5.05249,5.76069,10.0089,5.55613,-301.096,-797.392,-493.368,-43540,-14000,8680
-6.5211,15.1722,3.94773,13.313,11.0214,6.29332,8.52323,6.50722,1.17217,-12.5396,-13.1826,4.47459,3.45419,11.9463,13.3678,3.88599,-301.584,-806.664,-495.808,-48720,-16380,9660
-13.5241,10.8348,3.38243,17.6618,13.5905,6.69997,8.74665,6.54159,-14.024,-13.5216,-11.8453,4.50048,2.36932,10.3114,14.8808,5.13772,-280.112,-782.752,-501.664,-55440,-20020,10780
-36.8605,-9.37319,-5.33779,21.195,13.189,5.68347,20.5704,6.86102,-47.2779,-23.2552,-11.5076,-4.37855,-1.65281,9.00715,29.8828,13.0869,-267.912,-801.784,-506.056,-55440,-22260,9240
-21.6739,-6.95341,-2.05196,9.7482,10.0569,3.53111,9.83195,5.29246,-26.2796,-7.76211,-0.722449,-0.0335516,2.85513,6.3082,9.61876,10.8034,-284.016,-814.96,-507.52,-48300,-18620,2800
-3.02139,-12.2943,-7.62729,-38.1934,-25.8944,-10.1588,-46.8535,-19.97,2.67193,0.884936,7.57467,-5.22485,1.88121,-16.0547,-65.317,-29.4485,-267.912,-797.88,-519.232,-45220,-16240,840
-12.0634,-35.7647,-13.4411,-56.0757,-39.1478,-15.6622,-57.1559,-24.4084,-15.2421,-1.27726,6.28946,-21.4642,-2.67803,-25.2884,-72.4044,-39.7682,-251.32,-781.288,-507.032,-44800,-11200,-3080
-14.6684,-27.2291,-15.2459,-19.0091,-20.2905,-5.28554,-9.20774,-1.91215,-15.006,-12.5036,-5.90566,-15.3234,-5.3943,-10.3878,-7.81689,-6.47412,-255.712,-791.536,-509.472,-45780,-4900,-9100
-3.98923,4.06983,0.187138,18.7337,10.1279,5.38902,18.3409,11.428,-2.63339,-2.03268,-7.20364,7.36863,0.586691,6.79302,26.729,16.7684,-261.568,-793,-508.496,-47040,-560,-12460
33.2554,17.4847,4.25109,17.0158,7.89473,1.9323,15.1722,7.1713,34.8558,26.8757,15.4195,14.9676,3.61041,2.61813,18.1253,13.0562,-265.472,-786.168,-510.936,-49280,2380,-14700
44.2574,24.3827,2.73305,11.6675,1.2684,-3.96289,5.33487,-0.755199,50.2356,30.427,17.743,11.9258,1.89206,-5.55938,6.22132,3.21897,-271.816,-782.752,-510.448,-50820,3220,-14980
35.3676,25.5872,2.75272,9.79582,1.55027,-2.82769,0.771476,-3.85932,44.0029,20.6385,12.2346,11.9372,2.58887,-3.80361,-3.31986,-0.677597,-272.792,-788.12,-514.352,-52080,3500,-14000
52.256,36.2545,13.888,11.8987,7.76576,1.19327,-0.898127,-9.33403,57.9298,35.7004,23.3024,25.8973,8.55209,2.08333,-5.97763,-4.55486,-275.232,-783.24,-510.936,-52360,3780,-12600
51.3475,47.2812,21.7399,37.11,25.7394,7.37249,27.5728,3.38556,59.8276,34.7784,17.4669,33.3932,7.33959,8.8919,34.2945,15.6413,-280.6,-785.68,-521.672,-52080,2800,-10920
26.5634,23.2724,6.19852,35.9986,21.0881,2.72203,44.4757,15.1097,31.0825,15.6413,4.08908,12.7735,-3.34444,3.03015,60.5724,27.6628,-286.944,-782.264,-514.352,-51380,1680,-8120
16.8214,8.74579,-6.9447,15.095,3.268,-6.21482,19.1136,3.40955,26.6012,4.58773,-1.46249,-1.6753,-8.20652,-9.28246,33.7047,8.75584,-291.336,-790.56,-517.28,-49980,700,-6020
8.43776,8.39143,-1.17728,8.69771,7.0757,-1.90573,15.1749,8.25432,18.827,0.601026,-5.16159,3.23416,-6.48744,-1.08883,20.794,9.9644,-289.872,-778.848,-509.472,-47320,-2660,-2800
-4.31365,-2.08277,6.27221,4.10983,7.1922,3.92257,7.61145,1.32152,-7.20062,-4.30246,-1.23228,7.52962,1.8247,7.42787,6.62198,4.46649,-284.016,-768.6,-513.864,-44100,-8120,420
-22.0502,-22.7948,6.49028,-13.6993,-1.68085,2.75601,-7.15235,-5.62521,-38.9777,-7.88379,-0.535701,-3.7287,5.42218,5.60971,-11.5376,-2.81851,-290.848,-759.328,-512.4,-40740,-8680,1680
-43.1729,-15.7291,8.06994,-2.50526,6.55553,9.21236,-4.93883,-10.1478,-57.3276,-27.888,-17.329,-0.584466,6.09761,14.3497,-5.20168,-2.83297,-290.36,-776.408,-504.104,-38640,-9940,2940
-86.7151,-23.2288,-11.0425,0.931361,5.86714,9.50282,-5.3679,-7.6297,-95.849,-65.3512,-47.1198,-17.0479,-6.66024,13.1451,-10.2763,-1.54199,-294.752,-766.648,-501.176,-37940,-10920,3220
-84.821,-56.4996,-19.5536,-37.3229,-17.9413,3.05178,-27.3242,-8.08204,-101.281,-56.4756,-38.2818,-39.1224,-9.52822,1.96378,-45.0591,-11.6236,-296.704,-774.944,-496.784,-41440,-10360,2800
-39.264,-56.4556,-14.771,-49.1807,-31.1946,-2.01948,-34.7624,-14.4211,-50.9939,-23.6084,-12.2018,-36.5817,-4.18626,-6.77805,-47.5021,-20.2116,-298.656,-781.776,-494.344,-42980,-9800,1120
-9.62968,7.27745,6.41661,14.4611,12.342,7.56203,9.6169,6.62064,-3.18001,-5.12891,-5.77783,2.48007,4.67047,8.98287,12.925,10.2272,-296.704,-785.68,-502.64,-41720,-10360,-420
-8.06484,10.4005,5.14966,4.49561,5.58077,3.15776,-6.96923,4.19365,1.35455,-6.41685,-5.81737,2.66326,0.466152,2.95661,-17.5485,1.45836,-299.632,-788.608,-506.056,-40320,-10780,-2520
3.90004,-12.5775,-3.47309,-30.7965,-17.9808,-5.57601,-25.2957,6.70077,6.69952,4.56161,5.20897,-15.0166,-3.83687,-14.4064,-44.2701,-8.46442,-300.608,-786.656,-506.056,-41160,-9520,-4060
38.8901,15.6816,2.73626,1.29674,-5.06562,-6.79281,-0.188941,10.8686,43.9813,28.9346,24.0085,0.878356,0.737206,-10.9217,2.43417,-0.254618,-296.704,-778.36,-508.008,-42560,-7140,-6020
24.1803,-2.98301,-6.25099,-5.37745,-11.7367,-8.74067,4.63595,11.7992,21.2632,18.4251,21.7708,-9.57763,-2.29821,-13.4058,11.5018,-0.233208,-303.536,-774.944,-510.936,-43120,-4060,-8260
40.0515,-0.634803,-1.28172,-20.0445,-21.7644,-13.957,-19.1607,-5.98482,43.5806,30.1098,26.5763,-4.45081,0.524711,-17.2404,-12.7761,-21.642,-295.24,-762.256,-511.424,-42840,-2520,-9940
59.0642,33.1631,13.6615,13.3536,5.03653,-3.17835,5.87004,0.652923,70.1958,39.3892,25.183,21.8615,9.27043,0.22115,15.4887,-7.95444,-297.68,-779.824,-535.824,-38360,-2800,-12600
50.1614,35.2165,12.8003,28.2239,17.4858,3.77728,22.0592,4.3015,57.7352,31.0912,19.7291,26.9023,12.0245,9.75484,31.8309,2.86608,-305.976,-762.256,-527.528,-33880,-3080,-13860
29.48,17.0283,9.26422,6.14018,5.09283,-1.30753,1.43294,-6.52989,30.7767,20.9785,13.1896,13.3569,7.53974,2.52568,6.54423,-10.7088,-311.344,-772.016,-533.384,-33600,-140,-14980
7.30523,15.8673,0.493055,13.5448,5.23304,3.36813,9.32478,-3.70875,11.2338,-4.61143,-3.85821,10.6346,-0.647283,5.9462,15.8546,-3.5272,-309.392,-771.528,-536.8,-31080,140,-15960
-21.2139,5.62003,-5.35608,27.7669,16.2788,6.31356,32.1992,13.5382,-22.5703,-19.714,-16.0708,0.629786,-7.72838,8.17135,41.5603,20.8864,-315.736,-773.968,-553.392,-30240,1260,-17080
-55.2056,-37.2798,-21.3675,-14.7862,-10.6424,3.41389,-2.58492,2.39555,-59.9564,-44.7408,-31.518,-25.0405,-16.7191,-1.29401,-10.0891,3.79684,-310.856,-780.8,-559.248,-30660,4200,-18060
-47.1197,-7.65286,-9.36144,-8.20795,-0.65859,4.86336,-18.1813,-3.88308,-44.9899,-37.5595,-30.7983,-3.65252,-11.9046,4.61829,-31.3623,-3.82637,-308.904,-781.776,-560.224,-29960,5740,-18760
-61.1777,-1.78233,-0.495934,26.1056,23.9074,10.8532,15.1318,7.82134,-75.3639,-37.749,-27.2425,5.31846,-7.54539,15.3475,19.1627,16.6852,-310.856,-786.168,-560.224,-28000,8400,-20300
-64.2346,-44.5533,-12.7689,-13.1905,-5.14847,-1.96805,-7.41978,-3.08592,-91.3101,-29.7629,-12.795,-21.5358,-11.1734,-3.83192,-5.12942,1.62312,-308.416,-782.264,-558.76,-28000,11200,-21420
-25.5672,-60.1953,-15.8886,-65.6192,-41.5641,-13.6723,-43.0172,-19.2652,-36.5155,-3.57416,4.54987,-32.8185,-6.28768,-21.3725,-55.3294,-21.957,-308.904,-794.464,-555.832,-26040,11620,-23100
55.9396,29.5078,14.3737,-4.42619,-1.79776,-4.68094,-12.3265,-10.4998,76.9961,40.2409,20.7611,23.1418,11.2568,-0.0160943,-9.84038,-3.55881,-304.512,-800.32,-550.952,-23520,13300,-25200
77.4052,47.8358,18.0701,22.3211,12.5016,-4.35963,14.5566,1.54594,98.4948,50.8306,31.4862,33.1022,14.7533,3.96554,25.1648,14.1842,-301.584,-799.832,-542.656,-21420,14000,-27300
61.196,18.9724,6.58534,5.10512,-0.148089,-7.43326,10.7414,-0.288477,73.9863,42.243,28.1898,10.6451,9.57149,-4.07235,22.6287,9.49923,-303.536,-813.496,-549.488,-19740,13860,-29820
63.389,42.2003,13.9673,27.2859,12.928,0.0314086,16.1475,-2.91361,75.9609,39.4376,25.416,27.4786,15.1073,3.08082,28.5461,7.7501,-301.584,-805.688,-552.904,-19600,13580,-30380
30.8437,43.1511,18.9712,33.9729,24.3777,8.31287,17.8334,3.97765,33.8446,23.7964,11.6988,32.9453,16.0388,10.8078,19.5906,11.4612,-286.944,-793.488,-559.248,-18200,11760,-30380
6.01556,12.2323,5.55854,11.0231,9.66697,6.19446,10.4038,8.9405,6.68347,3.39862,-0.290034,11.966,7.1219,4.46311,0.436625,9.96452,-290.848,-797.88,-553.392,-17780,11060,-28840
2.64374,-21.6093,-11.576,-30.8913,-25.4695,-9.12807,-18.8032,-5.58644,2.46973,0.47711,2.06305,-18.3933,-1.91939,-15.2054,-28.9954,-13.7649,-281.576,-821.304,-533.872,-13580,11340,-29960
-51.1877,-11.268,-10.5597,20.2187,8.28164,1.04297,23.6953,11.5274,-61.0038,-34.7001,-27.14,-16.3705,-8.25589,1.54019,38.8158,11.442,-287.92,-811.056,-556.808,-7280,9520,-31500
-101.61,-46.0709,-19.7432,20.8707,12.837,7.83063,39.4016,21.25,-131.929,-69.8425,-44.6863,-33.4873,-16.4935,9.23436,48.0713,22.6248,-277.672,-830.576,-530.944,-5460,9800,-31500
-65.1045,-40.0759,-10.6079,-8.22184,-0.570169,2.62809,3.13496,6.27525,-88.5141,-39.9394,-23.4757,-27.8815,-9.58461,1.86522,-4.68557,2.00247,-296.704,-805.2,-582.184,-1960,10920,-33040
22.5706,1.71394,8.59707,-25.7162,-15.5842,-7.74006,-52.5992,-29.4394,21.0647,19.4671,13.9741,-0.38209,4.99938,-10.2026,-71.9814,-40.9554,-268.4,-783.24,-482.632,-1540,9520,-30380
49.2252,18.4914,11.6276,-35.9683,-21.7133,-9.2724,-63.9333,-32.389,60.2023,32.8011,21.7194,6.72858,8.90129,-16.1945,-87.0371,-47.2716,-304.024,-880.84,-572.424,1680,14560,-34020
-19.7657,-28.4522,-13.0912,-40.1552,-25.8947,-4.65331,-34.8876,-14.1881,-19.964,-21.1906,-13.0341,-26.2342,-6.76719,-13.5996,-43.7876,-26.2566,-304.024,-836.92,-596.824,14560,11760,-33320
-29.4794,-35.7589,-10.3911,-31.0595,-15.3462,4.27826,-14.0339,-1.10093,-30.7579,-27.8853,-16.9184,-24.6778,-7.08769,-2.21551,-20.9011,-7.47483,-273.28,-853.512,-548.024,13020,12740,-29960
23.2142,28.3941,19.7259,24.3592,26.3449,21.4215,27.72,18.3532,34.7601,8.67268,0.00556574,28.2748,6.95951,26.3993,25.0039,24.5835,-325.984,-824.72,-629.52,21280,14700,-33880
30.4555,25.9492,12.2926,29.8197,22.8189,11.9996,36.6548,22.5237,38.6297,17.9062,11.0978,22.2529,2.85481,13.5512,42.5997,27.5251,-297.192,-816.424,-565.592,29960,15960,-32340
28.9555,28.0159,-2.28568,27.974,6.61808,-2.82953,22.9532,9.37307,41.0163,13.8311,13.0732,14.4692,-4.5893,-4.41512,34.0311,13.8873,-302.072,-786.656,-596.336,22960,25340,-33320
9.59968,14.5213,1.40797,13.5055,2.48031,-2.55785,7.5908,3.27629,10.0425,8.96576,5.85877,10.29,-2.98201,-2.81262,11.1534,4.95434,-308.416,-850.584,-569.496,32480,21280,-32620
-23.0114,-33.7828,-14.3949,-18.5729,-16.2743,-2.16001,0.660937,0.526859,-25.5091,-17.9396,-9.34985,-19.516,-9.67348,-5.46774,0.307882,1.09929,-318.176,-909.144,-617.32,43680,21280,-30660
-18.8938,-6.41075,-6.41476,12.7278,9.84297,1.95668,30.6652,15.2756,-15.417,-12.6326,-10.1147,-6.97498,-6.819,6.48832,44.2506,23.3351,-305.488,-787.144,-563.152,56420,22120,-28560
-29.548,13.8867,-0.932164,37.215,24.7904,8.62934,38.9173,13.9772,-23.691,-25.0975,-16.7575,8.0235,-4.85078,18.7609,50.9891,28.8817,-258.152,-750.544,-449.448,40880,29680,-27300
-7.11481,25.0081,8.1507,25.3976,17.4164,5.4474,4.34277,-3.67444,-3.89335,-3.54078,-1.42854,18.7314,0.772486,14.4353,1.9617,3.89953,-291.336,-865.712,-634.4,43260,26600,-33740
-28.0233,-32.2835,-12.1196,-38.0788,-26.1383,-13.1536,-40.3253,-17.8168,-42.3392,-2.87398,6.57344,-23.5131,-5.09405,-16.3423,-53.7211,-28.7791,-319.64,-870.104,-503.616,70560,17360,-28280
-6.2018,-52.445,-19.1473,-64.1618,-45.2632,-17.7758,-42.3748,-12.83,-14.8785,8.16786,19.497,-38.292,-5.17156,-26.4796,-58.6688,-31.1631,-306.952,-750.056,-418.216,76860,27160,-23100
69.1029,21.05,12.597,-5.74029,-1.38856,-3.84416,1.26388,3.06813,79.2207,53.7472,41.7607,15.2503,15.359,-1.69146,3.3042,-2.4461,-246.44,-669.048,-517.768,52500,30800,-26180
60.6131,32.4253,13.9759,10.6406,11.1386,-2.41719,6.88575,2.28465,72.2303,43.3845,26.0797,21.6703,14.6285,2.26735,16.4212,-0.474019,-279.136,-742.248,-661.728,51520,25340,-34300
46.8349,20.8852,11.1923,2.99215,6.32417,-1.7694,-3.26033,-3.20522,52.6946,32.4982,19.3228,16.7943,14.7308,-2.03093,3.3976,-7.56103,-309.392,-914.512,-703.208,66220,22680,-28280
32.7229,36.9542,21.7943,17.8441,18.7807,3.74033,-14.3005,-11.6168,30.5367,24.3042,10.5096,31.1495,18.4553,8.48402,-5.26169,-15.1145,-291.824,-807.64,-480.192,78680,30240,-18760
-32.8566,7.73278,6.38047,21.3254,19.7278,7.59388,-4.13717,-3.70946,-48.2988,-24.6171,-23.0826,10.3566,3.82202,10.9898,2.96409,-3.52422,-288.896,-817.4,-682.712,71680,31360,-24080
-58.5843,-19.6466,-9.23241,9.50291,13.6852,3.45916,11.4224,7.30621,-71.1563,-40.704,-35.5878,-14.2935,-7.2924,6.01848,16.4209,16.5091,-279.136,-826.184,-589.016,77980,22960,-24220
-45.7587,-22.6329,-18.6726,-1.19867,-3.73384,-4.94402,8.11269,-0.540697,-46.384,-37.9439,-29.8458,-22.6806,-12.8705,-7.69044,16.9623,14.7519,-301.584,-834.968,-615.856,76020,22960,-20580
-39.8026,-11.4261,-8.20585,8.23496,1.54209,1.08611,7.98414,-2.30091,-42.657,-31.9854,-29.2022,-6.64551,-6.64031,0.741364,13.3851,16.908,-266.936,-785.192,-609.024,77420,19460,-17920
-24.8205,-13.7827,1.64345,-2.46124,-1.58805,3.27268,-1.38522,-3.69745,-28.4626,-19.3365,-21.604,-2.17611,-2.6058,4.75467,-5.04285,9.82585,-256.688,-776.896,-591.456,74060,13580,-17500
-2.69487,-30.2628,-10.9114,-29.1567,-27.6692,-3.46975,-12.5974,-4.51459,5.83581,-15.065,-16.7661,-18.4041,-10.838,-8.1903,-20.5098,-1.81292,-256.2,-806.176,-592.432,71540,14000,-18480
39.4743,18.436,11.0738,4.96121,-0.60743,3.42935,5.2179,5.55168,53.0745,20.1758,2.5226,12.4817,3.41601,2.43812,7.16972,9.45029,-252.296,-820.328,-566.08,76300,14000,-18480
52.0169,42.0256,19.5431,21.6782,8.27535,1.6337,0.231473,-7.38731,55.6275,36.8274,22.6627,30.1462,10.9865,3.29307,0.313252,-0.99094,-258.152,-814.96,-608.048,81480,9940,-18340
11.2855,12.748,5.06594,-8.73567,-6.68557,-2.6947,-21.2836,-9.6685,0.632782,15.7519,17.0312,11.3932,2.99494,-5.26863,-42.014,-14.4569,-250.832,-764.696,-589.504,81760,3780,-16520
-38.4896,-60.0036,-25.9956,-52.4895,-38.289,-12.4522,-23.4942,-3.31025,-63.3718,-13.7064,4.47581,-40.9747,-13.6881,-23.1786,-41.0102,-20.8537,-254.736,-772.504,-599.264,76720,-1540,-13580
-18.9321,-40.9681,-23.2529,-23.9279,-24.6959,-8.18819,4.04919,11.7689,-27.1182,-8.8145,5.4096,-34.4902,-12.0681,-17.0543,5.02136,-8.36573,-264.984,-796.904,-584.136,76300,-4060,-9520
14.3755,5.37251,-4.53602,13.1191,1.83962,1.84458,18.9736,15.9445,21.908,5.96566,10.268,-3.25622,-1.99935,-1.08706,29.5227,-3.41654,-261.568,-809.592,-560.712,77980,-10220,-7980
21.7355,15.4753,0.519607,4.95479,-0.243624,-1.16328,-2.18313,3.1679,29.3704,8.40855,12.2442,2.0342,0.751895,-2.57301,-2.18247,-21.7848,-261.08,-812.032,-591.456,79100,-16940,-7140
-6.8891,12.9409,-1.67001,-2.48695,-1.84529,0.448281,-15.9559,-5.253,-0.312464,-12.2571,-1.05958,0.468332,-0.027765,0.156087,-28.5404,-27.0662,-255.712,-786.168,-554.368,78540,-20160,-5880
-36.9887,10.8939,7.10098,22.4774,23.5329,9.93484,17.584,10.8982,-38.4526,-22.6093,-11.8905,4.3903,-0.402057,18.425,13.7203,5.95041,-255.224,-794.464,-612.928,72380,-19460,-5040
-38.7873,-11.552,4.86582,19.3685,17.9851,10.9834,33.7391,14.912,-45.8985,-23.9784,-12.2893,-4.82363,-4.41342,19.226,38.3366,20.5347,-266.448,-807.152,-589.992,71680,-19180,-3640
22.7808,-2.98914,15.3807,-4.96105,-1.11307,3.88649,4.33811,-0.150375,27.8474,20.241,12.827,2.85057,4.63417,6.66566,6.01627,2.27386,-255.224,-813.008,-559.736,69020,-18340,-280
77.1258,52.2354,30.5838,11.0168,8.3811,3.03383,-14.6388,-15.1942,102.031,50.4323,28.1659,37.7861,15.8018,6.98315,-17.6931,-10.7834,-261.08,-819.352,-563.64,66780,-16940,280
31.5183,34.5831,18.0203,17.2193,16.7792,4.42712,7.29316,-1.41018,39.1875,23.3861,12.1067,26.4099,8.70424,6.44891,7.1019,12.2959,-263.032,-817.4,-584.624,65800,-18060,1120
-22.3476,-17.9989,-12.5271,0.073788,0.168335,-2.24787,18.2115,6.84909,-24.6533,-15.163,-6.98485,-12.9765,-7.0447,-4.18041,23.2985,23.696,-255.712,-819.352,-565.592,63420,-18200,3640
17.796,-5.17742,-7.0382,-16.2046,-10.6699,-9.0077,-14.1599,-9.39737,25.8573,10.4763,8.06925,-4.61946,-3.38783,-11.1258,-16.0984,1.44435,-255.712,-819.352,-558.272,63140,-17220,4620
51.9371,22.5085,12.051,-18.3643,-6.15152,-6.89872,-37.8524,-20.3553,62.1043,37.7764,22.3365,18.7387,8.36707,-7.98035,-45.8398,-12.8222,-258.152,-807.64,-540.704,63140,-17500,5880
17.6947,7.90741,1.1933,-11.1735,-4.93981,-5.34632,-20.3949,-13.6656,22.6886,11.0105,3.79786,7.13287,0.809662,-7.28314,-20.9127,-4.59915,-260.592,-806.664,-542.656,60620,-18200,7280
-49.7081,-13.8186,-12.0086,25.8869,17.8994,8.147,39.0521,15.8022,-61.6053,-35.6658,-26.1992,-4.91285,-5.70901,10.069,59.1752,34.8046,-265.472,-806.176,-520.208,58940,-18060,8960
-84.4826,-35.9643,-18.0632,29.5735,23.1284,10.6522,49.6141,26.9231,-107.3,-51.8302,-37.5936,-19.399,-8.09148,14.5628,75.1881,42.5228,-265.96,-810.08,-485.072,56840,-16800,10640
-53.4422,-29.3163,-19.0837,11.6571,7.33961,3.10969,28.142,21.4635,-62.7027,-34.5227,-22.3397,-17.6026,-8.2403,2.29832,41.7635,27.0377,-283.528,-827.16,-540.704,55440,-16380,10220
-10.504,-8.08563,-11.9024,-5.683,-6.06457,-3.23556,-4.78574,5.60282,-3.18625,-8.24694,-6.56482,-5.23974,-2.33047,-5.94992,-1.46484,1.44861,-275.72,-820.816,-502.64,55860,-20440,12460
60.3436,34.747,17.1104,-3.86239,0.451905,0.400186,-26.3821,-16.7313,73.0005,38.9839,22.8586,30.6604,15.7219,2.48198,-34.2334,-21.0741,-285.48,-814.96,-525.088,51100,-21980,14840
34.2578,22.2925,11.2336,-11.7364,-3.8885,-0.278239,-33.3557,-22.4641,34.4944,22.883,13.1864,19.7665,11.3897,0.0737169,-47.1832,-27.6392,-287.432,-801.296,-500.688,50260,-22960,17220
-25.0016,-7.33974,-9.05317,3.40932,5.49984,4.53399,3.47413,0.0595708,-33.5854,-17.2782,-15.4602,-6.24001,-0.116662,4.30672,0.972352,-1.70663,-291.336,-811.056,-522.16,45780,-24500,18760
-32.9034,-17.3016,-13.3281,13.2638,10.4575,6.05365,18.3003,4.76674,-45.9814,-20.9724,-17.061,-13.5626,-2.51953,7.24977,22.5582,4.18091,-281.576,-791.048,-467.504,45920,-26740,20160
-39.8087,-21.6301,-12.3312,-1.25495,2.96145,-0.798584,3.69025,3.53017,-51.1597,-20.1193,-16.2953,-23.8259,-5.67143,-3.55439,1.81637,-4.2012,-283.528,-791.048,-496.784,41020,-28280,19880
-9.0253,-8.67614,-4.94076,-20.6475,-12.4012,-6.7254,-22.5863,-10.6592,-4.78419,-5.24982,-4.83365,-14.0928,-2.35653,-8.75897,-40.9821,-22.3387,-271.816,-781.776,-447.008,39900,-32760,19320
35.8612,-13.7984,-2.34505,-58.1906,-43.5321,-17.5886,-56.7062,-24.0283,46.1881,23.0924,20.1335,-18.6084,0.80321,-25.7909,-81.4324,-43.149,-291.824,-826.184,-578.768,37100,-33460,17080
86.129,21.9556,14.3072,-28.3596,-27.9179,-11.4082,-33.1151,-19.2535,98.499,53.5519,37.017,11.3431,9.7738,-12.791,-43.3275,-27.8869,-295.728,-794.952,-514.84,41020,-40880,17920
39.5472,9.60303,4.79052,2.3351,-13.1069,-6.9253,-2.36838,-6.54851,36.5829,24.3385,19.7312,5.4908,1.64911,-4.92157,6.99381,-8.79024,-290.36,-789.584,-537.776,35980,-41720,22120
-1.48233,20.2093,4.71507,52.6605,21.8526,7.64075,48.6567,19.0552,-2.18229,-6.85691,-3.79174,12.764,-3.02069,15.8887,72.9737,32.4301,-294.264,-807.64,-516.304,35280,-35840,23940
-4.99704,18.1914,6.27009,49.1383,21.2928,7.37367,45.5584,19.275,-3.92025,-11.8029,-6.59786,11.0613,-2.53998,15.4666,68.451,34.1018,-308.416,-792.024,-564.128,36960,-32760,24780
-4.31706,6.14484,9.29696,14.8487,7.01776,4.82484,15.3159,10.529,-4.04504,-9.81839,-4.68639,5.06582,0.820566,8.11642,20.2059,15.8004,-287.92,-728.096,-473.848,35140,-32900,28420
-7.63736,6.65347,22.1773,-2.98199,8.0976,6.23792,-5.26571,5.59841,-16.0472,1.85045,-0.955598,11.0393,6.61798,6.09545,-19.3842,4.20738,-294.264,-761.768,-574.376,26180,-27720,28140
-78.6316,-63.3347,-16.4185,-54.2296,-34.0589,-5.72016,-34.8662,-1.26538,-102.256,-48.9172,-24.2574,-41.7352,-15.0596,-19.596,-60.9024,-14.4381,-287.432,-728.584,-407.968,30100,-27300,28700
-67.3278,-54.3047,-12.8133,-41.9455,-21.0713,-1.46643,-15.7572,8.31182,-86.3774,-39.9806,-21.5171,-32.8282,-14.104,-12.315,-34.6143,-1.03302,-314.272,-804.712,-602.68,23100,-20580,26880
-27.6626,-37.0563,-10.5826,-15.8591,-10.3615,-1.77604,8.04266,4.12172,-38.429,-14.9224,-3.80914,-21.7982,-10.0921,-7.18826,11.9368,2.35704,-295.728,-757.376,-438.224,27860,-25900,28420
49.1329,30.2911,14.261,5.85393,6.94914,1.71962,0.465521,-2.72064,69.0169,32.4239,18.8372,20.2268,5.29432,2.0806,4.15863,-5.31531,-277.672,-798.856,-466.04,19600,-20720,28280
70.3783,54.7651,22.8683,19.4407,20.3587,5.22489,7.26776,0.367579,93.0093,46.8432,26.1007,36.6805,13.976,9.28819,12.749,-1.36439,-321.592,-865.712,-667.584,26460,-23800,23660
27.9474,37.2124,12.5192,19.821,21.8779,7.68036,6.3138,-1.20046,37.9137,20.2013,9.43914,29.2814,12.6752,11.13,8.02674,-1.33722,-285.968,-743.224,-433.832,29120,-32760,30520
-26.6987,9.58581,2.02964,30.1328,29.4367,10.9122,28.9497,9.67113,-34.9976,-10.5142,-9.12915,14.4883,5.51458,16.3826,38.868,15.1473,-308.904,-799.832,-592.92,17360,-23100,29120
-45.0487,-29.7707,-21.3715,9.03169,4.44342,-1.93364,25.5093,7.66664,-51.6009,-29.2577,-15.7467,-23.0352,-11.2608,-0.0292563,42.1003,10.1235,-297.192,-739.808,-462.136,26040,-30520,28700
27.6405,-0.46251,-11.093,-13.2918,-17.5603,-12.1573,-17.8384,-14.3284,47.246,11.3157,11.5613,-7.98787,-5.84525,-13.2181,-10.6948,-18.4116,-272.304,-775.432,-488.488,15820,-26180,29120
35.7095,19.3094,-0.241034,-4.25574,-6.46312,-9.89689,-21.5632,-13.0299,52.5939,21.1987,9.64624,7.66454,-2.19657,-5.34082,-21.6307,-17.1245,-284.992,-818.376,-513.864,18340,-23940,22680
12.3889,4.29968,-3.49858,-11.2616,-8.76375,-8.27042,-25.6492,-14.244,18.8471,8.24196,0.283654,4.14685,-3.21264,-4.61932,-31.8744,-18.8085,-276.208,-773.968,-430.904,20440,-25760,21700
34.8458,21.2154,12.3169,10.4719,10.3373,-0.877893,-2.81186,-5.09008,39.7688,28.9444,11.4955,20.4456,8.06048,8.62351,-2.28698,-0.959991,-275.72,-807.152,-521.184,9940,-22960,19040
21.3756,14.4571,4.22784,9.87614,7.20066,-0.294984,0.999276,-0.839611,25.3492,13.9842,2.94977,11.7351,4.40101,5.09029,3.96311,4.20869,-273.28,-802.76,-467.016,11200,-26180,16660
-10.5322,-6.67942,-7.66909,-3.4257,-1.09598,-0.864257,0.158701,5.74263,-15.4639,-9.80256,-12.2869,-3.86344,-3.0314,1.30632,1.42757,6.36427,-259.128,-811.056,-415.776,7700,-22820,16800
-18.1999,-6.11806,-0.360146,-0.378941,0.471631,1.73243,0.516299,4.3476,-25.6639,-12.4985,-9.40654,-2.63715,0.326297,0.531676,1.82104,0.837694,-260.104,-828.136,-419.192,7420,-20440,11060
-28.7374,-13.5733,-5.70264,-4.9385,-6.72076,-0.754764,-9.23945,-2.46346,-35.5404,-23.3352,-10.1096,-10.3042,-2.38995,-6.57755,-8.84568,-11.2717,-300.12,-894.016,-639.28,10500,-22960,6860
-17.4343,6.55653,5.70203,10.1721,11.9349,8.85846,4.79221,11.3285,-23.555,-11.0798,-5.17017,6.09235,5.46992,3.13799,-0.938206,6.03057,-291.336,-815.448,-473.848,18480,-30660,12460
-0.470748,14.8168,4.70656,28.8164,24.0684,14.6725,37.7192,18.2518,-2.35689,-3.33597,-0.229011,12.5244,5.20861,10.4902,37.8677,29.4255,-299.632,-860.832,-533.384,11900,-17220,18480
-21.0552,-0.0983344,-5.74982,25.4801,19.5475,10.1963,37.9925,14.1037,-24.1561,-15.5276,-5.07023,-3.043,-0.271833,7.104,44.9404,28.4289,-318.176,-816.912,-523.136,19180,-11620,18760
-66.5497,-40.6307,-25.0739,-4.88643,-3.75634,2.03067,10.8625,4.82328,-83.6446,-43.2115,-17.7733,-32.2021,-11.6888,-2.5752,8.79205,11.0158,-306.952,-755.424,-516.792,16520,-10780,20720
-50.2783,-57.7866,-29.1121,-41.9396,-32.9498,-7.86039,-21.5619,-4.85608,-67.2072,-31.9942,-8.50331,-41.2916,-14.3047,-16.1495,-39.7568,-4.29808,-295.728,-761.28,-518.256,9800,-9940,21420
16.7929,-24.597,-11.9623,-39.965,-36.6808,-11.0217,-27.9862,-14.3378,21.9185,10.2341,13.8279,-17.2393,-3.51299,-12.6984,-43.4614,-7.4534,-277.672,-783.24,-461.648,7980,-3080,18480
64.2562,19.2972,10.438,-8.66956,-14.7506,-6.59442,-9.98141,-13.8054,80.0854,42.5721,25.6098,11.321,6.22961,-1.75119,-12.7187,1.11102,-271.328,-791.048,-472.872,5460,5460,10780
60.6979,37.9194,19.9995,10.1249,-1.74641,-0.694375,-7.81766,-16.6604,75.5275,40.9107,22.2065,24.1001,9.72909,1.08546,-3.14371,0.308866,-270.84,-799.832,-494.344,840,5740,6440
37.2556,39.3606,19.4573,17.1371,9.13929,3.21487,-2.32886,-8.68158,47.7712,26.9808,9.65964,22.2418,9.09957,6.58042,1.34854,6.92156,-262.544,-810.08,-473.36,-8260,7280,4340
-9.14432,2.19692,1.08795,1.24847,-1.88336,2.55,-6.77093,-9.17863,-13.8686,-7.83478,-8.72732,-0.0241532,0.939328,3.596,-6.51972,0.615458,-282.552,-837.896,-526.552,-12040,10920,3080
-33.0247,-20.6167,-0.913593,-12.5204,-4.00656,1.89141,-11.1137,-1.44688,-47.8,-17.1592,-12.0421,-12.8936,1.79825,0.604999,-16.1155,0.911311,-295.24,-834.968,-508.496,-11620,13720,4060
-4.27343,-12.6156,3.8074,-18.1432,-7.09635,-0.871963,-14.4587,1.08045,-4.12611,-2.74128,-2.05081,-8.8879,4.26462,-4.51345,-18.2437,-4.96588,-298.656,-836.432,-514.84,-12040,16240,4480
17.7499,24.5246,18.0313,16.4978,21.1956,5.70994,16.6534,17.6275,30.1782,7.54586,-4.43652,16.1127,6.57196,8.30581,24.5846,1.98441,-305.976,-843.264,-508.008,-10640,17500,4060
5.93649,10.1934,11.7884,6.69197,10.6454,1.00038,0.870912,6.11124,7.47676,3.49709,-2.72848,8.12499,3.14295,2.65465,9.39317,-28.4973,-308.416,-838.384,-490.928,-7840,19740,2940
-8.56389,-0.65362,2.91751,7.27173,7.65063,-1.9356,0.700847,0.924373,-16.6389,-1.71814,-1.39491,-0.491855,-3.38588,-1.24418,13.1601,-33.9538,-302.072,-829.112,-460.672,-6860,19740,2380
-33.9927,-21.7722,-7.17374,3.36374,5.74516,-0.502541,14.3102,10.5617,-49.715,-14.9894,-6.9748,-13.525,-10.1715,-1.98253,24.1957,-6.66238,-296.704,-830.576,-402.112,-5880,17920,-140
0.817899,-12.7617,-6.5333,-9.26737,-7.56755,-4.80196,-3.11254,-5.4475,-2.87908,4.08366,6.04047,-4.71073,-7.47493,-6.98133,-2.55102,-10.4354,-311.832,-843.264,-492.88,-4480,13440,-4620
-5.29569,1.66474,-5.51512,6.70714,0.68041,0.777293,8.62611,-1.24524,-3.79887,-5.36278,0.54919,4.90199,-4.06899,1.58961,6.87994,-2.42931,-304.512,-846.68,-490.928,3360,2660,-1960
-22.1378,-17.5433,-11.4328,-4.88593,-3.90191,-1.20647,6.48144,7.97555,-22.0823,-14.1199,-9.66892,-9.69697,-7.97892,1.04856,0.111694,-1.62349,-275.72,-851.56,-372.832,2380,2800,6020
19.8565,3.00252,-4.45888,-4.80921,-9.83418,-5.61599,0.915083,1.95054,32.542,7.91613,5.22912,-0.136933,-3.06488,-5.85128,-2.54947,-3.10961,-314.76,-805.2,-535.824,5880,8400,2800
22.6607,16.0636,1.55799,1.77212,-5.56621,-7.26234,-4.87918,-4.4022,37.079,10.8322,5.51863,6.77965,-0.00770772,-5.86056,-4.41349,1.75743,-279.136,-728.584,-487.024,4480,-4620,8120
-12.3758,5.32485,-2.15714,11.8998,3.67031,-1.50914,6.08299,1.29661,-13.7145,-12.5399,-9.52119,1.79493,-2.80135,1.96356,7.82804,13.169,-278.648,-750.056,-498.248,-5600,2520,9380
-41.0233,-10.0493,-2.86655,20.7142,14.174,8.38956,23.778,6.78006,-57.7935,-28.8928,-17.061,0.725951,0.147777,14.7572,25.1184,27.5945,-281.088,-779.824,-453.352,420,7000,8260
4.07388,-0.358132,7.87626,-6.75105,2.43897,4.17385,-9.76923,-5.5732,-2.10157,7.91979,5.8267,8.15085,9.59444,5.81208,-21.245,9.39712,-274.256,-786.168,-435.784,2100,12740,5740
33.7308,11.4042,8.14392,-11.6586,-4.10803,1.35462,-18.7033,-6.95948,37.031,22.9404,15.8734,11.3585,9.5364,-1.39605,-30.2053,4.25995,-263.52,-791.536,-427,0,13720,2100
28.8517,13.7965,9.45297,-1.12226,3.3618,-0.174543,-5.52165,4.25975,33.1639,21.7523,12.2568,9.14948,4.99943,-4.19737,-8.61143,8.87851,-268.888,-806.664,-455.792,-2800,11900,-1400
7.18288,-7.2203,-3.28916,-14.1321,-9.20468,-5.27989,-13.3282,-4.35525,7.92187,3.56289,3.36905,-7.78935,-3.22124,-10.2208,-12.5753,-5.58323,-271.816,-806.664,-467.504,-3080,9800,-1400
-3.50117,0.261937,-0.141321,1.59564,6.70481,1.59881,5.4636,5.66613,-2.19429,-1.70768,-2.70923,-1.1433,0.46686,1.40974,9.30915,9.5677,-279.624,-814.472,-458.72,-2380,9380,-980
2.92287,1.57432,2.33606,7.34358,10.5233,4.76084,9.22365,2.48424,4.60405,-0.148996,-1.99388,3.06231,0.920422,7.70709,13.637,9.46673,-283.528,-813.008,-462.624,-280,9380,-1680
14.1647,9.86252,5.16583,9.90773,12.6791,4.44116,6.91625,0.0840822,18.7026,3.79426,-1.19476,6.30248,1.71659,7.10094,9.88284,5.50609,-290.848,-812.032,-483.12,1260,8400,-2800
5.74725,6.04481,3.11438,-0.235169,6.94374,1.17192,0.0562315,4.78621,6.51939,4.30328,0.273064,-2.83501,2.54279,-2.8717,0.413239,1.78882,-297.192,-811.544,-479.216,3920,7280,-4060
6.5115,3.70557,-2.68672,-10.8588,-7.20769,-3.56167,-12.913,-1.14019,10.212,4.45581,5.73306,-8.12937,1.97256,-8.45559,-15.0771,-10.2398,-289.384,-807.152,-436.76,4760,9100,-4760
2.30247,3.90127,-9.02191,-7.77046,-11.5406,-1.14347,-11.0456,-2.11018,7.47366,-0.783256,5.8736,-5.83484,1.94754,-1.84625,-11.9828,-11.2269,-304.512,-814.472,-509.472,6580,10360,-7420
-11.4393,-1.67191,-6.6681,8.45115,3.0187,3.53996,9.56541,5.805,-16.8652,-4.50292,1.78089,-1.35614,1.37762,10.3647,16.95,4.39529,-282.552,-795.928,-454.816,6580,5040,-6580
-13.9653,-5.01296,-10.9085,9.30993,-2.79154,-1.18439,11.4301,1.39877,-15.1821,-8.03459,-0.267191,-2.76972,-2.5129,3.76512,23.5459,2.12242,-274.256,-806.176,-495.32,2380,7700,-7420
-14.1536,6.57002,-5.06294,14.6677,1.64723,-2.38869,13.7466,1.61599,-11.8477,-6.98913,-4.32651,5.00198,-1.66569,2.98121,22.9334,2.95917,-272.304,-810.08,-486.048,5320,5740,-9380
-33.9429,-12.5966,-10.7314,2.66592,-8.95712,-4.24996,6.89724,-4.33938,-37.4593,-24.1158,-13.1722,-5.85517,-7.26671,-2.51562,7.84426,-2.65068,-259.128,-778.848,-464.088,5320,6300,-9240
-39.6185,-33.5692,-13.1341,-19.0884,-20.1202,-7.81732,-11.1499,-9.29016,-49.1155,-23.7929,-11.8342,-20.122,-8.87129,-11.2787,-12.3816,-10.4809,-259.616,-793.976,-521.672,420,6720,-11060
2.62669,-8.67651,3.89945,-12.2085,-9.15857,-2.45112,-11.8512,-11.3943,2.14212,6.05215,2.22767,-0.496466,1.01278,-4.29947,-12.7863,-8.50264,-261.08,-797.392,-493.368,1820,5460,-10640
27.5451,13.7028,14.0303,-7.3017,-2.78475,3.84453,-14.5752,-9.35892,36.2257,16.9001,3.73233,14.1208,5.16276,-0.403942,-21.3114,-10.726,-268.4,-804.712,-489.464,1540,8260,-10360
-2.66679,-8.87187,2.47688,-11.3491,-6.7026,2.74172,-10.6337,-5.74621,-6.10793,-3.47549,-6.57519,-0.979128,-0.223226,-1.54386,-15.6171,-11.7395,-268.888,-801.296,-489.464,1820,7840,-10780
-19.7578,-21.9664,-8.95605,-16.8662,-9.93393,-0.55696,-12.0277,-4.75922,-22.6809,-15.197,-11.6326,-14.6536,-5.54861,-6.21261,-19.8254,-13.9781,-267.424,-797.392,-471.896,1260,5460,-10500
0.107958,-0.19585,-5.63842,-1.92384,1.12325,1.45347,0.94619,5.15642,5.81967,-8.10895,-5.39435,-5.30043,-4.30096,-3.21529,-8.4901,-2.55055,-266.936,-793.488,-480.192,280,4200,-10780
21.3718,18.4807,7.02889,23.1798,20.4407,5.32004,18.8126,7.30261,20.8644,11.4196,5.68666,10.4739,1.13977,7.82611,18.7239,8.74039,-266.936,-790.56,-474.336,700,-280,-10360
17.2887,8.76618,4.29995,12.6851,11.3385,1.35144,11.117,3.62473,15.5141,7.67422,4.23045,3.15177,-1.5412,2.09731,11.7013,5.40778,-266.448,-786.168,-473.36,-140,-2380,-9800
5.2249,3.9065,6.93507,12.0615,14.4863,2.72524,16.7933,9.7699,0.739369,7.13391,1.24684,2.29398,0.866476,4.5722,18.9955,13.3202,-266.448,-790.072,-475.8,-140,-5320,-9240
32.3322,24.0133,21.7444,14.1277,16.5695,5.59731,8.58527,4.10775,33.1806,27.7415,16.979,20.5131,11.8319,7.26521,4.30705,9.58667,-267.912,-794.952,-478.728,0,-6720,-8400
19.3629,13.0041,15.2258,1.46929,4.7141,1.63226,-0.623083,1.37052,17.743,16.0434,11.414,13.1846,6.87689,2.85356,-8.64746,4.37209,-272.792,-795.928,-480.192,-280,-7980,-7000
2.24709,3.69316,6.54806,2.901,1.91614,-2.04431,3.02902,4.7862,-0.663467,4.44053,3.6621,2.66387,0.733233,-0.871286,1.61475,5.64579,-273.28,-795.928,-480.68,-1120,-8260,-6020
4.46096,1.4462,0.409458,-3.21766,-7.7417,-5.08807,-7.24615,-3.40967,6.85946,-0.147324,2.08608,-0.341142,-2.59359,-6.36901,-6.05192,-3.35054,-273.768,-799.344,-483.12,-1680,-8120,-6020
-5.01054,-5.24929,-1.80739,-8.64508,-9.88342,-6.89132,-16.9408,-7.48086,-5.85703,0.758414,1.92802,-4.46289,-3.76138,-8.21993,-12.0836,-8.77548,-273.768,-798.368,-493.856,-2100,-8540,-6160
-15.2738,-3.66655,-3.01315,7.27689,-0.00170899,-0.844046,5.52396,0.802123,-17.2665,-6.59641,-3.77124,-3.89113,-5.15702,1.0438,16.2526,4.68741,-271.328,-801.296,-484.584,-2380,-8400,-6020
-4.52734,2.91575,2.15528,10.0073,5.50527,6.06623,12.0101,6.18404,-2.80582,-0.872684,-2.18105,3.76651,0.779544,8.81947,20.3577,10.0114,-270.352,-792.024,-479.704,-3780,-6860,-6300
7.27472,3.52809,0.184161,-7.0215,-3.07365,1.46585,-7.9941,-2.33605,8.49403,8.78756,2.99318,3.03202,2.5882,5.10011,-9.2389,-3.1218,-267.912,-791.048,-480.68,-4900,-5460,-7560
-29.1168,-16.041,-11.1492,-14.9871,-7.66252,-2.04201,-9.90981,-2.28965,-35.5256,-17.3283,-9.1958,-11.4528,-3.11052,-0.759114,-11.3335,-4.19755,-268.4,-791.536,-488,-5600,-5180,-8400
-36.1779,-32.9107,-20.8022,-26.5249,-20.9536,-8.32302,-19.4797,-8.04061,-37.9371,-24.6619,-11.0277,-26.795,-6.68638,-12.007,-19.105,-13.412,-270.84,-792.024,-490.928,-6440,-4340,-8960
-7.90513,-9.76767,-10.6501,-13.617,-8.53003,-3.42549,-12.3795,-4.19746,-0.515802,-6.96085,-3.57221,-11.9251,-1.05471,-6.90128,-12.9362,-7.25321,-271.328,-798.368,-493.856,-7560,-3640,-8960
2.3572,0.895303,-4.30918,-1.43195,0.566724,2.41835,1.14983,3.47052,9.32936,-1.16243,0.475249,-1.2357,1.86599,0.686976,-2.45057,2.95519,-272.792,-798.368,-493.368,-7840,-1960,-8540
2.37146,9.95069,3.46098,15.39,15.5404,5.559,18.3038,11.8692,4.04532,3.27822,-1.09952,7.50979,3.33906,8.74655,16.6884,14.6393,-275.232,-797.392,-492.88,-8540,-1820,-8400
0.937208,-7.86901,-6.23541,-2.91477,-4.25583,-0.402063,2.98315,-1.05934,1.5164,-4.24704,-0.622564,-2.50684,-2.20839,0.445186,-0.409454,1.4753,-276.208,-801.296,-500.2,-8400,-1820,-7980
8.21791,1.23752,-0.963777,0.89844,-0.987658,-1.54772,2.65768,2.84429,11.937,3.19245,1.07991,1.35739,-2.36764,-1.73532,2.94661,2.9726,-276.208,-800.808,-501.664,-8680,-2380,-7140
11.6838,15.611,3.30441,18.4399,9.06853,2.00747,13.4381,6.22856,17.5949,1.99332,2.42486,10.1874,0.51116,3.80945,20.8853,8.2197,-274.256,-807.64,-502.64,-8820,-2660,-6440
24.8962,21.1519,8.59904,15.9836,9.12288,2.69409,7.69476,3.11745,31.0182,11.4425,7.61678,15.24,7.18027,4.30135,12.6439,4.53032,-275.72,-810.568,-506.544,-8680,-2800,-5320
14.1914,10.0752,5.28226,7.22332,4.60444,0.937028,2.41083,0.0696023,14.1285,6.37446,3.38441,9.71725,6.66804,3.59314,3.94321,1.46792,-276.696,-812.52,-510.936,-8540,-3360,-3920
-10.1791,-10.5286,-1.45415,-6.58043,-3.65101,-2.07403,-4.38723,-2.15002,-17.0375,-5.32488,-3.43043,-4.75179,1.53083,-0.432616,-6.12895,-2.77318,-275.232,-811.544,-509.472,-8820,-3500,-3220
-9.99764,-6.62684,1.41127,-1.076,1.7371,-0.262032,-1.87716,-0.528573,-15.3575,-2.72546,-3.33191,-3.14624,2.58161,-0.228366,-1.40056,-0.95945,-277.184,-811.544,-510.936,-9100,-3500,-2380
3.15377,-6.29423,1.13007,-10.3094,-3.13586,-3.87623,-10.648,-6.60034,-1.40406,3.67375,1.65295,-4.66763,1.88953,-4.29057,-12.4633,-10.1777,-277.672,-812.032,-513.376,-9380,-3360,-1960
14.6932,5.58094,8.76486,-0.821466,2.58357,2.30913,-0.983172,-2.94201,13.5509,8.26953,7.31271,6.30364,7.975,0.365594,-0.563936,-5.60651,-278.648,-812.52,-510.448,-9240,-2940,-1400
17.3533,20.0245,12.0865,14.1189,11.548,5.09845,12.4678,2.87806,21.0604,11.8097,4.97842,14.0096,6.37339,6.49222,16.4864,3.21438,-281.576,-809.104,-515.816,-9240,-1960,-1260
-8.71858,-0.00356367,-2.69577,0.0790044,-2.01971,0.793877,4.29766,-0.43238,-11.3065,-8.95851,-5.78836,-3.88302,-4.45838,-3.03467,4.50521,-3.82718,-281.576,-811.544,-513.376,-8820,-1120,-1260
-25.8859,-7.0122,-6.44477,6.31322,2.97713,4.21157,14.651,5.10735,-35.4201,-19.5832,-12.0509,-6.46936,-6.35249,2.47769,13.9502,6.18697,-285.968,-811.544,-516.792,-8540,-280,-1260
-11.2538,-11.1017,-7.04491,-9.08528,-7.87883,-1.54822,-5.02967,-3.0476,-19.1409,-4.59098,-1.22937,-8.87257,-7.54535,-4.80373,-9.58906,-4.38919,-291.824,-807.152,-519.232,-8260,560,-1260
10.8264,2.09549,2.81112,-10.3984,-6.79438,0.360784,-17.1688,-6.84951,8.05977,11.4326,7.05885,0.567195,-3.21099,-3.69468,-23.054,-10.176,-291.336,-807.64,-515.816,-7420,1400,-1400
5.87445,6.08172,3.43424,-3.04812,0.621016,0.625993,-7.19076,-0.412411,6.63416,6.34472,3.13868,1.37218,-2.5267,-1.2616,-9.74575,-1.05245,-293.776,-805.688,-513.864,-6860,2380,-1820
-11.6838,-12.0285,-12.2262,-9.96568,-13.4061,-6.12939,-6.26274,-4.45746,-10.0883,-11.177,-4.79065,-12.7234,-10.5707,-9.50385,-4.10049,-4.30807,-298.656,-810.08,-517.28,-6300,2380,-2240
-2.01457,5.18026,-2.5681,4.2551,-0.448622,-2.60093,0.258665,0.0149512,3.12917,-1.58144,-3.44915,2.26931,-4.8536,-1.88004,4.60498,2.35424,-299.632,-809.104,-517.28,-5460,2520,-2660
2.41955,-1.15074,-5.95863,-8.63409,-8.19158,-6.00897,-11.6445,-6.68441,9.33621,-1.16638,-1.57786,-1.4946,-5.75678,-6.19222,-13.6524,-6.4738,-304.512,-808.616,-523.136,-4620,2520,-3080
4.35119,2.43166,-0.886988,-3.2096,-1.67747,-5.04198,-7.18114,-4.638,7.58572,3.14443,3.10007,2.73755,-1.5991,-3.41277,-9.23769,-4.28659,-301.584,-797.392,-510.448,-3360,2240,-3500
-12.8932,-11.7166,-1.7746,-1.50211,0.639756,-3.32439,2.48962,1.89966,-18.6488,-3.00179,-0.49548,-4.93357,-0.583429,2.03458,1.82738,2.96698,-302.56,-802.76,-516.304,-3640,3080,-4760
-5.17098,-7.21919,2.34274,-2.97085,-0.567549,-1.18901,3.97258,4.1049,-4.16684,0.762143,1.34707,-2.63678,2.65115,3.32473,1.32233,5.47214,-304.024,-806.176,-520.696,-2380,3220,-5880
17.2166,11.2011,10.5761,9.38669,5.67923,2.68759,6.80353,0.936964,25.611,12.8349,7.30261,11.5098,7.45252,9.43686,7.73565,7.73428,-304.024,-808.128,-519.72,-420,3220,-7140
-6.65147,-0.9609,4.12517,8.87345,6.77256,3.80466,7.53033,3.59084,-6.53362,-1.89561,-3.18148,3.41771,2.45201,7.71586,9.23201,9.2566,-303.536,-811.056,-521.184,700,2660,-7980
-23.3765,-13.3308,-1.51797,-0.198545,2.03933,4.0369,0.646035,3.4754,-26.7967,-13.953,-9.16901,-2.93715,-1.93588,4.67668,-1.43386,4.35919,-302.56,-810.568,-519.232,1960,2380,-8960
-1.08878,-1.9967,5.07079,3.16277,6.2892,5.11179,6.80811,7.22576,-0.978914,3.199,-1.2893,4.19452,2.2932,6.47192,4.57583,8.08871,-301.584,-808.616,-524.112,3500,1680,-9940
11.877,-2.3291,-2.88017,-3.38812,-6.81056,-0.457177,-3.25983,-4.01541,17.1776,6.22801,6.31826,0.250138,1.5002,-5.3644,-2.61064,-3.41098,-302.56,-811.544,-525.576,4480,1120,-10500
10.6545,8.56667,4.43827,5.09983,5.95313,4.8491,0.210604,0.853345,12.9719,9.45462,5.01131,8.63657,6.77289,0.630651,1.4686,2.02346,-299.144,-811.544,-524.112,5460,420,-11060
13.5275,9.48116,5.39741,5.09218,5.74942,6.65507,-0.570421,-2.43987,13.4274,8.20276,5.06907,12.3073,9.87382,4.0969,-1.50104,-1.62354,-297.68,-815.936,-523.136,6300,420,-11480
6.41872,5.99622,2.48359,4.04475,4.64315,6.51053,2.1088,-0.365734,5.60249,2.96572,-0.475238,4.69404,6.05753,5.41443,-0.218333,-0.20449,-293.288,-818.864,-524.112,7000,280,-12180
-8.8131,-3.62657,-5.92337,-0.858942,0.113384,3.23946,2.21827,3.79489,-11.6421,-7.15747,-6.69543,-8.67026,0.530498,0.241456,-0.290457,1.38381,-291.336,-819.352,-521.672,7560,0,-12600
-1.80984,-1.57875,-5.68543,1.63105,-0.758234,-1.3782,5.04563,2.04488,-1.77657,-5.27926,-3.73751,-8.56892,-0.600654,-3.9255,4.19915,1.54609,-289.384,-817.4,-517.768,8400,-420,-13160
7.0507,6.86596,-1.29342,7.02613,1.3052,-4.47558,7.97866,0.66597,7.64634,0.443403,1.26846,-3.5543,0.938517,-4.15304,11.0824,0.581495,-286.456,-818.376,-513.376,8820,-700,-13720
2.69387,1.00517,-5.74271,-2.54344,-6.7704,-7.38863,-2.3331,-3.4286,0.323914,-5.47457,0.0069763,-9.22268,-1.83024,-7.18882,0.615639,-8.11178,-280.112,-820.816,-510.448,9520,-840,-14140
-0.969386,-2.3684,-5.6542,-6.05341,-6.78416,-4.52239,-4.83051,-1.06876,-5.35338,-7.0823,0.549388,-10.4175,-1.95968,-6.48081,-2.13433,-6.36992,-277.672,-818.376,-508.008,10500,-1400,-14280
2.06725,1.81997,1.48025,-1.36364,0.341564,-2.55763,-2.97778,2.50534,-1.92219,1.12133,1.19282,-6.70854,-1.07048,-2.22846,0.0119681,-1.86463,-276.208,-817.4,-507.032,11340,-1540,-14420
-3.69275,-3.84624,-2.20974,-3.36444,-4.14717,-2.44603,-5.80703,-1.94958,-5.00162,-3.88458,0.0690499,-9.13569,-3.63661,-2.91732,-1.83472,-4.48031,-271.816,-816.424,-505.08,12040,-1960,-14560
-2.63238,-3.10535,-0.664385,-7.10538,-4.80949,-3.76955,-14.1173,-5.78679,-1.03249,-0.0150519,0.939328,-5.63478,-4.31063,-4.68016,-10.1921,-11.0768,-270.352,-813.496,-502.64,12600,-2520,-14280
0.177086,2.70291,4.15528,3.97589,4.40216,0.376967,2.59633,1.63401,3.7501,-0.118615,1.08975,3.82635,-3.3586,2.37179,4.75208,-2.24618,-268.888,-812.032,-498.248,12740,-2940,-13860
-2.2971,-0.570443,0.805889,0.196382,3.19622,-2.14403,0.864418,0.548875,-0.250814,-0.136657,1.22727,3.52512,-4.97,1.41295,2.45618,-3.88431,-266.448,-809.104,-493.368,13160,-3080,-13580
-0.496176,5.07063,4.51759,2.84452,5.79905,-2.36555,2.84644,3.84138,1.59986,4.30081,0.0750054,6.22253,-2.11113,1.88642,5.35534,1.49187,-262.544,-806.664,-491.904,13160,-2940,-13440
-4.06029,0.119618,1.06273,5.78231,2.37612,0.525216,10.8003,3.57117,-4.7523,-0.044514,-2.53622,6.14776,-2.69101,4.26735,12.5571,8.45876,-260.592,-805.688,-487.512,13160,-3080,-13300
-3.26727,2.37701,5.39371,-0.827512,4.57137,2.27096,5.67842,5.19821,-3.85649,3.38669,-1.00792,7.99696,-0.671228,3.87883,2.83405,9.81826,-261.08,-803.736,-485.56,13020,-3080,-13440
0.581068,-0.062162,0.85639,-9.34736,-3.91762,0.808608,-1.92217,1.82466,4.36662,0.58953,-1.9208,3.66665,-1.73215,1.55721,-8.40981,2.04022,-262.544,-805.688,-485.072,13020,-2800,-13720
1.2754,4.85793,4.91418,-3.56524,0.849636,4.6095,0.850461,4.06081,2.98755,2.64096,-1.31171,8.77481,3.20137,2.36059,-4.82543,3.82723,-261.568,-800.32,-481.656,13160,-2660,-13720
0.582383,0.282212,2.72607,1.14606,0.101015,5.11466,4.4948,1.09613,-2.72577,1.91678,1.66588,6.78012,3.36852,1.61586,1.24684,3.86796,-260.104,-803.736,-484.096,12880,-2240,-14140
4.59653,0.791928,1.16511,2.16211,0.471029,4.00415,2.46792,-1.32073,0.03171,3.56598,3.42266,6.10154,3.17344,0.427186,-1.06472,3.20568,-258.64,-802.272,-482.632,12600,-1960,-14280
4.24484,-0.900344,-2.31147,-2.35552,-2.10921,0.186878,-4.37577,-6.02467,0.125604,2.88399,3.14517,4.49866,2.50725,-2.21419,-5.4692,-0.566739,-261.08,-807.152,-486.048,12880,-1120,-14560
-1.70351,-6.63372,-6.39796,-8.01622,-3.39371,-2.92866,-8.39128,-6.52528,-5.92434,-0.927651,-1.11088,0.130358,-1.26697,-3.4258,-10.9536,-3.82251,-259.616,-805.688,-483.608,12880,-700,-14560
-9.76528,-10.5652,-8.9156,-8.61751,-7.02714,-3.57986,-8.13752,-7.54922,-9.31766,-8.72134,0.62551,-2.98631,-2.882,-3.41173,-8.27711,-5.75477,-264.496,-809.592,-485.56,12460,-420,-14140
-11.8322,-4.87828,-2.72608,-0.992119,-1.25733,-1.16583,-4.41031,-2.78926,-7.30632,-5.37725,-0.671187,-2.67155,-0.45497,2.09874,-1.94991,-2.38768,-261.568,-810.568,-483.608,12180,280,-13860
-4.28933,-4.5702,-3.38424,1.037,-3.13474,0.231142,-5.26174,-4.7068,-0.157917,-4.00709,-1.86292,-3.04256,2.51429,3.56844,-2.8099,-1.20425,-261.568,-803.248,-480.192,11200,700,-13720
9.81409,11.8306,4.16701,16.8886,9.14084,2.21903,7.01398,1.78516,14.1198,3.68891,0.416639,6.90188,8.34959,7.19782,13.0146,8.75784,-259.616,-808.128,-476.776,9520,1820,-13440
5.34604,3.77589,1.63391,12.3585,2.555,1.12011,6.09859,0.401038,5.95078,-1.6804,-3.56094,0.452114,4.58094,0.556648,9.24562,4.82735,-262.544,-823.744,-490.928,9380,2240,-13160
5.86991,0.20953,3.17669,0.394323,-3.76368,-1.51701,-6.77029,-3.75107,5.01902,4.22972,-0.949598,-2.93562,1.46496,-6.90273,-6.34983,-6.44902,-264.496,-813.008,-492.88,10360,1260,-12040
-0.847744,-5.84841,-0.0223707,-3.98077,-7.01332,-0.77922,-6.03496,-2.73803,-3.43375,1.55943,-0.429541,-7.68881,-1.85304,-6.54236,-7.37417,-6.12703,-263.032,-812.52,-490.928,9660,700,-10360
-0.877347,-8.0628,-2.66549,-2.62183,-8.71294,-0.348747,-0.350575,0.0578077,-2.83651,-0.308796,0.408768,-9.84526,-5.0543,-3.98691,-1.57718,-1.7878,-263.032,-814.96,-477.752,8680,700,-9240
-0.328387,-5.90212,-1.41626,-3.40324,-6.23692,-2.98651,1.06793,3.00655,-0.877353,0.136201,0.34787,-10.8562,-5.58904,-4.69445,-1.2357,-0.00682575,-259.128,-814.472,-479.216,8400,980,-8120
-3.03552,-8.03683,-6.12187,-5.4417,-5.84071,-3.94237,2.9135,2.87696,-5.35964,-1.64934,-2.05421,-14.087,-6.46333,-3.6651,-1.82229,1.03205,-262.056,-813.008,-476.288,8260,560,-7140
-3.97066,-3.26152,-3.95498,-5.18114,-1.14785,-1.97184,2.90448,4.53655,-5.26641,-1.959,-1.26033,-9.08373,-1.55729,-0.953853,-2.05231,2.58331,-259.616,-817.4,-475.8,7140,-420,-6020
-5.80104,-1.96149,-0.47826,-4.91721,2.90046,-0.215755,0.848716,4.31575,-8.77373,-2.53996,-2.67133,-6.00788,-0.170751,3.04124,-3.07238,2.81457,-258.64,-815.448,-478.24,6160,-980,-4760
-0.170318,2.52885,2.25799,-0.66796,4.42514,0.94114,-0.283787,0.54188,-0.896357,-0.740551,0.755676,-0.508717,-0.104199,4.51133,-0.644889,-0.0469227,-256.688,-818.376,-474.824,5040,-1260,-3920
4.20094,10.0278,5.38954,7.2524,9.26242,1.97074,5.88439,1.89684,5.66538,3.49386,1.72353,5.51885,0.612964,7.19828,10.2124,3.70099,-260.592,-818.376,-477.264,4060,-1820,-2660
1.78944,10.469,3.94383,8.53219,9.47872,2.35801,6.06422,-1.70838,4.42088,0.480308,-0.175732,7.2124,1.89611,5.29634,11.4254,0.463007,-258.152,-817.4,-477.752,3220,-2660,-1680
0.49077,8.29279,4.98898,4.51551,9.40979,0.970979,2.29313,-0.634914,3.59094,1.86836,1.12211,6.72914,3.53221,2.1176,3.8219,-0.304505,-255.712,-817.4,-480.192,2100,-3360,-700
5.36443,11.3175,6.08684,5.34688,11.743,3.37994,3.23876,5.51697,7.02728,3.74105,3.34689,7.10234,3.72915,4.34064,3.82803,3.0913,-256.2,-820.328,-481.168,1260,-3360,0
7.17755,7.2158,1.76872,4.45459,8.46846,0.870822,2.83459,2.30732,8.60909,0.0784414,2.69705,5.52573,1.40553,1.65201,7.25096,0.558685,-256.2,-820.816,-481.168,280,-3080,700
7.82863,6.02766,1.99658,4.18857,8.40339,0.328126,3.27344,2.32132,8.49459,2.99625,3.24611,7.21351,2.35538,-0.348755,7.93908,1.48903,-255.224,-818.864,-481.168,-980,-3220,1260
1.81409,-9.98519,-5.81631,-10.6305,-7.37195,-2.69027,-9.58545,-8.07432,-1.23613,-2.9823,1.57151,-1.39937,-1.16619,-6.72627,-9.53469,-10.0719,-254.248,-817.4,-478.728,-1820,-2940,1540
2.94759,-3.61657,-0.66404,-3.82017,-1.50924,2.2288,-2.13456,-2.10584,1.49857,1.1554,2.08432,5.44797,1.69172,-1.69395,-2.41316,-4.0424,-253.76,-815.936,-478.24,-3360,-2520,1960
-0.701619,-4.09055,-3.42061,-0.991015,-4.20913,3.30645,2.07997,1.74592,0.019632,-0.863913,-0.0599396,3.38323,-0.71311,1.23607,2.16207,-3.06781,-256.688,-822.28,-478.728,-4200,-1820,1960
-2.76392,-1.73183,-5.08456,-0.19291,-4.57031,2.73811,2.48717,6.53069,0.976269,-2.63786,-2.52506,1.87847,-0.934246,-0.0287892,-0.107674,-0.465329,-257.664,-823.256,-481.168,-5460,-980,1960
-4.44245,-4.11284,-6.23022,-0.0266384,-6.62388,1.55949,1.29022,4.2579,-0.442542,-3.99958,-1.42672,-0.657008,-1.3513,-0.543825,-0.437915,-2.06992,-257.176,-824.232,-483.12,-6300,-700,1820
-0.24385,1.38664,-0.548166,2.56803,-2.78361,1.50571,0.696768,2.44747,1.78962,1.48702,-0.296298,2.73594,-0.777155,2.79433,0.702768,-2.9535,-265.96,-824.72,-486.536,-6860,-420,1540
-0.0415516,1.10244,2.9921,1.04684,-1.74867,1.57832,-2.71582,-1.63418,2.01029,2.63501,-0.97685,2.78489,0.171249,2.76481,-2.34902,-5.02067,-271.328,-828.624,-492.392,-7140,280,1960
0.541665,4.54715,9.02412,3.79327,4.7053,-0.797258,1.40441,4.02099,4.16306,5.57201,-2.17903,2.27429,-1.68985,0.844821,2.15172,1.96619,-270.84,-824.72,-494.344,-7140,700,1820
0.0573711,1.55445,4.28878,2.64765,-1.64039,-1.8958,1.8727,1.89283,3.71422,-1.296,-0.339623,0.70422,-3.72744,-2.13307,3.87777,2.58658,-270.84,-821.304,-483.608,-6860,1260,1680
-0.917215,8.08592,9.18031,5.69869,3.86717,0.0473649,1.82293,0.614954,-0.89747,3.28766,0.497612,7.0562,0.849811,2.44481,3.02223,5.19338,-271.328,-816.424,-476.776,-7280,2240,1120
-2.55749,0.656574,4.11606,-4.67835,-4.10283,-1.06758,-7.51173,-7.42773,-6.1556,0.286852,0.972924,2.96089,2.24144,-0.541067,-10.2137,-3.25435,-267.912,-813.984,-458.72,-8120,3080,140
3.18639,4.20699,3.0159,-0.366776,-2.53771,-1.44708,-3.21551,-4.62496,1.24933,3.60401,3.54281,2.94951,4.77035,-2.61349,-5.50491,0.466529,-269.864,-812.032,-448.96,-9240,4340,-2380
-2.75394,1.13243,-1.90523,1.47191,-1.93322,-1.72084,0.977514,-0.232039,-6.07634,-1.42767,-1.93771,-1.02147,1.54495,-1.98348,-1.09312,6.55007,-272.304,-815.936,-456.768,-10220,4900,-4760
-7.61427,-8.99976,-5.99668,-5.50466,-6.57217,-4.00711,-4.34104,-4.83971,-15.1947,-6.31794,-4.5636,-7.9464,-3.23408,-4.73471,-5.89708,4.13748,-273.768,-811.544,-458.72,-10640,4760,-7840
-3.68972,-5.02783,-1.08171,-6.35533,-4.17372,-3.9859,-6.09343,-6.52514,-10.6572,0.890211,-0.82677,-4.37837,0.581095,-4.11929,-7.61465,3.13837,-272.304,-813.496,-461.648,-12880,4340,-10640
-9.10795,-9.09086,-4.00093,-9.63702,-8.02314,-4.31878,-6.83421,-4.8633,-15.6443,-3.54697,-5.69881,-11.6277,-1.55081,-4.72257,-8.79631,1.71238,-276.208,-816.912,-480.68,-13860,4900,-12880
-2.05889,-3.54991,-3.58003,-5.62277,-8.41573,-3.3446,-4.67719,-3.75717,-4.62159,-0.0283166,-2.37417,-9.52662,-0.42273,-6.22213,-5.44249,2.87348,-278.648,-811.056,-467.504,-15540,7420,-16380
