-1.31356,2.35609,-3.1091,-0.244574,-2.06619,0.560134,-1.58166,0.973587,-3.07188,-0.298313,0.356614,0.87614,-0.142319,2.08713,3.42335,0.313763,-194.712,-863.76,-458.72,-8120,2380,-700
-0.824728,3.64353,-1.13715,3.03876,1.27955,2.01477,5.17618,3.47442,-3.82903,1.84288,2.08905,3.5085,0.39959,3.45462,8.22051,1.27544,-196.664,-868.152,-458.232,-8120,2380,-700
-1.57516,1.00354,-0.615007,2.21913,0.385263,0.846665,6.00166,3.77771,-4.84096,1.71192,1.86117,1.93776,1.20254,2.78982,6.25552,-0.0172207,-197.152,-865.712,-460.672,-8400,2660,-560
2.45929,0.408722,-0.0828254,0.0353433,-2.56495,-1.08395,1.95974,0.111,3.49249,5.20713,4.56629,1.31274,1.68636,-0.10937,0.920522,-3.6569,-200.568,-866.688,-460.184,-8540,2660,-700
6.87424,4.29535,2.54754,1.49583,-0.215991,-1.57142,0.158702,-1.82914,10.7846,8.41093,5.45788,3.89295,1.85931,-1.287,-0.517784,-4.22807,-201.056,-866.2,-462.624,-8540,2940,-560
3.85561,3.9099,1.33915,0.854402,0.289065,-1.6945,-0.0753261,-4.22165,8.21231,5.56937,2.51121,2.52342,0.0221217,-0.515947,-1.7835,-1.46949,-203.496,-865.224,-461.16,-8680,3360,-840
-2.04312,0.708709,0.746916,-1.00827,0.224265,0.140432,0.879784,-2.95256,2.3108,-0.221884,1.81292,-1.12008,0.336163,1.20499,-3.85833,2.30108,-201.056,-863.272,-462.624,-8960,3220,-980
-6.43411,-1.87846,0.955371,-3.38243,1.88363,1.07079,1.38663,0.0973253,-3.05994,-0.57599,3.64292,-3.31665,1.44949,2.27748,-4.1611,4.15359,-203.008,-865.712,-461.16,-8960,3220,-1260
-4.76653,-5.68885,-4.12179,-6.1579,-3.59928,1.09177,-2.39168,0.357103,-3.10531,-3.94859,-2.30755,-4.69899,-1.44765,1.22153,-8.37949,2.18881,-203.984,-861.808,-461.16,-8960,3220,-1680
-1.77605,-3.52488,-2.5846,-3.25058,-2.2074,1.33636,-2.92469,4.44814,-5.32368,-5.88981,-7.58981,-2.97239,-2.21144,-0.172931,-6.32447,3.16476,-207.888,-862.784,-463.6,-9240,3220,-1960
-1.04882,-8.50943,-2.01324,-5.51402,-3.7611,0.0711356,-5.04869,0.55381,-8.16632,-4.48356,-7.85086,-4.22919,-3.82846,-3.49111,-4.75132,-3.00055,-206.912,-861.808,-464.088,-9520,3360,-2380
-1.96189,-10.0322,-1.94693,-3.98009,-3.05362,-1.62848,-3.55047,-3.22143,-7.68168,-2.85053,-4.22853,-5.21642,-3.32215,-4.87472,-1.75567,-3.09237,-208.376,-859.368,-466.04,-9940,3220,-2940
-4.48043,-8.21433,-2.7029,0.282395,0.577568,-2.57552,-2.63046,-1.8763,-5.76459,-4.45472,-4.44149,-4.50676,-4.47501,-2.96103,-0.639156,2.67718,-206.912,-860.344,-465.064,-10220,3360,-3220
-6.46787,-9.41638,-2.15945,-0.453863,0.442478,-2.794,-3.94422,-2.15015,-4.09967,-5.40992,-4.84021,-4.24664,-3.80487,-1.48323,-0.452055,1.79039,-206.424,-860.344,-467.016,-10640,3360,-3920
-0.263732,-0.248969,4.69918,3.03997,4.38228,-1.48586,-0.0314904,0.92002,2.6643,1.16171,-0.442601,1.23437,-0.886415,-0.900093,5.44644,-0.0684939,-206.424,-859.368,-462.624,-10360,3080,-4340
1.98533,-1.37444,2.98183,0.807078,1.11889,-2.38791,-1.80302,-3.4854,4.0203,0.694536,0.94226,-0.360397,-0.613445,-3.45491,2.63817,-6.53743,-205.448,-860.344,-463.112,-10220,2940,-4900
3.62828,1.61045,4.13654,2.01011,4.40971,-1.67288,1.22195,-3.11739,4.33149,1.52328,2.3478,2.42706,1.33383,-1.89144,4.2273,-3.19031,-202.52,-858.392,-462.624,-10220,2800,-5180
3.08356,-0.531047,2.73462,-1.78178,2.55791,-1.61054,0.832419,-3.24662,0.875859,1.10882,2.94299,1.2044,1.47112,-0.462392,0.777741,-2.72659,-201.544,-857.904,-462.624,-10220,2520,-5740
6.11833,1.34772,2.44847,0.744314,1.7523,-0.246666,4.41113,-0.773821,5.56976,2.64005,4.68849,2.7189,3.41084,0.865113,2.28243,0.956703,-199.592,-857.416,-461.16,-10640,2380,-6160
9.7668,7.89448,3.81,8.80091,5.09221,3.88084,9.9389,3.26034,12.6063,5.6306,4.99116,8.13942,3.80399,4.11148,10.3921,6.03994,-197.152,-855.464,-461.16,-11340,2380,-6580
4.50511,5.36554,0.221528,7.11939,4.70874,3.99877,7.56449,3.4539,8.1212,4.98249,3.84747,7.14819,2.10766,4.26144,7.48861,4.03852,-198.616,-854.976,-463.6,-11900,2240,-7000
1.35287,3.93206,-1.10252,5.32866,3.27036,4.29098,5.90588,5.24858,4.13232,3.79813,2.72664,4.65126,1.74834,3.34527,5.50075,3.78965,-197.64,-849.608,-461.16,-12600,2240,-7420
-1.48199,4.85886,0.814136,5.64936,4.41915,4.53437,6.17656,7.61278,-2.3644,1.75847,0.68,1.46654,1.97943,3.13661,6.52656,5.7149,-195.688,-852.048,-461.16,-13160,2100,-7700
-5.55949,1.09376,-2.42914,2.2973,-2.28508,2.77681,1.16056,3.97498,-9.80099,-3.95314,-2.74716,-3.73396,-0.587832,2.01611,1.63612,1.9546,-192.272,-853.024,-463.112,-13580,1960,-7840
-4.78205,1.66967,-2.89955,-1.06864,-2.92048,1.05204,-2.51899,2.06082,-10.0881,-4.6536,-4.52573,-5.96923,-2.56248,-0.942723,-2.21156,-0.737508,-193.736,-855.952,-463.112,-14000,2100,-7980
-1.29965,-3.02791,-3.26869,-6.25983,-6.93594,-1.01428,-6.26227,-2.88365,-4.90899,-3.01613,-2.7292,-5.91786,-2.78133,-2.14152,-6.5311,-5.19543,-189.344,-860.832,-460.184,-14560,2240,-7980
2.69382,0.746281,0.934333,-1.319,-3.07628,0.229553,-2.00111,-1.27677,2.38422,-0.300297,-1.00859,-0.368121,-0.765587,0.777156,-1.45698,-1.47211,-190.32,-859.856,-464.088,-14420,2100,-8120
3.25153,3.83817,3.23739,-1.08147,0.195105,-1.30732,-0.249012,-1.26051,4.70133,1.00822,0.715252,2.73711,1.07621,1.22601,-2.25219,-0.779958,-189.344,-856.44,-457.256,-14420,1680,-8120
0.0636161,0.0586034,0.944542,-5.07135,-3.78435,-2.71186,-2.8991,-1.97413,-0.200378,-2.40506,-0.333963,0.356531,0.564244,-0.457295,-4.87882,-2.21136,-187.88,-859.368,-457.256,-14560,1960,-8120
0.942501,0.709596,1.75174,-5.37843,-4.44029,-2.23167,-5.18023,-1.30294,-0.903003,-2.11354,-0.133447,0.781699,0.509683,-1.31474,-6.94441,-3.37931,-184.464,-857.904,-460.184,-14000,1960,-7980
-0.377148,-2.18548,1.56303,-8.49413,-4.65285,-1.7162,-8.39737,-2.75528,-2.47438,0.287905,0.345334,-0.643335,0.946821,-0.699214,-13.6138,-5.68256,-183,-859.856,-458.232,-13720,1680,-7840
-2.86984,-2.6765,-1.17965,-8.66594,-2.72881,-1.79964,-7.21285,-2.3423,-1.4351,-1.40015,-1.47354,-0.777662,-0.00581102,-1.02108,-14.0502,-5.8855,-180.072,-858.88,-459.208,-13160,1540,-7980
-3.02751,1.32342,-0.833001,-5.09187,-2.76983,-1.74974,-3.39545,-3.26474,-1.75915,-0.0173927,0.00370922,-0.0973048,-0.467823,-2.31203,-8.11861,-4.20164,-178.608,-855.952,-459.696,-13020,1400,-7840
-3.81288,2.13696,-2.76088,-0.580158,-4.21913,-0.59807,0.489727,-4.42841,-2.317,-0.977305,0.146494,-2.0979,-0.740456,-2.04331,-2.02092,-3.87105,-177.632,-854,-462.136,-13020,1120,-7980
-3.72328,2.50446,-1.8904,3.88139,1.38572,-0.386787,3.61009,-1.78911,-1.99775,1.09752,0.712778,-0.808808,1.40518,-0.0515719,2.19237,-1.29865,-176.656,-857.416,-464.576,-13160,1120,-8120
-5.58784,-5.79854,-4.92744,-0.867336,-1.14033,-2.07444,-0.921805,-1.97184,-4.16859,1.28205,-0.545367,-2.71362,-0.582697,-0.0969481,-2.06692,-0.943639,-172.264,-858.88,-464.576,-13580,980,-8260
-1.29731,-4.28276,-3.77857,0.283558,0.794153,-1.90927,-2.85467,-1.77129,3.06989,3.45872,0.902415,-0.47771,-0.0277019,-0.796851,-0.598333,-0.0771705,-173.24,-859.856,-464.088,-13580,560,-8400
1.05096,2.24642,2.79994,7.30977,8.28958,0.245793,1.19802,1.24465,2.99217,4.4791,2.69608,2.99567,2.20968,-0.826073,7.27755,5.85187,-173.728,-859.856,-471.896,-14000,560,-8260
1.15037,0.214321,-0.700704,8.07837,6.57242,0.795974,2.68186,-1.21234,-0.773245,1.29415,1.93552,1.48131,1.1522,1.25346,10.9861,5.6097,-171.288,-861.32,-474.336,-14140,0,-8120
8.83437,8.1621,2.66145,13.5413,11.4636,4.43453,7.46358,2.5861,7.59687,7.53897,5.37358,7.44727,3.33864,4.02042,19.0858,10.7635,-171.776,-863.76,-473.848,-14000,-280,-7980
11.6507,6.33429,4.3772,9.19499,6.75793,3.99598,4.72398,1.62204,12.6426,7.7565,6.68225,8.57458,3.4971,2.12691,15.2251,8.36038,-168.36,-864.736,-477.264,-14000,-560,-7840
7.87643,3.21024,4.69935,5.70174,3.99419,2.6626,3.67055,2.12696,8.57947,2.84201,3.76936,5.7945,1.79555,0.155522,8.75035,6.65315,-169.824,-861.32,-477.752,-14000,-840,-7840
4.04984,0.177801,6.04998,3.35156,2.9744,0.829236,3.47038,3.51961,4.30862,-0.10414,-1.20832,1.7781,-0.101481,0.986423,3.15218,5.06628,-165.432,-858.392,-475.8,-13580,-840,-7700
-4.02551,-5.27748,0.286055,-3.39365,-1.92543,-0.750367,-0.237806,3.2488,-3.86519,-5.27084,-4.79027,-4.30043,-2.71609,-0.353853,-4.00345,2.32486,-169.336,-860.832,-478.24,-13300,-1120,-7420
-5.30269,-5.45123,-3.5018,-2.79737,-3.43372,-0.269531,-0.216149,6.76672,-6.30504,-5.77311,-6.34843,-4.88369,-4.69983,-0.768808,-4.75094,2.65508,-168.36,-859.856,-479.704,-13440,-840,-7560
-7.07014,-7.52199,-7.19249,-6.24196,-6.62668,-2.12256,-1.93267,5.38577,-11.2067,-7.25126,-5.96134,-7.74273,-6.27819,-1.66948,-3.84971,-1.67833,-167.384,-859.368,-477.264,-13300,-840,-7560
-10.1318,-9.95874,-8.4555,-11.5809,-9.34518,-2.90235,-3.17976,2.87761,-14.1121,-9.88702,-5.01138,-10.2266,-6.75624,-3.58205,-5.13178,-4.61702,-167.384,-859.856,-478.728,-13160,-1120,-7140
-4.38702,-2.82517,-2.04901,-6.85923,-5.40329,-1.70759,0.590836,3.97383,-4.74193,-5.84564,-3.43451,-4.74644,-3.16811,-1.9537,-1.6937,-3.09705,-168.36,-857.416,-483.12,-13580,-840,-7000
-2.3963,-0.387124,-1.55903,-5.12608,-5.7804,-1.01044,0.141047,-1.07063,0.340749,-5.0067,-2.16582,-2.94654,-1.52397,-1.16167,-2.19735,-5.47825,-165.432,-858.88,-480.192,-13580,-840,-6860
0.725572,5.50452,2.9759,-1.10274,0.630409,-0.147415,1.56516,-1.80302,4.46225,1.20135,-0.8501,0.810991,1.69749,0.312855,-1.65376,-4.9648,-169.336,-856.928,-481.656,-14000,-560,-6720
-3.20738,-2.12707,-0.799273,-5.88768,-2.83297,0.113648,-3.08402,-5.72328,-1.28543,-1.34074,-2.64933,-2.59384,0.0568512,-1.47187,-6.93081,-8.62026,-169.336,-853.512,-482.144,-14420,-420,-6440
0.752015,-1.07169,-0.541321,-1.36716,-0.484345,1.78274,-0.713943,-3.42924,0.958869,1.46017,-0.126686,0.262889,0.54751,-0.27615,-4.28967,-6.10188,-171.776,-855.952,-480.192,-14840,-280,-6020
6.20972,6.44822,4.73554,7.47243,3.72993,2.81267,5.32907,-1.36302,6.28338,5.61544,3.85312,5.65369,3.26587,3.86713,3.00469,-2.50411,-172.752,-854.976,-482.144,-15540,-140,-5740
7.07225,6.39259,6.77674,7.34386,4.48229,3.0046,7.0743,-2.05063,6.47545,4.6481,4.83876,5.92173,4.00288,4.91706,4.65761,-2.57366,-176.168,-852.536,-485.56,-16100,140,-5320
6.23584,4.82455,6.68257,2.98234,3.71807,2.85301,3.547,-1.55017,6.60601,5.52858,5.00344,5.22808,3.7512,2.30647,-1.52518,-2.03043,-175.192,-852.048,-481.168,-16380,280,-5180
-0.150682,-4.31717,-0.171021,-5.39055,-3.45984,-1.06027,-4.21865,-5.49618,-0.242556,-0.14264,2.07308,-1.25864,0.214184,-2.30841,-8.71751,-3.47028,-176.656,-852.536,-485.56,-16800,700,-4760
-6.10332,-7.01854,-4.96273,-4.80329,-5.8136,-3.55599,-6.98766,-5.43206,-5.81035,-5.73598,-2.68179,-4.45401,-1.69695,-4.23546,-8.1284,-1.42618,-178.608,-854.976,-480.192,-16800,840,-4200
-6.5757,-6.97864,-6.05344,0.0939422,-1.98482,-3.29456,-4.53144,-1.36973,-7.71931,-4.60532,-5.21407,-4.08941,-2.47465,-1.21997,-4.21393,3.90535,-181.536,-853.512,-484.584,-17220,1260,-3780
-0.711493,-3.16673,-3.38424,5.0375,2.8442,-1.76805,-1.12108,1.79571,-3.25949,1.06145,1.74883,0.59476,-0.687796,1.92923,3.54136,7.44383,-183.976,-854,-480.68,-17080,1960,-3500
7.68032,7.92723,3.60447,9.36964,7.95749,1.05526,2.06622,4.43936,8.77022,8.00684,5.67034,7.08078,3.61318,4.18893,9.60146,9.82091,-184.464,-851.56,-483.12,-16380,2240,-2940
7.80953,8.47787,4.45823,6.17117,6.20399,1.48263,0.775672,2.17141,7.61366,5.38669,4.8808,5.77025,4.0783,3.64856,8.48195,6.83319,-185.928,-849.608,-484.096,-16520,3080,-2660
3.34599,4.61607,3.06795,2.57523,3.95888,1.3852,-1.29115,-0.20257,2.71388,1.62972,3.09936,3.12078,2.84886,2.26321,4.22471,3.11103,-185.928,-848.632,-482.144,-17080,3640,-2240
2.83441,4.36071,3.26394,0.687289,5.70623,0.576047,-0.422229,-0.869396,2.39404,2.39655,1.22369,3.15788,2.62809,0.794781,3.3732,0.847091,-189.832,-848.144,-481.168,-16940,3920,-1960
0.706915,1.24479,-1.41001,-3.53742,1.03657,-0.372494,-2.47024,-4.60366,0.0647095,0.166922,-0.617323,2.12897,-0.131109,-1.72612,0.864364,-1.81642,-188.368,-847.168,-479.216,-17500,4480,-1680
1.04288,4.98438,-0.453939,-2.76766,1.76183,0.277087,0.641124,-0.399916,-0.0303203,2.00095,-1.04631,3.16825,-0.534042,-0.940228,2.05139,2.00464,-189.832,-850.096,-480.68,-17780,4760,-1540
-2.63498,-1.85704,-1.13926,-6.37726,-5.9932,-1.07491,-2.10069,0.0437845,-3.45812,0.0165023,-2.23241,-1.57829,-2.04475,-1.99851,-2.54145,-1.86628,-190.808,-852.536,-484.584,-18340,4760,-1540
-1.75747,-1.34264,-0.20099,-5.19548,-5.33996,-0.411297,-4.11229,3.05595,-0.334692,0.324536,-3.56023,-2.28423,-1.33272,-2.10366,-5.82779,-0.567866,-189.344,-848.144,-480.68,-18620,5180,-1260
-6.40249,-5.75527,-2.76521,-9.04111,-7.74253,-2.2545,-9.37069,2.80049,-6.88115,-4.13613,-5.30217,-7.73269,-4.13718,-4.42482,-11.7261,-1.69242,-192.272,-848.144,-485.56,-18900,5600,-1400
-13.241,-12.7092,-7.20644,-10.9549,-10.5998,-3.01658,-8.8865,1.01757,-16.0805,-10.5223,-4.66869,-13.0159,-6.78515,-6.43638,-8.82536,-7.11547,-189.832,-846.192,-487.512,-19180,5320,-1260
-6.9785,-6.56242,-2.78863,-3.08946,-3.63116,-0.565473,-1.95081,2.59092,-8.91142,-4.45857,-1.42479,-7.23689,-2.87688,-3.26853,-1.97858,-6.15801,-191.784,-845.216,-488,-18900,5040,-1260
-0.491749,-0.746149,0.86517,3.25444,1.75844,0.142143,3.51598,0.38336,0.0943066,-0.067996,0.825135,-1.88383,1.48604,-0.218793,2.45736,-1.68676,-191.296,-842.776,-486.536,-19180,5460,-1400
3.85914,3.09941,3.33146,7.7762,4.76928,0.411642,6.88177,-0.659491,5.15268,2.77085,4.13863,2.69418,4.94347,2.00778,5.05529,0.895818,-189.344,-845.704,-485.072,-19600,5740,-1680
4.24862,1.11415,3.69807,5.60682,4.34394,-0.250483,4.8134,0.191651,4.85897,2.94085,3.63966,1.62659,4.13447,2.56176,-0.509395,-0.720271,-190.32,-843.264,-482.144,-19880,6020,-1820
8.6451,3.80328,3.19962,6.49797,5.4397,1.21172,6.98276,1.25551,9.60156,3.85383,2.70837,4.20546,3.46084,4.28345,1.91024,2.10279,-189.344,-845.216,-485.072,-19880,6580,-2100
9.66538,9.48259,5.08792,12.0297,7.43491,2.5343,11.1232,4.84377,12.0983,6.25277,3.80919,8.00474,2.69091,4.72475,7.39163,6.16854,-189.344,-842.288,-484.096,-19740,6580,-2380
-6.80863,-0.500398,-1.91329,6.39937,-2.06756,1.00988,6.66005,0.0208947,-2.41104,-4.31768,2.80754,-0.555341,-1.55295,0.101492,3.33557,0.585495,-189.344,-839.36,-484.584,-20300,6720,-2660
-10.5061,-2.71447,-6.40972,2.93177,-3.33429,0.684339,4.97843,0.039574,-6.65005,-5.47392,-3.65943,-2.22634,-2.63951,-2.07729,3.36504,1.14354,-190.32,-830.088,-486.536,-21280,6720,-3220
-4.92297,-1.70648,-6.38443,-0.533376,-2.41579,0.544805,2.67376,-0.313541,-4.32715,-2.96544,-6.6434,-0.112287,-1.62892,-1.31546,3.38834,0.804177,-191.784,-816.424,-475.312,-21000,6300,-3220
-1.85491,-2.95783,-6.10653,-3.63766,-4.18815,1.16512,-0.392406,-2.08946,-3.07144,-0.861245,-5.97155,1.56637,-1.82618,0.43983,0.880367,-0.282465,-193.736,-817.888,-465.552,-20300,5600,-2940
1.39922,0.205776,-2.56114,-4.99067,-0.854352,0.573825,-1.83512,-2.00819,-0.688282,0.947078,-2.41251,1.70161,-0.959271,0.0656256,-0.957947,-0.0170303,-184.952,-827.16,-470.92,-17780,4340,-2520
3.61602,-0.130062,0.666859,-5.13622,-0.425876,0.129394,-2.85779,-5.43323,1.32241,0.515635,0.443863,0.931616,-1.50068,-0.890548,-3.85778,-1.37138,-191.296,-836.92,-462.624,-13860,420,-2380
4.78122,0.0275245,3.04051,-4.96644,-2.10275,0.497082,-4.868,-6.00204,3.40506,0.697635,2.72682,1.69341,-1.84742,-1.30609,-5.74878,-3.1305,-186.904,-841.8,-468.968,-14700,1400,-3220
5.58399,3.05656,7.08023,-2.1561,0.0535962,0.450894,-6.25201,-2.6827,5.64002,1.56229,3.45394,2.5168,-0.481217,0.82673,-3.14082,-4.43435,-185.44,-840.824,-479.216,-14420,420,-3220
6.69226,4.60222,4.82319,1.71937,3.06199,1.38226,-1.85129,0.420451,7.09646,1.77877,3.46839,3.08838,1.76333,3.5841,4.45534,-2.22329,-183,-835.456,-473.848,-15680,-420,-3220
8.18083,7.35681,5.57235,3.84875,8.27539,2.56448,1.47142,5.57165,6.88719,4.70659,4.22195,4.59809,3.35409,5.70131,7.61183,3.30789,-183.976,-827.16,-467.992,-15680,-980,-3080
2.33362,0.489718,2.71408,-0.286748,4.95179,0.448673,-1.7547,4.57144,1.2581,1.13349,0.377519,0.777358,0.132528,2.08055,3.42291,2.44187,-178.608,-872.544,-488.976,-13300,-3360,-2800
-4.38956,-7.76013,-1.95802,-7.38438,-1.46545,-2.10152,-5.37746,1.68773,-6.19522,-1.74435,-0.789392,-3.70761,-1.81204,-2.31438,-2.86,-0.495042,-181.048,-857.416,-495.32,-12460,-4340,-3780
-1.49052,-3.26131,1.33919,-0.260638,1.25887,-0.30726,-0.98085,3.83957,-3.46173,2.91293,1.77307,-0.77028,-0.302307,0.346015,0.229452,1.45739,-178.12,-857.904,-487.024,-21700,1820,-5460
-1.5112,-0.849301,0.6771,3.88518,-0.0391799,0.638846,2.42491,3.8002,-0.216841,1.1168,-0.683716,-1.26129,0.195062,1.71334,4.77542,2.57107,-171.776,-857.416,-487.024,-27440,5180,-6580
-2.36765,1.61835,0.142843,5.38318,2.83722,-0.286454,4.02659,5.99807,-0.872174,0.224255,-3.44073,-2.4888,0.0355571,0.830426,4.77611,5.84127,-175.192,-846.68,-483.12,-25060,2940,-6160
-6.76288,-5.47032,-5.45281,-0.0256195,-4.33685,-2.72334,-2.08945,-0.0369703,-6.51551,-5.28763,-3.38216,-7.40637,-1.61215,-3.27907,-3.70704,0.742732,-174.216,-848.144,-484.584,-21980,2660,-5460
-5.96862,-2.9553,-5.23755,0.00713775,-6.07463,-2.50778,-2.20332,0.259102,-4.09552,-4.46536,-2.52965,-4.53395,-0.762692,-4.65859,-3.80022,1.56897,-171.288,-839.36,-473.848,-19880,4060,-5460
0.745929,3.76395,0.0342313,2.84406,-2.32561,-1.24152,1.88694,-1.73918,1.79217,1.15045,0.391975,1.83706,0.870085,-2.85332,0.466274,3.41455,-166.408,-842.288,-473.848,-20720,5180,-5460
-0.286489,1.83404,-0.0508577,-0.545398,-3.17054,-1.34851,1.3601,-6.92506,-0.184685,-0.326731,0.775712,0.802812,1.40549,-0.931559,-3.01436,0.906931,-168.848,-836.92,-471.408,-20300,4620,-5180
-2.24266,2.14278,3.26552,-0.89649,-1.08355,-2.45974,-0.483068,-6.24159,-0.891045,-1.2757,1.09031,0.736864,2.42086,-1.08981,-5.59862,-0.463273,-169.336,-843.264,-471.896,-19880,5180,-5460
-1.70922,1.40114,2.54988,-1.46708,-1.83784,-3.95889,-1.46767,-5.48593,1.26985,-0.588152,1.74996,1.10532,2.54309,-1.25142,-6.39343,-2.36882,-172.752,-856.44,-482.144,-20580,3920,-4760
3.00652,3.94457,2.85158,0.475948,0.990565,-1.94858,1.49957,-3.68009,4.88225,1.19386,2.41343,4.07661,3.44398,0.93889,-3.76918,-2.06504,-170.8,-853.512,-488.488,-23800,3640,-5320
3.82496,2.13525,0.799788,-0.410405,1.80572,-0.914734,1.46578,-2.39554,2.40633,1.57259,-0.259214,1.09175,-0.063857,-0.245187,-3.04537,-2.73589,-176.656,-853.512,-489.952,-27720,4340,-5600
1.81802,-2.93134,-2.57826,-3.54282,-0.138507,0.856907,-0.656761,-2.6613,-2.12664,0.397253,0.100303,-2.82084,-2.59962,-1.21514,-4.375,-3.78011,-173.24,-858.88,-489.952,-31080,5740,-5880
2.25321,-0.949673,-0.541378,-4.72041,3.76049,3.16713,-0.615007,0.765099,-2.71833,2.32639,0.149288,-1.04059,-2.34098,0.308611,-2.20653,-1.94194,-168.36,-857.416,-482.632,-31640,4900,-5460
-5.31231,-7.05955,-8.16611,-9.61049,-4.31959,-0.965792,-7.39531,-4.16209,-8.39354,-3.27067,-3.1323,-6.51968,-5.26181,-2.48483,-6.72982,-9.25954,-169.336,-855.952,-476.776,-31360,5040,-5180
-4.99513,-5.76598,-6.1795,-5.53513,-3.65831,0.368809,-5.84438,-1.82311,-6.52965,-2.80514,-2.04989,-4.15249,-2.7571,-2.13708,-4.37386,-7.80862,-171.288,-859.368,-481.656,-30100,6160,-5460
-1.75568,-1.35391,-0.0201233,1.07577,3.22217,3.70721,1.14799,4.05632,-0.998572,0.0998294,0.0832723,0.0507993,0.146839,2.23003,3.31206,-1.31833,-174.216,-858.392,-477.752,-28420,5740,-6020
-1.62916,-0.707082,1.15925,2.18917,2.49945,4.179,2.59236,4.4591,0.254104,-1.83863,-0.566051,0.180961,-0.38316,3.48429,6.33096,0.779283,-173.728,-860.344,-483.12,-30940,7560,-6720
-1.55389,-0.816645,-1.5486,0.937629,-1.18446,1.95511,1.33841,7.11068,0.25608,-2.82227,-1.57876,-0.281981,0.0320661,1.30531,5.45926,0.635892,-171.776,-855.952,-487.512,-33460,7140,-6860
-0.0626156,-0.203358,-2.51545,1.25675,-2.19148,0.271418,-0.156932,5.86795,1.79527,-2.65346,-1.17664,1.02952,1.01639,0.213113,4.59958,-0.165203,-172.752,-846.68,-490.928,-34440,6440,-7000
4.97346,3.85554,0.957057,5.61295,3.79831,0.384572,1.89553,4.55965,6.7578,2.56443,1.46213,3.85081,2.83933,1.9264,8.81495,3.05645,-180.072,-842.288,-485.56,-36400,7280,-6860
1.04298,-1.41905,-0.206884,1.66804,2.84663,-1.96068,-2.54463,1.96914,2.13947,0.139988,-1.67799,-1.78774,-1.17451,-0.168149,3.42692,2.42162,-178.12,-840.336,-485.56,-38500,7700,-6160
-3.01297,-5.5966,-2.96258,-2.32874,-1.70086,-1.22078,-4.37277,-1.44346,-1.90313,-2.72792,-2.10716,-3.84455,-3.44501,-2.75384,-0.936101,1.89758,-172.752,-839.36,-487.512,-37380,7000,-5040
3.03723,3.11271,6.04921,4.49879,4.07207,1.69022,2.02768,-0.394861,4.26929,4.93913,2.99831,4.37781,2.37382,0.336939,3.81516,7.50958,-178.12,-836.432,-486.536,-36820,7000,-4480
5.10939,4.31961,7.01887,6.05488,1.77726,1.81507,4.39281,-1.23566,4.69479,5.07228,3.90265,5.32244,4.03213,2.55582,5.4292,8.03848,-178.12,-842.288,-494.832,-37660,7980,-4480
7.01953,7.27446,5.39585,7.05616,1.96674,3.13942,6.69725,0.078504,4.58916,4.70225,4.27245,6.18304,5.26548,3.69938,5.16286,8.09867,-181.048,-843.264,-490.928,-38640,7000,-4200
3.9025,5.33991,4.93649,5.16487,2.48601,3.61003,5.04637,1.71767,2.41018,2.32399,-0.0257833,4.13518,3.65981,2.93529,0.559997,4.69247,-178.12,-844.24,-490.928,-39900,7420,-3920
1.81852,0.535842,2.54202,1.48924,-0.301587,0.668761,3.51548,1.31258,1.53835,0.194619,-0.633095,2.32709,0.739219,1.8513,-1.82282,-1.01718,-179.096,-846.68,-498.736,-38220,5880,-2940
5.91842,4.92869,4.65068,3.15169,3.74181,0.325872,6.32143,4.04638,5.56637,4.69735,1.06023,5.58536,1.26842,2.47031,1.97913,0.482177,-181.048,-844.728,-500.2,-37100,6160,-2520
1.13254,-0.818377,-2.00033,-2.15269,-1.2552,-1.20789,2.31277,-1.02245,1.94473,2.06878,0.211631,1.82596,-0.275556,0.0991497,-0.237369,-3.64422,-181.536,-849.12,-502.64,-38500,7840,-2800
-3.02302,0.0256694,-2.97424,-2.58341,0.0709624,-1.94746,1.73817,-1.36307,-0.490533,-1.26641,-0.298272,1.30647,-2.10797,-1.76492,-0.828146,-2.73253,-187.392,-851.072,-504.104,-39340,9240,-2800
-4.70634,-1.69774,-4.05803,-3.71618,-3.60427,-4.98351,-1.25552,-3.6788,-2.44122,-1.74293,1.39054,-0.992004,-2.78723,-4.85337,-3.69303,-5.08983,-183.976,-848.632,-503.616,-40600,9660,-2520
-5.73861,-4.43231,-4.52782,-4.61787,-7.2074,-5.00982,-4.2652,-5.97907,-5.72467,-1.14021,2.21831,-3.66428,-1.3753,-5.55785,-7.23927,-4.65863,-183,-845.704,-504.592,-40880,10220,-2240
-3.71004,1.53822,-0.190808,0.978823,-2.08778,-0.588252,-0.589608,-1.9271,-4.1108,0.413367,0.618211,-1.46864,-0.329757,-0.970831,-3.12566,2.0176,-181.536,-838.872,-506.056,-40880,10220,-2100
-3.47765,1.01986,1.32278,-0.510221,-2.78623,0.974872,-2.03401,-1.84775,-6.06442,-1.53541,0.716279,-3.04396,-1.32153,1.05809,-2.71186,0.882218,-182.024,-837.408,-503.128,-39900,10780,-1960
-2.81459,0.00343821,1.59041,-1.72694,-2.93959,0.729233,-3.95317,-3.01857,-5.06905,-1.40687,1.45288,-4.5353,-0.608342,0.151398,-3.80292,-1.92158,-181.048,-831.552,-499.712,-39340,10500,-2240
-3.22822,-0.218788,-2.10603,-0.182165,-1.56486,-1.31081,-2.16909,-1.00705,-2.21212,-4.81696,-5.50744,-5.16606,-4.19927,-2.17626,-1.46089,-2.51949,-182.512,-831.552,-490.44,-37380,9660,-2520
-3.45759,-0.268616,-8.92742,1.17972,-1.7071,-3.48083,0.574568,1.21308,0.0278044,-10.6042,-11.9617,-5.77018,-9.41525,-3.80576,1.74055,-2.14566,-178.608,-823.744,-497.76,-34300,7980,-2520
3.00884,5.21194,-6.06382,6.59118,4.86675,-0.61089,5.44354,5.98766,5.14657,-4.79971,-8.10775,-1.50066,-5.33021,-0.906604,8.36654,2.8671,-179.096,-815.448,-486.536,-30100,6300,-2800
2.77064,-0.519544,0.333375,1.77481,2.04896,2.64428,-0.47583,2.55956,1.10616,-0.262109,-0.391249,-2.07509,2.91817,2.10084,4.79089,-0.271913,-168.848,-830.088,-503.616,-28140,6300,-3500
-1.35948,-2.15564,3.96979,0.982847,4.32992,5.26692,-1.3723,3.54854,-4.74959,0.878753,3.94298,0.378898,6.7276,5.36846,3.84021,0.09133,-177.632,-829.6,-499.712,-24780,3780,-4200
-5.24848,-8.75944,1.55379,-6.69952,0.359953,3.74392,-6.46967,-0.162902,-10.6463,-0.389593,3.13019,-2.85481,4.23405,2.87841,-2.78752,-4.23342,-179.096,-842.776,-511.424,-29120,5600,-5740
-2.94397,-8.63657,0.190482,-12.5794,-3.94073,-0.0696099,-10.4576,-5.09143,-5.77373,0.0722616,1.28653,-3.27874,1.12072,-1.21052,-8.16697,-6.82608,-177.144,-836.92,-507.032,-30240,2240,-5180
5.52998,-0.211069,2.63781,-6.20899,1.37055,-2.5177,-7.59875,-3.1084,4.78862,5.69827,3.14929,2.30404,0.27731,-1.40771,-5.36313,-1.10938,-172.264,-839.848,-504.592,-31080,2520,-4480
8.68775,-0.581944,4.1995,-4.41205,0.946525,-5.57388,-9.73602,-5.25742,6.65754,7.9892,7.16212,4.30762,3.0082,-2.56815,-8.13518,-2.4621,-169.824,-862.296,-513.864,-28000,2380,-3780
6.8668,0.699293,6.65412,-1.69335,1.65577,-2.60585,-3.83224,-0.989562,6.67538,7.36005,11.0554,6.00763,7.70294,-0.964515,-2.04334,-0.753727,-165.432,-861.32,-523.136,-25340,1120,-3920
8.14224,1.87526,10.3241,-3.64672,-0.65624,0.956892,-0.659671,-0.551943,8.64495,11.6585,13.0432,6.73182,10.7924,2.40927,-2.53202,-0.469995,-173.728,-864.248,-517.768,-29960,3920,-4900
5.64913,-0.388305,5.84283,-5.62821,-4.7376,1.78236,-0.794781,-4.02337,5.29404,6.61427,6.63433,3.59262,6.91399,3.61647,-7.28138,-1.28574,-172.264,-856.928,-514.84,-33600,5320,-5600
-3.57559,1.1109,-5.18289,-0.786362,-0.330287,-2.15852,4.96031,-0.317078,-1.3117,-7.28467,-11.9631,-0.73586,-7.52721,1.95768,-3.64833,4.06096,-167.384,-860.344,-517.768,-33180,5880,-5740
-7.97483,-0.605583,-15.258,2.14602,-0.324843,-5.41663,6.78508,0.310171,-2.96085,-14.9995,-19.332,-5.2628,-16.769,-2.42079,-0.679871,6.55773,-170.8,-855.952,-516.304,-29680,4900,-5180
-0.523185,2.81396,-9.40809,9.26512,3.86759,-0.523992,8.46462,3.91559,5.12742,-5.02728,-7.30529,-1.49884,-7.767,-1.35146,3.72461,9.02867,-170.8,-854,-519.232,-28560,6860,-5740
-3.0554,-1.6391,-8.25161,7.98153,1.23525,2.23454,7.74357,4.59109,2.8095,-4.45766,-4.59724,-2.83428,-4.07501,-1.78779,5.62839,5.86923,-177.632,-849.608,-520.696,-30380,8120,-6300
-6.90687,-6.46554,-5.0943,4.56853,-1.65603,6.01514,6.95039,3.84198,-5.24769,-5.32715,-2.61017,-4.40004,-1.07813,-0.532171,9.55744,3.11379,-168.36,-854,-527.528,-31500,10220,-6580
-5.0483,-0.267459,6.78736,8.01902,6.99897,9.94527,9.07974,8.06727,-9.02038,2.8602,3.70361,4.16911,6.08844,5.94435,12.4959,6.09514,-175.68,-846.68,-522.648,-33180,9940,-6300
-6.72946,-4.53074,4.41016,2.47435,-0.503217,4.44116,1.20965,2.76894,-13.3299,0.444477,1.41695,1.33934,3.49398,2.20723,5.96851,0.981785,-173.24,-849.608,-525.576,-32620,12460,-6440
-4.59719,-2.97982,1.23661,0.238052,-3.07109,-0.756935,-1.42277,1.97106,-10.757,-3.47102,-4.57453,-0.0646322,-2.35488,-2.56375,0.860301,-1.45204,-170.312,-843.264,-526.064,-31920,11340,-5460
-1.04274,-1.58173,1.11183,0.0135605,-2.81223,-1.7454,-2.34936,-0.168722,-3.3461,-2.28956,-2.06659,0.698784,-3.1476,-2.91382,-0.752528,-6.28118,-173.24,-841.8,-522.16,-31360,11200,-4760
-0.987917,-0.802747,-0.258473,-7.54243,-8.55039,-3.45074,-9.55924,-4.77844,2.97997,-1.57238,4.05137,-3.20783,-2.07878,-7.26856,-9.70161,-13.2744,-172.752,-837.896,-524.112,-31920,12600,-4480
-4.19135,-0.371179,-5.88638,-8.69127,-8.76471,-10.5053,-9.45967,-7.15599,2.88644,-4.40351,-0.86078,-7.62518,-7.50771,-11.774,-9.4261,-12.9933,-172.264,-833.504,-524.6,-30800,11760,-3920
4.54934,10.6151,-3.97519,5.88729,2.4269,-8.32144,3.18332,-3.61008,10.4658,-2.04307,-8.09128,0.508111,-7.15818,-4.63798,6.78208,-3.4036,-171.288,-836.432,-526.552,-29960,11480,-3080
14.5219,18.7609,4.58647,13.1799,10.1338,3.1428,10.0177,1.15236,18.4105,6.92858,-0.493147,9.12799,2.63919,7.63682,12.0386,3.54306,-171.776,-833.016,-525.088,-30520,12040,-2800
12.6962,13.9391,9.24728,11.6631,10.3877,8.9283,10.6467,4.92422,13.5662,12.7294,9.13825,6.81815,10.1723,13.1474,14.227,8.92391,-170.312,-833.016,-524.112,-30520,12740,-2380
8.61732,5.4419,9.1952,2.80588,5.79299,8.61208,4.6108,1.95152,7.07427,12.4467,14.2887,2.36693,12.9212,10.9813,6.57453,6.53741,-169.824,-830.576,-529.48,-29960,12740,-1960
6.19555,5.51697,11.4376,-2.00096,9.62933,6.01447,0.517256,2.00785,1.39093,12.1337,11.6876,3.53014,12.1447,7.16719,-0.293258,4.19946,-169.824,-830.576,-529.48,-29400,12600,-1120
5.00044,4.14318,4.76892,-3.15573,7.86947,2.49986,0.0670028,0.176036,0.0683402,7.38703,5.45458,2.32471,6.08603,4.21475,-0.761358,1.44066,-169.336,-827.16,-527.04,-28700,12740,-560
4.91417,5.69572,1.04192,-0.21626,4.85674,-1.18675,1.86338,-0.771875,4.05151,4.92527,0.598853,3.32071,0.850421,0.110822,1.18999,3.53262,-168.848,-824.232,-527.04,-28140,12740,0
1.89239,4.95818,-0.258886,-1.5336,0.662302,-3.6736,-0.161436,-0.881256,4.16397,-1.8873,-3.66502,4.16773,-1.56124,-2.22719,-1.23416,3.26696,-168.848,-822.28,-528.992,-27580,12740,420
-6.96539,-6.07987,-5.81896,-3.34952,-4.56536,-4.42274,-1.63027,-1.50319,-5.43529,-11.1491,-6.62986,-1.90484,-4.26742,-3.19357,-3.20868,0.636251,-171.288,-820.328,-535.336,-27160,12600,560
-12.9393,-9.6864,-5.65811,-0.660352,-6.21695,-3.97642,-3.49087,-1.66854,-12.6882,-12.0329,-5.0614,-4.71545,-4.14464,-5.96489,-4.32902,-0.299836,-171.776,-820.816,-534.848,-26460,12460,980
-13.1108,-15.8389,-6.25072,-10.0865,-13.2344,-4.70498,-12.1121,-4.5371,-16.483,-9.81548,-2.02203,-8.24863,-4.25515,-9.04997,-16,-6.63644,-172.264,-818.376,-537.776,-25620,12460,1400
-16.2085,-20.5133,-11.9002,-16.473,-17.8412,-4.8871,-13.9033,-2.94768,-21.0848,-12.1299,-5.45778,-12.6381,-6.8937,-10.1903,-21.8294,-8.19745,-169.824,-817.4,-537.288,-24780,12180,1400
-9.1148,-13.3721,-9.55231,-7.94778,-12.5634,-2.23937,-7.89285,-0.265882,-12.3977,-5.98149,-3.53649,-7.23606,-3.31352,-4.41551,-13.4294,-4.67703,-169.824,-817.4,-540.216,-23100,12320,1400
-8.96952,-16.417,-8.81606,-5.83639,-11.794,-0.773252,-4.26595,1.86095,-12.3441,-6.05683,-3.27899,-7.90146,-1.99804,-1.73194,-5.45619,-2.07395,-169.336,-818.376,-535.336,-21840,12320,1120
0.646291,-3.25973,-0.560523,3.99391,-2.39032,0.221752,1.51132,5.29015,2.74618,0.554021,-0.403328,-1.65218,-1.43808,0.98189,6.43168,2.0937,-173.728,-815.936,-540.704,-20860,12460,840
7.27259,4.86371,2.26345,7.6614,1.00248,0.638937,1.07664,1.92137,12.983,4.40364,1.2679,2.4862,-1.64054,2.22378,8.8858,0.771608,-175.192,-814.96,-536.312,-19600,12320,560
6.63636,3.5268,3.19379,2.2428,0.304377,0.24657,-4.02467,-2.40719,9.08924,3.68747,2.33381,0.756527,-0.734541,0.698762,0.243328,-3.42064,-175.192,-813.984,-535.336,-18900,11900,280
9.41279,9.03744,8.65044,4.43369,6.15858,0.281757,-2.23566,-2.19203,9.85903,5.95962,1.30857,4.80838,0.990796,1.89884,-3.01579,-1.86109,-175.192,-811.544,-535.336,-17780,11480,0
3.36011,3.85049,3.74207,0.664263,3.72365,-0.67469,-0.776753,-3.73083,3.01666,1.88408,-2.44841,1.47275,-1.18952,0.746028,-3.62916,-0.638332,-176.168,-811.056,-533.872,-16520,10220,0
0.637333,-0.111126,3.72936,-3.22337,3.14074,-0.306474,0.626311,-1.98343,-2.73796,2.08047,-1.86778,-0.073535,-0.943382,0.994714,-2.57505,1.54919,-174.704,-810.568,-532.896,-15960,9800,-420
4.89138,0.0850458,4.92617,-3.02918,4.35504,2.71503,1.68601,-1.16275,1.83362,6.5982,3.69803,5.01275,1.73456,3.51219,-1.10535,1.92139,-177.632,-807.64,-534.36,-15120,8960,-980
8.00772,9.28956,7.60818,9.98883,14.1858,6.92153,12.6774,3.98479,7.26147,8.59352,6.02675,12.8858,4.62994,8.07798,12.7318,7.50054,-179.584,-809.104,-529.968,-15260,8540,-1260
7.12852,9.5763,6.05938,11.8882,13.6284,6.45649,13.555,1.98453,8.87088,7.1844,5.2799,12.8253,5.39705,7.84136,15.0941,5.12064,-181.048,-801.296,-526.552,-14700,6860,-1120
8.0614,5.88021,4.12182,3.63921,7.29926,3.44059,7.32293,0.263144,7.39537,6.03537,5.81172,8.06209,4.93572,2.48744,9.29622,0.412435,-182.512,-791.048,-528.504,-14560,6440,-700
4.35799,2.5006,1.6625,-2.1732,1.51438,0.386773,0.916816,-0.385417,1.85471,1.53199,1.9717,2.22129,2.74279,-1.57511,1.5965,-2.8569,-178.608,-790.56,-522.648,-15680,6440,-420
1.57997,1.69116,-1.90029,-0.986358,-0.779011,-0.505636,-0.977853,-2.13582,-0.700707,-1.9389,0.0410163,0.142398,1.6378,-1.234,0.347533,-4.82493,-176.168,-795.44,-518.256,-16380,6860,-980
-1.07445,5.85343,-2.4837,3.82463,2.27348,0.303515,2.83042,0.0782505,-2.13195,-4.68064,-2.3506,0.449595,0.62431,1.84471,6.50315,0.18073,-177.632,-801.296,-514.84,-17080,7420,-1540
-8.58165,6.21083,-2.90196,9.45221,7.55757,1.84066,11.0352,7.55872,-4.57384,-7.76104,-6.84574,-1.01643,-1.68742,3.67066,18.3779,10.5624,-176.656,-812.032,-510.936,-17640,7560,-2380
-13.5452,-5.41479,-5.91782,0.505414,-1.01273,-1.3432,5.3811,3.50761,-8.65209,-12.2604,-8.11833,-7.12154,-4.06453,-0.889612,11.3305,5.03422,-176.168,-814.96,-512.4,-17500,7980,-3220
-7.84556,-5.9804,-3.65725,-7.23739,-4.61103,-4.81944,-4.21688,-1.14255,-1.53285,-6.31789,-4.99279,-8.05776,-2.99655,-4.41173,-2.37757,-1.11422,-180.56,-823.744,-512.4,-17360,8400,-3920
-4.59554,-6.05306,-6.37167,-9.66584,-8.653,-4.04199,-8.81836,-4.01738,2.32652,-3.66067,-1.16781,-9.36711,-2.21681,-4.72716,-7.95506,-6.22999,-181.048,-831.552,-504.104,-17780,8400,-4760
-8.3322,-11.0994,-10.0718,-17.8719,-11.1419,-4.64075,-16.2702,-3.63867,-5.92913,-5.53708,-2.36391,-13.1232,-3.28987,-8.22437,-21.4854,-12.1655,-181.048,-835.456,-505.08,-17500,7980,-5320
-11.5164,-11.7313,-7.63471,-15.2464,-10.386,-4.85852,-13.7797,-1.42421,-13.1205,-6.70019,-4.1934,-12.6515,-3.79045,-8.01411,-22.8151,-10.1807,-182.512,-839.848,-508.008,-17500,8120,-5740
-5.57786,-6.01496,-1.27904,-8.42466,-9.0067,-1.50245,-10.4047,-0.318428,-7.93497,-0.893938,-1.24332,-5.9091,-2.06928,-4.8496,-20.0875,-6.32415,-179.584,-835.944,-506.056,-18200,8680,-6720
-3.47181,-4.14433,1.32695,0.860835,-3.32395,1.15594,-1.95428,6.12343,-6.65391,-0.213867,-0.234541,-2.91951,-0.415144,-0.769159,-5.48792,2.1293,-179.096,-840.336,-510.448,-19040,9520,-7420
13.6375,10.3011,6.88509,15.6007,5.81189,3.66867,7.33168,7.95887,14.3299,9.64709,6.92224,8.62369,3.6179,5.30373,11.192,8.33671,-182.024,-843.752,-514.352,-20860,9940,-8260
26.9989,22.3248,8.99271,15.7769,9.14328,3.92083,7.22213,6.50865,28.9952,19.1605,10.1889,16.3869,4.12656,4.7285,9.97527,9.46083,-178.12,-853.512,-519.232,-22680,9660,-8260
20.4375,18.1341,6.45604,14.0838,5.91983,2.76568,8.51853,1.54641,20.9586,13.5451,5.47024,13.8529,2.0736,4.14059,11.743,8.26302,-179.584,-841.8,-518.744,-25340,10220,-8540
8.76785,7.92403,1.10774,8.3928,1.38499,0.63083,5.45111,-2.15312,8.40722,4.00692,1.5335,8.36963,0.895054,1.29304,6.62681,6.38467,-176.656,-843.752,-524.112,-27300,12040,-9100
-2.66429,-0.861409,-0.0415706,5.35315,2.18421,-1.00391,4.58997,-3.91933,-7.75888,-0.325858,0.16276,3.05613,0.859113,1.59504,2.9784,7.0745,-178.608,-843.264,-522.648,-29260,13300,-9660
-13.0021,-5.83205,-1.82243,9.87907,5.67273,-0.374971,9.27637,-4.89135,-18.5358,-5.37866,-1.19435,-1.46572,0.136529,3.89794,11.5393,6.70699,-179.584,-835.944,-524.112,-31220,13300,-10220
-12.35,-6.64428,-1.76428,7.86245,7.21887,-0.278205,9.35239,-2.79998,-16.5993,-5.89692,-0.755034,-2.9231,0.866225,3.71717,14.3278,4.53761,-178.608,-841.8,-518.744,-31920,13160,-9660
-15.5929,-20.5276,-4.67848,-17.4019,-7.665,-3.04648,-7.1981,-4.97898,-19.3949,-7.70181,-0.526684,-13.3907,-1.60122,-3.20972,-7.25263,-4.51341,-181.048,-832.04,-515.816,-29960,11760,-8960
-8.61642,-22.5437,-7.66744,-32.786,-20.9045,-5.72019,-23.8711,-10.7476,-7.47111,-7.07209,-0.218541,-16.0348,-5.14822,-9.42942,-29.6338,-17.2055,-173.24,-836.432,-518.256,-26600,11060,-8120
3.16521,-4.61401,0.895412,-17.0236,-10.3525,-2.43639,-19.5837,-9.7992,6.50646,0.724244,-0.812017,-2.52027,-1.24897,-5.17443,-27.5065,-15.804,-175.192,-853.024,-530.944,-27860,12880,-8960
-4.94453,-2.54304,-0.0298542,-2.19347,-1.98999,1.50719,-3.03743,-3.4962,-3.15099,-3.42772,-4.67322,-0.172158,0.331308,0.288206,-7.95192,-5.89846,-180.072,-846.192,-531.432,-33880,16380,-10640
-4.69189,2.18656,-0.581958,11.6958,8.06679,4.35711,17.1911,8.26772,-2.72493,-4.70681,-7.0196,3.10685,-0.86014,3.81737,17.5258,5.62826,-175.192,-855.952,-538.752,-35000,14420,-10220
-1.67165,-1.01733,2.53849,5.95091,2.7321,2.00725,12.5603,7.41034,-1.55817,-2.44022,-3.28636,-0.588351,-1.53893,2.8533,14.5707,2.34009,-172.752,-853.512,-538.752,-33740,13300,-8680
3.98665,2.7066,5.77056,1.38564,0.169651,2.24919,5.48635,4.94766,3.04278,2.05007,1.6205,2.33667,2.58502,4.42832,5.98476,-0.978717,-170.8,-848.144,-544.608,-31220,13300,-7840
9.54693,8.88455,4.31933,-3.33402,-2.65773,0.144771,-4.57311,-1.25023,12.3034,5.26844,2.54779,5.05992,2.85405,0.165703,-6.29225,-5.85217,-170.8,-847.656,-545.096,-30520,14140,-7560
15.7036,15.9072,6.25189,2.37523,1.35755,0.615938,-3.85062,-2.3501,17.4605,8.9729,5.00012,9.56026,2.89871,-0.313395,-3.65957,-3.1976,-170.312,-854.976,-545.584,-31080,14700,-7700
17.7857,18.273,8.86113,10.2478,8.78041,2.81248,5.32518,1.18697,16.0464,10.9633,6.7392,13.0518,3.53612,2.02127,6.63055,4.83322,-166.896,-852.048,-549,-31080,15120,-7700
3.44111,5.02635,1.55232,3.88357,2.78094,-0.0339665,2.43826,-1.3759,0.323785,1.01904,0.430815,2.96548,-3.30904,-2.62326,3.72357,2.26226,-165.432,-844.728,-552.416,-31640,15120,-7700
-9.50181,-9.40753,-8.66918,-6.73451,-5.63054,-2.32798,-0.776605,0.381007,-11.5249,-12.3635,-5.80834,-7.97809,-7.95172,-5.36169,0.644928,-1.44402,-167.872,-840.336,-549.488,-30800,15540,-7560
1.03744,5.36789,0.276006,1.24232,4.11064,-1.00977,2.20713,4.56969,4.76085,-1.28713,-0.650344,2.88704,-1.91448,0.458097,3.16725,2.54917,-168.36,-841.8,-552.904,-28980,14420,-6580
-2.16412,3.64321,1.28167,6.97618,6.30906,1.15902,4.07377,3.88954,1.455,-2.02483,-1.59182,4.29197,1.33391,3.03942,7.81533,3.15406,-165.432,-834.48,-552.904,-26740,14700,-5740
-4.80196,-4.35587,-0.288345,0.99708,3.04586,1.00073,2.17392,7.18239,-2.59869,-2.49105,-1.21437,-1.41234,1.76075,-0.307824,4.66307,1.5196,-163.48,-831.552,-545.584,-24920,14140,-5180
-1.37438,-2.50238,1.01139,0.574209,0.781607,2.59323,-0.658854,6.17889,0.733513,1.01714,1.07603,-3.01287,1.60659,0.450716,2.85289,-0.0639642,-163.968,-832.04,-544.608,-21980,12880,-4200
9.58138,6.76481,4.69412,5.64195,5.59282,4.96186,-3.89576,3.26071,15.1988,8.94382,5.28966,1.69552,5.05878,4.17549,1.50408,-0.189947,-169.336,-829.6,-548.024,-19180,12320,-3500
2.25481,-2.24569,0.63245,-5.70314,2.5772,1.98561,-10.096,1.13248,4.1072,10.3475,4.66175,-0.297977,5.88316,0.930219,-10.6238,-1.16108,-159.088,-830.576,-548.512,-18200,12320,-3500
-11.2432,-11.6241,-6.26926,-3.76521,1.29541,-2.16849,-4.37504,-1.33846,-15.5912,0.710823,0.644862,-5.02527,3.4978,1.14371,-3.14632,3.75773,-159.576,-824.232,-545.584,-14560,14000,-4480
-2.5989,3.48575,-2.80619,15.3563,13.1998,-1.29087,11.8019,0.853092,-5.22971,1.37817,0.227125,5.22556,4.66126,4.9275,20.3222,11.4873,-165.432,-831.552,-547.536,-9660,11900,-4480
3.68933,2.70636,-4.45645,-1.05957,1.06614,-3.41969,-2.25524,-4.56161,0.45656,1.57577,-0.633148,1.03615,0.558397,-0.449052,-1.52317,-0.288786,-175.68,-828.624,-549.976,-7840,13160,-4760
-2.7267,-10.9739,-10.556,-29.7725,-20.4544,-7.51075,-25.8816,-7.78231,-7.85444,-5.78313,-2.9058,-12.4771,-5.65258,-9.41701,-40.3308,-12.6191,-168.848,-828.624,-557.296,-10080,10920,-4480
-6.29423,-9.06848,-7.38542,-20.6015,-15.18,-5.8653,-18.5934,-5.96911,-12.5346,-8.5466,-4.16016,-10.0395,-4.47699,-6.68022,-27.3947,-6.70691,-169.336,-822.768,-556.32,-16380,13160,-5460
-4.01564,-1.32572,-1.53882,3.78173,-2.91044,-1.05243,-3.63557,-7.45014,-13.1374,-4.85158,-0.433189,-2.62699,-1.79768,-0.382218,0.785052,-0.390971,-166.408,-821.792,-561.2,-18760,13300,-6020
-2.97536,1.74721,2.98418,14.329,4.38998,2.93025,7.58077,-4.731,-11.2665,-1.24539,2.2017,2.19972,0.253045,3.88125,14.1461,6.65487,-165.432,-812.52,-561.688,-19040,13580,-6300
-1.85438,4.90185,6.22608,20.9464,10.9584,3.48727,16.0436,-0.916699,-1.57102,0.886329,1.35633,3.81414,1.0022,7.0562,23.2677,11.739,-166.896,-811.056,-556.808,-17500,12460,-6440
-18.5574,-21.3258,-5.85916,-4.77762,-9.4492,-1.92946,2.80792,-5.01797,-21.2923,-11.4041,-5.70797,-15.5845,-6.14705,-3.17674,2.67128,-0.0447812,-165.92,-810.08,-556.32,-16380,10640,-6300
-13.4445,-15.7495,-4.76019,-8.04432,-9.50016,-2.09542,1.8125,0.232113,-15.056,-11.2857,-7.63287,-13.5361,-8.37304,-4.30336,-3.65432,-0.211823,-167.872,-816.424,-559.248,-14700,9800,-6300
11.751,15.1708,4.01079,18.194,5.54004,1.42003,16.0066,6.13483,22.6594,0.236495,-3.57906,8.77944,-4.68522,3.00292,16.9869,7.50235,-167.384,-811.544,-553.88,-13720,9660,-6860
22.7957,26.1251,8.7348,22.9336,11.7398,2.40238,19.6237,6.29998,37.9836,11.9671,3.9218,20.2051,1.87065,4.18962,19.633,8.79183,-166.896,-810.568,-551.44,-11900,8540,-7000
14.933,16.0061,4.05348,-0.0039076,-3.73075,-1.90305,-1.81697,-2.63326,30.8275,8.90378,5.97524,11.3238,1.65234,-3.80613,-9.08565,-6.13199,-169.824,-810.568,-552.904,-10220,7420,-7140
6.45918,6.99082,3.01586,-4.84215,-7.87775,-0.420869,-5.538,-2.23052,18.8958,2.99162,5.08703,4.61048,1.48773,-4.41536,-13.2133,-8.67211,-170.312,-816.424,-554.368,-9380,6440,-7280
-5.77961,-6.92648,2.11416,-3.02367,-0.663648,5.31743,6.55592,8.91326,-5.55168,-0.10827,2.34204,0.280052,3.44539,1.54263,2.08449,-0.998321,-167.384,-810.568,-548.024,-8400,6300,-7280
-11.1603,-22.2052,-5.3223,-28.0564,-14.5293,3.22128,-7.15528,7.62981,-15.8344,-5.51735,-2.76749,-9.52475,-0.780966,-2.5432,-20.0149,-7.67395,-166.408,-803.736,-549.976,-7000,6580,-7700
-3.00766,-10.3362,0.165683,-16.2088,-6.22531,1.44049,-5.58908,2.31457,-5.66466,-1.3497,-2.54943,0.195954,0.460443,-0.375209,-12.2053,-8.84925,-164.456,-808.128,-549.976,-6440,7560,-7700
-0.112254,3.01834,4.14073,8.45466,9.69759,0.624434,9.5605,0.301445,-2.94708,2.06392,-2.30318,8.75646,2.09105,3.36251,14.3894,-4.07112,-166.896,-810.568,-552.416,-6300,7980,-8680
-8.19385,-14.3353,-8.74013,-16.5263,-7.49174,-5.27926,-5.39798,-5.99429,-13.512,-5.12272,-4.07946,-10.3386,-5.71145,-7.45945,-11.1778,-12.0355,-164.944,-820.328,-558.76,-6860,7700,-9100
3.37496,-1.54103,-2.44099,-12.0172,-2.31094,-4.42866,-8.8505,-2.12824,2.63285,2.43182,-0.00900142,-6.88779,-2.62233,-5.92881,-15.9981,-9.08415,-162.992,-821.792,-557.784,-6720,7280,-9100
10.3493,13.9183,5.45674,13.5658,12.6315,1.63961,9.61031,4.66585,11.9734,5.03867,3.42251,3.004,4.18301,4.40801,15.3301,3.10409,-161.04,-814.472,-552.416,-4760,6440,-8960
2.26355,11.0277,4.3612,16.0281,16.012,4.67807,13.2321,9.0684,-1.42422,2.49262,1.61496,0.965708,5.62309,6.60014,24.0411,8.95645,-158.112,-815.448,-549.976,-3220,5880,-8400
3.11508,7.9985,1.76961,5.74123,6.99305,1.282,0.945558,6.45671,1.16102,3.41254,1.15683,-0.486883,2.90179,2.61757,8.89855,4.54287,-157.136,-816.424,-552.416,-3080,6440,-7980
-0.375941,2.08384,0.213168,7.79361,4.69715,0.0913187,2.21608,4.23498,-7.34425,0.295856,1.30931,-0.63816,1.62562,2.45782,11.092,6.49173,-155.184,-807.152,-548.512,-3780,7280,-7980
-9.87482,-8.40153,-2.26925,4.53256,3.47207,2.15644,4.59863,4.24576,-23.5631,-5.76915,0.285369,-4.87833,2.67772,3.25508,13.2476,9.7875,-149.328,-805.688,-549.976,-3780,6580,-7000
1.4007,-1.14515,-1.30344,-3.02932,-3.01645,0.593691,-4.75765,0.602118,-1.17683,-1.69974,1.36237,-1.61192,0.995729,0.994479,-0.421418,4.93347,-143.472,-796.416,-549,-3220,6300,-6300
8.82781,5.41072,3.46506,-10.3345,-6.48634,-1.69393,-18.6118,-4.43982,11.2454,7.53588,4.10157,3.7638,2.43081,-2.72687,-21.9182,-2.83357,-144.936,-799.344,-549.976,-3220,6580,-6300
0.687901,3.43987,2.3289,-5.56356,-2.0965,-1.78178,-16.2221,-5.83405,0.714338,2.51481,0.248257,4.64434,1.60888,-0.565511,-13.9903,-2.55324,-142.984,-800.32,-548.024,-2940,6300,-5880
6.64289,12.9704,5.00611,7.98175,7.42019,1.79042,-4.61619,-3.88581,11.3558,3.8976,0.922628,11.5477,3.50357,4.71519,3.15981,3.61678,-135.176,-796.416,-547.536,-2240,4620,-5320
10.919,12.6181,6.92813,9.79487,8.91148,1.08088,-3.36523,-8.58794,14.496,7.31997,2.69609,12.6621,3.02376,3.3947,3.87923,3.18976,-135.176,-794.464,-542.168,-840,2940,-4760
2.70463,1.54412,-1.72012,5.41769,4.00488,-3.9319,-3.84716,-13.8881,5.85694,-0.312475,-3.01065,5.38353,-4.36444,-1.00431,1.7563,2.29044,-129.32,-799.344,-540.216,1260,1260,-3500
-6.84282,-8.29255,-7.9554,-8.20648,-6.27058,-4.83253,-8.21411,-12.0246,-3.38934,-4.07267,-5.52928,-4.27289,-8.04165,-4.81359,-9.22214,1.15292,-127.856,-799.832,-544.608,1680,1260,-3080
-5.61222,-6.42922,-5.54586,-8.48866,-9.33644,-3.51228,-9.18668,-10.5502,-2.20588,-2.25454,-2.90533,-5.95905,-5.99767,-3.93603,-13.9043,-0.51454,-125.904,-802.272,-544.12,700,1540,-1400
-11.8331,-21.584,-9.60141,-24.257,-20.7324,-7.25901,-19.1587,-14.2566,-13.1323,-9.18817,-2.15986,-16.08,-4.83745,-9.05395,-30.3293,-8.49905,-127.368,-803.736,-545.096,560,420,0
2.89968,1.73276,0.0202478,-2.99817,-4.1317,-2.31319,-4.36857,-6.53515,6.96099,-2.11297,-1.74985,0.328997,-2.14569,-1.00266,-9.48658,2.11335,-122,-803.248,-545.096,980,-700,2660
2.26419,0.209346,2.35903,4.67947,-0.889971,1.81407,4.6969,-5.23528,3.04214,1.6582,1.64644,1.71878,0.925147,4.39436,5.71358,1.73797,-117.608,-807.64,-545.096,1120,140,4760
-16.2159,-16.424,-1.31027,-7.40924,-5.49634,1.99904,1.61404,-0.775263,-23.9774,-2.81782,2.4903,-10.7441,0.869364,-0.0561494,1.05784,-0.615091,-120.048,-812.52,-547.536,-280,2380,5740
-15.1626,-8.67699,0.413463,7.37991,6.18441,6.71033,15.0136,6.21546,-18.3328,-3.46547,4.5579,-6.82393,2.74822,5.8971,20.0229,8.15649,-114.192,-816.912,-549,-2100,2940,7560
-0.238606,6.73056,6.29587,18.8851,15.6911,11.3624,20.5955,11.2916,1.70148,2.94424,5.28664,6.39656,6.8557,11.5469,24.4358,11.86,-115.656,-820.816,-552.416,-2240,4060,9800
10.06,9.49712,2.69355,10.6455,7.78288,6.84818,7.74939,10.6244,12.2808,5.4925,-1.00744,7.86062,1.98887,5.2898,7.06167,1.27802,-118.096,-818.376,-549.488,-2240,5180,11620
3.12071,5.56877,0.324908,15.3428,7.80074,6.16602,10.3962,13.0977,3.63345,-2.4193,-2.90152,4.1335,1.0465,4.51136,14.0387,-0.435677,-117.608,-816.912,-550.464,-2100,6440,13580
7.43373,15.1235,7.49374,18.3653,11.1603,7.36382,12.3793,13.1602,16.8496,-0.331745,1.34689,11.2083,3.58698,6.21069,13.4526,-0.651021,-117.12,-822.768,-550.952,-1400,8260,14700
1.32657,-2.81925,4.41353,-8.44231,-5.66324,-0.158645,-6.11698,7.09133,4.99433,-1.1723,1.99037,0.643166,1.00608,-2.52091,-15.2918,-14.4746,-123.464,-822.768,-548.512,-1120,9520,15400
-17.9304,-31.652,-7.8236,-32.107,-24.3537,-10.3507,-23.0084,-0.516508,-27.4119,-10.555,-1.84665,-19.0236,-5.24548,-15.81,-37.4962,-27.0798,-129.32,-839.848,-548.512,-700,10080,16240
-11.8183,-20.7194,-6.00361,-18.09,-13.5131,-12.0046,-11.4185,-3.70994,-24.729,-8.00979,-4.05264,-14.4971,-6.44472,-14.5585,-21.5882,-21.9224,-132.248,-836.92,-544.12,700,11200,17080
-9.8707,-16.8767,-16.5744,-22.7618,-20.2765,-18.5267,-8.45663,-7.20052,-18.0197,-15.0608,-15.8953,-18.7619,-19.1059,-20.6005,-21.8022,-21.4739,-134.2,-837.408,-543.632,2240,12180,17920
6.11054,4.82286,-19.5069,-8.87172,-14.4717,-18.56,2.73336,6.08545,8.22973,-10.8922,-21.7741,-12.4737,-26.7222,-19.5404,-8.5646,-9.73276,-137.616,-839.36,-545.584,2940,13300,18760
24.846,32.5173,2.4563,34.8681,18.5874,-0.181032,40.4443,20.8136,32.5696,7.11399,-3.2601,12.2559,-4.92416,4.45282,45.0065,15.3149,-140.544,-832.528,-541.68,2940,14980,19320
11.1793,19.6471,6.56705,32.2612,19.813,0.480752,41.9296,10.6812,16.7993,11.4564,10.8288,10.4649,8.76331,5.5942,52.3352,12.8314,-146.4,-815.936,-548.512,3360,15820,19880
19.1627,32.7245,16.0291,42.8423,28.0369,7.34427,41.725,13.4043,25.7415,23.5407,16.8632,23.0852,17.887,11.429,56.4629,18.6911,-155.184,-784.216,-560.224,3360,16660,21000
14.3417,13.8036,14.5563,14.8338,10.829,16.4037,17.0995,13.3254,16.0056,22.4091,19.6973,16.9128,23.0505,13.8693,18.6515,11.766,-161.528,-758.352,-567.056,140,19460,22960
2.51492,-2.86418,7.99763,-10.3864,-4.87782,13.3363,-8.66441,7.083,-0.742328,12.6279,14.4205,5.53395,17.4775,7.7171,-21.0605,-0.592333,-150.792,-752.008,-566.568,-3500,22680,23520
3.87985,10.4722,5.25417,11.4172,7.04658,12.0981,9.56302,11.8922,9.76442,4.24074,2.37783,10.255,8.29318,11.6086,5.03109,11.0888,-146.4,-778.848,-561.2,-8680,28420,22400
2.54158,10.3217,-0.144013,11.9747,7.2847,9.17157,9.72054,7.19947,8.43849,-0.616031,-2.19345,8.63624,3.32957,8.42528,8.58388,12.6056,-142.984,-805.688,-554.368,-9660,29680,20720
12.205,10.3689,0.781922,-2.4421,-0.239797,6.17813,-10.405,-2.54732,16.8608,5.86399,-1.50502,8.99038,3.46784,5.98288,-14.1408,5.26645,-153.72,-819.352,-549,-6160,28140,18900
3.21283,-1.49875,-6.76493,-15.7539,-8.1754,-1.56986,-21.921,-11.5245,10.5646,-4.20765,-7.77046,0.348023,-1.96359,-1.53248,-20.262,-2.0819,-162.992,-823.256,-556.32,1120,23520,19180
-9.73005,-21.0304,-7.88193,-35.919,-18.0742,-9.00778,-35.7392,-24.6453,-10.1173,-10.8949,-4.05994,-12.6424,-4.50718,-12.6357,-35.6765,-14.6219,-173.728,-819.84,-555.832,6020,21560,20020
-20.5218,-32.7876,-4.99453,-43.3342,-21.4677,-6.23486,-42.0548,-31.4848,-31.3512,-12.8684,-0.573242,-20.5514,-1.73325,-9.82254,-43.761,-13.9102,-176.168,-817.888,-559.248,11340,20160,20720
-26.9582,-31.097,-2.00151,-34.0239,-16.8488,-0.649227,-37.8841,-30.0677,-43.7047,-8.48749,-2.1655,-20.6568,0.847194,-2.44586,-33.2468,-4.52212,-176.168,-811.056,-561.2,15680,18620,20720
-23.7812,-13.2261,1.78253,-5.37192,5.21557,5.83984,-11.9574,-11.4147,-34.7682,-6.76985,-7.49428,-7.93303,0.23107,8.11325,2.32978,18.0229,-170.312,-803.736,-575.352,22400,17220,20160
-29.7186,-20.9888,-7.16481,-13.4437,-2.14101,2.037,-16.9912,-11.1926,-33.8159,-21.2152,-10.8949,-12.0046,-6.77515,3.3806,-6.17637,16.2674,-168.848,-798.856,-574.864,26880,17360,18200
-11.7056,-10.154,-3.69813,-15.7557,-3.90731,-3.33941,-23.1963,-8.30662,-7.32081,-12.0899,-6.06924,-5.7215,-9.28388,-0.00419999,-19.7384,18.7584,-165.92,-788.608,-584.624,31780,15400,17780
1.55528,-1.30085,1.49079,0.322443,2.52834,-5.41333,-10.174,-6.63496,4.86569,-2.14606,-2.71844,1.88783,-5.65749,3.37549,0.277427,23.222,-161.04,-779.336,-582.184,36680,13020,17640
6.9124,-1.42933,7.01768,-2.29703,-0.030606,-8.62546,-13.1683,-14.5401,3.27155,7.61506,9.7525,3.25989,2.17609,-1.72741,-5.43492,11.2106,-162.016,-778.848,-587.552,40880,12460,17640
2.09714,-8.14392,4.95136,-11.8136,-5.35503,-8.51386,-17.3881,-11.3508,-7.95661,5.45083,12.2689,-3.70424,2.325,-4.86438,-14.1641,1.65256,-158.6,-778.848,-590.48,42140,11900,16380
-4.25986,-6.37556,-5.86227,-6.93425,-5.9596,-9.98381,-9.42893,-1.29801,-11.8013,-5.5076,1.69097,-9.95534,-7.13987,-6.30165,-6.81033,-2.42555,-153.72,-775.92,-586.576,42980,10080,16100
-9.93909,-5.52636,-25.1342,0.755094,-4.89962,-21.5799,2.69954,6.57985,-11.9845,-23.0606,-25.2308,-15.2751,-34.6215,-18.5177,2.77439,-8.69018,-150.304,-784.216,-589.016,44100,8400,16240
7.38224,15.2361,-25.883,20.6242,4.00185,-28.2926,12.5562,0.861382,12.9145,-17.7622,-33.194,-4.6142,-39.4039,-23.7202,17.4018,-20.4318,-154.208,-785.68,-590.48,42140,7980,15680
29.8428,42.2537,-0.993429,57.0459,27.1924,-14.8824,45.5803,3.17762,42.4386,10.6223,-2.96631,18.6348,-9.05014,-9.96441,65.9988,-14.3751,-146.4,-772.504,-575.84,40740,7140,16240
13.8852,20.4061,10.4071,38.4726,19.0753,1.73842,40.7861,9.92304,15.279,16.2726,16.8823,9.13521,11.5741,-1.09477,54.7141,-19.9977,-147.376,-787.144,-572.424,44380,2660,18060
35.9996,37.1004,33.0141,34.8242,22.7708,23.9454,34.4985,19.3275,39.2845,38.6408,39.8706,31.9432,34.9462,20.1792,40.7871,-17.8438,-144.936,-803.736,-573.888,42280,3920,17360
49.9523,37.4655,46.2146,17.5394,25.7779,38.8434,29.8379,37.3244,51.9217,51.207,45.5884,45.2561,44.7997,36.2024,14.9893,-4.22605,-141.52,-806.176,-567.544,37800,5040,16940
35.402,27.2902,34.6715,9.5389,22.8872,35.0563,23.7678,42.1663,41.3125,35.169,27.469,37.2209,33.1001,35.0165,-3.68306,5.40775,-139.568,-818.864,-563.152,35280,3640,16800
12.7335,12.5944,11.4799,7.34657,12.1019,19.2806,19.4606,31.4854,21.7668,11.7551,4.63598,21.4321,11.0805,18.4232,1.91754,0.134824,-146.4,-831.064,-556.32,31920,5320,16100
-10.8416,-4.84964,-9.6786,-4.41879,-5.86568,3.77848,9.71025,16.453,-1.42454,-5.54851,-12.3158,-1.07624,-5.34428,-2.34134,-3.28962,-13.1055,-150.792,-843.752,-549.488,27580,5320,16380
-22.9561,-13.1951,-14.8008,-8.39493,-16.0237,-0.712879,5.85136,1.69207,-9.57342,-13.2399,-12.4702,-14.4974,-7.89702,-9.86887,-2.49036,-15.2961,-148.352,-835.944,-535.336,25340,4480,17500
-19.1164,-12.8113,-9.40952,-22.4223,-21.1266,0.122242,-18.1269,-6.01036,-6.69344,-6.79929,-3.93645,-16.7341,-1.01448,-9.46966,-37.6368,-12.3003,-140.056,-837.896,-526.064,26600,3500,19180
-12.104,-7.21348,-3.91427,-6.3123,-11.3655,3.17494,-5.70353,-2.08619,-11.3917,-4.90058,-4.78847,-12.4925,2.19541,0.0120618,-16.6836,5.17267,-139.568,-844.728,-524.6,27580,4480,20020
-16.7343,-23.7996,-8.36014,-5.73495,-12.829,-0.441208,-1.89657,-5.66977,-33.6764,-15.7475,-10.8899,-20.7025,-2.73295,-2.86973,-5.51239,6.90019,-143.96,-849.608,-517.28,27020,5600,20580
-24.1926,-34.0982,-14.6158,-10.8914,-17.6059,-8.58552,-12.7623,-18.3095,-42.7222,-21.4997,-15.1889,-26.2365,-9.20922,-12.1066,-12.5654,-5.80492,-147.376,-856.928,-514.352,26740,5740,21420
-34.9072,-34.3731,-24.6738,-13.7975,-22.9572,-13.8126,-18.4748,-26.5006,-44.9922,-34.247,-27.8942,-31.075,-19.3365,-18.347,-13.7211,-10.8161,-153.232,-859.368,-512.888,27160,5040,22260
-23.8612,-20.076,-21.6996,-12.6161,-19.8488,-15.4565,-20.2807,-26.1717,-25.5309,-28.0958,-27.6398,-22.3353,-18.2615,-17.3893,-17.4071,-4.67249,-151.28,-857.904,-517.28,28140,3640,23100
-8.25351,-4.35947,-15.1439,-3.71556,-9.44047,-12.5836,-10.1493,-18.1949,-3.58818,-16.0462,-24.9659,-9.79631,-15.0433,-10.4451,-8.20881,7.70168,-149.328,-851.072,-508.008,29540,2520,23940
-4.78358,-2.30326,-13.3215,-4.09967,-5.20039,-10.4611,-9.21663,-15.0932,1.11157,-10.5104,-17.5078,-6.66705,-9.9235,-7.90701,-8.11851,11.0538,-150.304,-854.976,-510.936,30240,1960,24360
-11.0118,-9.51083,-6.45727,-8.20022,-4.80738,-5.71214,-7.6455,-10.3176,-13.1749,-9.43323,-9.05239,-9.35098,-2.7307,-2.93416,-7.29656,15.3039,-143.96,-848.632,-512.4,30240,980,24780
-8.47598,-12.5192,-4.17582,-15.9842,-10.6781,-5.33074,-14.483,-10.5587,-12.6584,-7.69202,-4.23133,-8.2504,-2.69595,-3.25867,-16.6885,10.1509,-143.472,-855.952,-515.816,30520,0,25340
0.63766,-8.03387,3.74057,-17.9435,-6.31712,-6.62087,-21.7938,-6.38,-7.32195,4.66175,12.2104,-1.4898,1.08376,-5.06625,-22.9675,2.97704,-139.568,-876.936,-518.744,28980,280,25060
9.41892,-0.723783,13.2093,-7.30635,5.47963,4.07119,-13.4427,1.18663,-0.846243,15.4604,23.8324,9.09461,9.4396,5.19636,-10.2411,5.0751,-144.936,-866.688,-522.16,24220,1540,24500
16.2991,11.0157,17.3991,8.23519,17.4499,9.97217,2.96082,6.80532,9.2876,19.2587,27.0651,19.9456,14.4729,14.8534,8.86245,11.408,-144.448,-857.416,-501.664,22120,560,25340
21.5796,16.4256,18.7406,8.28526,15.8629,4.74624,5.9909,5.35171,17.3994,21.3126,29.6139,21.1568,13.0011,11.4765,9.9587,6.55464,-155.184,-885.232,-529.48,27440,-2660,26880
16.6231,13.3835,11.753,0.599681,8.54855,1.55171,3.06304,4.1863,18.9117,13.1255,22.7592,13.2552,3.97581,4.09761,7.72528,-0.413155,-150.792,-875.96,-524.6,13860,1680,24780
14.6768,14.1852,8.0747,3.06589,9.13738,2.24637,7.42401,4.35489,20.7351,8.5747,17.0731,9.74503,1.3146,4.14524,16.1492,-0.507883,-149.816,-872.544,-518.256,11900,1540,25760
9.44476,14.5726,5.30079,10.7719,14.9574,3.7119,18.6425,11.2986,16.3633,3.59779,8.23393,7.2956,1.24517,6.97562,32.1939,6.47043,-156.648,-861.32,-513.376,11340,1680,26320
-0.521172,4.98309,-0.158082,1.2547,9.01474,1.13669,12.0233,10.2567,4.32387,-1.98515,2.4809,0.324292,-0.953015,2.46426,23.3451,5.23734,-158.6,-859.856,-517.28,10780,1540,26460
10.0699,9.49433,2.24156,2.28726,10.6884,2.45986,10.51,10.3989,16.3119,6.08565,-3.10923,6.77476,-0.294548,4.34667,20.0005,5.96935,-162.992,-849.12,-518.744,7840,1260,27020
0.898587,4.01435,-7.72945,4.63202,5.47645,-0.392293,7.34978,10.6846,9.74403,-4.62493,-14.7433,2.34339,-6.0651,1.36228,15.3596,5.05868,-164.456,-854.976,-520.696,4340,2100,28000
5.37852,6.76891,-0.675852,6.04207,4.21356,-6.48097,0.302762,2.64939,8.62912,6.35697,-0.926419,6.23441,1.55803,-5.19292,9.41478,-3.93035,-162.504,-857.904,-517.768,980,3080,27720
8.5066,10.2838,5.25128,13.6759,6.0738,-0.30308,3.26054,2.16411,9.97756,11.9369,3.49701,9.76157,8.28395,-0.26503,13.226,-3.41196,-163.48,-856.44,-520.696,-3640,5040,27160
0.769496,5.19415,4.18367,18.3844,7.23152,6.94339,9.59473,6.14789,2.70069,5.9342,-5.06066,5.4526,6.16263,5.9821,13.8465,6.66474,-165.92,-854,-517.768,-6160,6160,27020
4.94067,11.5232,9.46088,21.2313,12.4479,12.6112,15.9296,15.8181,6.11,9.24395,-3.4482,8.79673,7.00805,11.3038,9.84046,16.1711,-166.408,-848.144,-510.448,-8540,7420,27160
8.72988,13.757,11.3062,20.7096,12.5408,16.8889,18.8587,19.3598,9.15063,9.06244,0.313951,10.6784,9.03336,16.1763,5.65988,18.2286,-166.896,-849.608,-513.376,-9660,7140,27720
8.73545,13.3366,10.505,17.3655,12.6018,12.8188,17.0974,17.7269,8.86029,6.2265,-1.2555,9.70724,5.94502,13.3499,4.39243,15.239,-167.872,-846.192,-510.448,-11900,7560,28280
1.96874,1.68826,2.29327,-1.68196,-2.4352,2.26673,-4.78864,2.47781,2.52411,1.46918,-2.40996,1.57239,-0.972875,2.93254,-19.8304,-2.96211,-170.312,-837.408,-500.688,-13720,5740,29540
-1.18007,-2.75321,-2.05959,-11.2259,-13.4595,-11.8396,-21.1712,-20.2244,-0.0038739,1.47603,-0.93813,-2.40413,-4.74044,-10.5971,-34.3296,-20.6719,-172.264,-845.704,-505.08,-15540,4760,30380
-14.8627,-16.7285,-11.7644,-23.312,-25.3404,-19.1062,-27.5304,-31.2598,-17.0484,-11.002,-12.5186,-16.2024,-14.6888,-21.4604,-36.593,-32.2232,-173.728,-849.608,-502.152,-21980,5600,30100
-23.8105,-28.5541,-19.3917,-30.0277,-30.6666,-16.3264,-26.293,-27.6076,-28.7827,-22.6023,-16.8228,-25.7507,-18.5473,-20.7703,-33.458,-30.3999,-164.456,-850.096,-499.224,-29400,6860,29540
-17.4481,-23.1657,-12.5836,-21.0296,-19.7294,-6.52938,-14.5107,-15.8568,-22.8054,-14.437,-6.2805,-18.8663,-9.19288,-10.2861,-17.8572,-18.0146,-170.8,-845.704,-498.248,-35280,8960,28000
-13.7082,-18.5971,-5.46211,-14.4796,-10.8899,2.20776,-6.75919,-5.27486,-20.8549,-10.8904,0.765406,-14.9989,-0.0299519,-1.45513,-4.97977,-8.07261,-168.848,-854,-500.2,-44240,9800,25760
-10.231,-14.7855,-4.28017,-13.3743,-11.8454,1.78265,-9.01526,-2.72555,-19.9734,-10.7739,2.48959,-12.3838,2.54815,-2.78905,-9.31915,-8.19071,-175.192,-860.344,-498.248,-51520,10500,23660
-8.63358,-10.9322,-4.28463,-7.49232,-7.1842,0.993235,-4.82053,0.888347,-18.4064,-11.4825,-2.19056,-8.66399,-0.712433,-2.55612,-9.92375,-4.87723,-182.024,-867.176,-494.344,-60620,8960,22400
-11.5634,-14.8124,-10.0914,-7.59703,-9.30966,-3.42047,-7.55393,-6.55007,-20.0837,-17.1965,-6.26684,-11.4356,-4.29981,-5.88894,-11.7977,-6.13991,-187.88,-859.368,-495.808,-65940,9380,21560
-5.38123,-4.01759,-7.0051,-2.83484,-1.39788,-0.10831,-2.13159,-3.76912,-9.55515,-8.46249,-4.66471,-1.95525,0.745471,-2.49188,-4.17963,-0.0997804,-184.952,-851.072,-493.368,-72940,9100,21280
-2.80904,2.73505,-5.6938,6.28571,3.76787,1.67069,13.1344,6.26034,0.654969,-6.41976,-6.67749,1.2201,-0.552031,2.39008,12.7807,11.4228,-183.976,-845.216,-489.952,-76860,9240,21280
0.707861,6.83556,0.839374,12.0871,8.79796,3.24408,18.1283,9.75195,7.92361,0.701407,0.730999,2.73478,3.22136,3.61884,20.875,15.2578,-177.144,-829.6,-500.688,-77980,8120,21420
6.1358,9.88513,5.44621,9.46483,7.33315,4.76169,8.88374,10.1816,14.7455,9.25156,3.44233,7.00844,3.27222,3.35669,14.0661,10.7901,-186.416,-836.432,-503.616,-84280,10640,20300
0.376866,-0.0435636,-10.4672,-2.07578,-5.87495,-3.29231,-2.80391,7.67697,9.51917,-2.82948,-11.939,-3.47493,-13.6007,-6.38139,-0.697905,0.340051,-194.224,-833.016,-498.736,-88620,10920,21420
5.01376,7.39534,-9.1405,5.35454,1.7872,-4.2654,2.37675,3.9301,13.151,0.175418,-7.01466,1.48489,-12.543,-4.56649,7.30184,1.32718,-182.024,-838.384,-497.76,-87920,8820,22540
21.2697,25.3896,8.74648,23.5378,18.8148,1.2484,15.0151,4.69564,28.6089,17.2041,8.66439,17.5622,2.95795,6.81173,28.0802,7.22742,-191.296,-815.448,-494.832,-86660,9240,22400
28.3609,32.9077,19.4969,26.6539,23.0362,7.49377,13.9791,5.56494,33.0062,27.8256,24.6211,23.8098,17.9429,12.8211,31.2366,5.98724,-198.616,-807.152,-497.76,-84560,8400,23520
24.1624,23.4834,24.0279,13.2342,16.6398,9.62737,3.77566,3.00017,24.8131,28.1321,27.2854,19.8902,23.2103,13.345,15.3577,1.78235,-196.664,-816.424,-513.376,-84280,7700,24500
3.74819,3.25539,12.8904,-0.259888,7.3104,9.02817,1.22066,2.12627,5.99589,6.53361,11.9817,4.92008,14.7236,10.3418,3.58216,-0.492509,-191.784,-822.768,-528.016,-86380,8820,23520
-3.0793,1.50616,9.03272,0.724804,10.9149,11.5212,8.61716,10.4624,-0.995603,0.387753,2.5515,2.93166,9.7843,11.8404,7.80792,4.56438,-193.248,-835.456,-541.192,-91700,12320,21840
-0.795623,3.32543,4.61138,-1.29268,8.17774,4.63833,4.46847,10.3774,2.47561,0.232271,-2.20353,3.22842,0.52014,5.96768,5.09635,-0.180722,-196.176,-829.6,-549.976,-96320,15820,20300
-1.66461,1.27497,-2.23957,-3.3743,1.43831,-8.76396,0.870026,-1.00775,0.165734,-2.79058,-6.70452,1.15456,-9.94475,-5.51589,5.0831,-8.37078,-203.008,-819.84,-558.272,-97300,18060,18760
-4.32678,-2.71711,-3.7438,0.0900337,0.378464,-16.526,3.45285,-9.37905,-3.06183,-4.53164,-6.91981,-1.07957,-11.6706,-10.9461,10.4802,-8.06578,-208.376,-814.96,-561.2,-96180,17360,16660
-13.0641,-25.3308,-10.4214,-19.6715,-17.5171,-22.4884,-10.9855,-21.7876,-17.0948,-5.87226,1.21763,-17.5664,-11.7581,-20.2772,-8.05458,-15.2418,-213.744,-817.888,-560.224,-92400,15120,16800
-1.65318,-16.8858,-3.56605,-14.5809,-14.8739,-11.1802,-10.42,-12.2598,-6.34722,2.82247,5.41113,-10.1503,-2.21434,-11.7305,-12.2977,-8.43367,-210.816,-816.912,-574.376,-89320,14560,16800
-9.05752,-21.4508,-2.84802,-16.8518,-17.5851,-0.200849,-16.5094,-1.75379,-16.5027,-0.779891,0.703785,-10.3171,2.73861,-2.78513,-27.9111,-4.59339,-215.208,-794.464,-575.352,-87500,15820,15260
-21.4776,-33.9024,-10.088,-27.7499,-21.0824,3.25453,-20.7469,1.18333,-36.1408,-11.6584,-7.61409,-16.9014,-0.147423,-2.24008,-40.0017,-1.15837,-211.304,-804.712,-580.72,-84840,12880,14980
-10.7899,-20.4669,-9.44508,-19.0283,-12.4153,1.83597,-16.9484,-2.52697,-23.0318,-10.421,-7.83015,-7.94031,-2.65866,-1.68972,-35.276,4.55901,-210.816,-795.44,-594.872,-80500,10780,13720
-15.3823,-21.7725,-16.4272,-18.3888,-15.4131,-1.60837,-14.1001,-4.9426,-24.5303,-18.5379,-13.3866,-15.0165,-8.83722,-5.77786,-32.8017,5.89867,-207.888,-792.512,-599.264,-79240,8260,12600
1.2181,2.19576,-3.36578,4.72605,0.30381,4.13784,3.79216,0.519562,-0.100187,-6.76244,-5.66043,0.148009,-1.16723,3.33516,-10.5481,15.7434,-205.448,-795.44,-603.656,-80780,8820,10080
29.9888,39.0435,18.6815,35.1928,24.6385,10.0648,22.796,6.77659,38.2754,17.65,11.0807,27.7973,13.1903,15.8712,14.3655,28.7495,-203.008,-793,-612.44,-78120,7280,8260
27.1094,48.1786,19.1238,46.2362,27.9424,12.5724,29.6304,11.4436,39.8265,14.2522,9.85976,33.227,12.8478,18.9893,25.191,32.9948,-200.568,-803.248,-617.808,-77840,8540,5740
6.95132,30.6248,11.774,34.2595,19.1945,9.67507,22.1947,8.8359,12.5109,4.45181,4.54948,21.0066,6.18189,12.9643,19.5011,26.7353,-206.912,-816.424,-622.2,-76860,9100,1680
1.71492,18.9662,5.29869,24.588,13.9726,4.91157,18.6352,2.17087,2.86061,0.878953,2.11841,12.2089,-0.0916289,7.1502,20.4089,16.5669,-211.304,-812.032,-625.616,-76160,7980,0
-5.9216,7.56867,-3.16668,11.0139,6.76153,-4.13326,7.25262,-1.51006,-5.7291,-6.06508,-4.14925,-0.922859,-9.78002,-3.75566,11.2065,2.0973,-208.376,-801.296,-615.856,-70840,6580,560
-12.742,-11.4827,-10.084,-13.2449,-11.75,-11.3437,-14.1123,-7.44924,-13.5382,-7.62539,-6.90135,-14.2102,-13.113,-12.7892,-8.71612,-15.3253,-202.52,-802.76,-621.712,-63280,7000,-280
-2.82949,-10.5562,-4.93268,-15.6209,-12.6836,-8.25032,-13.0006,-3.86937,-3.04791,0.0959962,-6.84101,-11.0097,-9.37927,-10.4852,-0.00194502,-14.5624,-207.888,-801.296,-614.88,-59360,6580,-980
-8.71582,-13.9409,-9.08551,-14.2922,-9.59923,-0.864429,-5.28925,3.52165,-4.30045,-8.12421,-13.1479,-16.9471,-7.73291,-5.90382,12.4083,-9.83874,-209.352,-802.272,-616.832,-55300,5880,-1680
-13.1851,-24.0011,-9.51666,-26.0246,-14.4616,1.74628,-11.6017,-0.643847,-11.5254,-9.57787,-10.2787,-19.2699,-4.74922,-4.02441,1.80124,-18.6761,-214.232,-808.128,-618.784,-53200,6160,-2100
-1.23334,-21.3698,2.2551,-28.8159,-9.18055,4.81836,-17.2803,-2.80404,-5.59912,3.1069,5.43213,-7.77958,5.74094,0.497171,-5.92859,-23.5254,-215.696,-810.08,-622.688,-50540,6160,-2940
8.31021,-11.9261,6.01261,-22.2308,-3.6485,4.26136,-16.7052,-3.0829,2.09196,11.3982,12.4295,-3.28456,8.34009,1.408,-4.8637,-22.9542,-218.136,-812.52,-616.344,-46340,5600,-3360
12.6153,-2.44968,2.44454,-9.20881,0.792599,-0.10242,-10.9071,-2.59841,10.3338,9.53834,9.53923,-0.673766,2.49928,-1.60588,2.92186,-20.4041,-222.528,-812.032,-615.368,-43120,5320,-3080
30.1143,28.1417,11.27,22.4121,18.5851,2.10484,4.9973,1.31938,38.5088,19.4883,12.5879,19.8214,8.95681,5.03067,22.6665,-10.3872,-224.48,-812.52,-609.512,-38220,5880,-3360
19.367,22.5328,4.43548,21.0003,11.891,-0.100581,4.30618,-0.963996,28.6866,11.5935,9.63828,12.7525,8.03062,2.51181,16.3929,-7.85397,-227.408,-809.592,-605.608,-35420,6580,-3640
-5.63635,-4.36338,-7.36608,-4.8315,-4.83639,-5.08133,-6.97806,-3.46113,-4.59394,-2.53093,-0.210141,-5.42307,0.795853,-4.72703,-8.22911,-9.74704,-226.92,-808.616,-592.432,-31780,6860,-4200
-14.0101,-11.756,-10.2736,-12.6068,-10.2232,-7.52155,-4.3736,-6.0842,-17.2047,-10.015,-9.25042,-7.86735,-4.76511,-6.33503,-15.5046,-9.40895,-226.92,-811.056,-597.8,-30380,7000,-5740
-5.99404,-2.76643,-3.5263,-4.44013,-7.55906,-5.97822,1.12692,-4.9258,-7.15843,-6.12679,-1.39172,-0.912542,-1.25857,-3.13191,-8.32949,-3.25992,-226.432,-816.912,-599.752,-29120,6160,-7000
-12.4221,-4.16843,-1.94024,1.48539,-4.21549,-3.18226,3.57456,1.12132,-16.0672,-7.86392,-2.23604,-3.4765,0.390047,-1.63748,-4.01228,5.50753,-226.92,-817.4,-598.288,-27300,5320,-8680
-22.0182,-4.99122,-1.98293,10.8654,2.26666,0.622638,11.9843,4.48096,-25.0774,-14.7114,-7.64623,-3.66306,-1.3976,1.99887,7.72571,13.4793,-225.944,-815.936,-596.824,-26040,4480,-10080
-15.9987,6.73306,5.90838,19.6074,11.7874,6.75147,19.9977,10.0479,-15.8064,-9.01433,-8.12286,3.38448,0.626814,7.76796,15.7628,20.5994,-223.504,-816.424,-596.824,-25620,3360,-12320
-19.2174,-4.07717,-0.334475,7.20347,2.70999,5.60298,12.2654,5.17376,-19.0262,-11.5172,-12.2066,-4.52814,-5.52158,4.74855,2.56336,15.6507,-219.6,-817.888,-596.336,-24220,1540,-15120
-6.7154,0.119548,2.19099,9.35956,6.51915,6.467,14.4315,6.88154,-8.30362,-3.49002,-7.89297,0.933164,-5.05496,4.98439,6.92818,19.1444,-217.648,-821.304,-595.848,-23660,0,-17080
11.592,14.2927,11.2836,16.7389,12.2903,7.82532,14.098,7.57165,11.6928,10.5657,4.63624,13.1451,2.57653,7.68734,5.43907,17.025,-216.672,-821.304,-592.92,-23380,-980,-19600
12.6004,8.77866,7.91888,3.18081,0.287599,0.129173,-2.21495,0.240912,14.369,11.1831,11.5516,8.63024,4.52842,1.19134,-17.3811,1.90329,-213.744,-827.16,-592.432,-23100,-2100,-21700
4.46624,-4.61816,-1.54896,-16.9871,-14.9762,-6.64187,-19.5847,-5.76804,4.20896,3.89474,7.40488,-2.08172,2.24991,-8.78327,-42.305,-12.0316,-210.816,-826.184,-587.064,-22680,-3500,-24500
-6.48443,-17.5306,-8.3077,-28.1837,-23.1214,-7.95855,-23.0227,-7.60574,-10.0898,-4.49361,1.46429,-13.7262,-0.693076,-11.8473,-46.4515,-15.089,-212.28,-827.648,-585.112,-23660,-4760,-27580
-3.58416,-14.3719,-10.9909,-17.6582,-17.17,-5.69703,-8.41187,-1.00892,-4.48337,-7.58049,-3.88642,-13.1512,-3.97359,-6.57415,-19.7585,-4.89956,-210.816,-826.672,-584.136,-24220,-5460,-29540
3.42869,-1.22974,-8.44622,3.84998,1.52395,-3.15596,9.06827,2.21696,7.23489,-5.67378,-5.98219,-2.39515,-4.48236,-1.35026,14.4646,4.94297,-211.792,-822.28,-590.968,-25200,-6300,-32200
2.75606,-1.67208,-6.36028,6.88121,5.71673,0.325634,12.1554,1.52559,7.37441,-6.53927,-4.17678,-0.459738,-2.30933,0.977525,26.5272,6.27817,-211.792,-822.28,-589.992,-25620,-6720,-33880
10.9074,1.45501,1.13748,-4.29967,2.00901,1.62963,-1.1879,2.36175,12.0227,6.7369,5.53747,4.91086,3.53325,1.42693,9.92247,4.08068,-209.84,-821.304,-588.04,-26040,-7560,-35840
10.531,-3.46595,1.36109,-10.9737,-3.11757,0.506517,-14.2901,-4.42855,6.76491,12.419,9.31238,4.19674,4.32766,-0.0321324,-3.30707,-0.87463,-208.864,-815.936,-591.456,-26600,-8120,-37380
15.7442,5.17567,4.64081,-0.631165,6.12436,2.93441,-9.03017,-3.3087,11.0684,15.2859,10.2308,10.6291,5.17314,3.62272,5.45783,5.63828,-208.864,-816.912,-588.04,-26180,-8680,-37800
17.5649,11.4266,5.21269,7.67467,12.8424,4.60554,0.566478,1.54288,13.3475,13.81,8.13945,12.7975,3.34393,6.69218,14.6305,9.76156,-210.328,-811.056,-589.016,-26040,-8960,-38360
20.7109,22.5508,6.00223,20.0092,18.5471,6.43284,9.40189,3.03041,23.2818,12.3936,5.83246,16.9774,2.46505,8.96545,24.848,10.172,-201.544,-807.152,-581.208,-25900,-9660,-38220
19.0646,25.6142,6.11275,21.2657,18.2335,3.0354,10.3353,-1.04363,25.0467,10.3853,2.6995,15.9406,1.94158,5.19668,24.6737,4.37302,-199.592,-808.128,-574.864,-26180,-9100,-37940
1.38709,9.74377,-1.14989,9.23671,7.02283,-2.33327,5.01416,-7.41836,5.54987,-1.15675,-2.01994,4.13928,-2.84866,-0.401322,13.2319,-1.9252,-195.2,-811.544,-568.52,-27440,-8820,-37240
-16.0729,-2.24679,-2.25141,2.64935,3.54298,-2.4187,6.71795,-5.15917,-16.2333,-10.0251,-4.81152,-3.19913,-4.1238,-0.564185,8.99957,2.55921,-186.416,-809.592,-562.176,-28560,-8680,-36260
-17.454,-1.77824,6.57064,8.46688,4.59463,-2.2943,5.76663,-4.32236,-18.1784,-8.13146,-4.75722,-1.99021,-2.84818,0.876427,7.50874,2.40427,-177.632,-811.544,-557.784,-31500,-7000,-35140
-15.9253,-4.22307,6.03398,11.9808,3.32583,-1.47754,5.11906,-0.878272,-15.775,-11.1231,-8.32709,-5.20315,-3.13059,0.67158,7.42933,2.50181,-167.384,-817.4,-558.272,-34720,-5040,-35000
-7.79962,-3.01619,6.09275,2.56715,-0.23842,-0.350884,0.771436,4.76593,-5.75844,-6.91004,-8.20413,-5.22666,-2.80425,-0.953492,-2.73882,0.86364,-163.968,-827.16,-554.368,-39760,-2800,-35140
-5.09902,-9.93697,2.92562,-11.5656,-10.986,-3.39619,-8.4859,1.89539,-6.27886,-3.86402,-4.97135,-10.6098,-2.89005,-4.80155,-15.5692,-6.5717,-158.112,-831.552,-548.024,-44240,-1400,-34720
-5.68494,-10.1231,-0.300303,-7.18911,-10.0841,-2.70565,-6.20384,0.783024,-9.7344,-2.9564,-3.00011,-9.92732,0.600637,-2.74838,-12.6301,-7.11346,-153.232,-838.384,-546.56,-46620,-420,-34020
-4.07054,-10.6104,-4.65907,-14.3486,-13.3049,-2.76281,-15.8849,-1.23602,-7.26716,-1.3936,-3.55548,-10.5411,-1.00848,-5.94683,-26.2746,-13.2384,-144.936,-845.704,-542.168,-48440,700,-32760
-5.32314,-21.1411,-10.4844,-27.7234,-22.8776,-3.34791,-25.1831,-3.93092,-9.45111,-1.57281,-1.95701,-17.4412,-3.85796,-9.22819,-39.6742,-22.0118,-142.496,-840.824,-545.096,-50260,1680,-31780
-0.991093,-13.6672,-6.74519,-18.4807,-15.5544,-1.26766,-15.276,0.26297,-3.93892,2.61438,2.79851,-13.4508,-0.17062,-5.63251,-25.2434,-17.67,-135.176,-833.992,-542.656,-51940,1260,-29400
1.80725,2.84635,-4.76332,3.08392,-2.60678,0.381619,2.88006,0.990993,2.84261,0.68456,1.13408,-5.83245,1.66491,-1.00952,5.88062,-10.5256,-136.64,-822.768,-546.56,-52360,2240,-26740
3.80028,17.1484,1.37297,14.6898,9.15372,4.15434,16.8473,4.77277,6.84335,3.19583,2.73488,5.39138,4.50594,4.34195,18.9098,-2.23187,-128.832,-815.448,-551.44,-53620,2240,-24640
-8.69572,-2.03688,-3.87142,-11.4287,-6.0276,0.960773,2.06841,1.89877,-9.905,-2.24852,3.03391,-3.99449,1.56058,-1.45666,-13.2849,-6.91336,-126.392,-816.424,-553.392,-56000,4200,-22680
-7.33308,4.11122,-1.77529,-0.0759345,1.70734,4.63342,10.1954,4.43983,-4.14491,-4.48797,2.53069,3.55261,4.21714,4.03636,-1.31527,3.36695,-125.416,-809.592,-559.736,-57820,5460,-21560
-3.06042,10.6792,3.6576,7.34281,10.7432,8.86111,16.1834,9.23981,0.886936,-1.40414,2.77313,10.1067,6.86515,8.17021,14.1596,12.6227,-121.512,-802.272,-567.056,-60060,6580,-20160
-4.72319,4.44377,2.38517,-0.0668161,4.00529,6.15362,8.49712,6.21602,-1.07457,-2.68572,3.158,6.91571,5.05546,5.32118,11.1596,6.17382,-123.464,-799.344,-575.84,-62160,8680,-19040
-1.4997,-2.35902,-0.637137,-4.77913,-1.08034,2.45136,3.13569,2.5961,1.5355,-2.28411,2.69894,3.58682,2.53085,1.46147,8.27093,-1.24064,-125.416,-786.168,-583.648,-63700,9660,-18060
1.24993,-9.28258,-1.17824,-13.5202,-5.69755,-1.76966,-8.52246,-1.59992,-1.3979,0.414757,3.83634,-0.289438,-0.847272,-3.95897,-9.23607,-6.40676,-124.44,-778.848,-590.968,-64820,10640,-16800
-4.90093,-28.0874,-7.53292,-31.6217,-19.9806,-6.15502,-22.5897,-9.39737,-12.0594,-4.38843,4.61289,-11.8806,-5.4512,-10.9471,-30.9377,-12.8284,-124.928,-775.432,-598.288,-65380,11480,-16240
6.8787,-13.2289,-4.27895,-16.1781,-8.7349,-6.70942,-12.3234,-6.78128,5.17797,1.68391,1.34262,-2.05367,-6.35578,-7.97458,-14.3254,-2.71402,-129.32,-766.648,-608.048,-65240,12740,-15820
5.76785,3.36179,-5.30334,18.105,8.51273,-6.86469,12.499,-0.377357,8.46722,-2.97387,-9.41823,4.79997,-11.393,-2.0087,27.391,13.2796,-129.32,-757.864,-610.488,-64120,12740,-15120
8.90387,19.4253,-2.96451,37.1209,17.3105,-2.89262,22.4321,6.33564,18.0625,-0.712548,-9.41653,10.6977,-9.03598,2.72162,42.9824,21.8385,-127.368,-758.352,-624.64,-62860,12460,-14280
5.71361,15.7348,2.47777,29.0319,14.3615,3.73212,12.1391,7.15624,9.98978,1.88785,-3.51567,8.33978,2.21051,6.38235,25.6517,17.6973,-131.272,-752.008,-632.936,-60620,12040,-13860
-5.58326,-6.25318,5.52184,5.32282,2.50712,6.05083,-6.33072,1.97494,-13.6068,-0.208402,3.33744,-2.40381,9.16395,5.73973,-2.49944,8.29314,-136.64,-744.2,-636.84,-58100,11200,-13300
14.1188,10.8452,21.1013,7.12152,12.4114,12.919,-4.03807,3.39517,9.64897,17.243,14.9306,15.3828,18.768,14.6188,-3.11787,13.7835,-134.2,-758.352,-641.232,-53620,10360,-12880
24.0424,22.0326,22.9953,10.5384,15.306,10.9899,1.0375,-0.195686,25.6848,22.3282,12.3767,23.8135,17.5744,16.2947,4.27266,10.7977,-145.424,-766.16,-643.672,-48020,9940,-13720
19.8516,16.7983,7.95294,8.78024,12.4827,-0.534431,4.86048,-0.801002,21.9341,12.7993,-7.71043,17.3229,-0.0600314,6.24012,4.032,9.7306,-136.152,-741.76,-653.432,-42700,8120,-13440
-8.09492,-15.2441,-12.9741,-10.9215,-4.96086,-10.9679,0.481024,-2.56637,-13.7769,-7.48197,-17.9049,-10.2746,-15.6262,-9.53282,-7.20367,5.86074,-139.568,-735.416,-668.56,-35700,4760,-14140
-9.21095,-10.9841,-10.1796,-1.21661,-5.1401,-7.9114,3.16292,-5.71383,-8.16149,-9.46171,-3.07401,-12.234,-8.83624,-9.17832,5.621,-6.8334,-153.72,-737.368,-664.168,-31640,3920,-14420
-7.80483,3.12786,-3.80247,16.9963,6.39424,-4.483,11.5882,-4.87912,-4.62436,-8.49915,-1.84657,-5.12113,-4.34326,-3.99135,22.2218,-10.841,-155.672,-736.392,-673.44,-26600,3360,-13720
-14.5349,-4.19315,-10.8128,2.08455,-3.70151,-10.9162,-6.18929,-12.2188,-18.374,-13.1071,-8.63775,-9.82955,-12.8868,-9.95881,-7.84697,-15.1339,-151.768,-735.904,-679.296,-20720,-140,-12600
9.43696,16.1318,-1.6744,6.61534,2.86729,-6.72841,-7.67328,-9.38636,9.31213,4.54741,-1.8263,7.6161,-7.49632,-3.31231,-16.7294,-7.59695,-151.768,-738.344,-689.544,-15120,-1120,-12460
8.38321,25.5995,3.73034,21.9419,13.1188,2.04286,10.339,1.77234,13.3064,4.95528,3.1078,10.2091,2.63872,4.88078,9.9687,4.47224,-150.792,-732,-686.128,-8680,-1120,-12600
-14.2364,-14.9964,-3.36018,-20.8889,-15.9555,0.881081,-15.2203,0.864106,-15.5692,-7.15972,2.93496,-16.7808,2.4849,-5.90156,-25.545,-11.412,-148.352,-734.928,-681.736,-3640,-1960,-13020
-6.54084,-13.2968,5.73052,-22.9078,-13.6346,4.21715,-11.862,6.6165,-7.51578,0.223446,5.64714,-10.2451,6.95249,0.502387,-21.227,-7.87316,-153.72,-732,-679.296,3080,-1820,-13440
-1.54817,-14.0188,6.207,-23.0716,-10.6101,5.9554,-4.68016,3.39454,-4.77018,4.65309,8.34063,-7.56961,7.04525,5.03191,-11.6303,-4.04029,-151.28,-728.096,-677.832,8540,-2660,-12880
-18.3008,-26.5367,-6.68538,-31.2438,-16.2984,1.49554,-2.59176,2.76863,-24.7981,-7.7715,-1.33835,-19.8144,-1.26028,-2.01333,-12.3742,-0.0686386,-151.28,-726.144,-671.976,12460,-2800,-12600
-9.0056,-9.84603,-6.2856,-14.4775,-8.20929,-1.49044,4.55494,3.74363,-7.24247,-5.65953,-4.81503,-10.2907,-2.98553,-2.08595,0.187533,3.05824,-151.768,-733.952,-671.976,17220,-2800,-12460
6.20547,3.2463,1.28279,-1.80176,-2.16658,-0.818372,2.78961,-1.04386,12.2178,5.34591,3.50297,1.74665,2.2302,-2.20265,4.33533,-2.05284,-154.696,-735.416,-666.12,20860,-2800,-12880
4.8291,0.838725,1.3154,-4.99753,-3.10653,0.31826,-1.80276,-2.08529,8.46171,5.61683,5.93807,1.25814,3.93732,-3.71364,-0.796243,-3.87088,-161.04,-734.928,-659.288,25480,-2660,-12740
-4.31506,-14.0665,-7.21772,-23.5056,-18.7798,-3.99701,-21.7279,-8.78321,-6.93178,-3.18622,2.49667,-9.45464,-0.0673924,-9.055,-28.655,-17.3271,-161.528,-736.392,-655.872,28140,-2520,-12740
7.08011,9.5436,-0.132328,5.44947,-1.48086,-0.0391949,-9.15876,-5.59198,7.22229,2.975,6.40956,7.71145,3.6007,0.989193,-8.94728,-9.53994,-158.112,-741.76,-646.112,30660,-2520,-12740
21.4541,23.0802,7.86329,19.7274,11.6531,3.42092,-0.284518,-3.07631,20.6977,13.491,9.41769,20.8121,6.76472,6.90943,6.82766,-0.152759,-160.064,-737.856,-637.816,32480,-2800,-13160
3.31763,3.9491,-1.00327,16.2122,5.88111,2.18506,2.0568,-1.35408,-2.88984,-1.92735,-0.856717,8.44288,-0.706041,3.41231,15.6095,3.08185,-157.624,-739.32,-633.424,34020,-2520,-13440
-4.29381,1.01956,-1.62208,14.6476,7.65646,2.23196,7.39722,7.23478,-4.99569,-6.79696,-9.83476,4.53915,-6.53085,3.10883,22.4754,10.5462,-156.648,-742.736,-623.664,35280,-840,-14000
-1.30091,2.19668,-1.09086,9.7883,4.33798,2.79092,5.78087,4.38597,5.2051,-5.44976,-9.01051,4.44413,-6.76542,3.34754,22.3341,7.90658,-154.208,-742.736,-616.344,35700,-140,-14420
-0.432728,1.11226,1.59212,6.65761,3.13939,3.43547,2.61149,5.15367,5.69012,-3.39645,-5.2865,2.45653,-4.4489,2.15175,15.1791,3.96898,-152.744,-746.152,-606.584,35420,280,-14700
6.36365,13.5647,8.31146,21.0259,12.7578,4.43214,8.86247,5.25686,13.3632,1.32931,-1.86248,8.87412,0.575815,4.95984,19.1421,4.67819,-149.816,-747.128,-599.752,35280,840,-14560
-2.32001,8.19024,5.22654,10.4423,7.78726,1.82409,2.55858,1.11753,0.0775596,-1.26352,0.815816,4.13809,2.00907,1.10511,4.54434,1.94568,-143.472,-750.544,-595.36,34300,1120,-14280
-19.8181,-3.33178,-2.25152,1.83057,2.9921,0.115909,3.19687,3.2874,-24.1314,-11.4159,-6.88442,-5.39183,-0.725266,-1.12373,-3.02761,4.32637,-143.96,-752.496,-587.552,32480,1120,-13160
-15.0845,-3.0847,-4.68451,5.07066,6.0375,0.321695,9.88475,2.36835,-18.6667,-7.30859,-6.90929,-4.05492,-0.240158,1.85355,2.34162,6.79889,-140.544,-756.4,-583.16,30800,1820,-11900
-3.86011,-1.28379,-4.4115,-6.00856,1.86581,-1.01909,5.498,1.35705,-2.84273,2.57709,0.107313,-3.41219,2.10287,-0.697764,-5.55213,3.94255,-134.2,-758.84,-578.28,27860,2100,-11060
8.32341,5.70589,0.326605,-3.63729,4.18236,-1.81805,4.37123,0.254367,10.9812,8.92131,4.03441,1.84488,4.53543,-0.29889,-3.20815,2.13672,-132.736,-760.792,-575.84,25200,2800,-9660
1.73255,-4.94784,-2.93991,-7.71798,-0.113517,-3.16059,-1.54263,-1.9686,0.603354,-0.0108419,0.566617,-4.08953,2.08544,-1.67416,-7.68609,0.184413,-125.904,-765.184,-569.008,22540,3080,-7980
-4.25084,-18.6756,-4.92501,-23.2857,-8.74976,-5.1489,-12.2592,-3.79643,-11.0648,-1.99414,-0.672508,-13.2976,-0.64196,-6.36018,-26.9179,-4.12027,-120.536,-769.088,-568.52,19040,3360,-5880
-1.20015,-18.3367,-5.8063,-27.9488,-13.2164,-6.66831,-15.1415,-9.6889,-8.35685,0.131909,2.38582,-11.4859,-1.62552,-7.86015,-30.6111,-8.9877,-118.584,-775.92,-565.592,16380,3500,-4060
2.20446,-5.59325,-0.289004,-4.53333,-0.691233,-1.46501,4.84037,-3.87097,-1.34562,0.481371,3.10299,-1.18725,-0.0068156,0.341439,0.112479,1.12056,-112.24,-776.896,-561.688,12600,3220,-2380
14.1642,0.47472,6.08091,-1.54581,1.57011,-1.8642,5.24383,2.2431,11.6857,10.8883,7.02553,2.94744,1.4258,1.66212,2.9864,2.73196,-112.728,-781.776,-562.176,9100,3080,0
10.2436,-3.9179,2.72442,-7.87806,-5.38126,-2.62496,-2.8282,1.76871,7.25723,6.27471,5.20655,-2.03441,-1.20018,-1.72969,-4.66235,-1.757,-107.848,-789.584,-557.784,6160,2940,1680
8.36456,6.16894,6.91245,2.81059,1.07165,0.516369,-1.10353,3.48939,9.29395,3.53338,1.65452,4.0727,-1.83382,0.479552,0.593765,1.86728,-107.848,-790.072,-560.224,2100,2660,4060
10.8803,11.4747,10.771,8.75806,0.918838,1.41429,-6.05601,-2.29155,16.6893,5.45016,3.53262,10.0306,0.372127,1.58153,-3.62555,-2.94142,-104.432,-794.952,-558.272,-840,2380,6440
4.34327,3.20215,7.10966,4.74357,-3.33029,1.82051,-9.00268,-4.20559,6.29685,3.72995,2.84185,3.73107,0.674568,-0.860334,-8.66931,-6.64458,-101.992,-799.832,-560.224,-4060,2100,8400
-4.33047,-2.02867,0.453329,5.62494,-5.60684,2.56543,-1.47284,-2.41665,-4.26028,-1.64285,-2.3625,-2.96624,-2.01613,0.150586,1.97969,-2.89507,-101.504,-797.88,-564.616,-7420,2240,10780
-4.98798,-0.907275,-1.81245,7.55849,-5.23702,2.91486,4.31455,-0.750397,-4.90253,-2.88414,-1.31974,-2.21594,-1.11552,1.80463,11.6213,0.181248,-100.04,-799.344,-561.688,-9800,2380,12460
1.20389,8.14541,-1.29442,13.6858,1.71929,2.02802,12.0054,2.79968,7.43536,-1.13137,-1.7299,2.76468,0.352688,3.82866,23.9891,4.21266,-98.576,-800.808,-563.64,-12740,2520,14280
-6.17246,-1.51579,-6.5652,12.4159,3.37336,0.482184,14.6389,4.29093,-2.8739,-6.52398,-5.14974,-0.928582,-2.46605,2.25864,26.2775,5.50382,-102.968,-797.392,-570.472,-14420,1960,15820
-10.0609,-1.38795,-7.86528,14.49,4.18617,1.19387,12.9669,5.09138,-11.9823,-8.52928,-5.27866,0.00110234,-1.41068,2.80194,23.4832,5.17932,-104.92,-798.368,-574.864,-16240,1680,17920
-4.82023,7.73091,-5.34805,11.7977,3.7172,0.418406,4.17096,3.92176,-4.31752,-3.82691,-4.41818,2.33674,1.24516,0.533987,10.0327,0.191077,-108.824,-800.32,-586.576,-16940,840,19320
-0.124554,14.302,-3.26731,13.3327,3.72755,1.16099,1.97262,1.51377,6.0371,-2.49698,-0.990827,5.76037,3.26778,0.781657,8.53864,-3.6132,-114.68,-793.488,-589.504,-17220,-140,20720
0.0278195,16.9521,1.7303,15.0468,10.9496,3.2317,6.36834,4.45637,5.95685,-0.512516,1.59707,8.7902,4.32599,4.36003,13.7078,2.32178,-121.512,-790.072,-595.36,-16940,-1120,22400
-8.48457,-9.93931,-4.8722,-17.3597,-4.72635,-1.23615,-12.0844,-2.85201,-13.124,-3.7455,1.14394,-4.5091,0.676566,-2.80849,-17.5428,-5.94362,-122,-783.24,-598.776,-16660,-1820,23520
0.0807064,-8.12604,-1.4063,-22.9089,-4.25842,-1.8438,-17.4562,-5.34154,-5.25294,3.27068,2.15762,-1.12356,2.27676,-2.92627,-27.2849,-8.25033,-128.832,-779.824,-608.048,-16380,-3080,24640
-3.54469,-15.371,-2.53337,-27.5021,-7.80028,-3.64186,-19.4393,-5.55995,-12.6569,2.24474,0.252479,-6.96817,-0.76035,-4.74535,-31.2326,-9.93984,-132.736,-777.384,-609.024,-15260,-3640,25200
3.88979,-7.17122,0.300978,-18.1139,-3.93692,-1.85221,-9.75373,-3.46724,-1.42129,3.74129,1.83577,-2.96804,-1.46344,-0.81278,-17.9246,-4.96746,-136.152,-776.896,-618.784,-14280,-3920,25620
16.3882,15.0973,7.14313,2.68116,9.89724,1.01049,6.69262,2.3321,18.7733,11.1635,4.67212,9.48393,0.822706,4.1826,3.76995,5.98105,-137.128,-774.944,-624.152,-12600,-4480,25900
10.2663,12.802,5.94722,5.14031,8.58099,2.25343,10.8497,6.27187,14.5294,7.42468,3.3724,7.92813,0.817102,3.88029,6.95302,11.5246,-147.864,-774.944,-626.104,-10640,-4760,25900
0.619549,7.12259,2.33858,-1.65278,3.1335,2.10036,1.06217,6.19274,3.16736,0.820817,-0.156741,3.02645,-0.527945,-0.256151,-4.90921,10.0549,-154.208,-772.992,-627.568,-8260,-5600,25480
-12.1324,0.150737,0.114732,-1.20317,-0.599936,1.42286,-0.134946,5.90021,-12.5117,-9.0668,-6.32635,-2.46325,-2.40631,-1.91694,-5.14221,5.36209,-157.624,-772.992,-629.032,-6160,-6160,25060
-10.9091,-6.7101,-0.379016,3.17007,-1.91329,0.91182,5.69974,2.21713,-9.6582,-9.9767,-4.87867,-4.31346,-2.09746,-2.52141,2.91795,2.13053,-165.432,-777.872,-628.544,-4900,-6300,24360
-5.99263,-8.66985,0.871022,4.44817,-1.16975,1.38945,7.45312,-1.03459,-6.14984,-4.43199,-0.273919,-6.44734,-0.643151,-0.886945,6.09528,2.91354,-168.36,-777.384,-629.032,-3080,-6300,23100
-3.30488,-8.34698,1.08831,4.88645,-0.0932346,-0.108227,5.52108,-2.71472,-2.02663,-1.61444,1.05394,-6.77615,-0.826908,-0.532378,7.7217,1.98315,-170.312,-777.872,-629.52,-1540,-6300,22120
2.0443,-11.1557,-0.542752,-8.03964,-8.3964,-4.25076,-8.84258,-5.82823,4.78228,3.52501,2.90583,-7.39422,-1.49409,-6.53968,-10.2888,-6.5228,-174.704,-780.312,-632.448,1820,-6720,20300
1.65275,-15.2074,-2.74764,-16.8896,-13.8429,-5.50469,-15.63,-7.20611,1.47466,1.96741,1.17418,-9.08742,-2.57274,-8.39004,-19.4135,-10.9114,-178.608,-777.384,-631.96,4200,-6020,18200
1.24186,-17.3839,-3.9354,-18.9162,-15.3154,-6.2046,-16.083,-10.667,-0.341307,0.511261,0.701658,-8.76136,-2.66693,-7.56615,-17.1969,-13.062,-180.072,-773.968,-635.376,6160,-6020,16800
-0.410786,-5.20066,-0.535235,-1.25136,-3.23005,-3.97031,-0.642202,-2.63444,-1.55953,-0.360823,-1.50757,-1.79217,-0.163118,-1.88244,6.61177,-2.51008,-183,-772.016,-631.472,8960,-6720,15260
-4.24811,-4.76613,-3.86967,5.71215,-0.314358,-0.932243,8.42494,2.00235,-4.93251,-5.16932,-4.04883,-2.41071,-2.00925,0.797428,17.9577,3.54905,-185.44,-770.552,-633.912,10500,-6860,13860
9.61634,14.4507,5.40079,19.558,12.9962,6.4514,12.5879,5.16047,8.71887,4.48788,2.1945,11.8787,4.87742,9.53217,18.5255,8.16381,-187.88,-772.016,-637.816,12320,-7420,11760
8.65501,22.4467,8.91921,24.7092,18.3877,7.85642,11.2347,1.63251,6.66525,5.15629,4.00311,17.0918,8.84654,13.6574,16.1513,6.11858,-192.76,-768.112,-634.4,15680,-7700,10640
0.647218,6.5333,-0.209594,6.69999,6.36187,3.51855,4.75283,1.83806,0.450245,-0.297768,0.823614,4.47729,3.21109,6.52324,7.90263,1.62187,-190.32,-771.528,-632.936,18200,-7840,10360
10.2968,12.9758,0.959541,8.86306,5.26458,3.26231,7.26228,6.40133,13.6164,5.88824,2.57875,7.7066,2.52145,5.11047,12.4775,1.92802,-189.832,-769.576,-636.84,21000,-8960,9660
8.33803,12.922,3.18868,9.81014,5.48072,2.89273,6.86389,4.45201,10.4111,5.29804,1.16087,8.28645,2.25323,4.2329,10.3237,1.72529,-187.392,-765.184,-632.936,22960,-9520,9100
4.41321,5.37321,0.18387,-2.78976,-1.55209,-0.145494,-4.5435,-2.25747,6.91393,2.47924,-0.020192,2.46734,-0.855109,-1.73765,-7.20175,-4.04191,-181.536,-765.672,-635.376,26180,-10360,8680
-0.836542,-2.62599,-2.12649,-15.4447,-9.36157,-2.51556,-13.4824,-5.72144,-0.780163,0.986949,0.760082,-4.64243,-3.83108,-5.0906,-20.3286,-8.55138,-183.488,-765.672,-629.52,28700,-9940,8400
-6.97006,-9.76919,-5.26346,-17.6066,-9.78094,-3.815,-11.9266,-5.47616,-11.5334,-2.71545,-1.13603,-9.9315,-4.76187,-5.25435,-20.3546,-6.81244,-176.656,-766.648,-629.52,30100,-10500,8400
-8.09037,-1.74814,-1.53281,-6.32471,-1.76759,-2.35072,-1.16929,0.198285,-12.5372,-2.83586,-3.97502,-6.42467,-3.76236,-1.61201,-7.75631,-0.0276588,-174.216,-761.28,-624.152,32200,-11060,7980
-14.1016,0.74693,-2.89029,5.79082,1.94973,-0.885509,7.34835,3.06698,-15.5117,-10.2548,-7.89762,-3.74219,-5.4994,1.16014,8.84175,3.70419,-165.432,-762.744,-626.592,33460,-11620,8260
-10.7724,7.50819,2.90684,18.7177,10.3181,2.95456,13.3286,4.69662,-9.62304,-7.23511,-4.96801,5.76168,-2.32803,4.09253,18.3287,7.90276,-162.992,-761.768,-628.056,34860,-11060,8260
-13.5002,-3.91102,2.25403,8.03989,2.79216,0.983768,4.88245,-0.70655,-16.4403,-5.77448,-2.14688,0.169682,-0.907662,1.25098,6.92007,4.4255,-159.576,-762.256,-623.176,35980,-11340,8820
-7.61795,-13.7266,-1.80612,-7.70378,-8.53094,-2.38669,-6.78177,-5.45444,-8.69493,-2.5606,1.57416,-6.90362,0.405591,-3.24825,-7.04781,-2.38654,-157.624,-766.648,-625.128,37520,-11620,9520
2.83486,-6.65106,0.288992,-5.43217,-3.93802,-2.60984,-6.54788,-2.31043,6.42764,2.68055,2.26167,-2.44697,0.839542,-4.12841,-6.71094,-0.800813,-152.256,-763.232,-620.248,38640,-12040,10640
1.01543,-13.5267,-5.27016,-13.7725,-9.58366,-5.64713,-12.4294,-1.957,4.41711,-3.27555,-0.770973,-8.85474,-3.04795,-8.11109,-15.3048,-4.73833,-145.912,-767.136,-624.64,38920,-12320,11340
7.17631,0.368033,-0.734951,8.0687,7.57842,1.46344,5.3297,5.76673,9.20205,-0.247623,1.06802,2.8072,3.13808,0.708921,9.51639,7.21026,-143.472,-764.208,-618.784,39480,-12320,12460
17.7736,17.9966,5.78531,23.4921,19.0956,7.24376,10.3093,5.77314,20.5086,9.37144,6.20597,17.4814,11.6205,9.16689,21.1008,11.0922,-139.08,-762.744,-617.32,39620,-12320,13860
16.3408,7.96021,1.43888,-0.682716,1.04866,1.32995,-10.4165,-2.94924,20.7754,9.04818,8.18875,9.51725,8.71365,1.63346,-7.77835,-4.66666,-137.616,-761.768,-608.536,39200,-12180,14560
9.26516,-4.0465,-4.4969,-15.7945,-11.0157,-5.45116,-18.9655,-5.81263,12.2033,5.15037,4.04936,-2.33502,1.34673,-6.51001,-20.8823,-11.9649,-132.736,-767.624,-607.072,38360,-12180,15680
-1.26808,-12.3564,-7.62535,-17.6996,-12.7006,-5.69069,-14.0529,-4.56013,-1.94918,-1.4131,-1.31806,-10.4397,-3.46289,-7.76586,-15.4116,-9.42139,-130.784,-771.04,-602.68,37380,-12460,16660
-2.64058,-6.75023,-1.76001,-6.65383,-3.2208,-2.85174,-4.15771,-2.17899,-5.24587,-0.904278,-1.50374,-5.61722,-3.40192,-3.40166,-3.42709,-4.09828,-134.688,-773.968,-596.336,35840,-13160,18060
-1.78363,-1.25117,3.09853,-5.48412,0.0220341,-1.6746,-3.71942,-1.92578,-6.93506,0.202976,-1.58607,-1.71652,-2.4333,-1.70271,-3.30044,-4.23956,-133.224,-776.896,-597.8,34720,-13300,19180
-10.9291,0.0893363,0.740306,0.193746,4.3629,1.08807,7.25769,1.06833,-18.3392,-7.1805,-5.19218,-0.654453,-3.11212,2.31894,7.16011,4.3799,-132.248,-779.824,-597.312,33320,-13720,20020
-7.84702,5.11679,0.790526,6.89507,8.13118,3.801,15.4014,7.03277,-13.0379,-4.80479,-4.14462,0.376207,-2.08989,5.38524,14.9266,11.5396,-132.248,-779.824,-590.968,31500,-13580,21140
4.6096,3.51203,-2.48626,-8.2149,-4.26567,1.4235,2.0337,-1.0001,5.57377,3.40532,1.48646,-2.08811,-1.74787,0.440172,-3.43285,-0.246923,-131.272,-784.216,-588.04,30100,-13720,21840
10.9421,12.9521,2.92513,-2.99768,1.07219,2.46152,4.83357,1.5061,15.8825,8.03862,3.94002,4.56907,1.06925,1.33379,-1.35863,1.87601,-130.784,-788.12,-588.528,28280,-14000,22820
3.16037,11.3165,4.85463,5.36553,4.27171,2.41543,10.7249,4.09685,6.4265,5.36899,0.428856,5.80018,1.43,3.1515,5.82469,7.26807,-135.176,-789.584,-588.528,26880,-14140,23100
1.66789,7.53079,4.50175,7.16796,1.90322,2.32401,9.00441,2.58897,2.004,3.73828,2.17342,6.30859,3.57594,4.71546,4.32087,4.92841,-134.688,-793.976,-584.136,24640,-14140,23800
-0.323005,3.7044,4.89924,5.46709,2.65026,2.07932,6.18746,4.4492,-1.02817,1.15924,0.197147,4.13086,2.1336,2.27141,3.33394,3.13666,-139.08,-795.44,-583.16,22400,-14000,23940
-8.70975,-8.26871,-0.49983,-1.1637,-3.782,-0.712664,0.405717,1.26906,-9.61243,-6.26549,-4.44526,-2.18458,-3.61206,-2.84843,-1.26869,-1.5994,-142.008,-795.928,-583.16,20720,-13860,24080
-12.3088,-8.78299,-2.73699,9.29703,1.56496,0.900705,8.04125,0.229536,-14.2468,-10.1232,-5.94295,-1.89868,-3.83749,0.761846,12.4453,1.69883,-143.96,-793.976,-580.232,18200,-13860,24080
-11.8985,-7.933,-5.63868,10.1187,3.176,1.19452,6.53915,-0.66036,-12.6662,-8.38315,-4.86679,-2.63872,-3.53749,1.05912,10.5619,0.371576,-146.888,-798.368,-576.328,16240,-13720,24080
-6.50556,-9.69576,-7.58521,-0.945662,-6.74773,-1.08886,-4.86464,-3.87937,-4.21192,-4.62334,0.805364,-5.75792,-1.91112,-2.89589,-6.84137,-9.72322,-150.792,-803.248,-575.352,14280,-13720,23940
-1.70248,-7.70457,-4.54864,-4.25377,-7.15574,-2.30219,-4.91084,-1.30008,0.12028,0.967667,2.49072,-7.44235,-0.165216,-3.78157,-8.91134,-8.50274,-155.184,-805.688,-579.744,12180,-13300,23520
2.0792,-5.01356,-2.73324,-1.01441,-5.18756,-0.36347,-0.148364,0.349784,1.3322,2.10063,3.20577,-6.36474,0.907026,-1.86566,-1.16117,-3.08514,-157.136,-804.712,-575.84,10920,-13440,23520
7.9954,4.29848,2.37638,1.46483,-0.817951,1.03203,0.387563,2.22647,6.37498,5.74587,3.91075,0.0894344,3.61879,1.24149,0.483542,1.71296,-158.112,-804.712,-577.304,9240,-13860,23240
9.77761,7.68228,5.26406,4.40054,2.51368,1.57402,0.308957,2.82482,7.38921,6.83855,3.80827,5.0895,5.809,3.85591,2.27577,4.24439,-161.04,-804.712,-576.816,8120,-13580,22820
7.30354,6.28942,5.20945,7.972,4.87023,2.08578,1.43339,0.578215,6.22905,4.52384,2.33456,5.75757,5.2266,4.24455,4.53908,5.04203,-163.48,-805.2,-573.4,5880,-13020,22400
5.88299,5.0006,7.38572,5.88537,5.89638,2.98003,-0.509352,3.38346,7.68573,4.13575,1.22123,4.18012,2.01063,2.4775,0.595066,4.81167,-164.944,-806.176,-575.352,4200,-12320,21700
6.73863,1.055,6.67555,-3.25268,0.0338306,0.541211,-6.77891,-0.891445,11.8348,6.08314,4.10859,3.20657,0.298023,-0.218652,-7.30127,-2.53051,-168.848,-803.736,-577.304,3080,-11900,20860
0.262752,-5.33355,2.31988,-12.6539,-3.40879,-2.19048,-9.94142,-1.62132,3.49458,-0.657996,-0.366167,-1.88422,-3.05517,-3.71324,-12.7456,-6.57824,-171.776,-793.976,-582.672,1960,-11620,20160
-5.39265,-6.49013,0.266238,-10.3048,-0.537362,-1.03937,-4.53408,1.11385,-6.63497,-5.79542,-4.29355,-3.2273,-4.33659,-1.63358,-5.60625,-2.65147,-173.24,-794.952,-587.552,1260,-11060,20020
-2.17282,1.50402,1.31201,-2.91672,1.42455,-0.363984,-0.299519,-0.975128,-3.31842,-4.14568,-1.40197,1.81835,-2.27356,1.23034,2.82859,-0.414638,-169.336,-798.368,-588.04,0,-9100,18480
1.90865,9.37383,4.12335,6.14522,8.42202,0.177179,3.60992,-1.36517,3.50645,0.751418,-0.0176724,6.17923,2.65798,3.85106,9.95513,4.06715,-168.848,-804.712,-590.48,700,-9380,16660
0.379245,4.24906,-2.13688,2.42355,4.04911,-0.901634,-1.43355,-6.91593,3.87082,-1.88893,-1.49098,2.50338,2.87713,0.249989,5.59837,0.217895,-174.704,-807.152,-593.896,1540,-9520,15540
-0.724218,3.39586,-3.55218,-0.893326,1.25386,-0.933609,-5.69924,-9.20858,2.38088,-3.34763,-2.56148,0.520778,0.759473,-2.64703,-1.04829,-3.65809,-175.68,-804.712,-596.336,2940,-9800,14700
-7.48733,-3.75709,-7.5265,-6.73711,-1.74859,-3.55381,-10.5867,-8.41144,-9.02433,-5.79308,-4.15058,-5.3872,-1.91758,-3.11522,-7.9277,-4.69535,-178.608,-796.416,-596.336,3920,-10360,14280
-6.66977,-5.78268,-9.57753,-8.68057,-4.63274,-4.67136,-11.5167,-6.5133,-9.36135,-6.14514,-4.67683,-6.37853,-3.07548,-3.89728,-10.011,-4.67088,-181.536,-799.832,-598.288,4760,-10780,14140
2.99425,-0.149111,-3.36372,-9.24561,-4.89534,-4.63264,-10.802,-3.03505,2.19224,4.18667,1.50764,-1.69257,0.150004,-3.78089,-12.8355,-2.34752,-176.656,-799.832,-593.896,4760,-9520,13160
2.72698,-2.53359,-2.14798,-6.20225,-7.56212,-4.42423,-2.24458,0.284769,9.2825,7.32176,3.32654,-0.698004,-1.57512,-2.25323,-1.32154,0.974545,-189.832,-780.312,-603.656,5600,-8820,12460
2.1007,-1.23503,-0.981831,2.68513,-1.62136,-2.54453,7.18962,7.32678,7.89063,7.3796,1.81475,1.10796,-2.66671,0.0550166,10.1305,4.8891,-178.12,-733.952,-606.096,7560,-12740,12600
6.31112,0.263497,0.406567,4.62126,-0.0379372,1.92694,7.81654,9.63802,-0.194326,2.33778,4.11757,-1.28545,-2.59819,0.568446,8.06867,2.83552,-187.88,-740.784,-604.144,8400,-11480,14560
0.945231,4.85843,4.80573,13.8234,6.82793,6.59161,17.8356,12.1106,-5.86578,-7.04696,-0.588765,2.71788,-1.87029,4.52204,15.0838,9.38354,-167.384,-757.376,-586.088,2520,-5600,14420
-9.05913,3.84883,4.33754,16.8108,10.2025,5.20132,18.3631,9.25449,-13.8727,-9.06953,-5.331,2.62042,-1.2575,6.38811,14.2669,10.7016,-151.768,-785.192,-581.696,1540,-7140,11620
-9.56724,-5.92199,-1.7902,1.42031,-1.20356,0.569663,4.40052,-1.31045,-15.6648,-3.62333,-1.97592,-3.15299,0.036763,0.11117,-4.13846,-1.40208,-162.504,-824.72,-582.672,4760,-9100,8820
-7.50611,-10.081,-4.72166,-6.58078,-9.31452,-1.25888,-4.52397,-4.30951,-13.9543,-2.15352,-1.33753,-4.97591,0.40689,-4.48149,-9.21562,-7.4047,-174.216,-827.648,-583.16,8540,-11760,8120
-1.3934,0.143845,-0.422748,-0.517822,-4.25865,0.581839,-3.93166,-0.838445,-4.21449,-0.906007,-1.76334,0.311207,1.36269,-1.91298,-3.53764,-6.03456,-189.832,-810.568,-582.184,12180,-14420,8960
-0.94939,0.376784,-1.78642,-2.19923,-5.38569,-0.722783,-4.89295,-2.69626,-3.02934,-2.76343,-1.52978,-0.28103,1.19674,-2.50581,-5.05284,-7.10154,-189.344,-802.76,-586.576,14560,-17920,12180
7.224,4.41392,1.58095,-2.45495,-1.91991,-1.45352,-3.54002,-2.93418,6.88586,4.70817,3.38427,0.967788,2.45281,-3.36823,-6.39436,-5.29284,-184.952,-809.104,-593.408,13720,-17780,14000
7.97431,1.99045,-0.64454,-4.58107,-3.56407,-0.678012,-3.1351,-3.86123,12.6455,4.42842,3.47918,0.55068,1.50517,-2.01388,-7.22765,-4.83687,-180.56,-807.64,-587.552,12600,-14420,13580
-0.0750104,3.01485,-0.740658,3.43109,4.90422,3.07264,8.94487,6.32646,4.58962,2.25678,0.449552,0.755473,0.603676,3.32567,8.82803,6.11252,-182.024,-811.544,-584.624,12600,-10780,12600
-1.93173,-1.90366,-2.38396,2.14343,3.50954,2.36719,7.25497,6.1661,0.521122,-0.926094,-0.365534,-3.35209,-0.762494,2.33553,5.85239,6.4606,-182.512,-807.152,-590.48,12740,-8400,12040
3.67676,-1.1527,0.183581,1.60436,2.50489,3.08614,4.36031,1.88481,5.95546,1.11345,0.538239,-0.693558,1.46947,2.9793,4.47343,6.87525,-184.952,-798.368,-587.064,13440,-8400,12880
9.85374,5.72576,5.88128,5.68956,8.53678,4.06497,5.62033,2.10977,12.9122,8.50141,4.04833,8.26781,5.38594,3.59441,6.85925,10.822,-188.368,-792.512,-593.408,14840,-8540,14560
4.09424,1.94767,3.60387,7.29145,7.2513,2.16807,5.69071,-0.405848,7.01316,5.91114,2.16858,7.80211,3.54297,3.25846,10.9355,9.07925,-189.832,-790.072,-590.968,15680,-7140,15400
-0.332629,4.15082,4.80835,8.6525,9.88302,2.3038,5.50778,2.67937,4.80769,3.9266,1.505,6.41787,2.12775,4.16385,10.8381,8.83446,-192.272,-789.584,-590.48,15820,-5600,16100
3.07569,8.97534,8.4038,2.97633,7.97755,2.01499,-4.70583,1.87936,8.37125,5.76876,4.02094,6.40661,1.22062,4.37888,-4.85779,4.50794,-189.832,-784.216,-596.824,15400,-5320,16520
0.450834,-1.94987,4.43558,-14.0938,-2.55667,-0.560175,-16.0441,-3.6524,3.78586,2.28169,2.30291,-0.784238,-0.986829,-0.178394,-21.7119,-4.77248,-186.416,-787.632,-598.288,15960,-5180,16940
-0.977514,-7.70639,2.37935,-17.1263,-7.10132,-3.77026,-16.4876,-8.96437,1.61717,-0.353447,0.0458924,-3.92534,-2.16769,-4.16938,-22.037,-11.3093,-192.76,-786.656,-597.312,16940,-2660,15960
-4.85599,-7.88265,-3.229,-11.1397,-10.5641,-5.54984,-8.46858,-11.5487,-3.84513,-5.15728,-1.5858,-6.48779,-2.81418,-4.91367,-11.6418,-13.0905,-200.568,-785.192,-595.36,20580,-3220,15960
-7.34999,-0.31019,-5.66018,-0.705249,-5.71903,-3.1147,4.52401,-2.67266,-8.34377,-7.62707,-3.62502,-5.40047,-3.00715,-2.91522,6.45937,-4.74917,-202.032,-779.336,-597.8,24500,-5600,16660
-12.9841,-2.88066,-8.6321,0.0512093,-4.41977,-1.40415,5.4054,4.31618,-18.7262,-13.4257,-6.78927,-7.68762,-4.0191,-0.777692,9.91601,-1.73138,-204.96,-779.824,-595.36,26040,-5740,16660
-7.80852,-11.281,-9.72317,-8.89831,-11.1929,-2.14181,-4.90736,1.24452,-14.4393,-11.3937,-5.48193,-10.4733,-4.56519,-3.00835,-3.35384,-6.93281,-203.008,-777.384,-596.824,27160,-5180,16380
5.31794,2.20791,1.03702,4.43186,1.12174,0.957243,-1.77677,1.69838,-0.0811281,2.21967,-0.262451,2.24919,0.0609519,0.808583,3.87875,-1.82939,-201.056,-777.872,-592.432,27440,-4760,15120
0.528585,-2.63615,-1.93662,3.44366,-3.99344,-0.806762,-6.37327,-6.73371,-5.99727,-0.96642,-0.801337,1.31284,-0.549637,-0.862637,0.521807,-5.82524,-207.888,-779.336,-594.384,27580,-4200,13860
2.4358,1.06859,0.573333,5.40376,0.0238525,-0.945124,-4.34549,-6.10072,-1.47649,0.617963,-0.331482,3.68243,1.23488,-0.744934,0.566767,-2.97568,-205.448,-773.48,-594.384,27580,-5600,12180
2.31137,0.158345,1.49706,2.87844,1.59572,-2.06764,-2.75661,-3.52278,2.39071,0.560298,0.00224336,2.52447,1.53482,-1.00281,-1.01051,-1.93927,-204.96,-779.336,-596.336,27020,-6300,10640
3.14784,-0.739522,1.9687,-0.840803,0.502659,-3.05853,-0.684293,-0.0891744,5.85496,1.47486,1.42042,-0.360672,-1.29641,-1.70556,-0.838015,-0.331433,-207.4,-777.872,-591.944,25900,-6580,7980
5.3744,1.55526,2.90174,-0.355801,2.42613,-1.04678,-0.351381,0.402002,7.14116,5.14687,3.14464,-0.79267,-1.28157,-0.0413563,-0.892696,-0.898945,-204.96,-780.8,-591.944,26320,-9100,6300
5.65508,2.8552,2.11745,1.26863,2.38028,-0.481181,2.7147,-0.48408,5.81064,5.33642,3.16404,-1.14586,0.227398,1.43441,3.20001,-0.749031,-202.52,-785.192,-592.92,27440,-10220,4760
5.4548,6.51131,2.32169,6.78603,5.11599,0.085441,8.54214,1.6016,6.09018,4.39643,3.32174,1.26753,3.22888,2.77994,9.5767,2.45334,-202.032,-789.584,-589.504,28840,-10780,2800
8.69759,11.4227,5.86322,9.97445,5.45276,1.0874,10.0351,3.62895,10.8037,7.82896,3.54931,5.59638,4.55982,3.11687,9.34167,3.33409,-201.056,-792.024,-584.136,29960,-11200,1260
5.55895,6.66779,4.40919,9.17735,4.16655,2.74005,9.85847,6.31855,8.40899,3.65673,1.20175,4.87336,2.68085,2.26744,9.666,3.49429,-200.08,-792.024,-580.72,31080,-11200,-700
1.6413,6.07737,3.57882,9.13151,7.15186,4.02153,11.4348,9.6335,2.44232,2.30394,-0.373609,4.9236,1.92787,3.11895,11.1474,8.46389,-195.2,-790.56,-577.792,31080,-13020,-2100
-11.3059,-3.47215,-3.65034,-0.228861,-0.822036,2.37887,4.37787,4.59163,-13.6573,-7.13032,-4.88837,-2.34134,-2.45455,0.16613,2.23513,7.5329,-187.392,-790.072,-579.256,30520,-12600,-3080
-14.9544,-7.64094,-5.54684,-7.72828,-3.67543,2.02697,-2.53254,2.53762,-17.9082,-8.9209,-4.82109,-5.03811,-4.33003,-2.71963,-7.33355,5.64223,-190.32,-793.488,-578.28,29960,-10920,-5320
-12.4242,-7.34123,-8.07567,-9.40017,-3.23977,0.765592,-4.44742,2.982,-14.6028,-7.70403,-4.23855,-4.50752,-3.75896,-2.79472,-9.82025,4.36484,-191.296,-791.536,-573.888,29680,-10360,-6580
-8.13507,-5.31225,-8.60042,-7.8142,-4.06111,-0.354576,-4.85727,1.80037,-7.02478,-5.54694,-3.63697,-3.61706,-2.77395,-4.21427,-11.7377,3.76838,-189.344,-790.56,-576.816,29960,-10220,-7840
-2.10903,2.84324,-1.39774,1.87157,3.64638,0.926975,1.48059,3.97393,0.964309,1.87935,-0.471145,1.55393,1.67805,-0.920466,-2.08147,5.68332,-190.32,-790.072,-575.84,30240,-10220,-8400
-7.27168,-2.52655,-1.53753,4.61049,4.46035,1.23104,3.17103,3.43909,-5.34022,-3.50552,-2.07391,-0.0889226,1.73531,1.61678,2.95846,2.39241,-183,-788.608,-576.816,30800,-9800,-8540
2.93188,-1.97765,1.95827,-4.30446,1.15067,-0.390067,-2.77508,2.61724,3.87482,2.79782,2.62746,1.60054,2.06027,0.211614,-10.07,-2.31782,-189.344,-790.072,-572.912,29960,-8260,-9240
12.6227,0.131437,5.75117,-8.99712,-3.56242,-1.42062,-8.5157,-2.3606,15.3377,9.4508,5.25127,2.19458,2.54035,-0.384588,-15.6079,-7.63898,-186.416,-785.68,-575.352,29120,-9240,-9380
7.03318,-0.637842,2.09706,-1.52009,-2.9795,-0.76225,-4.14624,-3.77177,11.0926,5.48139,2.43585,1.84594,0.604536,0.57668,-4.41568,-4.9627,-182.024,-784.216,-576.816,28420,-9240,-9100
3.69494,-0.196989,1.85941,2.40401,-0.0907531,-1.27151,-3.44142,-4.71586,4.98066,3.57525,0.597872,1.23873,-0.940169,0.762043,1.6994,-3.97757,-186.904,-787.632,-576.328,28140,-7000,-9380
4.19938,-2.80299,1.05545,-4.07796,-3.04959,-0.576991,-6.05278,-5.89286,3.0986,1.13433,1.35792,-1.05821,-1.13807,-0.750413,0.451657,-4.92156,-186.904,-786.656,-574.864,28560,-7140,-8820
8.39831,-0.64744,0.831999,-5.76543,-2.75141,0.829105,-3.10101,-5.42271,9.38276,3.27584,4.06377,2.4974,1.73522,0.069836,1.41682,-2.78905,-186.416,-785.68,-570.96,28560,-7700,-7840
16.7331,13.532,4.10953,7.31311,4.14585,2.89008,3.39708,-3.16068,20.8109,8.45489,5.13909,10.3893,4.43303,4.28367,9.58617,1.91903,-189.344,-782.264,-572.424,28700,-7700,-7420
12.4095,14.6896,2.09133,12.8296,4.43551,3.58194,8.64298,-1.66852,14.9272,4.03348,3.37697,9.44496,3.32337,5.38513,14.7877,6.24448,-185.928,-786.168,-572.912,27720,-7140,-6720
-3.80872,0.885596,-1.82934,-0.779941,-4.58042,-0.488313,1.73439,-3.11346,-7.96679,-5.69613,-1.32846,-1.75622,-0.7138,0.129988,1.50191,0.193632,-183.976,-791.048,-572.424,27580,-6580,-6440
-24.6675,-17.1936,-10.6968,-10.8813,-11.7629,-4.83897,-2.88691,-7.29334,-34.082,-19.2677,-8.10762,-14.4277,-5.94961,-5.40704,-5.39656,-6.85515,-185.928,-792.024,-573.4,27580,-6860,-6160
-20.8817,-11.8571,-3.84138,-8.31914,-3.51805,-2.99472,2.22474,-2.82885,-27.536,-13.0818,-5.59565,-10.8724,-3.92522,-4.63653,-0.969487,-1.68371,-186.416,-789.096,-569.008,27720,-7140,-6160
-4.82675,-3.7119,1.02788,-7.89434,-3.89654,-2.46564,-2.40659,-4.26535,-6.76947,-0.784019,0.0230639,-5.17079,-0.978501,-1.93895,-5.06534,-3.67729,-184.952,-792.512,-575.84,27860,-7000,-5880
3.76103,3.78802,5.40823,0.83772,0.413983,-0.521848,-2.22822,-3.52427,3.61709,4.23419,1.37876,-1.27446,1.17039,0.844536,-1.19629,-1.63502,-187.88,-789.096,-573.888,28420,-7280,-5460
8.66171,7.38895,8.95007,8.90633,6.53226,0.628646,-1.95116,2.22545,9.53623,6.63808,2.55612,1.09162,1.66934,2.19061,3.0082,0.334269,-189.344,-785.68,-577.304,28840,-7700,-5040
12.1956,10.3271,8.68512,15.0464,10.5918,2.33756,1.4728,4.66865,16.4749,8.58151,4.22417,6.75676,1.88679,4.60132,10.1135,-0.713608,-192.76,-780.312,-573.4,29540,-8400,-4480
4.78407,4.42265,2.53879,5.90707,5.07263,0.794122,-0.302613,4.67059,8.23765,4.2815,-0.0637439,3.19618,-0.188415,0.671116,4.83746,-5.97277,-189.832,-781.288,-579.256,29960,-8680,-4060
-13.7508,-9.56503,-4.87857,0.893744,-0.264737,-1.38975,2.96367,3.56628,-15.1815,-7.01858,-7.31482,-7.33843,-4.25136,-2.66415,5.73478,-3.38933,-193.736,-771.04,-578.768,29820,-8820,-3780
-16.7021,-15.9463,-8.83288,-5.38774,-5.06807,-0.985988,-0.188353,2.62214,-20.2598,-10.7912,-6.71713,-11.8445,-4.00149,-3.33272,-2.03689,-2.64132,-199.104,-764.696,-584.136,29820,-9380,-3360
-2.64413,-4.73624,-2.58509,-5.45557,-1.27683,0.140079,-4.03844,4.38535,-6.96564,-0.91212,-0.171054,-2.13319,1.78264,-0.181765,-9.28688,-1.74135,-197.152,-768.6,-583.648,28980,-9240,-2660
0.157315,0.589671,-3.1097,-1.78816,1.24084,1.11874,0.503995,6.12862,-1.55778,-0.705082,1.33295,1.21442,3.22331,1.00654,1.97406,4.16731,-189.832,-781.776,-582.672,28560,-8960,-2800
6.24958,7.30799,-3.56258,3.43767,5.13289,0.445602,6.1822,8.76562,8.65959,3.84061,3.04041,4.94392,2.63131,0.479952,10.3105,8.31445,-191.296,-789.096,-577.792,28980,-9380,-4060
3.86258,8.10148,-3.42717,10.4197,6.95309,1.11966,9.51689,7.64627,5.5881,1.86777,-0.267566,6.82345,-0.307687,2.13678,12.9596,10.5866,-194.712,-788.608,-577.304,29960,-10640,-4480
1.93404,2.51864,-2.20845,8.22316,1.23383,-0.754601,5.18113,3.80551,3.74766,-2.25944,-0.367699,4.28712,-2.48557,0.533102,6.68723,7.51537,-194.224,-793.488,-578.768,31080,-10780,-5040
6.05071,5.3812,3.49618,7.55066,2.05078,0.180166,4.56971,1.7603,10.3474,1.32108,0.719058,6.31733,-1.68442,1.79854,-0.113037,7.62062,-196.176,-793.976,-580.72,31500,-10080,-5600
-0.495362,-4.80791,-1.50597,-6.59471,-5.96606,-1.77683,-4.55888,-5.91429,3.91276,-2.99201,-3.30101,-0.463128,-3.3831,-1.86248,-14.5322,-0.148307,-197.64,-794.464,-580.232,33460,-9800,-6300
0.192927,-4.71474,1.03349,-10.12,-3.52244,-1.53395,-5.06816,-5.61382,2.37704,-1.82012,0.702356,0.487303,-0.0406511,-2.39775,-17.4617,-0.732201,-198.616,-796.904,-579.744,35560,-10640,-6860
2.01194,-8.26769,-0.0335339,-17.1555,-9.92053,-2.52213,-13.3065,-10.7155,1.89549,-0.331852,3.17051,-2.69784,-1.47679,-5.69606,-26.1654,-7.77196,-196.176,-794.952,-579.744,36400,-10640,-7560
-2.0531,-6.30543,0.274572,-9.77995,-7.51172,-2.23138,-7.40737,-8.32141,-4.25899,0.855868,2.88904,-0.850317,-0.462043,-3.80667,-14.8511,-6.52727,-194.712,-794.464,-577.792,37240,-10220,-8120
-3.6369,0.712635,3.88217,1.68517,2.15464,2.29212,1.4003,-0.816413,-4.04619,3.47764,1.42488,3.56574,4.69239,3.27388,0.395394,1.07463,-196.664,-793.976,-574.864,37100,-10080,-8680
5.6131,2.19263,3.59664,-7.29996,-5.94823,0.0891588,-9.37208,-5.86085,8.60086,9.12738,4.10888,1.68381,4.77467,-1.36682,-8.67274,-5.70032,-195.688,-797.88,-574.864,37100,-10220,-9380
7.49477,7.12725,5.38805,-0.244394,-0.559147,0.707287,-1.57118,-2.07725,8.77524,8.11101,2.50491,2.23231,2.80924,-0.785981,2.06769,-2.14128,-195.2,-799.344,-574.376,36260,-10780,-10500
0.542977,7.06788,3.01874,3.62121,3.77193,2.70364,3.34008,0.715479,0.13577,1.56884,-1.94977,-0.0781018,-0.115699,1.44063,8.45356,-0.325327,-196.176,-796.416,-573.4,36260,-12320,-10360
-8.40016,-0.90029,-2.7096,-0.101739,1.02163,2.73613,2.66273,0.281098,-11.988,-4.23555,-3.26236,-5.66417,-1.63259,1.6036,5.96574,0.316217,-194.224,-789.584,-573.4,36540,-13300,-9800
-4.9691,0.177017,0.915125,2.93458,6.03658,2.40037,6.98159,2.26692,-10.7709,-1.20636,-0.403935,-3.8184,-0.551399,2.36315,9.45092,4.43067,-194.712,-792.024,-571.448,36540,-12180,-9800
1.84414,4.04933,1.89136,8.8933,7.38035,1.62214,10.6906,3.48905,0.946953,2.79209,0.0568497,2.25694,1.62976,5.15213,15.6471,6.72547,-193.248,-790.56,-572.424,36120,-11760,-9940
8.85112,11.2663,4.3346,15.9257,10.9629,2.90495,12.4959,7.42505,11.7512,6.74044,1.34102,7.78833,4.38287,5.75906,18.2372,8.50232,-196.176,-792.512,-570.96,35560,-11760,-9800
8.95907,8.33979,1.04052,13.9971,5.65337,1.57928,7.10752,4.51606,11.6164,3.77315,1.14788,4.37888,0.726357,1.20055,13.0489,3.81448,-195.2,-787.144,-567.544,35420,-12460,-9380
6.57067,8.83951,1.26583,11.4002,5.45222,1.80684,3.15611,4.25852,6.34225,0.214855,-0.218435,6.16586,-0.887197,1.53191,7.07735,1.73081,-190.808,-788.608,-569.984,34160,-12740,-8820
-1.44372,1.61845,-0.630254,-0.351658,0.586005,0.899624,-5.17692,1.53967,-5.18815,-3.45493,-2.0835,1.99579,-2.37142,1.26491,-5.67024,-4.57543,-191.784,-793.488,-562.176,33180,-12180,-9100
-9.37151,-10.078,-4.64091,-10.4122,-6.73566,-2.5905,-10.2066,-4.43555,-11.5672,-7.38064,-3.7695,-7.22199,-5.06633,-1.44777,-11.9336,-8.68756,-193.736,-793.488,-565.104,32900,-12040,-8960
-4.28734,-7.52142,-2.31044,-9.27723,-6.68452,-4.00787,-7.9558,-3.92215,-5.54305,-2.69433,-0.493424,-6.67312,-3.94721,-3.01856,-9.68674,-7.66905,-190.808,-795.928,-565.592,33040,-12320,-8400
4.44119,1.1157,0.774651,0.253877,-1.84692,-2.27968,-2.34363,-2.20527,5.83557,2.83873,3.68642,1.2001,1.22508,1.20202,0.343117,-3.79941,-185.44,-802.272,-564.616,32900,-12880,-7980
-2.193,-2.65301,-3.61515,1.84064,-1.75803,-0.866791,2.69482,-1.38789,-2.58812,-2.83934,-0.530049,-0.307842,2.0504,1.61386,8.53773,-0.223819,-183.488,-805.688,-567.056,32060,-11900,-7980
-9.57905,-10.052,-5.72242,-3.08138,-2.02201,-1.8602,1.19111,1.24334,-14.7846,-6.67085,-4.1272,-6.80746,0.319277,-0.615867,5.19436,-0.167642,-181.536,-805.688,-566.08,31640,-11060,-7980
-4.27336,-15.3759,-7.48737,-16.9381,-10.7444,-3.92636,-13.6242,-4.01783,-6.79464,-4.69609,-0.126194,-10.6599,0.814614,-5.72059,-13.2772,-9.66461,-175.68,-810.568,-560.224,31220,-10360,-8120
-2.70431,-13.2211,-7.02681,-14.4945,-10.0352,-3.92273,-8.68105,-0.892852,-1.63704,-5.05787,0.406097,-9.11018,-0.314158,-6.85852,-10.5692,-6.20007,-174.704,-809.592,-559.736,30660,-10360,-8120
-10.1298,-8.078,-4.0709,-2.28009,-0.708783,-1.75209,1.61708,3.09833,-7.85532,-8.13108,0.11906,-5.80477,-1.86775,-3.32191,-0.950039,1.07448,-171.776,-810.08,-557.784,30100,-10080,-7980
-10.2282,-6.66772,-2.41113,-1.148,-0.833138,-0.377324,-0.294055,0.906624,-8.80933,-6.20707,-2.42961,-3.09145,-1.77966,-1.59206,-4.50065,0.384291,-171.776,-810.568,-559.736,28840,-10080,-7700
3.80977,5.25571,5.7006,4.11222,4.52118,1.65792,2.97322,2.53792,6.41229,0.250248,0.106473,6.15184,1.14083,1.19404,-0.841008,5.92756,-172.752,-808.128,-558.272,27720,-10360,-7420
7.9317,1.67604,2.36736,-6.89248,-3.24087,0.143748,-4.33052,-1.63032,11.8794,3.43368,1.06097,3.96595,-1.30023,-3.49906,-11.6925,1.6103,-167.384,-807.152,-558.272,26180,-10220,-6720
12.3997,6.49226,3.55479,-7.57078,-0.479138,0.41346,-4.33958,-4.22122,16.0023,9.82539,3.04922,6.73403,-0.401076,-1.78805,-12.9277,2.59303,-166.896,-803.736,-559.736,24500,-10080,-5880
7.41195,8.98947,2.9057,0.534014,1.83804,0.199694,3.33,-4.61531,10.9551,5.07537,1.1137,5.42717,-0.984271,1.21851,1.44884,7.78457,-166.408,-807.64,-558.272,22820,-10360,-5320
-0.306753,8.98029,1.43516,7.35794,1.9569,0.775036,9.84443,-1.52753,1.88779,-1.95593,-2.82286,4.08181,-1.55752,1.6073,9.24116,9.37579,-166.896,-808.616,-556.32,20720,-10080,-4480
-7.57107,4.81116,-0.424675,8.43629,2.34967,1.45323,10.7642,0.442695,-9.63061,-4.04799,-4.36981,1.5576,-0.685505,1.54615,8.18116,5.30524,-169.336,-803.736,-558.76,19180,-10220,-3920
-4.04947,4.5842,0.229919,16.0013,4.82678,4.00562,18.6719,2.86495,-3.3145,-1.0271,-0.821927,3.22894,1.69267,3.37425,24.5624,5.39338,-168.36,-808.128,-556.32,16940,-10080,-2660
6.65205,10.3198,6.22283,14.8606,6.19853,5.3646,14.0378,4.80029,10.1666,7.58952,4.06958,7.8524,4.62302,4.04523,19.6964,3.41372,-166.896,-809.104,-555.832,15260,-10080,-1400
8.159,6.37959,8.14224,-0.907737,-1.39433,2.48512,-4.48799,0.74375,9.94627,8.14874,4.09734,4.53193,3.44581,1.11887,-9.4394,-5.48125,-162.992,-817.888,-556.32,14560,-10220,-980
-2.80462,-1.83202,6.44987,-0.479254,1.12707,2.76247,-6.19759,-2.68835,-6.93337,0.408097,0.889301,0.582651,2.04637,2.92324,-8.60526,-5.28367,-168.848,-819.352,-550.464,13580,-9800,-560
-10.5842,-7.99174,2.61957,3.84322,2.97973,0.704718,-1.55255,-1.69091,-17.2508,-3.8051,-2.81399,-6.82778,-2.02346,1.18135,3.23149,-2.37944,-163.968,-822.768,-550.464,13300,-9940,280
-2.77258,-4.67052,0.124009,-1.47501,0.434137,-1.3808,-8.51364,-1.54848,-5.00557,0.148157,-0.988631,-6.70145,-2.78809,-2.40555,-4.15418,-5.0632,-167.872,-820.328,-554.856,12740,-9520,700
-0.572964,-3.24834,-3.91401,-8.1877,-1.29496,-4.2166,-15.1027,-0.552191,-1.55331,-0.953293,-2.80019,-5.48562,-2.32856,-4.24584,-13.5664,-8.3003,-170.312,-824.232,-550.952,12600,-9660,1120
1.0517,-3.16529,-4.41326,-1.37823,-0.34134,-3.97217,-6.48344,1.66603,-1.4502,-0.92263,0.0500478,-4.48251,-1.8854,-0.850395,-1.20483,-4.14943,-174.216,-821.304,-553.392,12320,-9520,1680
6.11148,3.20654,0.639684,3.54135,3.75933,-1.01958,-7.04658,0.926096,1.52664,5.88098,5.29134,1.11345,3.21798,2.57535,-5.4091,-4.60779,-175.192,-818.376,-554.368,12040,-9660,2520
13.4817,4.67988,3.0613,-5.12,1.39844,0.21728,-13.0317,0.484613,10.4147,10.8947,7.22727,3.74233,5.09055,1.53792,-18.8349,-5.13735,-175.68,-821.304,-555.344,11620,-9240,3220
7.58142,-2.17726,-2.64521,-2.87743,-0.981803,1.02078,0.150662,4.15412,6.32614,5.20536,4.3614,0.143029,2.06586,1.47727,-1.83658,3.81809,-178.608,-819.352,-551.928,11620,-9380,3780
4.52653,3.35236,-4.26802,8.23481,3.75728,1.27155,11.93,5.96074,7.18079,1.00093,1.37779,0.835109,2.55698,3.23533,16.3055,9.87668,-181.536,-814.96,-552.904,11480,-9940,4340
-0.262015,8.0876,-2.16437,10.3385,6.66084,1.39593,11.6003,7.3514,2.5818,-0.339969,-1.39159,2.00092,2.6327,4.05387,16.9714,11.1415,-182.512,-819.352,-554.368,10920,-9800,4900
-14.6313,0.823957,-6.88774,6.60077,3.5758,-0.737359,10.8966,7.96429,-14.5519,-9.76612,-7.00965,-3.26299,-1.09234,1.42036,18.2691,8.39312,-184.952,-817.4,-559.248,10220,-9380,5180
-13.8407,-7.63446,-7.12753,-5.09794,-2.35784,-2.62655,3.12285,4.76549,-14.616,-8.34494,-5.79854,-5.83214,-3.98345,-2.2911,5.79332,1.99098,-184.464,-816.424,-556.32,9940,-8960,5600
-8.0489,-13.9667,-7.77463,-18.7885,-13.3876,-4.82129,-8.10333,-4.33565,-6.92178,-6.88613,-2.70042,-8.36773,-6.69313,-6.7713,-12.4403,-8.72491,-187.392,-815.936,-561.2,10220,-8680,5740
2.19533,-2.053,2.28219,-10.1232,-4.32149,-2.63965,-0.196178,-3.00945,5.77169,0.700698,-0.251496,2.5398,-3.25742,-3.80907,-1.98686,-4.33176,-187.88,-815.448,-556.32,10220,-8540,6300
7.30577,4.42523,7.56938,-3.45514,-0.562887,0.0234053,5.51814,-2.8507,12.3331,2.58271,0.714884,7.33867,-0.0987032,-0.410868,6.33539,-0.713883,-187.88,-814.472,-558.76,10080,-8400,6300
12.8454,12.0377,7.94202,4.38471,3.80642,2.41717,7.04881,-2.87753,18.0132,6.11307,3.75992,13.8762,2.94478,2.2964,8.92855,2.02565,-190.808,-814.472,-560.712,9940,-7560,6580
15.0127,11.5078,8.53343,2.04929,2.49231,3.16253,-2.12868,-3.62062,18.2673,9.16612,6.54799,15.9398,3.59679,1.7591,-5.1247,-0.997264,-191.784,-812.52,-560.712,9800,-7280,6580
3.60925,-0.885097,4.09596,-5.64625,-4.54521,1.85515,-8.6697,-2.75334,4.19974,0.159339,2.32352,6.48889,-0.274019,-1.59877,-16.529,-4.91267,-190.32,-807.152,-561.2,9800,-7140,6720
-0.152319,-1.2052,3.94368,0.843351,-1.20643,2.90029,-4.4819,-0.578321,1.61145,-2.9481,-2.17265,4.48165,-0.253945,-0.342828,-11.8109,-3.26349,-194.712,-809.104,-562.176,9660,-6860,6860
1.61866,-4.18437,1.19245,2.69107,-3.40196,1.88088,-2.87324,-5.48589,2.58653,-1.85041,-1.64556,-0.0392303,0.722324,0.00926126,-6.19851,-5.70371,-195.688,-808.616,-565.104,9660,-6440,6860
1.9461,0.052534,-0.151412,8.50493,2.26785,1.53987,4.97083,-5.46029,2.10573,-1.00335,0.946438,0.928246,2.60887,1.81624,2.51524,-1.44587,-193.736,-807.64,-566.568,9660,-6580,6860
-10.7688,-7.69663,-3.75079,1.308,2.12229,1.28381,5.59676,-3.44835,-16.4062,-7.06315,-3.90146,-5.59859,-0.175489,0.75239,-1.4063,2.07879,-198.616,-806.176,-566.08,10080,-6440,6860
-33.6474,-29.4242,-13.0406,-9.63927,-7.54097,-3.27306,1.59289,-3.55651,-47.1003,-20.7347,-12.5416,-21.2372,-8.20705,-5.64798,-6.33929,0.465796,-194.712,-809.104,-563.152,10920,-6300,6860
-25.9952,-26.1875,-14.514,-18.6717,-14.3379,-6.84153,-11.4393,-7.45661,-35.0756,-16.1006,-9.4956,-24.5635,-9.56313,-9.52208,-17.1111,-5.25887,-197.64,-808.128,-562.664,11340,-6300,6720
-10.2873,-12.5593,-9.45029,-19.6623,-13.5777,-6.18713,-16.226,-7.85073,-12.3701,-4.23568,-1.81852,-17.4221,-5.46811,-7.65177,-15.1131,-6.1243,-198.128,-805.2,-562.664,11760,-6020,6440
4.05978,3.58639,-2.56017,-2.95258,-4.11106,-2.28167,-6.94959,-5.60932,8.36402,4.29611,3.39382,-4.90025,-0.516112,0.0956192,2.74747,-1.86039,-198.128,-806.176,-562.176,12320,-5880,6020
3.34521,14.2751,2.7774,13.8973,10.8682,2.52128,5.02272,1.63081,5.02352,4.71504,1.06277,3.78657,2.3406,6.04838,16.4196,8.28825,-200.08,-806.664,-560.712,12460,-5740,5880
1.9533,10.2746,2.18782,13.4723,8.47258,2.83853,6.77629,4.14629,5.31753,3.48797,0.907692,3.24276,2.4779,4.66386,13.6648,9.82221,-197.64,-809.104,-558.272,12460,-5740,5460
25.933,28.7061,14.3024,24.2733,17.7297,5.63079,15.3394,10.0264,33.5763,20.829,11.1007,18.4681,8.62483,8.84993,23.1242,14.5236,-199.104,-807.64,-558.272,12740,-5320,5180
21.3291,20.8448,10.3695,14.4683,11.0768,3.83043,7.84772,8.05727,24.9022,16.1744,8.82799,13.3831,6.16484,6.97089,12.7105,7.68328,-194.712,-810.08,-560.224,13160,-5600,4900
2.00254,3.34177,0.170202,1.87158,0.906613,1.16969,2.51784,7.26575,-1.92532,3.06006,1.40688,0.937824,0.877795,2.39905,1.56265,4.16846,-199.104,-807.64,-557.784,13300,-5180,4760
-10.6949,-7.87978,-5.1274,-3.77967,-3.86655,-2.34353,2.73057,6.57561,-17.8089,-6.97574,-4.76182,-6.1983,-2.27183,-0.907723,-1.56549,2.39486,-197.64,-807.64,-555.344,13440,-5040,4480
-6.09646,-8.83077,-2.93999,-6.82122,-5.74512,-2.76385,1.11407,4.94182,-9.29395,-5.84287,-2.73522,-6.12138,-1.74611,-1.47006,-5.52527,-1.94437,-196.176,-810.568,-559.248,13720,-4760,4200
2.66764,2.99782,2.30853,3.70578,1.93527,-0.821438,5.11302,6.36078,3.80782,0.530064,0.663678,0.516096,0.969873,0.430299,2.42639,1.14054,-194.712,-811.056,-557.784,13860,-4620,4060
9.87547,4.37825,1.90123,-0.396918,-1.82928,-1.70575,-0.584255,3.123,14.9346,5.34206,2.77441,-0.0812915,1.83297,-0.806472,-2.10187,-1.95268,-193.736,-813.496,-554.856,14420,-4340,3780
17.968,11.4054,6.25232,0.617897,0.731816,0.121631,-5.05841,0.487085,23.933,9.30374,7.86271,6.71495,4.98735,0.16527,-5.58937,-5.77384,-192.272,-812.032,-555.832,14980,-4340,3780
7.84193,8.60561,5.54938,0.53661,4.46173,0.784194,-6.97627,0.133751,10.7689,5.36742,3.63032,5.9938,3.12774,-0.344935,-6.2864,-6.6521,-192.76,-810.568,-556.32,15400,-4200,3920
-0.906059,1.47135,2.9878,3.11104,4.10715,1.4039,-1.89007,-0.26891,1.32886,-0.0786932,0.535165,2.92687,1.23271,-1.67514,3.43225,-5.61917,-191.296,-813.496,-550.464,15960,-4060,3780
6.86184,5.17275,6.05268,-1.0002,4.13603,1.74066,-8.80845,-3.58623,11.2681,5.27727,2.30692,7.22828,3.74652,-2.33651,-5.06435,-9.22865,-192.272,-812.032,-551.928,15960,-3640,3780
-0.910821,-3.65382,0.548074,-4.2931,0.552235,2.01561,-9.32755,-7.01675,-0.172901,-3.24534,-1.2945,2.79196,1.75666,-2.14905,-6.47619,-10.7686,-189.832,-810.568,-554.368,15820,-3500,3780
-11.4504,-8.80412,-4.17676,1.78882,2.63331,1.84975,0.247808,-6.39808,-15.9507,-12.9086,-4.61108,2.13882,-1.42976,-1.13205,4.47936,-4.6093,-188.856,-812.032,-550.952,15400,-3500,3780
-32.2066,-21.3467,-8.45759,1.09382,2.80883,1.30067,9.18858,-2.27835,-44.0448,-21.7236,-12.121,-6.09502,-6.0284,0.913667,12.3922,4.16999,-187.88,-813.496,-553.392,14980,-3360,3920
-14.5483,-21.2933,-5.78533,-11.7347,-8.18651,-1.01641,-0.909421,-7.3248,-20.3201,-9.90018,-5.25006,-7.37071,-5.19486,-1.09166,0.912416,-1.05165,-186.904,-813.984,-554.856,15260,-3500,4200
20.2067,6.12943,4.72569,-5.26593,-4.85916,-0.605761,-3.14642,-6.12261,24.5273,15.909,6.42302,7.02,1.88618,-0.422747,-0.529724,-1.5118,-189.344,-814.472,-553.88,14980,-3360,4480
16.5657,7.17239,-0.682154,-4.91428,-9.26608,-3.51305,-5.37619,-4.65194,19.1072,13.2319,4.29469,1.49604,0.912699,-2.75848,-3.78421,-2.14021,-189.344,-814.96,-552.416,15260,-3360,4760
0.508088,1.57559,-5.00206,-3.14694,-5.77308,-1.94813,0.976908,2.26132,-0.581352,2.23262,-1.82474,-2.01949,-0.66795,-0.432278,-1.87047,4.36701,-185.44,-814.96,-551.928,15540,-3220,5040
-12.1062,-9.24329,-5.95702,-8.02973,-4.79669,-2.32075,-3.96746,1.64018,-13.6502,-5.74064,-4.42964,-8.17943,-3.25793,-1.88091,-9.75806,2.0123,-187.88,-814.96,-553.392,15680,-2940,5740
-1.01361,-2.72707,-2.34147,-15.5408,-10.4821,-2.72609,-13.307,-1.06934,6.02915,-0.520619,5.80585,-3.62943,-2.08081,-3.45929,-22.7207,-3.78709,-189.344,-813.984,-555.344,15960,-2660,6020
-21.0641,-1.09298,-1.88284,13.1288,6.02954,4.475,19.642,14.6299,-18.7934,-12.1436,-5.97983,-2.58547,-3.74983,5.55416,19.015,17.6047,-191.296,-813.496,-556.808,15820,-2380,6720
-12.3345,0.189093,-0.65341,12.0462,5.59063,1.39657,13.3334,8.00461,-9.38458,-9.40893,-7.48687,-0.990459,-4.68646,4.08707,11.6741,12.6332,-192.272,-812.52,-557.784,16380,-2240,7420
18.5906,16.3175,4.28828,4.74533,4.15835,-1.65759,-2.06277,-2.02574,25.8194,9.08921,4.31126,11.5309,1.0258,2.48603,-9.19164,-1.02264,-193.248,-812.032,-559.248,16380,-1960,7980
8.6949,9.26899,1.22513,1.48675,5.46007,-1.71452,-1.11835,0.375315,5.48016,5.94577,0.130968,6.14241,0.117175,0.77299,-8.76746,0.161639,-195.688,-810.08,-559.248,16660,-1680,8540
-13.3082,-10.384,-6.84847,4.42773,2.96556,-0.514114,9.698,4.76267,-23.8367,-10.2535,-5.70102,-8.33081,-5.22106,1.70986,7.97469,7.31675,-194.224,-806.664,-562.664,17220,-1680,9240
2.88183,-1.51088,0.498877,3.98466,3.90816,1.03853,3.58693,3.5915,-1.58398,1.08988,1.6673,-3.12427,-1.32873,0.683176,3.86818,4.04936,-197.64,-807.152,-558.272,17500,-1120,9660
13.3522,0.0451424,2.22985,-6.62152,-4.93667,-0.606021,-6.42699,-3.02762,15.3359,9.12432,6.66883,-0.999205,0.565528,-2.73697,-7.59925,-6.31961,-199.592,-810.568,-558.272,18200,-1120,10080
4.27468,-2.12961,1.61224,4.11682,3.16166,2.33405,10.3426,1.36908,3.21474,4.17951,3.4478,-0.00942517,1.82108,1.78515,12.2804,1.5912,-202.032,-811.056,-562.664,18620,-980,10640
6.00598,-2.32945,1.28785,-11.0386,-4.79546,-1.22326,-9.96609,-7.17675,4.09437,6.19968,5.44952,-0.278337,4.99328,-1.56801,-14.3575,-11.5112,-198.616,-807.64,-562.176,19460,-700,11060
3.43811,-12.3519,-4.15812,-24.5206,-16.5395,-4.67669,-22.0404,-11.5757,-1.30284,3.6128,4.47775,-9.39379,3.03666,-7.13227,-27.8023,-18.3874,-203.984,-809.592,-563.64,20440,-840,11480
2.40538,-1.1389,-1.20843,0.90145,-3.23567,0.0962381,2.91146,1.25877,-0.427763,1.09952,0.0362401,-4.47802,1.9034,-1.57247,7.07607,-0.281158,-207.888,-809.592,-561.2,21140,-700,11760
