0.931943,0.580398,-2.61777,-2.63291,-2.49192,-2.33883,-6.32094,-3.00732,2.53497,-3.6596,-0.686183,-2.52363,-4.65045,-2.80475,-9.73586,-2.30079,-203.496,-808.128,-546.56,0,-840,980
-1.08038,-4.35031,-5.55849,-7.44053,-5.23809,-3.54246,-6.39328,-2.97921,-0.0526614,-5.52033,-1.38895,-7.55345,-7.63848,-5.64212,-12.1718,-3.85018,-204.472,-810.568,-548.024,140,-700,700
-6.56274,-12.3764,-9.31808,-11.5336,-8.50107,-3.66228,-4.78484,-4.70124,-7.13865,-7.77185,-2.52166,-11.7391,-7.73158,-6.40956,-9.74225,-4.53099,-205.936,-807.64,-549.488,0,-840,420
-5.38318,-5.76274,-3.78366,-2.52458,-1.57109,-1.33721,3.30839,-1.59844,-6.01772,-2.77572,-2.55676,-5.89232,-3.83715,-3.24537,2.77804,1.77279,-204.472,-810.568,-545.584,-140,-700,140
-5.61445,-6.32573,-5.97554,-4.17685,-4.67983,-2.08524,1.02971,-5.32141,-7.04136,-3.00374,-2.73569,-7.82815,-4.90407,-4.41329,1.72501,-2.52375,-203.984,-812.032,-547.536,-280,-980,-140
-8.30216,-2.89227,-5.67576,1.41151,-2.21092,-0.530258,5.20242,-2.37527,-7.74569,-6.09887,-3.47642,-6.31916,-4.69666,-2.25698,7.66679,-0.210486,-204.472,-813.496,-546.072,-560,-840,-140
-7.88481,2.69205,-0.372327,8.14857,4.4349,1.69687,8.17682,4.64849,-6.69241,-4.16931,-4.98414,-2.11759,-2.23045,1.17492,11.4566,3.7824,-203.008,-814.96,-543.632,-420,-1120,-140
-5.23938,2.82991,-0.771932,8.63952,3.13986,2.77725,9.09593,6.28209,-3.28649,-5.51884,-4.50402,-0.0691371,0.613874,2.65872,9.95769,2.69264,-204.96,-815.936,-545.096,-560,-1120,-140
2.54198,5.49701,1.82403,4.8618,2.13175,3.06714,5.53702,7.05095,2.16298,1.07878,-1.33305,4.71264,2.75231,1.61414,2.01877,0.427266,-203.008,-816.424,-545.096,-420,-1120,0
4.66707,2.27679,1.16126,-1.76668,-3.60822,1.77256,-2.46955,2.45118,0.764105,3.70913,1.72511,3.48774,4.58015,1.16937,-5.35127,-5.42858,-204.96,-817.888,-546.56,-420,-980,0
5.19916,5.60279,4.34168,2.37969,1.54557,2.33395,-1.33362,2.82324,-0.280653,4.82498,3.68092,6.95244,6.66368,3.60478,-2.68392,-3.27798,-201.544,-818.376,-548.512,-280,-1120,280
9.04599,9.24806,7.14328,8.91713,8.05991,2.84287,2.63421,2.49403,3.89893,5.67277,4.72931,11.247,7.77422,7.49719,5.05239,0.714541,-203.496,-815.448,-544.608,140,-700,280
8.57003,11.2352,6.66654,11.8101,10.3814,1.35613,5.43376,1.09748,7.3101,2.26937,2.05689,9.95973,5.8431,7.30474,13.4439,6.24197,-203.984,-813.984,-547.536,560,-560,560
5.45507,12.7558,7.25991,12.7791,11.6262,0.128112,5.04005,0.283731,8.21075,1.80078,-0.0929676,7.74134,2.64601,3.44316,16.6491,8.95937,-200.568,-813.984,-546.56,700,-420,980
8.15612,11.6681,4.92984,12.1065,8.65337,0.916438,5.50011,0.525408,13.8581,3.77919,2.16706,9.06499,2.69449,3.52514,16.7221,8.74274,-204.96,-812.032,-549,840,0,1120
4.20104,2.15201,1.06268,4.08506,4.02681,1.43717,3.95375,1.12551,9.87516,1.12221,2.55193,4.21455,0.47475,2.07022,9.71934,6.85053,-202.52,-812.52,-545.096,700,140,1260
3.72745,-0.768367,1.77608,0.297297,6.29026,1.42007,4.97271,2.75492,8.6419,3.00047,2.90522,2.17689,-0.233953,0.956861,7.64816,9.47888,-203.496,-810.568,-549,560,700,1260
0.0180235,-9.2158,-5.52685,-5.44577,-1.41901,-0.31412,0.475827,-2.45639,4.59254,-0.572203,1.7274,-2.37223,-2.84322,-2.83301,2.2424,4.14757,-203.496,-810.568,-548.024,560,700,1540
-1.80134,-5.4978,-4.38664,-2.25795,1.39347,-0.381499,0.721545,-1.20705,1.30993,1.50352,-0.150026,-0.980439,-3.7513,-3.11708,1.84729,4.69634,-202.52,-808.616,-550.952,840,700,1820
-8.39831,-12.3283,-8.28451,-11.6254,-6.32968,-2.98428,-8.37941,-5.19533,-10.9402,-3.17401,-1.57274,-7.99813,-5.88669,-4.85441,-10.2065,-1.77888,-204.472,-809.104,-550.464,980,840,1820
-7.93058,-7.55182,-4.15162,-7.67341,-4.95356,-0.850351,-5.98811,-3.04729,-11.4481,-2.96167,-1.22271,-5.43594,-3.40654,-1.22813,-9.72669,-1.32841,-203.008,-810.08,-551.928,980,560,2240
-4.95099,-2.01136,1.29255,-4.73443,-4.52325,0.0143287,-3.85575,-3.39299,-6.25251,-0.198986,-0.555939,-1.39502,-0.229492,0.88991,-9.19695,-1.74963,-206.424,-806.664,-551.928,1120,560,2660
-6.51517,-5.32844,0.405555,-8.2384,-8.97772,-0.897014,-4.61655,-5.69206,-7.27038,-2.0409,-1.41136,-5.80884,-1.31806,-2.12607,-11.6451,-5.33586,-206.912,-805.688,-551.928,1120,560,2660
-2.11282,-4.12936,-0.752954,-5.69883,-8.55029,-1.45988,-1.58409,-7.77574,-2.25347,-1.59697,-0.955275,-5.87023,-1.64382,-2.34109,-8.72436,-6.39287,-206.424,-807.152,-553.392,980,700,2660
4.04707,3.31486,1.55507,1.16544,-4.37873,-2.1808,-0.980269,-7.04674,6.53528,3.06876,1.04118,-1.33818,0.487916,-0.469119,-5.35453,-6.83392,-203.496,-805.2,-554.856,840,700,2660
6.70608,12.4986,1.78072,6.12218,0.935511,-0.312451,2.10982,-2.88114,11.5721,3.86784,1.60846,3.726,2.13736,-0.834954,-2.00348,-5.33347,-203.984,-803.248,-554.368,560,700,2520
6.58301,14.3925,3.78144,6.76494,4.88482,1.68731,3.39429,-0.171749,9.00058,3.99562,0.325468,5.4082,3.25358,-0.153328,-0.913301,-5.83552,-209.352,-803.736,-554.368,420,560,2380
2.83771,10.6184,2.50409,4.72063,3.36595,2.46879,1.40928,3.39173,3.34912,0.809637,-1.41216,2.4895,2.56169,2.13197,0.0692142,-5.25118,-206.912,-804.224,-557.784,280,280,2240
-2.85531,2.0342,-0.847329,-4.62742,-1.82187,-1.26575,-5.66749,4.53947,-4.49753,-1.73688,-2.30602,-4.3486,0.109643,-1.29824,-6.75654,-6.37206,-205.448,-807.152,-553.392,140,280,2100
-3.4469,-8.1805,-2.06978,-11.5022,-7.38145,-4.78155,-11.9142,3.02673,-7.55458,-1.17802,0.0410465,-7.76415,0.626128,-3.56114,-11.4805,-10.1239,-207.4,-807.152,-554.368,140,140,1960
-1.41088,-12.4898,-2.1833,-10.9984,-8.07714,-4.38198,-10.8132,4.21294,-8.77264,-0.938249,0.625496,-8.46716,0.370011,-3.47877,-8.97468,-10.2107,-206.912,-804.712,-555.344,140,140,1820
-0.653154,-9.79463,-0.502518,-5.01994,-2.48837,-1.55721,-4.21184,7.94501,-8.09418,0.0536379,-0.0242376,-6.31232,-0.992881,-3.19915,-3.75805,-4.20518,-207.4,-808.616,-552.416,0,0,1680
-5.32774,-13.5568,-3.43695,-4.98589,-2.25313,0.30482,-2.11962,5.41762,-9.38641,-5.21061,-1.59092,-5.38845,-2.34497,-1.9024,-0.996152,-2.60462,-205.448,-809.592,-549.976,140,-280,1680
-5.48163,-10.2073,0.895897,-3.17599,2.51055,1.42937,0.0489089,4.31007,-6.30857,-2.4805,-2.35214,-0.247534,-1.88678,0.903728,0.515428,1.36175,-210.328,-810.08,-546.56,420,-420,1400
-3.24963,-7.17786,-1.80366,0.372946,1.07398,0.837567,1.74953,1.204,-1.95366,-1.74345,-2.22704,3.01067,-1.80138,3.05624,2.8311,3.63857,-208.376,-809.592,-546.072,420,-700,1400
0.249004,-0.323296,-0.547208,9.05079,5.60848,2.11095,8.43713,4.00722,2.97728,0.782996,-1.65613,6.7574,-0.426239,3.10306,13.0459,12.3003,-208.376,-809.104,-543.144,-140,-700,1120
-3.40398,-6.18878,-1.26609,4.77045,1.1057,0.3899,5.1728,0.47469,-2.51006,-0.728164,-2.47744,2.09119,-1.4897,0.153577,9.52063,11.4348,-209.352,-811.056,-547.048,-700,-560,700
-4.62689,-1.96355,-1.60525,5.88257,2.84242,1.02202,7.10209,0.0362008,-2.50787,-3.38221,-3.07333,1.96357,-2.11288,1.39719,10.684,11.9489,-205.936,-811.056,-543.632,-1120,-560,700
-0.0655705,8.18461,1.8165,9.19231,6.72373,3.85554,11.7422,0.452895,4.4822,-2.82811,-2.05825,6.82505,0.993827,5.28448,12.0656,13.2722,-207.888,-811.544,-543.632,-1680,-560,140
2.58603,10.3021,1.89039,5.12801,4.4424,2.82314,9.69032,-2.28692,5.94725,-1.22898,0.3479,5.10184,0.902881,3.54342,7.19114,7.30311,-203.984,-812.52,-549.976,-1960,-560,0
6.40448,15.1404,3.20941,2.86386,4.26719,1.06511,7.29081,-1.89501,10.1214,2.32045,4.70757,4.71237,0.505866,0.566927,4.27593,4.26502,-203.008,-813.984,-550.464,-1960,-700,-140
7.57876,14.4666,2.10401,2.00723,3.93536,-0.4683,4.2736,-2.77097,9.62129,1.1612,6.17184,3.94011,0.166452,-0.176686,3.4491,1.19922,-203.984,-813.008,-549.488,-1540,-840,-280
5.97182,13.7916,3.51945,7.11431,6.38931,1.76656,4.21991,-2.0123,8.07069,0.429331,6.64885,5.08304,2.16011,2.88562,8.1528,1.63138,-201.544,-810.568,-548.512,-1120,-700,-140
8.12561,15.4249,9.40733,10.3436,8.48604,3.08837,4.70557,0.824094,9.4751,5.37096,6.02341,8.28814,5.27871,4.4757,6.85204,1.8149,-199.592,-810.08,-553.88,-280,-1120,140
3.18053,4.63301,3.68367,1.77375,-1.13571,0.720846,-3.34699,-3.08007,3.63721,2.54868,3.24075,2.51254,3.3768,-0.634297,-3.89665,-5.24278,-198.616,-812.032,-549.976,140,-1120,280
-1.88922,-2.45879,-1.59158,-2.76544,-4.7214,-0.70965,-8.04441,-2.94835,-0.685392,0.985833,0.0665421,-1.4239,2.12797,-4.30209,-7.58268,-5.5406,-195.688,-809.104,-551.44,1120,-1120,420
-1.47197,-8.27256,-4.44353,-7.18376,-6.6804,-2.71121,-10.8323,-5.10631,-2.67926,1.30443,-0.849138,-4.01831,0.0380862,-6.2226,-11.6692,-7.73216,-196.664,-808.616,-548.512,1680,-1540,700
-0.823927,-9.05663,-4.87443,-9.28209,-7.79819,-2.44715,-12.954,-5.9483,-5.61617,-0.98063,-1.39721,-4.64725,-0.983194,-5.45046,-13.4172,-8.5484,-196.176,-811.056,-547.048,1680,-1540,560
-2.76531,-10.4687,-7.28936,-8.47079,-7.44341,-1.2097,-11.7913,-3.57681,-11.6689,-4.53003,-3.18939,-6.80981,-1.49365,-3.81495,-10.2057,-5.70954,-192.76,-810.08,-550.952,1540,-1960,420
-2.45928,-8.83283,-6.21531,-1.54957,-5.12813,-0.184275,-4.97261,-0.23713,-11.4654,-1.92676,-3.28037,-5.51362,-0.970098,0.904644,-2.12964,-1.2219,-192.76,-811.056,-550.464,1260,-2100,420
-2.55069,-4.68819,-1.52784,2.7341,-2.67879,-0.296788,-0.0862749,3.64522,-5.95394,2.05432,-3.52741,-3.34951,-1.53437,4.13245,1.70018,0.239707,-193.736,-813.984,-548.024,980,-2240,0
-5.48954,-8.0308,-3.15302,-2.33758,-5.21218,-2.75059,-2.69706,2.73282,-5.89244,3.25536,-4.22535,-7.54136,-4.22045,0.255351,-2.5971,-1.69958,-193.248,-811.544,-549,700,-2520,0
-0.0793262,-2.55181,-3.91267,1.56278,-1.12867,-0.939584,2.55242,2.99624,2.3178,4.56241,-1.7464,-3.68198,-2.12012,0.244726,6.21063,2.59795,-196.664,-814.472,-546.072,840,-2100,-140
5.13817,6.77264,2.6561,7.10102,5.70903,1.39461,8.28674,5.71652,10.5911,6.2823,-0.203308,2.5168,0.969588,3.82949,12.409,6.42715,-198.128,-812.52,-545.584,420,-1960,0
1.34692,3.32163,2.35027,0.147807,1.1021,-0.827264,3.62771,2.2431,7.92114,0.963456,0.437296,0.140128,-0.444353,1.13681,2.497,0.683052,-199.104,-811.544,-547.048,280,-1960,140
3.43852,5.75236,3.45161,1.49475,5.56529,-0.738969,4.65716,1.86822,10.0678,2.18451,2.97667,4.58938,1.15504,-0.12476,-0.857943,-1.0289,-196.176,-811.056,-543.632,-140,-1820,280
3.10325,2.00365,2.66311,1.24028,3.43926,-1.69687,2.90258,-1.16715,5.79213,1.01349,1.98813,3.38235,0.85221,-0.933704,-3.75603,-4.28615,-200.08,-809.592,-544.12,-280,-1260,420
-2.94273,-6.15341,0.605574,-7.68337,-6.11064,-3.80295,-4.0372,-5.07171,-3.80071,-2.29893,-0.673949,-2.30861,-0.924002,-3.50671,-13.176,-9.35447,-201.056,-808.128,-540.704,-420,-700,700
-7.55578,-6.46142,-0.879591,-11.621,-5.50875,-2.85006,-3.82645,-0.654486,-11.7834,-3.43481,-1.11512,-3.32133,-1.58017,-3.5925,-12.2077,-4.46248,-201.544,-809.592,-539.24,-1400,420,700
-8.02255,-9.87527,-4.36012,-13.1167,-4.36546,-0.60203,-3.85973,0.680507,-13.4613,-6.58808,-0.528304,-4.50966,0.00244732,-1.58237,-7.96019,-0.734311,-204.472,-810.568,-544.608,-1540,1260,1260
-1.13475,-0.110468,2.32918,-3.11797,5.13896,2.82509,2.13442,4.1054,-3.60301,-4.15106,0.606886,-0.939478,1.79465,1.00606,1.72814,5.05425,-207.4,-810.08,-544.12,-1820,2240,1540
1.84901,-0.476795,4.37804,-1.81157,3.7696,2.88257,0.900841,0.576148,-0.10343,-3.37336,1.57336,-2.58711,0.836398,1.15517,0.357147,4.01926,-210.816,-808.616,-542.656,-1960,2660,2520
2.50497,-0.747942,3.78733,-2.588,1.02733,1.78013,-1.21873,-1.91139,2.00834,-2.79371,1.5683,-1.53694,-0.211348,-0.310317,-0.88973,3.34662,-211.792,-807.64,-542.168,-1960,3080,2940
3.44159,5.71543,3.55376,3.23023,3.72498,2.31948,2.96525,0.18204,6.95592,-2.82443,0.0623581,3.94718,-1.13334,1.17004,5.16563,4.69584,-213.256,-807.64,-545.584,-2100,3220,3640
3.62601,9.43595,4.81765,6.06425,6.34527,2.86773,5.25021,0.656953,8.13279,-0.0479902,-1.12585,7.03231,-0.10096,4.11466,7.33627,4.62974,-217.648,-810.08,-547.048,-1960,3640,4060
-1.21357,8.35417,1.46072,8.50645,6.87092,3.10628,6.79367,0.362903,1.32383,-1.28707,-1.90531,5.92178,-0.556824,5.08187,11.3635,5.0919,-218.624,-807.64,-548.512,-1400,3920,4620
-3.2162,6.9017,0.601633,10.7858,8.12449,3.54324,7.6419,2.27838,-3.54485,0.406254,-1.9247,6.00181,0.199724,4.66768,13.3967,5.68757,-222.04,-808.616,-546.56,-980,3780,4900
1.07818,4.32139,-1.75914,8.32252,2.54767,1.79581,3.62063,-2.52431,0.135828,1.67732,0.894277,5.06806,1.11214,0.545157,9.39394,0.21829,-221.552,-805.688,-547.048,-140,4060,5040
4.73144,3.38093,1.3245,6.5018,1.07782,0.468242,-0.231864,-2.04537,2.81044,6.56692,1.71921,5.949,2.19818,-0.829997,1.97496,-1.81779,-223.992,-807.64,-547.048,700,3360,5600
0.435093,-6.16217,-1.69709,-3.68517,-6.82591,-1.93564,-9.55916,-6.41431,-2.43279,2.33838,1.36871,-0.173546,0.883914,-3.74201,-10.2031,-8.66802,-223.504,-804.712,-547.536,840,2940,5460
2.34222,-3.66386,-0.412751,-0.0764466,-3.22002,-1.98378,-6.15712,-3.56047,1.6943,1.89477,1.3593,1.67536,0.887899,-2.95061,-7.76923,-6.2174,-224.48,-805.688,-548.024,1120,2380,5180
-1.74503,-6.68707,-1.61719,-0.174193,-4.64668,-3.04545,-5.13013,-0.934581,-3.1737,-0.383218,0.516811,-4.06204,-0.82775,-2.51891,-3.31933,-4.95247,-225.456,-802.76,-547.536,1120,1820,4900
-8.13589,-11.1489,-7.58963,-4.49952,-10.8438,-4.51235,-7.03252,0.0154014,-8.10756,-5.08378,-0.400436,-11.5015,-2.00122,-4.04978,-4.17997,-7.61782,-221.552,-802.272,-549,980,1120,4340
-0.621932,3.564,-1.3009,1.45472,-3.47936,-3.01124,-1.21316,6.29195,5.34915,2.08826,0.228117,-3.92583,0.5005,-1.05068,0.129333,-2.04271,-218.624,-804.224,-551.44,560,420,3360
0.767508,4.83184,-2.0524,0.64051,-4.58206,-2.61612,-0.683741,1.98458,6.52407,0.859664,-1.09875,-3.73263,-0.00235349,-1.02179,1.92773,-2.64905,-214.72,-804.712,-550.464,560,-280,2660
-0.128402,3.37186,-3.39373,0.642682,-2.19645,-2.56665,1.33544,1.24889,1.14333,-0.40576,-2.74395,-3.58158,-0.744043,-0.696276,4.84283,-0.593873,-213.744,-805.2,-551.44,280,-700,1400
3.20512,7.84921,0.939069,7.30041,6.73518,0.207308,6.39176,3.19467,2.24646,4.12205,-0.997845,1.62181,1.30253,1.89899,10.9117,5.17728,-213.744,-807.152,-551.928,420,-1820,420
3.75159,3.74978,1.03286,7.47206,4.87349,0.614391,7.88201,1.34413,1.71018,0.21196,-0.619582,1.28508,-1.09243,2.15928,11.2648,6.73439,-211.304,-806.664,-549,140,-2380,-280
0.449126,-2.56101,1.6573,0.655734,0.444781,-0.141903,3.08214,2.68321,-2.89205,-1.34548,-0.154903,-0.978156,-1.04434,0.176831,1.98034,7.11663,-207.4,-810.568,-550.952,420,-2940,-1400
-7.48916,-10.6928,-1.79062,-5.50987,-4.57901,2.99283,-0.808254,1.13775,-11.0386,-6.64447,-1.09265,-3.50199,-1.42834,-0.515456,-4.51643,4.646,-205.448,-810.568,-550.952,140,-3360,-2100
-0.867165,-3.38388,1.65468,-3.10495,1.09876,6.4582,-0.198706,2.36914,-1.93097,0.000643837,0.698778,3.86564,0.185375,1.6302,-5.02035,7.16065,-203.008,-812.52,-551.44,280,-3640,-2940
1.84202,-4.71773,-0.0452678,-11.696,-2.33265,3.94195,-8.1576,-3.29904,2.13754,4.84247,3.13047,3.84026,1.08999,-1.45513,-17.0145,-0.376335,-203.008,-814.472,-550.952,560,-3920,-3220
1.29065,-2.85372,-2.56652,-9.55693,-0.772049,0.826096,-4.39479,-4.41831,4.09893,4.79222,2.84943,3.33117,0.853362,0.203406,-10.2841,-2.5445,-202.032,-815.936,-548.512,560,-3780,-3640
3.46188,6.37654,4.22562,3.81496,8.83083,1.90095,6.84787,1.83505,6.63052,7.46505,2.99628,8.3318,3.05549,4.57481,4.82805,4.13123,-197.64,-813.496,-547.536,560,-3920,-3920
-3.11844,-3.82621,-0.563093,-6.34317,-1.97124,-0.86776,-1.42626,-2.5601,-4.33588,-2.39964,0.787423,-0.519301,0.570689,0.176516,-6.3242,-3.23491,-199.104,-813.008,-548.512,560,-3640,-4060
-3.41458,-5.28958,-1.63422,-11.7686,-5.29805,-2.32141,-6.34583,-1.45542,-5.6466,-4.72122,-0.861175,-4.27015,0.365903,-3.40487,-13.047,-4.24806,-195.688,-809.592,-548.512,560,-3220,-3920
0.151894,-2.15051,-0.496566,-8.82502,-4.9174,-1.90091,-4.17176,-3.04194,-1.99465,-3.65825,0.0642436,-3.23094,-0.216778,-1.53746,-7.01701,-5.34254,-195.2,-813.008,-549,700,-2800,-3920
4.57499,3.54328,0.893956,1.95842,1.31588,0.842426,5.09888,-0.199255,1.82489,-2.05658,-0.186054,-0.201661,-1.15632,2.37771,7.96691,-1.65297,-195.2,-808.616,-550.952,1120,-2380,-3500
5.86418,3.77967,0.884683,4.53587,4.82074,0.518864,6.28157,1.38298,3.73765,1.41064,-0.722033,0.153355,-1.67199,3.24066,9.82293,2.12359,-192.76,-812.032,-547.536,1260,-2100,-3360
2.67457,5.01783,-1.05345,10.5509,8.2492,0.888492,7.12236,1.44073,5.1027,-0.621211,-2.57483,0.829847,-2.20698,3.75394,12.5963,4.56471,-196.176,-807.64,-549.488,1540,-1680,-3080
0.210629,4.34616,-1.50296,11.6336,7.6175,1.24263,5.30341,-1.24129,4.10322,-4.38555,-3.06973,1.1845,-1.41859,3.05609,11.1421,2.45047,-196.176,-809.592,-549.976,1820,-1540,-2660
-1.0074,3.41005,-1.13467,4.7166,3.93119,-0.655891,0.281737,-0.416182,-0.464285,-1.48562,-3.06165,-0.615683,0.237942,-0.876122,0.548152,0.046891,-192.272,-810.568,-548.512,2100,-700,-2100
-9.86741,-9.77535,-5.38579,-7.36319,-8.06042,-3.9396,-7.47608,-2.68313,-11.8352,-5.72261,-4.1859,-9.92583,-2.52637,-6.01475,-11.0214,-6.89906,-196.176,-810.08,-549.976,1960,-560,-1680
-7.68535,-8.93012,-0.924359,-8.3706,-7.36164,-5.96148,-8.351,1.15314,-8.06899,-0.0515672,-2.04134,-8.65732,-2.03678,-6.08009,-12.371,-5.92122,-199.104,-807.64,-549,1960,-280,-1120
-4.15152,-7.48821,-1.34195,-6.73764,-9.8069,-5.85883,-9.11412,-0.725606,-4.0513,0.632632,0.586045,-7.07209,-2.20012,-5.14231,-9.67809,-6.71305,-198.616,-807.152,-547.048,1400,0,-560
2.31334,4.10391,5.27777,2.91248,-1.53152,-2.21075,-2.55348,1.82076,2.56211,5.13185,3.29985,-0.560664,1.93487,-0.558107,-0.16131,-0.640239,-198.616,-807.152,-546.072,1120,140,-140
11.7589,17.7585,10.5755,13.761,6.4807,1.39737,2.01923,3.33781,15.7451,9.54702,5.04163,7.36033,5.66497,2.2963,6.91985,2.50367,-199.592,-809.592,-544.12,840,560,700
13.4892,22.1175,10.8349,17.2919,10.7901,3.03021,4.5759,1.2714,17.7344,8.58176,5.66288,13.2895,7.14715,5.57282,11.4046,3.01183,-199.592,-808.128,-547.536,420,420,840
7.96833,17.4449,9.80035,12.7774,11.0635,3.72937,5.72148,3.46879,7.6967,6.99515,4.15754,12.4522,6.57082,3.8748,9.90516,5.92174,-200.08,-809.592,-546.56,-420,700,1540
-2.1104,-4.50873,-0.909327,-6.05108,-5.88061,0.463607,-5.13245,-2.79442,-5.35314,-1.465,0.925852,-0.039936,1.09482,-3.27624,-7.02199,-3.87349,-201.544,-808.616,-545.096,-840,700,1540
-2.46775,-4.97107,-2.47556,-3.13086,-4.38421,1.26119,2.09407,0.323606,-3.58119,-4.55821,-1.31352,-0.830015,-1.52673,-1.81655,1.7632,-0.046499,-202.032,-806.664,-550.952,-1120,1120,1960
-1.93224,-4.06593,-2.85958,-1.54751,-2.73123,1.99015,6.23512,-0.537743,-3.47345,-4.58288,-0.787831,0.513692,-3.55173,-0.134087,7.8615,2.8355,-206.912,-809.104,-546.072,-1400,980,2100
-4.92837,-6.80499,-4.26305,-2.28044,-4.57587,2.00906,6.53416,-2.17181,-7.67886,-6.75316,-1.09346,-0.0553175,-3.62437,0.79545,6.28051,0.650937,-207.888,-807.152,-549.488,-1820,840,2100
-0.181066,-1.56531,0.0194327,0.673538,3.25551,1.69429,5.8876,1.3625,-3.56358,-2.0398,0.160796,4.10538,-1.65782,1.35962,4.06948,1.69065,-207.888,-805.688,-548.024,-1680,700,2240
-9.07731,-14.7663,-4.92115,-8.33016,-2.15242,1.01126,1.47799,-0.255408,-15.6628,-7.19069,-2.04075,-3.40411,-2.6676,0.664455,-2.30132,-1.04018,-209.84,-806.664,-550.464,-1820,560,2240
-14.6558,-20.9408,-6.71535,-10.2018,-5.86266,0.27796,2.32158,0.169545,-20.0471,-10.0061,-5.08789,-7.77774,-3.34817,0.988335,-0.533046,-0.252728,-212.28,-809.592,-553.392,-1400,420,2240
-8.35392,-10.5072,-3.75443,-1.78172,1.04,-0.771478,4.89999,2.28692,-8.08122,-2.19247,-4.69506,-3.3119,-2.12732,1.1908,3.8995,2.79825,-215.208,-809.104,-549,-1540,0,2100
-1.78017,0.108208,-3.72438,4.69933,3.78733,0.604589,2.74306,1.08424,3.38855,2.89668,-2.85293,-0.788144,-0.691657,0.951284,3.0089,3.1467,-212.28,-807.64,-551.928,-1260,-140,2100
4.40951,2.82494,-2.44272,0.129894,2.32191,-0.550072,-6.87251,-2.97104,10.8512,8.48813,-0.059606,-0.319359,-0.157331,-0.510501,-9.29253,-1.63785,-215.208,-808.128,-551.928,-1400,-420,1820
5.10543,-2.78332,-6.24574,-11.0851,-7.7005,-3.59675,-17.5839,-9.00919,12.2947,6.26126,1.10044,-4.63345,-2.36536,-3.94623,-20.9815,-9.76338,-217.16,-808.128,-550.464,-1400,-560,1680
7.58857,3.42504,-1.82927,-8.663,-4.71879,-1.38483,-12.7937,-3.84697,15.0989,7.13202,4.14543,0.405946,0.928696,-2.34737,-14.3802,-5.29128,-216.672,-807.64,-546.072,-1400,-560,1120
1.45994,3.02119,1.11035,-0.564447,1.08175,1.11104,-2.1424,1.32766,6.19886,1.45695,0.682986,2.19732,0.851394,1.43272,2.79746,2.10992,-214.232,-809.104,-547.536,-1540,-700,1120
-2.88649,3.84575,0.167514,5.09702,4.63402,1.37381,1.56087,1.56716,1.12621,-4.03421,-2.70003,1.60352,-0.966037,2.29872,9.8656,5.60269,-211.304,-806.176,-549,-1680,-560,700
-4.71594,2.17852,-0.13188,2.72448,3.88558,0.711328,0.475489,1.82973,-3.31242,-3.57868,-2.77013,-1.87571,-0.764724,-0.411521,2.25185,6.16235,-213.744,-805.688,-548.512,-1960,-700,280
-0.388737,3.06114,2.28239,0.0530005,0.367006,0.152455,-0.20451,0.799514,-0.11096,-0.959559,0.19624,-3.0847,1.24965,-2.38135,-1.03698,5.09165,-212.768,-806.664,-549.488,-2240,-700,0
9.02987,8.79766,6.02406,3.92985,2.37785,-0.365614,3.63189,0.30077,9.28459,2.03393,3.95901,0.181136,3.85471,-0.236288,5.11721,4.16694,-213.744,-808.128,-548.512,-2520,-560,-140
14.5943,13.794,8.73118,8.02656,7.18702,-0.243052,3.57845,0.610863,14.9463,4.28678,5.84569,6.04533,6.32014,2.30871,4.25945,3.14306,-209.84,-806.176,-549.976,-2940,-560,-560
10.723,6.59056,6.48746,4.53012,1.9987,-0.576539,-0.0481117,-2.31353,7.96934,1.46166,6.19187,4.69325,6.2272,2.65071,-2.45824,-2.05271,-212.28,-805.688,-549,-3080,-420,-980
2.12457,1.74298,5.93421,-0.587696,0.36848,-1.97712,-1.44989,1.23644,-5.42617,0.0754297,1.63134,0.220055,2.01521,0.871051,-6.04162,-1.57288,-213.256,-806.664,-549.976,-3780,-420,-1260
-9.14822,-7.86852,-1.35106,-6.96124,-7.90093,-1.56452,-4.5764,-0.18108,-18.6094,-7.05741,-3.36397,-6.64399,-3.00293,-2.71023,-8.34981,-5.6186,-208.864,-808.128,-550.952,-3920,-280,-1400
-7.83861,-5.20402,-2.17118,-1.12152,-4.40696,1.96121,0.196538,3.76036,-15.5408,-4.03161,-3.21209,-2.51055,-2.49518,-1.95157,-0.402139,-4.95108,-207.4,-807.64,-550.464,-4340,-280,-1680
-1.83783,0.208463,-1.3829,2.69159,-1.54926,1.49985,1.28959,5.425,-6.75564,0.441558,0.738908,2.43466,1.02467,0.113269,5.06705,-4.43592,-207.4,-808.616,-552.904,-4620,-140,-1820
-1.34052,-1.18367,-4.3145,4.55158,-0.993753,0.872648,2.24836,6.83392,-5.19465,-0.825688,1.69808,1.86014,1.33603,-0.297224,7.38958,-0.963812,-204.96,-806.176,-553.88,-4480,-140,-1820
-2.16577,-0.178443,-2.15367,6.59103,1.99859,1.14533,3.86159,7.13313,-3.60041,1.34697,1.44336,2.75724,1.09233,0.386875,6.74869,0.757756,-204.472,-807.64,-553.88,-4900,140,-1960
-4.4688,-4.80991,-1.71892,1.97181,-1.66583,-0.128258,2.2671,3.21451,-4.76581,-0.289911,-0.131123,0.0214146,-0.641643,-0.833654,3.04368,-2.47301,-203.496,-805.688,-551.928,-5040,-140,-2100
1.24523,2.87203,0.686873,2.01495,0.912806,-0.300743,4.15557,3.2004,2.59807,3.76906,-1.61959,2.31169,-1.68664,-0.704123,1.62107,-1.08413,-201.544,-804.224,-553.392,-5460,0,-2380
0.965545,-0.12332,-0.783343,-2.73414,-2.1723,-2.04093,0.507571,-2.41959,0.972428,2.89596,-3.33158,-0.652537,-3.49836,-0.861331,-4.35877,-2.73006,-200.08,-807.64,-553.88,-5460,420,-2240
0.391032,-5.15603,-2.77019,-10.6161,-6.26571,-5.14228,-8.04388,-9.60153,2.96881,-0.317079,-1.97734,-3.97347,-2.80998,-3.29765,-14.7733,-6.92855,-204.96,-805.2,-554.856,-5600,420,-2240
7.95401,5.80496,3.34714,-3.45659,0.147747,-3.37423,-1.08587,-6.52724,13.5595,5.81554,1.75013,2.38342,0.989696,-0.229227,-7.82112,-1.03461,-203.496,-803.736,-553.88,-5880,420,-2100
3.15806,8.05273,3.07539,8.40135,4.87273,1.37414,12.5839,-1.68221,7.75904,2.0075,-0.300586,3.46647,-0.389083,4.70093,13.0421,7.32723,-202.52,-804.712,-556.808,-5880,840,-2240
-2.47305,8.75486,1.8811,11.7057,8.57769,2.38869,14.6714,0.55239,1.73636,0.414802,-2.83198,1.96272,-2.31593,5.07244,18.3421,10.6278,-202.032,-803.248,-556.808,-5880,980,-2100
-7.81635,-2.09341,-3.12214,0.0752339,1.9341,1.01214,4.54571,-2.62072,-5.67163,-5.05269,-3.8101,-3.63267,-3.97945,1.14894,6.1595,6.71565,-202.032,-804.224,-554.856,-5600,1120,-1960
-2.77624,-6.92165,-5.90212,-10.1269,-5.92425,0.0580444,-6.48855,-8.10438,-1.83474,-3.64927,-0.259567,-4.15478,-3.07652,-0.822668,-6.71155,-0.72125,-204.472,-801.784,-557.784,-5320,1260,-1680
2.65253,-5.78975,-1.54312,-10.0875,-1.84888,0.898138,-9.03985,-6.36318,3.394,2.75172,2.07745,-0.825843,-0.539518,-1.32459,-9.45376,-0.467893,-206.424,-804.224,-557.784,-5180,1400,-1540
-4.19353,-13.3529,-3.46468,-11.315,-2.99905,0.279086,-7.44359,-5.31283,-5.58617,-3.94489,-0.715903,-5.25583,-1.18601,-1.83248,-6.36122,-2.70605,-204.472,-805.2,-561.2,-4900,1260,-1400
-1.56636,-4.49906,0.811563,-2.59251,4.50275,3.10195,0.299358,1.48765,-1.30157,-2.07704,-0.393353,-0.648184,0.163809,0.247874,1.1632,1.99324,-206.424,-799.344,-557.296,-4620,1400,-1120
3.14914,-0.697693,3.22983,-2.46389,4.95938,3.59671,-0.972329,0.49463,4.86692,1.42495,0.744186,0.359558,2.0476,0.746838,-2.22521,0.59652,-204.96,-802.272,-558.272,-4480,1260,-980
5.11949,2.42161,0.898841,0.121967,3.20193,2.65298,-0.912068,0.294658,8.04459,1.23901,0.469716,2.63046,2.08607,0.540391,-1.30402,2.15553,-205.448,-803.736,-559.736,-4480,1260,-840
4.81771,7.16427,1.68167,8.31214,5.48656,1.05239,3.20671,3.26106,8.28517,3.30292,0.523389,6.34913,2.72621,1.99689,6.16088,4.88666,-207.4,-804.224,-554.856,-4060,980,-560
-0.32263,5.45281,1.53063,11.1411,3.8338,-0.803131,4.2426,3.58847,1.01089,1.67848,0.520488,5.56747,3.43957,2.56614,8.23902,3.12539,-205.448,-805.688,-553.392,-3920,840,-420
-6.14606,-3.45916,-1.55607,6.72779,-0.406501,-2.98974,0.673022,2.51799,-7.97934,-7.25675,-1.22664,-0.20651,0.865508,0.845677,5.10414,-1.47804,-207.4,-806.664,-552.904,-3920,980,-140
-5.21566,-1.43707,1.00994,6.32851,3.13312,-3.48734,0.708578,5.99016,-9.73967,-8.63331,-1.82495,-1.14232,-1.95063,-0.458035,4.76833,-0.879795,-208.376,-804.224,-552.416,-3780,840,0
-2.83923,-2.70178,1.29124,-0.943789,-3.43369,-2.50081,-6.99329,-0.427767,-5.79041,-7.8669,1.45312,-1.72069,-0.282778,-3.05074,-5.20397,-5.44524,-210.816,-807.64,-553.392,-3780,840,140
3.73352,-0.0461956,4.62998,-4.46775,-2.0445,-1.87174,-9.82219,0.0835992,3.2657,2.46643,4.60131,0.316752,3.22517,-3.3054,-11.1867,-5.85156,-209.352,-806.176,-549.488,-3220,700,420
-0.139941,-4.25562,0.2336,-2.64326,-5.21205,0.109819,-5.66142,0.249816,0.310605,-0.3458,2.52252,-1.66911,2.02858,-1.41844,-3.3497,-6.20635,-209.84,-808.128,-552.416,-3080,560,560
0.591941,1.46774,1.45105,0.556791,-3.83112,0.471834,-0.379464,2.63778,-1.24833,2.48066,1.47025,-2.16278,2.98369,-0.117775,1.20292,-3.67159,-209.84,-807.64,-552.416,-2660,560,840
-0.0898798,-2.00971,-1.01662,-7.30916,-8.40316,-1.51114,-5.02729,-0.53879,-4.43018,4.84698,1.51863,-6.51553,0.45713,-1.79505,-10.5561,-6.64744,-212.768,-806.664,-553.392,-2660,420,1120
-2.71248,-12.6001,-7.73407,-19.1079,-18.0307,-2.39601,-10.705,-3.83833,-9.24674,0.440136,-0.682676,-13.0033,-3.74156,-4.88586,-19.4614,-10.7392,-209.84,-808.616,-553.392,-2100,420,1260
-0.327951,-1.88126,-1.4407,-5.44291,-2.86528,2.0348,3.91498,6.15872,-3.48377,4.44777,-1.71982,-4.75744,-2.87242,-1.15886,-1.07723,1.15466,-208.376,-808.128,-550.464,-2100,420,1400
-0.174362,1.64375,0.447365,4.06907,2.53754,3.52023,10.9705,6.55798,-0.100619,2.57869,-0.97261,0.582154,-1.6564,1.63999,8.97896,5.02511,-207.888,-805.2,-555.344,-1820,280,1540
0.0259496,5.08653,0.300877,8.15879,3.77869,3.31987,12.1157,8.12005,1.92119,1.94424,-0.495633,2.43987,-1.38491,2.82772,11.4866,8.54647,-207.4,-806.176,-550.464,-1820,140,1540
8.79515,12.4596,4.58326,11.5422,6.12006,2.77316,6.36879,1.88253,12.8971,6.71717,2.28082,8.23635,1.27473,3.45863,7.11333,5.71015,-211.792,-805.2,-551.928,-1960,280,1540
15.4265,18.8541,5.07128,17.1302,9.07969,3.39402,6.28796,-4.35908,21.5667,9.11424,3.36998,14.821,4.28605,4.29924,8.8065,6.38974,-207.888,-805.688,-554.368,-2100,140,1540
7.86295,16.1205,3.47952,15.4752,10.945,2.25429,7.07675,-4.16603,14.575,8.42162,1.02012,14.5816,3.25246,3.9772,10.5601,8.77688,-208.376,-802.272,-554.368,-2380,280,1120
-5.60164,0.0924229,-3.48722,-1.17604,-1.32536,-2.00674,-2.84761,-7.98273,-2.75879,-0.123413,-2.14609,3.87217,0.262866,-2.47197,-0.799346,1.27699,-205.936,-799.344,-552.904,-2660,140,980
-13.4941,-5.92789,-5.67316,-5.60771,-1.12196,-3.02552,-2.70351,-5.3224,-14.0002,-7.1014,-4.62418,-2.09598,-0.619103,-3.08181,0.307775,-0.312437,-207.4,-800.32,-552.416,-3500,280,700
-12.5035,-7.21328,-4.16026,-8.76862,0.92188,-3.46303,-3.83472,-1.68721,-17.331,-8.18436,-5.20526,-5.70884,-2.44757,-2.64858,-2.81944,-1.12513,-207.4,-798.856,-557.784,-3920,280,420
-9.12338,-9.85569,-5.39672,-12.7059,-4.91039,-3.74209,-5.85057,-2.50954,-12.3984,-8.50114,-5.17687,-9.4556,-3.80827,-1.90759,-7.22616,-4.06656,-206.912,-802.272,-557.296,-4060,420,420
0.350435,-3.84261,-2.06717,-12.7996,-4.47645,-3.58856,-6.33449,-0.718224,3.28557,-4.38026,-1.65277,-6.49622,-3.71058,-2.30105,-9.98263,-6.42353,-204.96,-803.248,-559.736,-4480,280,140
8.39417,4.39116,0.495942,-4.49825,-1.54483,-0.981301,-3.58438,-2.4404,15.4339,-1.08564,1.77407,1.24592,-1.21143,-0.211821,-5.27086,-7.01727,-203.008,-804.224,-554.368,-4900,140,0
6.99537,9.59697,3.14496,7.3293,5.92954,1.52901,2.88904,1.12974,11.0098,1.15664,1.58135,6.29112,0.972746,2.87053,6.57012,0.763856,-203.008,-800.808,-554.856,-4760,280,140
-2.99629,-2.98808,-1.03042,0.145411,1.59018,-0.870106,-1.69879,1.47403,-7.46045,-2.15804,0.105889,-1.20657,-1.94414,0.39615,1.27869,1.82661,-202.52,-802.272,-558.76,-4900,0,0
-0.955687,-7.12042,-2.18465,-6.67988,-1.91928,-2.83307,-6.36108,0.294046,-7.27505,-2.96099,1.79326,-3.91637,-2.24573,-1.0709,-9.43564,1.18836,-203.496,-806.176,-553.392,-5180,140,0
2.35036,-5.76943,1.51148,-5.81608,-2.27914,-1.05563,-5.39765,0.471631,-3.56257,-0.3214,3.15067,-2.83506,-0.137884,-0.757737,-10.1399,1.82822,-202.032,-803.248,-554.856,-5180,140,0
-1.30381,-6.65624,-0.446992,-1.88648,-3.83537,0.463243,-0.238844,0.956219,-3.87505,-1.89948,0.737605,-3.45305,0.736566,0.677641,-0.793059,0.697167,-201.056,-807.152,-552.904,-5460,0,0
-2.88206,-6.49177,-2.41411,2.39277,-3.87418,1.2212,4.26206,0.830667,-3.59128,-1.71087,-0.668439,-3.90047,0.0528078,0.908009,8.96518,2.04321,-201.544,-808.128,-552.416,-5460,140,0
-1.7447,1.22431,1.90796,13.2812,3.66248,2.55627,10.0992,1.83462,-3.3892,2.396,-0.540649,0.483383,2.58118,3.36655,18.2625,7.11986,-204.96,-805.688,-551.44,-5320,420,140
0.929724,8.18329,6.35472,21.8718,9.54053,5.08578,14.2993,4.41375,0.800233,2.64836,-1.0824,6.10818,5.48512,6.29053,22.2936,9.17698,-204.96,-809.592,-548.512,-5740,560,140
2.98839,6.31787,7.63114,12.0041,8.29443,5.24751,7.8453,5.15491,2.58686,3.56424,0.714747,6.903,5.08506,4.60841,6.79575,4.28789,-203.496,-808.616,-553.392,-5460,420,140
-0.802025,-7.73753,1.1925,-9.83682,-3.99943,1.2195,-4.81899,-1.14547,-3.78162,0.0925296,1.63595,-2.52327,1.61264,-0.89379,-15.988,-5.18659,-203.496,-807.64,-554.368,-5460,420,280
0.611154,-6.03528,1.9941,-9.52463,-2.37883,0.797506,-2.81175,-1.97169,-0.682087,2.55443,1.55143,-3.17144,0.465285,-2.22759,-12.2431,-4.18405,-203.984,-809.592,-551.928,-5320,420,420
6.27827,4.3714,3.42371,0.975285,3.76118,1.29606,3.01798,0.234611,9.82169,2.85925,1.20271,2.55367,-1.11859,-0.155932,1.12366,-1.20494,-201.056,-805.688,-550.464,-5600,700,420
9.30195,5.41865,3.52537,4.06315,1.16659,-0.347492,2.48786,-0.309164,12.8281,0.90249,2.47247,3.45257,-1.17289,-1.13762,2.25303,-3.0341,-203.984,-805.688,-551.44,-6020,840,560
7.94708,2.86061,1.92207,2.32336,-2.18444,-0.537509,-0.667344,-1.60713,10.2703,0.667636,3.87669,2.22653,0.656179,-2.64026,-2.37774,-5.7445,-201.544,-807.152,-549.488,-6300,980,700
6.81299,3.54318,1.33084,-0.592626,-2.38288,0.564348,-5.13858,-2.56375,10.7827,3.67685,3.30056,1.86296,1.69004,-3.39886,-7.44832,-6.34428,-203.008,-807.64,-548.512,-7000,1260,840
3.51938,2.45171,-0.0784555,-2.6797,-3.1027,-1.04412,-7.14093,-3.28654,8.3083,1.77755,1.25912,0.523478,-0.233408,-4.04673,-6.8347,-6.11419,-203.496,-804.712,-551.44,-7700,1400,840
-4.52939,-3.46342,-1.88956,-2.89639,-1.88736,-3.25971,-3.81754,-0.420419,-2.85166,-1.36917,-2.44704,-2.69156,-2.63984,-1.80483,1.13934,-3.39446,-201.544,-809.592,-552.416,-7840,1540,980
-11.6298,-10.081,-6.93173,-9.993,-5.82527,-4.25619,-5.67282,-1.68361,-12.359,-5.47116,-3.89932,-7.43095,-4.46121,-3.16652,-2.57016,-3.3022,-203.984,-805.2,-551.44,-8540,1680,1120
-8.9897,-5.32363,-5.44294,-10.9845,-3.64058,-2.53235,-5.10983,-0.334789,-13.05,-1.10988,-2.94259,-4.92577,-3.73422,-2.39627,-8.54412,-2.83251,-202.032,-806.176,-554.368,-8960,1820,1260
-11.1315,-5.52458,-8.02457,-9.46325,-4.14996,-2.03502,-4.26477,-0.228917,-16.4015,-3.79613,-4.59523,-4.63807,-3.57002,-1.5002,-8.51881,-4.1278,-203.008,-806.176,-552.416,-9520,1960,1120
-10.4335,-3.63766,-5.91754,-6.20769,-2.39764,-0.69581,-1.17337,-0.114155,-14.6968,-3.98101,-4.36927,-3.08291,-1.95018,0.0284027,-1.47141,-0.366333,-200.568,-807.152,-554.368,-10220,2100,1120
-8.06081,2.08027,-2.42816,2.96984,2.43506,1.00482,5.99471,1.94312,-8.84298,-1.11579,-2.90929,-0.72491,-1.8471,2.67715,10.3273,6.68736,-205.448,-806.176,-551.928,-10640,2100,1400
-1.79497,6.51025,-1.931,7.55889,3.56903,1.14889,6.16282,0.121053,0.746597,-0.946993,-1.07261,3.57123,-1.48723,4.03921,11.0971,6.87708,-202.52,-806.664,-555.344,-11060,1960,1120
7.22934,9.57592,1.14318,6.21098,5.72141,0.712875,0.63665,2.44982,10.9325,5.93398,1.63769,7.88554,2.73921,3.61084,3.03319,5.43449,-205.936,-802.272,-558.76,-11340,1960,980
5.8038,3.3102,-1.90812,1.35649,1.73418,0.343417,-2.95838,2.40845,11.0257,4.99142,2.34934,4.86679,3.51441,3.11612,-0.446707,2.72817,-203.008,-801.784,-554.856,-11900,2100,1120
6.65735,8.91165,2.96292,8.86737,7.44461,1.80957,5.2045,6.68503,11.0074,5.1383,2.29133,8.01106,4.76385,4.94846,9.27993,7.00649,-203.496,-800.32,-558.76,-12320,1960,840
3.64939,2.19701,2.3284,7.89089,4.70508,0.881185,2.74685,3.29643,5.38345,0.924802,0.992508,4.44289,3.44165,3.26312,8.4318,4.66273,-207.4,-802.76,-557.784,-12740,1960,840
0.817658,-7.81926,0.636681,-2.06119,-1.84109,-1.47008,-4.42727,-1.69721,-0.835741,-3.29,1.06745,-3.60763,0.619568,-2.8355,-3.0552,1.95657,-205.936,-805.2,-557.296,-13160,1680,840
4.01251,-7.42125,2.65983,-7.23739,-2.82656,-1.83001,-5.22152,-4.99483,2.30373,0.187646,1.52846,-4.85874,1.03277,-4.64609,-6.52764,1.07056,-207.888,-804.712,-557.296,-13440,1820,560
10.2732,2.40187,6.37181,0.140424,2.85552,0.783088,1.19679,-4.47289,10.5424,4.43363,2.61581,1.3741,2.6336,0.156912,1.93477,3.20394,-207.888,-804.224,-555.344,-14000,1400,420
0.295736,1.05469,2.98807,3.70029,3.49926,1.40961,7.3928,-0.67784,-1.54325,-3.34735,-1.75079,-1.35218,-0.917256,0.53595,9.90774,6.839,-206.424,-802.272,-558.76,-14420,1120,420
-4.316,0.151896,2.64988,3.5638,3.44542,1.23711,6.88671,-0.844595,-7.39039,-4.94183,-1.60246,-3.15992,-1.88331,-0.893161,7.22216,3.98803,-208.376,-803.736,-559.736,-14700,980,280
-3.46124,2.4568,0.596481,3.90001,-0.184462,1.17838,3.95029,-4.67766,-6.20907,-5.90152,0.10793,-2.60197,-2.10445,0.0802688,4.40852,-1.1552,-206.912,-803.248,-557.784,-14840,840,140
-0.888053,10.4352,2.79313,10.0456,5.38006,3.10028,8.71146,1.67242,-2.00169,0.134419,-0.28355,2.64629,-0.898364,2.64994,9.4901,2.06397,-209.352,-803.248,-561.688,-14700,700,-140
-0.962528,10.7946,-0.557455,11.185,2.23129,2.5026,7.08933,3.58126,1.58545,-0.318286,-0.911361,2.29134,-0.9511,1.14035,5.36124,-0.975561,-208.376,-799.832,-561.2,-14840,560,-140
0.54418,6.05896,-0.609798,1.75606,-5.42704,-0.537674,-4.42102,2.63942,3.3485,2.26727,-0.518901,1.03292,0.883325,-2.78236,-12.8618,-7.47064,-207.888,-800.32,-559.736,-14980,560,-560
-2.72124,-4.66987,-1.78811,-7.60935,-11.9678,-1.81416,-11.6171,0.222095,-2.51265,1.50452,-0.143814,-2.94286,1.72672,-3.14887,-23.6835,-11.6894,-207.4,-797.88,-562.176,-14700,700,-560
-4.37271,-10.4723,-4.468,-13.9419,-14.7818,-1.75021,-14.6631,-2.92347,-5.29408,0.846418,0.0728055,-5.22883,0.251882,-2.90303,-27.7223,-13.7652,-206.912,-799.344,-565.592,-14700,700,-700
0.260524,-8.54577,-1.45378,-17.5659,-15.256,-4.23806,-18.1265,-3.40746,-0.662677,4.31056,2.17885,-4.79708,0.0765638,-5.00705,-30.5579,-16.1184,-207.4,-799.344,-565.592,-14560,560,-980
-3.25944,-6.97246,0.612614,-6.72481,-8.24638,-1.73495,-4.85554,0.529095,-5.04484,-2.10904,-0.321648,-2.02145,-0.369151,-0.0414384,-8.50207,-9.15787,-208.376,-798.368,-567.056,-14420,560,-980
-9.2876,-11.6423,-2.13237,-4.42965,-3.58777,-0.460376,3.30233,2.46491,-13.3126,-7.487,-3.34298,-3.32048,-2.17509,0.0997245,3.84722,-2.93534,-207.4,-799.832,-566.08,-14000,560,-1120
-5.29821,-13.1232,-6.28487,-8.39659,-2.16526,-2.19629,0.345129,0.707038,-9.27996,-4.64039,-1.85975,-4.02925,-3.3346,-2.54997,3.10651,-1.56805,-202.52,-799.832,-569.496,-13720,560,-1120
6.42858,-3.10417,-4.2373,-1.7398,2.53546,-0.877473,1.2949,-0.624483,6.8241,-0.109915,2.19492,2.21695,-2.83396,-1.04335,9.07848,0.398038,-205.936,-800.32,-567.544,-13300,420,-1120
7.58071,3.27881,1.37948,7.38277,10.9968,1.02104,8.91133,2.33596,7.57024,1.31771,1.47042,5.23654,-0.520008,2.91028,20.684,7.20781,-203.008,-797.392,-569.496,-13020,700,-1120
2.17353,-2.08216,0.669725,5.26508,7.94502,1.23489,11.8798,2.60868,2.56178,-2.43865,0.0956738,2.41322,-0.301599,3.0215,21.2311,8.1038,-202.032,-796.416,-569.984,-12740,700,-1120
-5.86052,-8.47279,-0.502165,1.13807,4.38434,-1.0708,10.7688,2.19736,-9.37505,-6.63996,-2.02896,-3.71212,-2.7088,0.646489,16.3256,6.88136,-205.448,-797.392,-568.52,-12040,420,-840
-4.6708,-3.34276,1.75398,1.49232,6.16647,-0.674697,7.77166,0.807048,-10.0757,-5.06676,-1.70582,-0.846471,-1.75653,1.66406,8.81765,6.47675,-203.984,-794.464,-578.28,-11480,560,-560
0.417826,4.39875,3.94204,1.92759,4.64442,1.36087,3.38124,-2.89932,-2.26131,0.120219,0.558819,3.00977,0.400442,1.93595,3.92799,6.43737,-201.544,-794.464,-573.4,-10640,140,-140
0.688195,9.06412,4.37112,4.82322,7.32411,1.61781,2.21066,-2.83397,1.68108,5.42271,1.38422,2.12812,1.5939,0.0312952,5.01427,9.85568,-202.52,-792.512,-572.424,-10220,420,-140
6.68757,8.07655,1.90556,-3.26668,0.113059,-0.406915,-9.81327,-8.93022,13.9438,8.26041,3.84624,-0.621001,2.06064,-3.33351,-11.5377,1.84728,-201.544,-793.488,-574.864,-9380,560,420
18.61,18.6633,4.82698,2.35259,6.23513,0.58591,-8.70246,-3.76483,27.198,15.4439,6.59668,7.70022,5.88151,-0.45949,-11.016,3.40846,-202.032,-795.44,-573.888,-8960,700,840
14.4243,15.6333,1.32503,4.49103,2.86001,0.992226,-7.18201,-3.25497,23.1257,11.0252,5.1071,6.99589,5.56155,3.11182,-6.90627,1.84458,-203.008,-793.976,-574.376,-8540,700,980
9.73063,15.4885,3.99141,12.818,7.33004,4.02452,-0.724804,-1.52148,17.952,9.87077,5.07579,8.71851,5.86692,7.17414,3.90312,2.9662,-203.008,-794.952,-574.864,-7840,840,1400
11.9608,19.6821,8.00194,22.6522,12.5823,7.26941,7.8905,4.81248,20.3574,11.5244,4.43093,14.2432,7.00835,9.77381,15.2164,7.17804,-202.52,-793,-573.888,-7840,1260,1540
7.29205,9.89214,4.27581,12.3513,5.41479,5.90748,5.37772,7.704,11.8163,4.90809,0.6224,8.38756,3.53234,5.79822,7.94206,6.13869,-201.544,-792.024,-572.424,-6860,1120,1960
0.162847,-0.117021,0.312589,-1.37409,0.208584,2.74251,-2.76732,6.91414,-2.82011,0.803865,-2.08537,2.86667,0.880765,1.24425,-6.23345,0.802773,-200.08,-790.56,-567.544,-6860,1120,2100
-11.1084,-16.0262,-3.97668,-18.9471,-9.53861,-1.11747,-12.4652,4.55633,-19.6537,-4.25408,-4.74586,-7.26873,-1.85169,-3.48169,-23.387,-7.11307,-203.984,-795.928,-570.472,-6860,1680,2100
-11.7108,-18.3028,-5.58025,-15.4903,-12.4362,-2.01734,-6.84039,3.8344,-20.1927,-7.49001,-3.71331,-7.5603,-2.7395,-3.57685,-13.6832,-8.88483,-203.008,-792.024,-573.888,-6580,1260,2100
-4.66676,0.646513,3.61816,8.17725,3.23361,0.143798,10.648,8.09136,-10.5457,-3.42719,-2.89407,2.51821,0.680189,2.89393,9.99189,-0.030009,-199.104,-789.096,-579.256,-5180,840,2380
-8.01993,-1.35031,-0.142332,9.25845,1.2652,-1.04266,11.4638,4.14713,-11.3913,-9.3478,-5.35806,-1.67576,-3.22113,1.70717,11.0009,-1.2304,-203.496,-792.512,-575.84,-4060,140,2380
-10.4914,-6.08375,-5.01025,1.8772,-2.48222,-1.42932,9.52845,4.80069,-12.9126,-11.605,-6.38538,-7.0078,-6.44485,-2.58703,8.88757,-0.403809,-202.52,-791.536,-572.912,-3220,980,2380
-18.203,-19.5762,-12.2507,-11.4486,-11.1533,-4.77844,0.549662,-0.860905,-22.2371,-17.4865,-7.58238,-17.0463,-8.82031,-6.11971,-0.641258,-5.27693,-201.056,-793.488,-571.448,-2800,840,2240
-20.7701,-24.9002,-13.1076,-17.804,-14.7309,-5.88817,-5.42166,-5.16605,-25.6576,-17.7087,-7.96204,-19.4725,-8.25658,-7.8052,-7.09249,-7.72559,-205.448,-794.952,-571.936,-3220,840,1820
-15.7061,-19.1376,-9.00521,-18.6012,-11.0353,-6.5864,-9.11734,-7.96608,-17.0238,-10.5514,-5.15642,-14.743,-5.75997,-9.99235,-11.9095,-8.78201,-200.08,-795.44,-569.008,-2940,840,1680
-8.05914,-13.3381,-7.03638,-16.2092,-11.8671,-8.2282,-12.7111,-13.5239,-5.53628,-5.65434,-2.19878,-10.0414,-4.82549,-10.5589,-12.1206,-12.8504,-202.032,-795.928,-568.52,-2940,840,1540
-3.58849,-5.33619,-2.8156,-6.10796,-2.95277,-4.24238,-4.40714,-5.99928,-0.98325,-2.43233,-1.20717,-4.8977,-3.03774,-6.12275,1.78791,-4.1285,-203.496,-800.32,-569.496,-3220,420,1540
-4.70373,-4.90538,-3.23758,-5.60954,-5.82153,-3.68898,-6.70112,-7.20674,-2.30409,-1.50477,-1.36281,-5.82229,-3.54025,-5.51943,0.752899,-4.60675,-203.008,-798.368,-569.984,-3500,420,1680
-0.0820904,-2.68899,-2.3029,-5.03715,-9.99635,-3.57996,-9.97222,-10.7235,1.91492,0.185903,1.76811,-5.45401,-2.32983,-6.22854,-3.97161,-8.36758,-203.984,-799.832,-566.08,-3920,140,1540
7.41202,10.917,3.19364,9.71168,3.16844,-0.383392,0.235198,-4.58566,9.16242,4.31436,2.19863,3.23469,1.11124,0.577201,6.0542,-0.331723,-204.472,-800.808,-566.568,-4060,280,1820
10.1616,18.5952,2.97291,11.9289,6.36856,1.67416,3.2869,-3.54729,12.7938,4.09531,2.39148,8.8014,3.89148,3.36338,0.098858,2.34337,-203.496,-800.32,-569.008,-4340,0,1680
11.8068,21.9488,4.30742,8.79492,7.40377,3.05482,1.2796,-2.13695,14.5417,6.00125,4.70397,11.9753,5.82957,4.40409,-9.65621,2.10376,-202.032,-801.296,-572.424,-4480,420,1820
12.7591,19.8877,6.66188,10.7647,8.28361,2.29035,3.23437,1.50462,14.1954,10.2011,5.94734,11.1166,5.46342,5.81604,-5.98677,3.38985,-208.864,-799.344,-569.008,-4200,420,1960
15.1385,12.541,9.04117,8.80942,6.02494,3.88342,0.378051,2.93516,15.8068,13.7089,8.31969,12.7052,6.38273,7.30808,-6.99408,2.5358,-207.4,-801.784,-571.936,-4060,700,1960
8.04197,2.134,10.1798,-0.450835,3.577,3.62863,-0.565941,8.06607,4.87809,9.63856,5.38162,8.99785,5.37948,5.78287,-8.64581,4.31683,-204.96,-797.88,-567.056,-4340,840,1960
5.07294,-5.12387,6.05943,-3.31931,0.902405,2.74526,2.12123,8.75877,0.78835,5.40798,3.98202,3.21728,2.90587,4.4275,0.527222,5.55365,-207.888,-799.832,-569.008,-4060,1120,1960
13.9432,7.5995,9.83528,8.58184,11.2698,7.16035,9.17533,12.474,11.8627,11.0786,6.73405,12.1482,6.94617,8.54509,14.1388,12.8773,-205.448,-798.368,-569.496,-3920,1120,2100
17.1928,9.44192,7.6843,8.88114,10.477,7.17694,8.15593,9.06483,16.8306,12.3691,8.08166,14.0028,6.82668,8.16765,14.7689,10.3932,-203.984,-798.368,-570.96,-3920,1260,2240
16.4682,9.52209,4.96252,11.0703,11.3458,7.23002,11.6707,8.93877,19.7357,9.71399,6.42717,12.033,4.63586,6.77286,20.0622,10.8385,-203.008,-797.88,-578.28,-3640,1400,2520
8.95256,7.21051,3.7133,11.738,11.212,6.26723,14.4409,9.7807,12.2097,7.60612,3.21465,7.70267,1.46007,5.4655,21.1207,11.8172,-204.96,-797.88,-571.448,-3360,1400,2660
8.25479,-0.952986,0.707563,-0.517656,0.467089,2.29139,2.5935,0.119926,12.2431,8.66427,5.7616,3.27021,0.869892,-0.176455,3.48962,1.94602,-205.448,-795.928,-573.4,-3220,1400,2660
9.07064,1.42499,1.42563,-0.623029,-0.533864,0.629597,1.74768,-4.61891,12.7668,7.74204,5.99647,4.05622,2.78765,-0.300205,1.91919,0.531998,-204.472,-801.296,-575.352,-2520,1400,2940
-7.13319,2.43042,1.3064,10.8034,8.00911,2.51181,11.038,0.298658,-8.51548,-2.10833,-3.71945,2.43012,0.00478505,3.72287,14.9313,7.98263,-202.52,-793,-572.912,-2240,1400,3220
-31.7186,-18.3726,-9.75823,-5.68368,-4.57884,-0.963312,1.44807,-1.49487,-38.1839,-23.3924,-12.622,-15.4274,-5.64042,-2.46228,1.73341,1.19336,-204.96,-797.392,-572.912,-1540,1680,3500
-31.3265,-22.9837,-12.3403,-12.9424,-9.42413,-3.68962,-3.16173,-0.97681,-34.9743,-23.7466,-13.8758,-22.8395,-8.71845,-7.13111,-2.69783,-1.42273,-200.568,-793.976,-574.376,-1120,1540,3780
-16.8499,-11.7734,-10.3295,-5.33086,-7.62169,-4.16478,-1.65957,-2.76804,-14.5383,-17.2639,-10.7945,-17.9403,-7.08089,-6.44704,3.94831,-2.74899,-202.032,-794.952,-574.864,-700,1260,4200
-0.423038,6.38043,0.208177,1.16229,0.288907,-2.48174,-6.60231,-4.82007,2.8935,-2.33082,-3.45967,-3.22405,-0.00269122,-2.67357,-4.89189,-7.46364,-203.984,-792.512,-575.84,-140,1260,4480
-5.685,-8.43245,-4.09628,-20.1071,-10.3554,-6.68302,-23.2326,-11.0038,-6.553,-3.64792,-4.16674,-11.6539,-1.63027,-8.3545,-29.9183,-19.7656,-199.104,-794.952,-573.4,140,1260,4900
-5.78097,-3.53406,-2.0329,-13.7146,-4.94014,-5.06385,-16.8663,-10.1227,-5.38674,-2.54202,-3.97909,-6.71593,-1.73063,-4.72195,-20.8694,-15.2308,-201.056,-795.44,-573.4,700,1260,5320
-11.2643,-11.8526,-1.94082,-13.6032,-6.99449,-3.21163,-14.7996,-8.04354,-12.9302,-5.48505,-4.89032,-7.94984,-3.56549,-3.23537,-19.3792,-10.3461,-200.568,-796.416,-573.888,1120,1120,5600
-14.7854,-26.957,-9.38233,-25.7249,-20.3932,-8.63265,-17.2229,-7.91589,-18.4618,-10.1746,-5.26265,-19.1493,-7.79931,-9.41207,-22.2692,-12.6978,-205.448,-794.464,-573.888,1820,1120,5740
5.86941,9.08881,1.60777,10.3582,2.31065,-3.12251,7.38023,0.859388,8.80294,2.52393,-1.10782,7.12165,-1.57084,0.819403,9.91489,2.8158,-203.008,-795.44,-573.888,2520,980,6160
-7.7058,8.26422,0.708343,22.6482,9.93107,0.258252,17.1431,6.55451,-13.7034,-6.79233,-5.77626,7.66095,-1.59311,5.68797,21.0063,11.5675,-203.008,-793.976,-571.448,3360,1260,6580
-16.4827,-9.67334,-7.52181,4.273,-3.46987,-3.26643,6.35801,4.30795,-23.4908,-11.7927,-4.64029,-4.31705,-4.50047,-2.61256,5.97971,4.73291,-203.984,-794.952,-577.304,4200,1120,6860
5.38172,7.08592,-1.09066,8.76945,1.97782,-1.93628,6.9445,5.44628,7.78202,3.69,1.90353,6.94457,0.291601,-0.379956,6.58891,5.57077,-206.424,-793.488,-570.96,4900,1260,7140
24.9588,24.5656,7.1252,17.267,10.4527,1.32756,8.29007,3.89039,31.8173,14.7492,9.15515,19.1239,5.75852,5.46896,7.97459,6.12512,-203.496,-790.072,-569.496,5460,1120,7420
25.3337,16.1168,6.02489,0.843706,1.5899,-1.03742,-4.91963,0.497032,30.9716,14.39,9.68345,13.1679,4.37683,0.597364,-9.91734,-1.64794,-206.912,-790.56,-568.52,6020,980,7700
13.0687,5.52572,1.83275,-6.05806,-3.09207,-0.178649,-7.29715,1.53041,17.4065,5.6701,5.21959,5.26485,0.658985,-0.964858,-9.305,-2.45159,-207.888,-789.584,-567.544,6440,980,7700
2.75371,-3.95428,-4.76845,-10.2618,-6.90336,0.689316,-6.09284,0.942949,5.86336,-0.707032,2.83648,-2.10849,-1.71431,-1.93962,-5.9759,-5.33741,-207.888,-790.56,-566.568,6720,980,7840
2.66366,-0.890075,-2.61898,-2.60063,-1.59237,3.38647,0.260051,3.26082,1.42545,2.42045,2.48325,-2.91888,-0.60192,-0.353073,0.0288697,-3.01089,-209.352,-787.632,-569.496,6860,840,7700
6.3248,-0.772899,-0.204252,-4.7189,-7.76552,2.91574,-4.52624,-3.4079,4.01727,2.9495,4.48098,-1.08913,0.519291,0.66246,-7.79606,-9.82431,-209.84,-787.632,-568.52,6440,840,7420
3.94228,1.44464,1.9641,-1.77953,-3.68499,3.45014,2.00635,-0.507107,0.83968,5.12383,3.47121,0.157268,1.35611,2.02717,-0.782045,-3.2066,-204.96,-789.584,-565.104,6160,980,7140
-0.883985,0.0593543,2.25914,4.3735,2.94386,6.61273,10.87,0.492768,-3.56807,4.17185,2.61011,0.14262,2.26845,5.63085,13.3872,4.79174,-209.84,-785.192,-565.104,5460,1260,6860
-0.511692,0.667908,3.65077,3.20414,3.817,5.75645,7.66792,-1.73723,-1.403,3.31089,4.08544,1.11855,2.78798,3.0958,10.7486,2.30634,-209.84,-788.12,-569.984,4760,1400,6440
1.75241,6.06322,9.40141,5.25595,7.82715,3.9867,1.62827,-3.11845,1.69964,3.61,2.94925,4.81263,3.56161,3.25164,3.86057,-0.130182,-212.768,-789.584,-566.568,4200,1260,5880
-0.82666,2.03799,9.26326,2.62831,6.82294,1.71189,-2.55355,-3.82118,-1.18114,1.80669,-0.469525,3.33018,2.94723,1.63725,-1.6286,-1.20458,-210.328,-788.608,-568.52,3360,1260,5740
-17.5076,-10.7755,0.154358,2.34488,4.49389,1.44255,5.66601,1.70248,-21.9327,-10.9868,-8.4357,-6.13639,-1.42419,-1.1079,7.98675,7.33395,-213.256,-786.168,-566.08,2940,1540,5460
-14.4603,-9.23832,-2.00262,2.54077,4.04101,0.727803,7.6305,5.17965,-16.6179,-8.26909,-6.68242,-4.44826,-1.15154,0.636402,10.4066,11.5488,-214.232,-790.56,-566.568,2100,1540,5180
-0.64221,-4.18849,-2.92151,-1.62347,-0.238726,-2.32071,2.24335,2.96681,3.27116,-0.319143,-1.07381,-1.86344,0.0192727,-2.66582,4.39579,8.7485,-214.232,-789.096,-565.104,1820,1540,4900
4.07177,2.37202,1.28855,1.062,4.55987,-1.02444,5.03389,6.39353,7.47386,4.33936,-0.532466,1.01588,1.03792,-0.994142,6.08075,9.40651,-211.792,-790.072,-566.08,1400,1960,4620
4.69471,-0.354154,0.118978,-5.69992,0.114009,-1.52328,-3.91432,0.319687,7.01174,2.6288,1.97154,-0.689696,2.79248,-1.04568,-5.57292,-0.300851,-209.84,-791.536,-559.736,1260,2100,4060
-4.15008,-6.86934,-2.38159,-7.31664,-1.50454,-3.06104,-4.65704,2.05101,-5.65353,-2.27409,-1.35496,-5.49993,1.72848,-1.94592,-4.62749,-0.380928,-208.376,-791.536,-558.272,1260,2380,3500
-2.945,1.82099,0.693245,8.89038,7.35673,0.383754,2.21034,2.402,-4.63297,-0.902197,-1.74675,2.04236,2.22016,2.87037,6.20254,4.07166,-208.864,-793.976,-556.808,1400,2380,3220
3.31654,9.22642,3.68922,9.45506,8.94779,1.29677,-5.90726,-2.82421,2.53862,1.5943,0.643953,7.25205,4.29595,1.82509,-6.91292,0.872346,-210.328,-795.44,-555.344,1680,2240,2940
3.5789,-0.844445,-1.93244,-10.3759,-4.41641,-2.46797,-18.459,-4.80162,1.80091,1.82918,0.61896,-1.40926,1.33468,-4.45831,-25.1491,-5.95877,-208.376,-794.464,-553.88,1680,2100,2800
2.08292,-5.50773,-8.2881,-13.3305,-11.6954,-4.45616,-16.503,-5.1157,-2.14277,-0.287994,0.0684274,-6.61188,-2.2535,-4.76074,-20.2966,-8.38738,-208.376,-798.368,-551.44,1680,1680,2520
5.32959,4.57547,-3.85531,2.07956,-3.65313,-1.58303,-2.53358,-1.68403,1.70731,2.76566,0.858517,0.592275,-0.209085,0.401798,-0.435031,-3.21393,-206.424,-800.32,-549.976,1540,1680,2660
3.97007,7.27164,-0.638799,8.83117,-0.153512,0.387394,5.22912,-1.9975,4.37911,1.52631,0.338479,2.88608,-0.0461336,2.76613,9.53185,-1.73215,-207.4,-798.856,-548.512,700,1820,2520
2.73665,4.85186,-2.26073,5.46079,-3.73493,-1.58667,6.63821,-2.73835,7.08091,-1.56772,1.3555,1.72828,-2.63812,0.569267,7.33708,-4.57733,-209.352,-799.832,-545.096,-140,1960,2520
2.86412,4.36816,1.11586,1.69726,-2.78027,-2.95379,4.20964,-1.00847,6.33228,-0.452901,1.67851,2.235,-4.05695,0.560235,3.00028,-5.08602,-208.376,-802.272,-544.608,-1120,2100,2380
2.28954,2.79805,0.6502,-1.43138,-5.69981,-3.53979,-0.180772,-1.26116,7.34738,-0.142394,1.24546,2.52384,-4.34784,-1.41923,-1.03418,-4.55959,-209.352,-802.272,-547.536,-2520,2520,2380
-1.82071,0.163173,-1.32605,2.39902,-0.782148,-0.710543,8.09972,3.46252,1.70695,-2.07864,-1.19695,3.33047,-5.02415,0.111558,10.7693,3.54825,-207.4,-800.32,-550.464,-3080,2660,2240
-8.71741,-2.02111,-2.93245,8.06121,4.13483,0.468847,13.7747,5.21068,-8.26419,-6.15233,-4.47148,0.679343,-4.95762,1.94207,20.0133,7.19335,-207.888,-801.296,-550.464,-4340,2660,2240
-2.99602,-2.63912,-0.695876,0.487012,-1.61301,0.109231,2.45449,-1.27487,-0.948743,-4.2271,-2.32033,-1.82364,-2.32703,1.95196,2.73011,0.804907,-208.864,-800.32,-551.44,-5460,2660,2240
-5.71532,-3.02205,3.79044,-4.74971,0.927852,1.68726,-1.37924,0.970771,-6.40437,-2.27488,-1.81184,-1.94096,-0.57811,2.91244,-7.81415,0.467876,-207.888,-800.32,-553.392,-5880,2940,2100
-12.9027,-11.3414,-0.544723,-9.66288,-2.43472,1.20745,-3.92634,-1.93355,-14.5269,-8.74559,-4.18535,-6.92549,-1.85422,1.03582,-11.9787,-3.98961,-207.888,-795.928,-557.296,-6720,3360,1960
-11.6589,-12.3973,-0.852895,-8.99173,-1.45606,0.649455,-2.00862,0.233368,-11.2448,-6.81132,-4.1263,-9.61301,-2.85053,-2.43068,-6.42738,-3.56596,-209.352,-793.488,-558.76,-7280,3500,1960
-5.00504,-8.82462,-1.41636,-4.48199,-2.59208,-1.09404,0.0584681,-2.13899,-1.99159,-2.22684,-1.43637,-7.53729,-1.62383,-4.12596,0.802844,-4.33994,-203.984,-793.976,-562.664,-7000,2940,1960
6.20429,2.51544,1.62341,5.1773,4.75826,2.55512,6.78839,0.267816,8.27061,3.04114,2.10663,2.7132,1.33199,-0.0131474,9.28883,1.49064,-206.424,-793.488,-560.224,-6580,4060,1820
8.14485,3.12692,2.4896,7.53398,5.80926,4.36778,8.17195,3.1587,6.78873,5.10552,3.78016,5.19267,1.88134,2.20138,12.8835,5.11974,-206.912,-791.536,-558.272,-5880,4200,1680
6.0236,0.454141,1.43827,-1.16997,-1.20897,2.67738,-0.666018,2.53332,3.58062,5.39966,2.40549,0.0691466,2.6302,0.994639,0.331418,1.69273,-203.984,-793,-561.2,-5460,3640,1960
7.75459,7.13546,2.88092,-3.09337,-2.42769,1.64197,-6.1159,2.12252,8.38892,9.0276,3.06566,1.71244,5.68785,-0.77736,-8.00121,-0.716796,-203.984,-791.048,-561.688,-5880,4340,2240
12.5936,16.6985,7.33864,8.04255,6.2038,3.33806,-2.57491,1.39788,13.8165,10.9733,3.88543,9.17498,7.76498,2.24821,0.0322997,4.18219,-204.472,-790.072,-562.664,-6160,4760,2380
6.86195,7.93926,1.10677,3.3906,2.12746,2.43851,-4.30213,-1.13705,6.32902,4.85748,3.98951,5.10116,5.23223,0.176626,-2.54117,2.50541,-211.792,-791.536,-563.64,-6300,5320,2660
3.2788,6.25557,1.80427,1.50937,2.07504,1.71106,-3.86952,1.04994,-0.63866,4.02738,4.27063,6.21691,3.81049,-0.87561,-4.36021,2.43048,-214.232,-788.608,-563.64,-6860,5320,3360
-8.30941,-6.45426,-3.85288,-10.1094,-9.12345,-1.67209,-10.2694,-1.23158,-18.196,-6.3187,-0.260303,-1.57062,-1.55122,-5.17826,-13.2418,-4.81955,-215.208,-783.728,-561.2,-7700,5320,4060
-17.3904,-18.6695,-7.80026,-12.3339,-10.5843,-4.29539,-6.62137,-0.1035,-30.8482,-12.6144,-5.50659,-12.1637,-5.60134,-6.4394,-10.6071,-5.81579,-213.256,-784.704,-559.248,-8260,5600,4760
-4.02216,-11.2772,-4.03272,-8.66134,-4.58911,-4.7685,-6.88382,-3.49406,-9.90934,-3.82036,-2.11323,-7.61552,-1.49893,-4.04322,-12.8,-7.33778,-214.72,-783.24,-560.712,-9380,6300,5460
3.23228,-1.9129,-0.130895,-4.03694,1.62988,-2.02407,-4.01738,-2.84251,4.17521,-0.13601,-1.21315,0.927125,1.83996,0.46402,-9.95416,-3.497,-218.136,-784.704,-561.2,-10640,7420,6020
1.32817,1.89553,3.25443,6.21051,10.8746,1.10163,5.05048,2.47168,0.70332,1.2556,-0.991943,5.10172,2.90805,4.31817,5.80641,4.6366,-223.504,-780.312,-560.712,-11060,7980,6440
-1.40972,-6.6883,-3.03318,-4.0022,0.248183,-3.70372,-5.04369,-4.50179,-0.0477649,-2.35169,0.526737,-2.24291,-0.701724,-2.06609,-3.32948,-2.47651,-223.992,-783.728,-561.688,-11760,8260,7140
5.87887,0.424246,-3.43462,-0.893887,-1.67683,-3.40963,-4.34575,-3.9191,13.1243,1.64611,1.20025,-0.461404,-2.4717,-2.9213,-1.75346,-1.95622,-222.04,-782.264,-560.224,-12040,8260,7840
10.5089,7.74537,-0.300474,5.85346,0.144521,-1.85859,3.70628,-0.186312,22.1918,8.21487,1.70573,1.16885,-1.15283,0.719432,10.0907,2.52234,-225.456,-783.24,-566.08,-12460,8540,8400
13.0055,14.346,3.25225,11.6609,4.02483,-0.401527,7.41369,-0.915767,25.1527,9.28597,3.02437,2.79825,1.45058,2.51925,16.5622,3.39741,-228.384,-785.68,-565.592,-12460,8400,8680
14.8551,21.9937,9.30556,17.0206,12.1763,3.47216,11.9651,2.10243,24.454,12.4008,4.76018,9.57707,2.96992,6.93676,19.8733,7.57323,-228.384,-786.168,-568.032,-12600,8260,8820
0.703031,14.2934,6.80255,15.6205,10.9032,4.70629,14.5722,4.41577,6.96965,3.24863,0.264669,6.45372,-0.122355,7.03424,21.1331,9.88736,-229.36,-782.752,-569.984,-12040,7980,8820
-8.16408,2.7849,1.15087,8.00397,3.65421,2.47135,8.8433,3.00839,-8.5181,-2.24338,-1.68415,-0.0502794,0.573343,3.29163,13.3532,5.90132,-224.48,-783.728,-570.96,-12040,7700,8400
-8.46977,0.509289,3.27007,5.00577,4.00298,2.78302,4.89789,2.61246,-13.6834,-2.91494,-2.4862,3.06537,1.16474,4.66506,4.19293,4.42734,-222.528,-785.192,-572.424,-12040,7280,7840
-15.3195,-8.11091,-0.449736,-3.38419,-2.09845,1.52771,0.104462,1.33863,-23.2851,-9.85987,-5.69165,-1.38241,-1.8643,1.99239,-4.78939,-2.41324,-223.992,-788.12,-576.328,-11900,6720,7140
-15.2913,-16.0202,-5.15284,-14.4605,-8.94181,-1.89083,-3.67792,0.553155,-24.7153,-9.41441,-4.97091,-10.6847,-4.12116,-3.35687,-8.52625,-5.36601,-218.136,-788.608,-577.304,-11760,5880,6440
-9.93799,-14.9036,-8.54569,-13.9944,-10.4276,-2.64851,-6.50457,-4.03677,-16.0719,-9.58857,-3.70166,-11.1701,-4.83406,-4.53066,-8.4467,-5.95565,-218.136,-791.536,-577.304,-11340,4900,5180
-8.91764,-6.15767,-7.95322,-1.90329,-1.15891,-0.569564,4.06403,5.58822,-11.4284,-9.96482,-4.75606,-4.62695,-4.6863,-0.220013,3.0959,3.54539,-213.744,-791.536,-577.792,-10780,3780,4060
-11.8309,-10.9253,-8.50358,-1.51128,-2.06717,0.0504957,8.19016,8.32293,-14.9859,-11.9154,-4.71921,-6.58671,-4.59704,-0.0610775,6.9319,5.03627,-212.28,-792.512,-581.696,-9940,2660,2520
-0.492559,-2.9676,-3.00244,0.746055,-2.97719,0.965396,7.46199,5.22,-2.18307,-5.1787,-0.900062,-0.96017,-0.334344,0.913324,5.45113,3.14724,-209.352,-793,-578.28,-9240,1120,1260
8.45049,6.20807,4.29762,-2.71436,-3.12675,-0.190484,-2.957,-1.55662,9.85866,3.84226,1.98533,6.5412,3.14511,1.84685,-9.57539,-3.01368,-207.888,-794.952,-584.136,-8400,140,280
-1.55183,-5.02568,-1.19142,-11.522,-10.3157,-3.62774,-10.9066,-5.74075,0.454366,-0.749913,-0.23897,-3.60095,-1.66472,-4.72256,-18.8342,-8.26544,-204.96,-800.808,-582.184,-7700,-980,-840
4.34927,-0.331759,-1.75856,-9.10137,-11.1354,-3.52625,-14.4901,-7.44293,8.99704,3.42028,3.17835,-2.13333,-2.0969,-7.57503,-19.7214,-9.53773,-203.496,-801.296,-583.16,-6580,-1540,-1540
9.76713,2.6162,2.25916,-8.33879,-6.81231,-2.9634,-15.6472,-8.69694,16.2783,8.16194,5.80592,1.65654,-0.323919,-7.26614,-18.2079,-8.30657,-206.424,-799.344,-582.672,-5880,-2520,-2520
11.8673,2.07537,3.0705,-1.36933,-2.43629,-1.99527,-8.85464,-7.271,17.5424,8.11474,6.89391,4.56472,1.3886,-3.73209,-6.59056,-4.27636,-204.96,-799.832,-577.792,-4760,-2800,-3080
22.0074,13.0327,11.6118,7.50589,9.74034,2.94543,-4.79448,-3.1293,23.6038,15.6072,8.0373,15.3614,6.89244,3.08605,-7.50119,-1.05789,-203.984,-798.368,-577.304,-4480,-2660,-3640
20.9783,6.67129,9.14962,0.86052,5.02352,4.06765,-8.57469,-6.23044,21.2888,13.6885,8.14209,12.0231,6.83732,3.62946,-16.8315,-5.95244,-203.496,-800.808,-576.816,-4060,-2240,-4060
11.1572,2.28129,3.58344,0.820622,3.55082,2.15309,-4.13088,-5.02627,11.0501,9.53313,5.20023,6.04774,5.22636,1.08367,-6.65119,-3.48905,-203.008,-801.296,-580.232,-3640,-1820,-4060
-2.71689,-1.90175,-1.58044,8.51747,7.31841,2.17054,7.51204,1.05241,-5.44243,-0.0823694,-1.78023,0.428514,1.24637,1.3623,14.846,4.04431,-202.032,-798.856,-577.304,-3080,-840,-4060
-11.5097,-5.29374,-4.49916,12.1082,6.49514,4.04,13.9992,5.41008,-16.68,-7.85357,-4.97658,-2.31587,-0.57839,4.11779,24.3505,7.82356,-204.96,-802.272,-576.328,-2240,420,-3780
-16.5853,-6.92185,-3.67385,11.5192,6.06479,3.26377,18.3293,10.2296,-23.8884,-11.6362,-7.39419,-7.44907,-2.11872,3.15885,26.3583,11.7143,-203.984,-795.44,-576.328,-1400,1540,-3500
-8.47658,-0.845693,-0.423231,11.2362,5.45769,2.69395,16.3223,9.27896,-10.6591,-6.64005,-4.50736,-4.27808,0.332511,3.04663,21.3644,12.5044,-203.008,-794.952,-575.352,-1120,2940,-2940
1.76768,9.2117,4.05654,2.52037,2.67546,0.769556,-0.436849,3.10161,4.99552,2.92398,0.0441011,2.1489,3.32601,0.760024,-2.98854,3.55768,-204.472,-794.952,-574.864,-840,4200,-2240
-0.22357,-1.32064,-0.0821382,-13.2353,-6.95145,-3.94088,-13.2283,-1.45489,2.16094,2.88483,1.82696,-4.94439,0.246506,-4.40302,-14.7565,-3.42819,-200.08,-792.024,-576.816,-840,5460,-1680
-0.231421,-3.41068,-3.95025,-9.47685,-4.66264,-4.4908,-3.6993,0.766334,1.12563,-0.581745,1.26677,-6.87723,-1.7495,-5.3244,0.57184,2.96229,-203.984,-791.536,-578.768,-840,7140,-1120
0.957666,4.49726,0.241278,-5.90163,1.6574,-4.30637,-3.9477,1.09743,2.63508,0.989295,0.0139959,-3.171,-1.84381,-4.64016,-2.94311,1.29219,-203.008,-793,-574.864,-420,7280,-560
-5.49175,2.71698,-1.5995,-3.45018,1.388,-3.25632,-2.88854,2.24755,-4.33237,-5.65717,-3.42867,-4.33813,-2.54528,-2.28566,-1.10651,-1.10581,-201.056,-790.56,-578.28,-140,7280,560
-15.6803,-1.67135,-3.53559,7.40377,5.08952,0.154462,10.4276,8.63288,-20.271,-11.333,-8.12537,-6.3141,-3.81742,2.36669,15.6988,4.57429,-204.472,-792.512,-576.328,420,7420,1260
-9.65879,6.56489,1.7411,19.3537,13.7881,5.01214,18.148,9.80846,-11.1723,-5.85191,-5.74538,3.25974,-1.05289,9.02928,23.9073,7.58573,-199.104,-802.272,-585.112,1820,7000,2240
-8.51501,-0.670801,-0.768512,10.678,7.90524,2.54553,7.36811,1.61391,-8.80849,-5.47073,-4.16214,0.304708,-1.33359,7.80785,12.2052,-1.09092,-211.792,-785.192,-573.4,420,9100,2240
-1.13167,-4.32311,-0.121609,-7.20473,-2.44244,-1.49915,-9.23855,-3.0728,-0.522164,-0.214703,-0.237646,-1.23011,-1.89978,0.606218,-11.1877,-10.0006,-206.912,-794.952,-577.304,560,8400,3220
12.6425,-1.41673,-1.17719,-16.2331,-12.1442,-4.69761,-16.6741,-10.4147,15.4412,5.90515,6.46409,0.7097,-1.20416,-3.59796,-20.4575,-17.0314,-208.376,-789.584,-570.472,-840,7700,3080
9.98155,2.98061,0.0241733,-1.86937,-2.27279,-2.91565,0.560148,-3.1083,12.571,6.41535,2.70984,3.74251,-1.58539,0.564406,2.04347,-4.10902,-209.84,-792.024,-571.936,-420,6160,3360
11.7864,8.83207,2.33809,2.46635,0.577964,-1.64058,0.721748,-6.12728,15.735,7.16676,2.75614,10.2348,0.847031,1.9525,-0.264353,-2.76423,-210.816,-789.584,-573.4,280,4760,4060
3.6348,-0.683195,0.049217,-5.17496,-5.52429,-1.20273,-1.46182,-7.05646,5.82493,3.40568,2.33414,5.45059,-0.15753,-1.41697,-4.86606,-1.3141,-215.208,-790.072,-568.52,420,5600,3500
-14.7071,-17.9675,-3.66054,-9.88648,-11.3703,0.204458,-0.852431,-2.98367,-18.2353,-7.47951,-3.78253,-6.6092,-2.9095,-3.6909,-6.50234,1.5853,-218.136,-792.512,-569.984,140,4480,3500
-20.5414,-27.2637,-7.15208,-17.2486,-17.501,-1.34148,-7.88573,-4.58936,-29.3897,-10.5301,-4.73711,-14.1864,-3.27745,-7.37292,-16.8001,-2.82502,-217.16,-793.976,-568.52,-980,2520,3780
-1.68773,-9.21336,0.702976,-10.4727,-9.69644,0.710177,-6.27989,-3.46053,-4.64272,1.68743,0.984851,-2.0045,1.67964,-3.98135,-14.7375,-0.83899,-220.088,-793.488,-569.496,-2100,2520,3780
8.99917,5.52206,5.0209,0.442748,-1.75066,4.29426,0.224164,-1.5843,9.33491,7.27365,3.46114,6.47127,4.45306,0.126198,-4.97014,1.09765,-220.576,-795.928,-565.104,-2800,2660,3080
12.5885,9.81518,3.06477,4.55928,-0.201096,4.44289,1.0661,0.030811,15.7864,5.76515,4.78411,7.42814,3.60915,0.175909,-1.82505,-0.68952,-222.04,-797.392,-566.08,-2800,2800,2380
19.1506,12.834,5.54937,-2.18401,-0.787301,1.8921,-9.1814,-2.32706,22.7371,12.2706,9.47791,7.49704,5.52109,-2.94147,-15.0947,-6.60447,-221.552,-797.88,-565.592,-2660,2380,2100
12.8829,12.0907,5.87032,1.45711,0.767402,2.79309,-10.0168,-2.9334,15.5988,7.72823,7.82815,6.25756,6.73503,0.203253,-15.7029,-4.98205,-219.6,-796.416,-570.472,-2940,1540,1680
8.45177,8.24304,5.40084,-3.17101,0.30034,0.753483,-14.0024,-0.354239,10.0368,5.96354,5.97795,2.06798,5.44428,0.466489,-21.2826,-3.3015,-217.648,-794.952,-574.376,-2940,1400,1400
0.0375424,-0.598904,-5.49316,-3.01719,-1.33112,-1.54321,-0.572832,3.74132,1.25501,-2.77362,-0.32943,-7.05012,-1.53767,-0.78831,-0.242648,2.63391,-215.696,-791.536,-575.352,-3080,1540,700
-0.292532,6.88248,-7.88549,15.9316,10.4735,-1.70588,19.0209,8.43248,4.12398,-4.60832,-2.26123,-4.32299,-3.02609,3.65965,32.996,11.789,-213.744,-794.464,-572.424,-2800,1400,-140
1.42447,7.80989,-4.17966,19.7226,14.7873,-0.478984,20.3344,6.72737,3.82847,-1.7252,-1.54343,0.716589,-1.36387,4.0949,34.9497,11.9443,-217.648,-793,-575.84,-2240,1260,-560
-1.03239,0.794678,-3.50162,10.1035,6.58166,-0.301213,9.02015,1.46815,-2.62443,-3.30063,-2.30304,-0.103785,-2.34812,2.35347,16.685,4.59541,-211.792,-793,-578.768,-1400,420,-980
-13.6634,-10.0512,-5.07188,1.73733,2.16045,-0.00573684,5.97383,4.71727,-20.6605,-8.77886,-8.88257,-6.351,-5.09754,1.70281,7.34482,5.32096,-208.864,-789.584,-577.792,-420,140,-1120
-11.9436,-8.08163,-3.50397,3.68835,1.93672,-0.906359,9.74181,4.13824,-15.8566,-6.83992,-7.72332,-5.32188,-5.2644,1.38589,12.2446,4.80942,-204.96,-789.096,-579.744,280,140,-1680
1.61821,14.6609,5.0201,24.022,15.3546,0.821757,21.2363,5.65949,5.124,1.54387,-2.20538,8.88622,-1.15134,5.5274,33.3543,9.51419,-205.448,-791.048,-582.184,1260,-420,-1680
-8.38933,14.5064,5.92516,26.7009,20.7164,4.5137,19.4188,6.40269,-11.5428,-5.22526,-8.45871,11.7022,0.392908,10.0547,29.6722,10.3447,-204.96,-789.584,-583.648,1540,-700,-1820
-31.4242,-18.7002,-5.92391,-6.28951,1.68803,2.09946,-5.10066,0.528955,-44.7775,-18.3153,-11.7736,-9.42389,-3.9429,2.9332,-7.55055,-2.3182,-203.984,-789.096,-583.16,2520,-560,-1960
-18.7093,-31.158,-4.70148,-31.6696,-13.2726,-1.16234,-22.6188,-3.5908,-29.7596,-8.96928,-4.19831,-16.9622,-2.2237,-5.2192,-34.5358,-9.9052,-204.472,-789.584,-587.064,3360,-1400,-1820
10.0716,-9.8035,2.26003,-17.8314,-10.5755,-2.79146,-13.6258,-2.66031,13.1628,7.49965,5.54892,-3.57095,1.77768,-6.01059,-15.6265,-6.55676,-202.52,-787.144,-589.504,5320,-2100,-1540
10.0798,6.29446,3.10675,10.0427,3.07883,0.555794,9.91283,5.73825,19.2263,2.90101,2.48373,5.38577,1.70716,1.33424,18.892,8.29242,-201.056,-790.072,-588.04,6440,-3080,-1260
10.1893,8.79793,5.33836,13.1447,5.8269,-0.221717,10.7538,6.15968,18.0772,6.02431,3.71715,6.78008,2.7709,-0.117148,18.0323,8.12519,-201.056,-789.096,-591.944,8260,-3640,-1120
9.12935,11.33,9.78133,9.41155,7.36466,1.94839,-0.933225,-3.54565,12.7683,5.28117,4.11531,12.1062,7.0493,3.36589,-2.7398,-0.539841,-199.104,-790.072,-594.384,9380,-4200,-700
-4.22372,-0.122144,9.83423,-18.4648,-3.91458,1.50953,-27.0974,-10.8132,-11.0126,0.721701,1.18876,4.67606,6.10293,-0.901302,-46.447,-12.7071,-200.568,-790.56,-589.992,10500,-3500,-560
-14.3607,-12.022,0.550088,-22.0307,-12.6703,-1.99,-25.9374,-11.3611,-24.0508,-5.21721,0.117188,-7.90834,-1.59028,-6.88637,-37.6155,-13.9835,-200.568,-792.512,-590.968,11340,-2800,-700
13.9583,4.92998,4.06418,-15.6226,-13.7671,-3.79428,-23.2847,-13.1068,19.3444,10.1163,10.8396,0.553348,0.508958,-8.948,-28.7616,-15.1167,-203.008,-793,-587.064,11760,-2940,-280
40.0555,26.1896,10.2846,-5.4112,-7.84199,-1.985,-12.0632,-8.36908,56.6753,26.0974,17.3184,13.4705,4.00516,-6.37175,-11.8707,-10.4299,-203.496,-794.464,-588.04,12320,-2800,0
25.7796,21.3097,2.34425,4.93463,-1.83685,-0.246657,4.90859,-1.0189,40.6069,12.5978,8.40987,7.88642,-1.08616,-1.51839,11.0162,-0.619389,-203.496,-795.44,-588.528,12740,-2100,0
10.0556,-3.35112,-9.49456,-12.9394,-14.9881,-6.83284,-4.21913,-3.87199,20.1504,5.21915,4.05987,-8.1105,-6.11975,-9.64179,0.630012,-8.01192,-203.008,-794.464,-591.944,13160,-1820,140
7.75556,-4.956,-9.96141,-7.27199,-10.4168,-7.26192,2.31659,1.2152,15.8768,4.09994,2.14781,-6.66885,-5.08373,-7.06666,8.84342,-1.79275,-202.52,-795.44,-592.432,13160,-980,280
-11.6487,-12.7155,-11.492,-0.743669,-3.82241,-2.84522,12.2835,7.18449,-11.1634,-7.98819,-5.44354,-8.59598,-5.32977,-1.24682,13.6169,9.1827,-203.008,-792.512,-590.968,13300,-140,420
-37.9632,-31.9679,-17.9203,1.4375,0.408439,0.935524,24.0129,14.4618,-53.0431,-19.7764,-15.8843,-20.9715,-7.80158,0.313286,25.9055,18.7,-202.52,-793,-590.48,13580,420,560
-50.7317,-47.7915,-21.3153,-14.5809,-9.63936,3.11318,10.1981,9.47941,-72.3071,-28.645,-19.1316,-28.0015,-5.93398,2.25755,2.44475,9.12999,-200.568,-793.976,-587.552,13720,980,840
-29.9496,-26.8478,-5.0835,-14.9969,-1.97979,5.13125,-3.68782,4.85057,-45.196,-15.1547,-12.6227,-10.4459,1.78103,7.30188,-21.9471,2.1846,-203.008,-791.536,-586.576,13720,1680,980
10.9001,14.1514,10.4298,6.05563,6.44652,2.04262,-10.4019,-6.52302,14.0316,5.58934,1.77604,14.987,6.24912,6.46705,-23.3729,-7.75932,-203.496,-788.12,-588.04,13020,1960,1400
23.9289,16.8453,12.5016,0.65094,-0.157895,-1.76857,-16.0706,-13.1717,28.5336,11.264,9.21717,16.4019,5.88999,1.3219,-22.1932,-16.2196,-203.008,-785.68,-585.6,13160,2240,1540
21.6847,23.6328,14.6038,12.8128,11.6439,1.45156,-3.09371,-5.7253,22.6944,11.4007,8.57611,20.3235,7.46963,6.76689,-1.68187,-8.00929,-200.08,-780.312,-586.088,12600,2660,1820
29.0233,42.6251,21.6167,23.2651,21.8929,6.25886,-5.05095,-8.92364,33.2087,15.5788,9.81736,34.7207,14.18,13.4721,-6.06788,-9.48333,-200.568,-775.92,-585.6,10220,3640,2940
2.73002,13.5003,5.13603,8.38832,10.431,2.91424,3.62515,-0.646897,0.0762702,0.883756,-0.335778,8.81751,3.90349,4.3107,9.70242,-1.39056,-193.736,-781.776,-580.232,7700,5040,3360
-28.904,-4.36315,-6.64861,26.0368,15.2284,2.92653,32.9885,11.7247,-40.0046,-18.5428,-10.9874,-8.17313,-4.97944,4.85803,54.8616,18.3855,-200.08,-781.776,-575.352,7700,5740,2940
-35.1901,-4.95713,-6.24107,37.6816,22.74,6.11726,42.3157,15.7582,-46.835,-21.1229,-11.6312,-6.30383,-3.51574,9.46298,63.2068,27.0563,-198.616,-779.336,-576.328,8680,4620,3360
-29.3972,-19.8023,-14.8784,23.0891,7.88343,1.29146,36.673,16.5851,-35.0264,-17.2007,-11.55,-19.9252,-9.66827,0.673777,54.0862,25.7246,-198.128,-775.92,-575.84,9380,4340,3780
8.18862,-5.82051,-12.2374,5.19682,-7.8322,-2.95176,15.2118,9.06086,17.5978,0.969424,-0.419108,-13.795,-8.63144,-6.31928,25.4952,11.4833,-196.664,-775.432,-574.376,9940,5180,4340
41.7408,28.6946,5.40174,-1.35309,-1.54226,-0.580204,-14.2293,-1.46015,60.5641,23.6361,12.5023,13.8338,3.98122,-2.29977,-20.135,-6.09473,-200.08,-779.336,-571.448,10500,5460,4620
43.9963,33.5978,11.0486,-10.5014,-1.50696,0.241852,-27.7374,-8.69337,59.5775,24.9939,13.3233,19.4327,7.99598,-1.69637,-42.4686,-16.7874,-202.032,-781.776,-570.472,10920,5180,4900
14.6033,9.50512,3.07641,-6.06126,-1.47029,1.50077,-7.79757,-0.987793,17.3848,6.67848,3.59318,3.671,0.936068,0.864557,-16.0699,-5.32848,-203.496,-781.776,-566.08,10920,4900,5320
-5.39616,-14.2489,-2.51632,-16.0889,-8.88434,-2.56427,-8.07988,2.86654,-12.8395,-1.87139,-0.217864,-14.3697,-4.79692,-5.30192,-15.2502,-2.64258,-202.032,-786.168,-566.568,9940,4340,5600
-8.40066,-31.7402,-6.96366,-39.1521,-27.8476,-7.53662,-30.1348,-6.65891,-15.6789,-3.00183,3.66439,-24.6583,-5.34213,-13.3497,-39.9069,-14.8368,-215.208,-770.552,-563.152,7420,5180,6020
-0.724483,-24.062,-1.75587,-41.3347,-26.8432,-8.23405,-37.0245,-12.8939,-2.99718,2.30882,8.09971,-15.4299,-2.16454,-13.4962,-46.7163,-18.6062,-201.056,-782.752,-557.784,1260,3920,7980
3.2922,-12.7434,3.14871,-22.4155,-14.8639,-3.64007,-14.721,-5.73141,6.97159,5.14262,6.41638,-3.51901,-1.00449,-6.14197,-17.4467,-5.75486,-209.352,-793.488,-552.904,-1820,5040,7560
10.1454,8.10233,10.6044,6.61274,4.53288,1.04613,6.77179,-0.134864,18.8779,11.474,5.45633,11.7884,4.25598,1.82027,13.0663,7.08868,-204.96,-794.952,-549.976,-140,4760,7000
5.1713,17.4644,9.78878,20.573,12.2402,1.18638,14.2047,-1.49083,13.9618,5.31758,-1.59215,13.7586,3.33079,3.60889,26.1788,9.05731,-210.816,-791.048,-542.656,-840,6440,6300
-14.1945,8.42612,2.92699,21.0785,11.0464,2.4378,15.6638,-0.70333,-12.6293,-8.89342,-9.99444,7.99315,-1.93035,3.94498,24.8032,10.8085,-210.328,-795.44,-541.192,-4200,6860,5740
-30.5471,0.644862,-3.68024,22.7366,13.6006,5.58636,17.318,3.10042,-38.8166,-20.1519,-14.4986,3.51702,-3.86332,5.02089,24.3983,13.5456,-214.232,-797.88,-537.288,-5600,6720,5180
-43.1914,-30.6665,-11.5518,0.461438,4.11077,5.91797,11.189,4.59182,-60.8527,-25.0004,-14.2004,-15.4177,-4.7037,0.56252,14.4345,10.6045,-217.648,-793.488,-538.264,-7980,6580,4200
-19.9944,-24.5,-8.2145,-17.9191,-6.94745,2.38392,-7.46471,-2.2217,-30.2383,-11.1568,-4.41375,-11.1515,-0.0372315,-3.12352,-13.0014,-3.83475,-210.816,-808.616,-543.632,-10640,5040,4480
13.5121,11.7677,4.63443,-4.97523,2.0518,1.0692,-14.2753,-4.6277,17.2723,6.52264,2.46791,11.1806,6.25214,0.645762,-24.3004,-11.4175,-218.136,-803.248,-551.44,-17080,3780,3780
42.6039,28.2793,6.08962,-11.8892,-7.68216,-6.30579,-31.2063,-17.636,58.5994,20.5429,11.3627,17.5659,5.60662,-5.64908,-44.0494,-27.3232,-214.72,-798.856,-556.32,-16380,3500,2660
30.3709,31.8354,9.34741,4.08361,6.16623,-1.03331,-4.63308,-1.99727,35.8991,16.0917,6.02587,19.7187,6.81651,3.86618,-10.837,-7.50604,-219.112,-792.512,-563.64,-16520,3920,2100
-6.76769,-4.63633,-4.12679,-1.15741,0.877736,-1.51071,9.02071,5.93877,-13.6591,-2.80556,-3.43124,-4.90846,0.53721,1.90592,8.14317,1.71677,-223.504,-790.072,-564.616,-17780,5040,1260
2.21371,-8.58942,-6.05606,-9.70475,-5.17837,-3.33853,-2.55311,0.588025,-0.125272,3.51299,1.56504,-8.67422,0.842166,-2.76564,-5.68982,-3.69885,-215.696,-800.32,-568.52,-19880,3780,2380
-5.13642,-7.94871,-3.3143,-0.520341,2.32782,1.24327,3.90365,7.76035,-11.3697,-2.86799,-2.71171,-5.31625,0.887782,3.0764,2.80787,4.51056,-217.648,-803.248,-569.496,-25060,2940,2380
-26.2989,-18.3533,-8.24451,12.7344,8.6919,2.12386,21.1664,15.1543,-37.3881,-17.2842,-9.54421,-11.7119,-4.91571,6.44014,32.0144,15.7142,-216.672,-800.808,-569.984,-22120,2240,1400
-2.46002,2.3137,0.0705729,23.6436,14.3156,0.0676475,21.8434,8.72005,-3.29499,-1.54475,2.19615,1.3612,-1.87572,5.57168,38.9331,12.9043,-218.624,-791.536,-572.912,-20300,3220,840
5.59229,7.07083,3.94058,11.764,5.06471,-1.42367,4.68606,-1.45838,9.30891,3.20248,5.74355,6.6647,-0.506351,3.76456,10.3441,0.0850416,-214.72,-791.048,-573.4,-19320,4900,-140
-9.11367,-20.6647,-6.41276,-22.0311,-18.4202,-5.85308,-12.2915,-3.14646,-4.97453,-7.45913,2.34256,-13.7336,-5.94725,-7.21867,-16.0362,-9.64601,-217.16,-783.728,-571.936,-19040,4900,-560
-14.6162,-26.5675,-12.617,-26.8752,-25.2347,-6.79857,-11.4062,-1.59811,-7.48277,-13.2616,-4.08062,-21.8729,-8.89058,-10.5107,-14.9008,-8.69486,-215.208,-787.144,-573.888,-19880,4620,-1120
-11.6093,-18.372,-6.93949,-21.121,-17.9878,-0.9111,-9.673,-1.59622,-9.89855,-11.3936,-5.88661,-13.1683,-4.75405,-4.84675,-20.4259,-5.66623,-213.744,-780.312,-574.376,-20860,4620,-1820
11.1273,-0.195549,4.46098,-9.01555,-7.627,0.59975,-6.3475,-3.24323,11.1667,11.3637,8.13721,2.54091,2.08543,-1.50172,-15.7395,-5.41996,-215.696,-783.24,-574.376,-21140,3920,-1540
34.5191,38.3157,17.4145,33.4982,20.1865,5.08395,18.1852,-2.2498,44.0667,26.8309,15.0987,27.3433,10.9109,8.46784,24.7809,6.59246,-210.816,-786.656,-575.352,-23520,3780,-1680
22.6176,45.7816,14.8073,53.2262,31.1747,7.53208,31.4078,1.266,35.3005,13.7083,5.58852,28.2304,8.73003,13.2582,46.3741,17.8906,-209.84,-788.608,-572.424,-24080,4480,-2240
0.00817098,35.7593,11.5765,48.8709,33.2411,10.4694,29.9779,8.5303,3.3846,-1.27942,-5.26542,21.5493,5.42893,16.0972,36.8927,24.2028,-212.28,-787.144,-574.864,-23240,4900,-2660
-6.29816,3.63043,1.44582,2.42777,3.99468,5.5034,0.16008,0.121844,-7.87415,-4.88177,-4.22649,1.45419,0.800332,5.78105,-7.05499,6.21114,-208.864,-788.608,-578.768,-22680,5740,-3080
1.86917,-3.94067,4.42729,-21.1341,-8.51416,2.28667,-14.4505,-1.38703,-7.36838,7.40234,0.874543,-2.67034,0.894045,-0.0302166,-27.9936,-2.21009,-212.768,-793.976,-582.672,-21840,6020,-2660
-13.4876,-13.5389,1.57037,-12.7554,-6.55423,2.75972,-8.17669,0.805916,-27.0705,-3.22754,-6.29387,-8.54794,-2.87086,0.492683,-17.341,-0.48395,-205.936,-785.192,-586.088,-20440,4760,-1960
-14.0335,-32.6533,-10.1429,-28.5995,-22.4997,-6.57225,-20.8202,-4.84054,-20.9287,-6.34985,-4.43444,-25.2596,-10.0502,-15.567,-23.3087,-13.7738,-204.472,-783.24,-585.112,-19740,5320,-1960
4.0851,-2.47497,-5.17639,-4.29999,-9.03896,-6.93286,-14.1473,-7.89058,4.13521,0.678329,0.563738,-5.55268,-5.97561,-12.7759,-5.42219,-15.3499,-203.984,-780.312,-584.136,-19320,5460,-1540
-26.1864,-24.8097,-15.9086,-12.8899,-12.0199,-5.87008,-12.8163,-4.29955,-33.7021,-21.4202,-11.9476,-17.4975,-9.51667,-9.77378,-7.09653,-11.3554,-205.448,-776.408,-584.624,-19460,6020,-1400
-6.24882,-23.7391,-11.4356,-32.1827,-17.1283,-6.16591,-20.5288,-1.49095,-8.47603,-8.88889,-4.16155,-16.8329,-5.01171,-10.5569,-24.9914,-11.1993,-205.448,-775.432,-587.064,-18760,5880,-1120
28.6588,22.0243,10.351,2.07151,10.7188,3.42857,-0.119649,5.77597,35.0209,14.9341,6.58363,17.1165,9.37399,6.669,-2.93577,2.9574,-203.008,-778.848,-587.064,-18900,5600,-980
25.1215,21.0882,9.32829,10.2064,10.876,1.79139,4.28377,-1.27801,27.7533,14.5038,10.7111,17.5785,10.6194,4.77749,11.0109,-1.99743,-202.032,-779.824,-587.552,-19320,5740,-1260
17.9859,13.4599,5.37497,7.08121,7.45159,-0.371332,6.99554,0.283775,20.1441,12.8509,9.25615,10.7297,6.56275,0.59569,15.0768,0.00904793,-201.544,-775.432,-589.504,-18760,5320,-980
-1.77209,-6.28604,-7.45689,-6.29588,-5.91526,-3.88394,1.75761,1.41941,2.41177,-4.03314,-2.32882,-4.28732,-2.55339,-5.1061,5.77871,-0.293348,-202.52,-770.064,-583.648,-17920,5320,-840
-13.4308,-9.10701,-6.54116,-1.23134,0.121406,-2.75748,3.42285,2.84645,-13.7538,-8.07129,-4.44222,-5.92998,-2.35137,-1.5832,6.86761,3.47526,-204.472,-766.16,-584.624,-16940,4200,-140
-4.71378,-5.39544,-1.91139,-6.55275,-1.94497,-2.37415,-6.63764,-2.83614,-3.01873,0.110888,1.57895,-2.53207,1.69301,0.250009,-10.6047,-1.59052,-204.96,-772.992,-582.184,-15680,3080,700
13.5277,8.026,1.24037,7.42385,3.38414,-0.536884,7.67695,0.505192,24.1427,8.13469,5.2247,4.94447,1.94882,2.89845,10.6302,7.39436,-201.056,-786.168,-585.6,-16800,3640,840
34.4496,33.3232,11.1657,31.8946,19.6124,3.65618,30.0297,8.97583,50.1464,22.6981,11.5042,19.3072,5.91542,8.07009,42.8072,21.1998,-204.472,-784.704,-592.432,-18760,5320,-560
34.6235,26.7886,6.92284,15.9336,4.7996,-0.841301,11.5048,-1.92309,48.9189,22.8921,14.3514,13.1619,3.90658,0.337588,20.5079,3.95703,-203.984,-776.408,-587.064,-18340,5600,-700
6.6576,24.9528,9.98786,24.2918,16.6977,6.31844,13.936,2.47198,3.44984,7.03757,3.10316,17.2385,3.97961,9.58841,15.7172,8.39608,-204.96,-778.848,-589.016,-16100,4620,-420
-50.6529,-3.11131,3.24589,28.1166,23.6215,14.0231,22.7574,11.8887,-73.2853,-29.6772,-19.7115,3.97404,-0.741939,18.4558,16.9828,19.269,-206.912,-783.728,-589.504,-14280,3080,280
-89.8215,-58.5817,-20.2036,-6.89524,-2.18824,7.29124,10.5207,11.7211,-120.057,-59.5513,-31.9855,-33.6569,-12.2829,4.4297,-0.447594,10.9088,-206.912,-789.096,-593.896,-12880,2100,840
-53.0369,-52.7106,-19.2259,-51.9315,-30.1515,-5.79099,-47.5701,-8.69825,-70.0887,-35.6472,-16.436,-31.4767,-10.9989,-14.7771,-80.6066,-26.7254,-203.496,-792.024,-600.24,-13160,1400,840
-51.3639,-62.5318,-23.5278,-81.1441,-49.8399,-11.7704,-72.0878,-18.8464,-70.0838,-30.1742,-13.1795,-36.8746,-12.1549,-24.1548,-111.301,-42.8551,-203.008,-789.096,-598.288,-12180,1260,980
-40.0847,-44.1533,-15.1835,-37.8524,-23.2382,-7.07896,-21.3333,-3.12584,-55.8083,-20.58,-10.0696,-26.2782,-8.73968,-12.6529,-30.486,-12.1614,-203.984,-785.192,-595.848,-10640,560,1260
18.5786,-3.82355,2.40142,-8.13907,-6.83329,-3.04836,3.85718,-1.06298,26.1527,13.5902,8.73292,-1.87777,0.551392,-2.82734,10.3854,2.07116,-204.472,-774.944,-587.552,-8400,-840,1680
63.0349,38.5856,12.3916,19.1676,3.03928,-1.77228,20.4492,-3.73257,90.0945,37.4649,21.5641,21.8225,5.64199,2.16707,39.128,7.53311,-205.448,-773.968,-578.768,-5460,-4060,2380
65.3709,48.2326,14.2159,19.9056,2.84531,-3.83113,9.16807,-8.07496,95.3963,41.249,22.111,24.0083,7.10167,-1.90654,22.1823,-0.538759,-202.52,-796.416,-585.6,-2800,-8540,3080
46.5041,22.3819,6.34448,-6.60296,-11.8901,-4.9066,-14.0051,-15.5118,63.6604,28.3851,16.7469,8.15447,5.34333,-6.70517,-14.0272,-12.784,-200.568,-801.784,-590.968,-6860,-8260,1540
38.9356,30.0373,12.9961,18.157,11.0379,2.52408,10.7374,-1.24852,48.5906,24.1386,10.287,16.0699,8.49499,4.37904,18.6711,5.96021,-200.568,-790.072,-594.384,-8400,-7420,700
37.1827,44.408,16.7095,48.1334,29.0042,6.45007,30.5427,4.22665,44.8644,19.9009,7.17323,25.6234,8.59099,13.0583,52.6317,15.0726,-201.056,-789.096,-589.504,-6580,-7840,700
15.302,31.4215,12.2107,45.0796,25.9753,6.18621,24.1672,3.52476,15.8367,7.16744,0.858065,18.896,4.23506,10.6764,46.5141,11.5431,-195.2,-812.52,-597.312,-5040,-7980,980
-14.1067,-1.34023,2.92848,16.9544,8.97002,4.0626,4.33719,1.13631,-19.6007,-10.6811,-8.67597,0.747852,-2.06436,3.89872,14.9851,1.65146,-202.52,-814.472,-597.8,-6440,-6860,140
-13.6564,-4.86003,4.06246,8.65699,10.7293,6.44379,5.9173,8.59799,-15.9815,-9.1712,-7.42386,1.744,-0.0199952,7.92337,9.79257,6.99341,-200.08,-805.2,-590.968,-6440,-6580,-140
-25.9471,-15.8909,-2.15486,11.6826,14.5233,8.572,21.3371,18.2022,-31.0175,-17.1483,-11.0535,-5.26708,-1.37065,11.8475,27.3899,18.2424,-200.08,-797.88,-586.576,-3360,-7980,420
-36.5245,-12.1265,-3.84314,10.0462,14.3187,8.21768,15.8156,17.0346,-42.1035,-24.5002,-15.6925,-5.96781,-2.75582,11.9972,15.113,14.0114,-200.568,-795.44,-583.16,-1540,-7840,980
-33.5244,-3.90368,4.64658,2.11286,13.1723,9.50769,1.4939,9.89953,-39.8411,-20.7714,-13.2991,2.16605,0.871081,14.002,-14.3763,2.59512,-200.08,-791.048,-578.28,-2660,-6720,840
-13.0001,4.93391,9.24676,-8.43892,6.34107,3.35757,-24.3622,-3.65462,-18.4487,-4.26854,-2.4352,8.04541,2.3701,7.58618,-51.4737,-11.9932,-196.664,-795.44,-580.72,-4900,-5320,420
-6.40752,-21.044,-4.67294,-39.3314,-21.6185,-8.76654,-35.9867,-15.5079,-13.7749,2.09372,6.49107,-11.6196,-2.35055,-10.9059,-57.102,-22.0345,-195.688,-803.248,-582.672,-7000,-3920,0
11.7663,-16.5041,-2.84398,-19.2109,-10.3812,-8.76405,-1.11426,-6.05354,5.38237,12.7532,10.7648,-8.97793,0.126484,-10.0552,0.796153,-3.47611,-199.592,-796.904,-581.696,-7700,-2800,-420
35.5912,0.535681,1.33315,-13.2617,-8.67445,-8.58903,-0.203293,-6.95607,39.2513,24.2389,15.825,1.96442,3.99786,-8.63485,4.92293,-5.22459,-200.568,-798.856,-584.624,-7140,-1540,-700
21.1353,-0.682073,-9.5289,-9.26078,-15.906,-9.9802,0.231871,-2.9071,29.5438,9.63735,7.35004,-5.89784,-2.77138,-13.436,8.7347,-6.82129,-205.936,-794.952,-583.16,-7140,-560,-840
-2.34918,-3.79672,-17.0979,-16.7363,-24.7271,-13.3414,-22.6724,-7.65245,4.80399,-7.80659,-4.01631,-13.4981,-7.93327,-20.4416,-20.3693,-21.3827,-211.304,-785.68,-581.696,-7000,700,-840
-25.5045,-21.8667,-17.8583,-28.8869,-24.7834,-8.0902,-29.8668,-9.03291,-33.7711,-19.1203,-9.89096,-19.4008,-6.44639,-13.7865,-42.8788,-21.7686,-214.232,-781.288,-584.136,-6020,1260,-280
-33.3825,-25.3471,-14.5979,-14.3496,-7.61019,0.349181,1.22962,6.90211,-46.8629,-19.3567,-9.77617,-19.0441,-2.84496,-3.09694,-10.1423,4.2145,-216.184,-783.24,-581.696,-4900,1540,420
-13.462,-9.97418,-10.6075,7.38599,1.1577,0.0696749,22.3255,7.61596,-13.5691,-9.66777,-5.51381,-10.3391,-2.41007,-0.889842,29.4677,12.3333,-221.552,-779.824,-579.744,-4480,1960,700
44.8067,39.7504,10.8484,22.9503,11.3894,2.28348,12.9137,1.75646,61.7502,27.0073,13.4806,23.1665,7.50379,2.19999,19.8594,8.59838,-225.944,-779.824,-587.064,-4060,1960,1400
55.3436,50.8766,18.9365,7.81008,2.94547,-0.272653,-18.8503,-11.2447,68.5874,38.541,22.4434,31.5727,10.69,-2.53613,-21.747,-10.0833,-224.48,-777.384,-585.6,-3500,1540,2520
-20.1369,-16.286,-8.72658,1.71833,-3.25857,2.44561,15.1539,10.6608,-29.8051,-13.7328,-4.79112,-12.2644,-5.93258,-2.3358,22.1919,14.77,-230.336,-780.312,-585.112,-2520,1680,3360
-19.1932,-15.6567,-7.53934,10.5194,3.5931,2.30355,24.9007,16.5485,-28.4342,-12.9808,-4.57553,-10.9794,-7.40146,0.596179,34.2951,26.1647,-227.408,-784.216,-583.16,-1540,1260,3640
-16.6875,-13.5251,-4.42694,-2.46813,-0.52106,-1.50718,-5.85249,0.109213,-29.446,-7.73705,-0.427496,-6.14563,-5.50145,-2.46705,-9.66191,6.68356,-226.92,-786.656,-590.48,-2660,1540,3220
-20.7454,-31.1806,-5.44829,-19.6857,-10.6566,-0.943819,-18.2025,-7.14515,-37.9373,-10.1001,-0.648685,-11.3452,-4.2224,-1.85942,-29.3368,-4.49243,-224.48,-781.288,-594.384,-2940,2660,2520
-8.94914,-18.1327,-4.12387,-4.83375,-3.59383,-1.07769,-1.00818,0.0338984,-13.691,-6.47101,-4.18571,-7.45454,-5.18037,0.603435,1.56786,2.39232,-229.36,-772.504,-600.728,-1540,3360,1120
-26.9776,-16.9295,-16.2708,5.61663,0.366827,0.780801,18.0347,12.4734,-21.3524,-26.3396,-20.3485,-15.0476,-11.7691,1.54829,28.4152,12.1807,-230.336,-776.896,-598.288,-420,2800,980
-9.37342,13.6174,4.42468,14.4933,16.517,11.4551,9.6024,9.88885,4.98033,-13.3772,-19.6888,10.0608,0.305641,14.8468,11.3277,7.7283,-228.872,-773.968,-598.776,700,1960,700
3.13531,13.5221,14.6229,4.23797,12.0305,12.8935,-0.0600554,0.836749,17.5932,-2.63447,-10.294,15.4061,7.26443,17.2462,-1.40663,0.00448273,-224.48,-774.456,-598.776,700,560,140
38.5362,32.4982,20.2324,9.73815,9.89497,4.91291,-2.46903,-4.32557,56.0668,23.8693,12.6605,25.7303,11.2277,7.81316,1.62223,-2.69416,-222.528,-779.336,-594.872,700,280,-560
34.7675,43.716,24.607,25.9235,21.0629,7.14001,5.41252,-1.73093,40.8337,26.666,13.0781,32.5795,15.5378,13.5445,11.5672,5.45237,-221.064,-783.24,-596.336,1400,280,-1540
-6.05328,12.6292,14.3869,20.5352,15.3966,6.63483,7.69693,-3.894,-17.0441,4.83291,3.38923,13.3214,11.0163,12.005,10.7372,4.09129,-219.6,-785.68,-593.896,2240,420,-2380
4.3647,4.83503,13.732,2.85413,0.232928,-1.30409,-13.2337,-20.6888,-1.99968,12.798,13.2234,7.76204,11.1885,2.82367,-14.5972,-18.8185,-214.72,-786.656,-594.872,3500,-140,-2800
11.0955,17.1394,18.9865,6.11067,11.5244,2.55859,-6.07078,-12.9004,12.7297,12.8723,6.28497,16.2859,10.7541,10.3591,-12.0922,-12.3393,-214.72,-787.632,-595.848,4340,-560,-3360
-1.94892,-10.7217,-3.02892,-2.94547,0.939784,-2.68246,14.3837,6.1904,1.39527,-0.579354,-1.80896,-9.91468,-4.86057,-1.1451,13.1354,5.46565,-212.28,-788.12,-594.384,5040,-980,-3780
10.8886,-12.3396,-12.0285,-10.6816,-14.7975,-17.9632,0.908478,-5.24851,17.7801,9.774,10.155,-21.6341,-10.4551,-21.9675,8.56425,-8.08914,-211.304,-784.704,-585.6,5880,-1540,-4620
-21.7386,-25.6533,-24.188,-14.775,-20.6642,-15.9424,-8.39856,-10.5618,-24.955,-15.3941,-4.3869,-29.9727,-14.258,-23.0382,-6.38387,-15.2811,-210.816,-786.168,-579.256,6300,-1540,-5460
-33.072,-9.87028,-10.102,1.94678,2.3637,1.66906,2.41852,-1.20934,-45.2741,-19.6549,-13.1444,-7.51937,-3.53497,1.88049,-7.36009,-0.462784,-210.816,-779.824,-563.64,5880,-1400,-6440
0.311503,11.3164,6.14841,9.45456,15.5238,7.95702,9.61368,3.04006,-2.61469,1.53906,-2.0281,12.6863,5.07634,11.4814,-1.47368,7.67127,-211.304,-781.288,-560.712,3780,-980,-7700
21.8479,-2.81531,-5.2184,-12.8967,-11.0695,-6.19145,-4.97687,-0.375548,25.7443,10.535,9.07052,-5.3783,-3.1937,-10.8131,-7.04955,-5.6402,-206.912,-772.504,-543.632,1960,-560,-8820
51.6889,13.0019,-0.839849,-41.0057,-30.3532,-13.9749,-48.5027,-14.3968,64.5416,30.0514,21.0473,0.937462,-1.69854,-22.7951,-65.7569,-32.2805,-203.984,-781.288,-530.456,-2380,-1400,-10500
25.0269,-8.88658,-5.94079,-49.5926,-32.5371,-9.68264,-45.2708,-10.7281,22.3337,16.024,13.1975,-6.69093,-3.84179,-18.7098,-65.9547,-26.2795,-205.448,-783.728,-554.368,-5880,-2240,-12040
-19.3666,-32.6157,-13.4774,-24.9327,-17.4791,-4.68515,-10.2689,4.05226,-37.3421,-11.931,-1.17103,-20.7853,-8.12217,-13.1128,-9.81091,-4.58285,-201.544,-782.752,-565.104,-7140,-4480,-12460
-14.6232,-19.2118,-8.71727,6.80873,-0.204048,4.38992,21.0576,15.2537,-19.7265,-13.5313,-7.29308,-12.7534,-4.45362,1.62591,36.6669,13.5351,-199.104,-789.096,-575.84,-6580,-7700,-12180
4.15644,13.8833,8.50869,26.2437,16.9381,14.8852,24.0346,13.5551,13.8556,-5.5547,-6.92499,12.5302,8.06618,16.6997,41.0381,14.2462,-201.056,-796.416,-576.816,-4900,-8260,-11760
16.3511,30.1283,21.1809,25.8673,25.7775,18.9461,17.0974,11.0326,26.9564,4.65666,-2.1135,29.3314,15.2207,24.8956,23.7862,13.0707,-203.984,-799.344,-586.576,-3220,-8260,-11340
9.72491,35.1199,14.2266,47.4838,34.3857,16.8738,35.8423,18.6798,18.4644,1.03309,-5.16343,29.8299,7.79009,24.7115,51.4071,26.4026,-203.496,-800.32,-581.208,-2380,-8120,-10920
-17.2536,17.3912,-0.295298,44.7911,27.526,11.7795,35.7519,18.2314,-14.8968,-15.4573,-13.3368,13.9932,-1.27967,18.421,51.9821,26.7221,-201.544,-800.32,-583.648,-1680,-8120,-10920
-37.4192,-17.0886,-12.1749,9.90057,5.31805,0.501943,12.8034,9.37204,-46.7606,-20.8837,-13.9505,-12.978,-7.65664,1.54512,19.6025,13.2093,-198.616,-801.296,-578.28,-1120,-7980,-10640
-52.4506,-46.4148,-28.3249,-28.2766,-24.2964,-12.5441,-14.5923,-1.64522,-65.0319,-32.441,-12.9709,-41.4806,-16.0548,-20.5749,-17.4721,-4.70087,-196.664,-796.416,-579.256,-1120,-7980,-10640
-41.5912,-22.5199,-11.8868,-15.0571,-11.9278,-6.28283,-13.5712,-5.04915,-51.8892,-27.4291,-11.7499,-18.8339,-7.51688,-7.31597,-26.4226,-0.540164,-194.712,-795.44,-572.424,-1820,-8260,-10640
-16.4739,-8.05501,4.24948,-8.83312,-4.53195,-2.06186,-14.4975,-9.89604,-21.6849,-11.6923,-6.74551,1.2429,1.21111,1.6021,-30.0349,-1.31114,-192.272,-797.392,-576.816,-2940,-7980,-10500
9.97475,0.527806,14.35,1.8606,6.21773,1.83278,5.7609,-1.5365,7.13496,11.1105,4.58018,11.9565,6.89828,6.05853,-1.05602,10.3487,-193.736,-793.976,-570.96,-4060,-7560,-10640
24.084,13.3931,11.352,16.6803,10.7066,1.36739,17.4194,2.04403,28.5369,18.4626,7.04696,14.3092,5.47972,5.8234,20.4889,13.2322,-192.272,-793.488,-570.472,-5460,-7700,-10920
19.6031,1.52921,-1.93507,-0.841935,-7.46939,-8.61781,2.25895,-1.93662,27.4415,13.1849,7.0237,-4.29998,-0.948598,-7.88734,5.51346,-1.19533,-191.784,-798.856,-559.736,-6440,-7840,-11060
20.9297,-0.378129,-4.08996,-23.394,-21.7661,-13.1779,-21.7782,-12.7409,29.6555,13.8793,10.4001,-12.227,-2.42473,-16.4892,-27.4796,-21.5478,-192.76,-792.512,-554.856,-8540,-7140,-11620
4.5314,7.65133,-3.82251,-10.6466,-7.14117,-5.4539,-11.6576,-6.64213,7.49293,3.26889,2.43847,-4.05979,-1.81538,-6.05692,-20.309,-13.0539,-189.344,-787.632,-566.08,-10080,-8400,-12320
-33.0434,-8.2308,-8.28718,-0.308304,3.46533,-0.448219,-1.81081,-0.774562,-47.0896,-15.0134,-7.51368,-7.15197,-3.19076,-0.534949,-9.81758,-2.62684,-190.808,-795.44,-571.448,-12040,-10080,-12460
-15.3096,-28.422,-8.16643,-25.6019,-13.1628,-5.19617,-19.2452,-9.64014,-29.2487,0.656061,2.96948,-15.7662,-2.3111,-9.67894,-26.5308,-14.852,-195.2,-790.56,-567.544,-12180,-9940,-11620
33.0923,5.09988,3.00921,-9.21405,-6.76486,-3.75218,-11.884,-12.4584,41.731,25.7413,15.7669,5.2786,4.43827,-6.36394,-3.72618,-15.477,-198.616,-796.416,-572.912,-12180,-10080,-11200
54.605,38.3224,15.2263,3.60313,3.89905,-0.906314,-16.0668,-11.6507,71.5456,38.2023,19.8293,26.4163,9.61754,-1.45035,-8.86918,-17.0317,-200.568,-795.928,-568.032,-12320,-9940,-10780
27.6985,15.755,5.42381,-2.57746,-1.31618,0.202304,-9.90896,-4.4449,35.126,19.4317,10.9892,12.3481,3.80035,-1.04322,-5.38814,-10.5756,-198.616,-793.976,-567.056,-12600,-9660,-10500
-5.20668,-4.87904,-4.18265,-2.9031,-1.36615,1.49965,7.06376,7.53873,-2.5462,-3.55376,-4.05884,-6.94005,-4.24546,-1.3396,12.4726,4.91683,-202.032,-792.512,-558.76,-13580,-9660,-10220
-11.2734,-3.40496,-4.34288,-0.593118,0.00922574,2.97761,11.0795,12.7625,-9.46094,-10.5776,-8.06776,-7.82022,-5.85853,0.858553,12.5407,12.2241,-203.496,-796.416,-556.808,-14140,-9240,-9800
-5.08091,-2.29209,0.0402936,-3.89346,-3.04247,2.93092,3.99101,7.55446,-7.3277,-6.13364,-2.17878,-3.71011,-0.527108,1.56544,1.34173,7.6464,-211.304,-796.416,-554.368,-14420,-9660,-9380
-3.25102,1.83177,10.75,9.498,11.1844,9.95228,12.9132,8.03097,-12.7251,-3.50387,-2.17008,7.69951,6.22347,13.0464,13.572,11.3823,-213.744,-798.856,-541.68,-13720,-10500,-8680
0.326814,-1.44344,4.2548,5.04539,0.0967503,1.64392,0.701693,-1.33001,-0.791581,-4.75985,1.42953,1.46968,2.27632,4.02339,6.47453,-3.06142,-220.088,-831.064,-548.024,-13440,-10500,-8540
16.1774,18.0578,12.5255,5.99333,0.789744,-0.557099,-20.0817,-14.2748,22.2626,8.80666,9.50332,16.1464,9.3311,1.49506,-13.6828,-18.3258,-231.312,-839.36,-585.112,-8820,-9520,-7700
-20.8572,-8.7897,-2.27263,11.2817,6.33489,3.53469,6.94396,2.62147,-27.1175,-18.4383,-11.4969,-0.918872,-0.176742,7.50767,16.0099,5.48666,-230.824,-817.888,-612.928,-4060,-8260,-6160
-5.16952,-0.601493,-4.62475,19.1499,11.6275,0.38237,25.1729,13.0609,-3.34446,-10.1203,-8.46317,0.128844,-3.75335,5.93935,33.6549,20.4355,-232.288,-760.792,-580.232,-2800,-7840,-4340
10.8961,16.725,3.23912,20.4533,14.3171,-0.193584,14.4454,2.96365,16.342,6.94556,3.27577,11.3809,1.16843,3.60735,17.4153,11.0737,-227.408,-709.552,-543.144,-2800,-3220,-2380
-27.9963,-10.8894,-11.0238,5.78525,2.4538,-0.836274,7.11384,0.744343,-29.8423,-19.2673,-9.1417,-9.18513,-7.91625,-1.84224,4.50957,5.5529,-220.576,-730.048,-920.856,-10920,-3080,-3360
-27.6369,-7.4631,-0.189291,11.8426,11.9326,6.58932,6.37299,-2.24536,-38.248,-14.8314,-8.00851,1.27633,-2.9734,7.26169,2.6943,2.81063,-191.296,-692.472,-536.8,4060,-7000,5600
-7.19631,-15.2132,-1.13642,-9.48096,-3.81481,2.35035,-3.87634,-0.520512,-12.0209,-2.23015,-2.13073,-6.70638,-4.3418,-2.20193,-13.8879,-2.11025,-183.488,-768.112,-593.896,-3220,-420,1120
35.37,25.5922,12.1927,3.80893,2.25348,6.66005,-4.28525,0.207735,49.8538,19.4363,6.95164,18.4428,5.77719,4.97457,-14.1322,1.51223e-05,-211.304,-835.944,-567.544,-3080,8260,-4620
27.9665,30.5513,15.7166,15.6879,15.5529,10.3927,7.08555,6.75914,36.5587,17.9341,3.13047,22.0546,8.55511,13.0142,0.0798519,12.897,-208.376,-803.736,-575.352,4340,3920,-6300
10.6787,4.642,-0.522876,-1.55144,-3.69962,-0.0088324,-5.16829,-1.10136,13.1069,3.87582,1.59359,-0.0306991,0.285885,0.482703,-11.3571,1.35454,-202.52,-748.104,-583.648,6020,-2380,-6300
-10.8262,-3.36836,-1.68969,2.91179,4.48439,0.0819966,2.7848,2.74104,-19.9217,-5.28207,-3.06543,-3.14786,1.16321,4.05683,-1.83469,6.93293,-204.472,-741.76,-594.872,1960,-8400,-5880
-30.8186,-30.5779,-15.1515,-9.386,-3.5727,-5.5857,11.4624,5.59663,-42.3058,-18.6969,-8.41685,-22.4107,-6.13652,-2.34117,12.5919,9.14622,-203.496,-757.376,-603.168,-2240,-6160,-6020
23.4262,-4.70885,-4.63946,-13.9592,-11.5016,-10.7117,-0.207813,-5.03246,28.124,15.1658,12.9035,-7.82695,0.125963,-10.6698,4.74326,-6.53431,-205.448,-779.336,-609.512,-1820,-3920,-5040
32.5622,12.9261,-0.0666451,-15.7513,-16.3218,-11.7235,-22.619,-15.7121,43.7742,18.3917,12.9105,0.790437,2.26528,-14.8388,-21.2092,-26.4145,-207.4,-788.12,-609.512,2660,-1960,-3780
14.7854,7.43102,3.33575,-21.0912,-16.5782,-5.77159,-32.4698,-17.5396,19.0039,7.27369,6.35214,2.66078,3.56708,-9.67903,-40.4614,-32.0778,-207.4,-795.44,-605.608,6860,-1680,-2800
-21.2465,-9.00483,-2.09459,-10.6561,-4.81967,2.3065,-4.63839,2.43991,-29.3749,-12.635,-7.86603,-7.74748,-1.03525,-3.21855,-8.76157,-7.3091,-213.256,-789.096,-605.12,11900,-2660,-1400
-76.13,-63.108,-32.7532,-39.6758,-32.7907,-7.75673,-13.3267,2.15021,-94.0528,-48.7792,-27.7224,-51.2707,-19.2842,-22.0722,-14.4289,-13.767,-220.576,-787.144,-618.784,15260,-3640,280
-20.0412,-31.1978,-13.0382,-32.5958,-25.3408,-6.82964,-11.4904,-1.15366,-20.3908,-10.1875,-6.0499,-24.3868,-9.65969,-15.836,-14.4578,-11.8524,-216.672,-775.432,-621.712,16940,-5040,1820
17.9333,18.8485,12.4208,19.3751,16.796,5.69894,29.4313,10.4231,23.9963,19.6971,8.25405,14.6579,4.37362,6.94908,37.4715,17.2001,-209.352,-774.456,-621.224,17920,-6860,3220
-10.095,-2.69819,1.58702,16.8129,14.344,4.35536,28.824,9.67381,-14.9149,1.53754,1.07865,2.42765,-0.42928,5.65812,38.464,20.0816,-202.032,-772.504,-620.736,19180,-5880,2800
-14.0591,-0.283315,-0.0988107,13.3219,12.6656,1.62687,12.4275,5.35612,-18.4375,-3.48627,-2.20794,2.99808,-1.88171,4.4059,16.761,13.6637,-198.616,-765.184,-618.296,21000,-3640,840
-33.899,-0.161072,1.9105,23.8782,24.491,10.0959,17.5908,10.8227,-44.3635,-20.1508,-14.435,7.90367,0.466101,16.8333,14.7168,21.8548,-201.544,-767.624,-601.216,21420,-2940,-1680
-14.9095,-15.3706,-4.59021,-6.66636,-0.417321,0.483141,-7.22297,-1.79467,-17.9488,-7.88577,-1.37176,-5.3845,0.257671,2.1903,-13.55,0.957682,-201.544,-773.968,-594.872,20300,-3500,-2940
43.1164,10.1783,5.45031,-21.4175,-16.1762,-7.85422,-31.12,-13.0514,59.8106,26.5806,17.5511,5.04784,5.32956,-8.6199,-36.5735,-19.3277,-202.032,-783.24,-592.92,18760,-3920,-4620
73.5244,51.7345,22.7275,23.776,11.6748,2.3644,3.63276,-0.928916,97.2075,42.7721,22.3077,37.216,14.8079,9.31943,13.0763,1.0463,-205.936,-788.608,-576.816,18620,-5040,-5320
44.1395,58.1654,23.9746,61.2819,38.5025,13.6752,39.0914,13.0697,55.2946,24.4408,8.75126,45.0721,16.3507,23.8764,57.9929,25.06,-204.96,-798.368,-580.232,18200,-6300,-6020
-23.1493,10.2965,2.47251,20.8609,13.3996,7.55012,1.73459,0.925475,-34.2857,-16.7119,-11.1471,11.7765,4.36424,12.1729,3.6781,4.16895,-207.4,-805.2,-577.792,18340,-7840,-6020
-46.4138,-46.1154,-23.0331,-43.37,-29.6174,-8.51833,-36.6297,-7.60749,-62.0948,-30.9035,-12.1123,-31.5615,-9.32268,-14.4797,-48.2298,-19.0826,-207.888,-805.2,-580.72,18340,-8960,-5740
-0.888391,-21.9518,-9.62606,-29.6999,-20.7826,-6.55045,-26.5055,-4.99249,-1.48537,-6.16324,-1.32938,-17.0704,-4.5454,-9.89944,-27.4169,-15.0238,-204.96,-810.568,-579.256,18340,-9520,-5460
27.17,-8.93544,-4.26946,-34.5235,-29.8004,-13.0538,-41.1145,-21.3774,31.4475,15.0016,15.5089,-10.5795,-1.06636,-17.2424,-39.5549,-32.8511,-206.424,-822.768,-579.256,18760,-9240,-5320
18.4257,6.55983,-0.913822,-7.50317,-8.75724,-4.75594,-6.75631,-4.49163,22.4195,8.36737,6.32621,-1.93264,-2.58202,-5.0291,-3.84509,-5.67128,-210.816,-825.696,-574.376,20020,-8400,-5040
-3.31072,15.824,3.90587,28.6141,20.187,5.9556,29.6283,12.0572,-5.3334,-5.23756,-8.14281,6.77479,-2.16942,11.8041,38.6251,23.008,-206.912,-825.208,-572.424,21840,-7840,-4900
-27.4123,-14.8366,-3.03153,2.70927,5.46855,1.99553,9.99381,1.83078,-39.0572,-16.7315,-11.0581,-9.95267,-4.99941,3.27749,9.08285,8.26547,-207.888,-830.088,-584.136,22960,-7560,-5040
3.7825,1.50804,3.10863,3.20091,4.07222,-0.991273,5.65173,-0.101477,4.24921,3.04924,1.51894,-0.639083,-2.68307,-1.18782,4.56983,5.2739,-207.4,-819.84,-576.328,25340,-7140,-4900
21.3255,14.879,3.81749,13.7074,3.64274,-0.713726,10.5891,0.941939,28.8033,10.8621,6.9754,9.40865,-2.2407,-0.210955,12.6344,7.43937,-208.864,-815.448,-584.624,25760,-6860,-5040
7.86357,9.74384,3.31592,18.2794,6.3555,0.738546,13.0548,4.53751,10.6305,5.83543,2.48703,6.602,-3.69488,-0.36737,14.9232,9.74861,-208.864,-810.568,-584.136,26040,-5180,-5740
7.78676,10.6904,5.74775,16.013,5.33219,3.11487,2.94201,-0.38127,13.0813,7.52853,3.01428,9.24971,0.0984748,1.80132,1.57128,2.23125,-208.864,-813.984,-586.576,26180,-4620,-5460
12.8345,12.7267,10.7678,10.7422,7.61657,6.52175,-0.499728,-2.47192,19.5968,12.0171,4.71586,14.1019,6.23158,7.61947,-7.03949,-1.75697,-205.936,-810.08,-589.992,26040,-4340,-5600
-4.23951,-6.28055,3.47398,-11.6507,-3.63622,0.817407,-13.8761,-5.16116,-5.60847,1.83594,-0.607327,-1.44055,3.78414,0.263095,-24.594,-11.6736,-205.936,-813.008,-599.264,24080,-3500,-5460
-32.0449,-13.9145,-3.83371,-2.36379,4.43617,4.18006,3.93426,5.226,-38.1784,-20.314,-14.5704,-7.88843,-0.810688,5.10039,-1.12824,-0.464699,-200.568,-806.664,-605.608,21840,-2100,-5320
-27.5265,-5.97195,-5.37033,13.5405,13.963,3.76798,26.1681,13.165,-27.5437,-20.0968,-12.7415,-4.5411,-3.66026,6.04049,30.9797,11.5884,-198.616,-796.904,-599.752,19880,-1680,-5600
-12.0989,-14.7915,-8.32659,-10.4244,-3.7473,-4.56326,3.57809,3.29718,-12.8801,-3.85965,-0.320502,-13.137,-4.26346,-7.6265,3.02626,-3.12938,-204.472,-791.536,-593.408,21700,-2520,-5320
-14.8322,-26.7285,-15.8568,-39.9038,-23.5723,-9.56962,-25.0795,-5.92672,-15.5752,-4.82906,-1.62784,-23.9661,-5.31864,-18.033,-38.1344,-17.7903,-201.056,-793.976,-597.312,21980,-3080,-5040
4.17846,-0.476556,-4.53983,-22.1667,-8.86328,-3.84395,-12.7462,0.825231,9.67763,3.49288,0.762202,-5.04878,1.09022,-7.20796,-20.9385,-7.58272,-200.08,-790.072,-595.848,21140,-2800,-5180
30.0202,28.5617,5.56944,9.70971,4.35407,-2.28195,2.52408,-4.54971,37.5801,15.507,12.6668,16.1936,6.64851,-0.379809,6.65466,-3.82762,-198.616,-782.752,-589.016,20580,-2520,-5180
17.7232,27.7598,11.0966,22.9393,16.2431,4.02973,14.5819,0.176422,14.7455,9.77859,7.81536,19.8626,8.68628,7.18266,18.458,9.18233,-198.128,-784.216,-586.088,21560,-2800,-5600
9.27769,11.3751,10.7157,15.4296,13.6839,9.42265,13.8699,-0.483374,3.23049,4.94753,4.03808,14.0013,11.216,12.4188,12.0456,12.2192,-198.128,-787.144,-590.968,22820,-3220,-5880
-18.5287,-17.8522,-7.53556,-7.24374,-7.40435,1.51257,-0.774853,-5.81475,-31.3299,-13.7839,-3.41647,-9.57032,2.75204,0.688594,-7.22677,2.70094,-194.224,-791.048,-594.872,21980,-2660,-6020
-60.421,-52.0117,-21.5447,-16.6044,-14.466,-2.13057,8.90757,6.61632,-83.6326,-37.0033,-18.3463,-34.3393,-8.50758,-5.17303,5.93022,11.9209,-192.76,-791.536,-597.8,18060,-140,-6440
-14.2887,-22.0914,-2.70213,-2.02975,-4.89153,1.0454,13.6762,5.65169,-19.799,-11.5398,-7.59301,-9.49525,-4.10891,3.55977,18.0918,10.8364,-192.76,-790.072,-605.608,14420,1820,-7140
46.7403,28.1018,18.3726,13.6207,8.71587,3.93769,9.44016,5.9879,63.6023,27.0372,11.7065,20.9577,4.71083,7.24028,17.8689,6.94291,-192.76,-776.896,-594.384,9660,4060,-7560
44.1689,24.275,13.1561,3.82666,1.33225,0.154766,-8.37158,-3.45178,59.2796,27.1075,13.3023,13.6173,2.87231,-0.739699,0.322533,-6.11855,-186.416,-776.408,-591.944,10080,3360,-7700
21.9592,16.0442,8.90871,6.76237,4.34183,2.54975,-2.83734,-1.32695,28.0465,13.3832,5.31789,8.0595,1.45234,1.61143,6.46208,0.984513,-193.248,-779.824,-586.576,13860,2520,-7980
-38.2994,-15.5124,-6.02727,-5.20331,-1.9109,2.89898,-9.10632,0.0560264,-51.7849,-24.0878,-17.9489,-11.8808,-5.31905,1.14345,-6.03685,-0.898396,-194.224,-772.016,-586.088,15260,1680,-7140
-49.6137,-52.8572,-20.8724,-41.9161,-27.5141,-6.06737,-31.5829,-7.09621,-70.2151,-29.4649,-16.2758,-34.1931,-11.1104,-13.2126,-34.812,-18.9227,-192.272,-763.72,-572.912,14840,1260,-6440
10.2853,-15.3578,-4.53942,-25.7296,-21.0079,-6.2987,-23.9361,-5.80277,16.8858,7.47705,4.34126,-11.4066,-4.00691,-12.0024,-17.0307,-16.9107,-193.248,-772.016,-569.984,16520,0,-6160
48.0291,38.7912,16.9519,17.2331,10.1912,2.37531,0.159576,-1.31363,67.9321,30.6354,13.8952,26.7272,6.11442,6.45741,12.2684,-3.23289,-194.224,-767.624,-569.008,15820,560,-6580
37.3989,35.703,12.6675,22.234,12.6062,2.69164,4.95636,-1.17664,51.4761,24.3667,12.1848,26.5116,5.15116,7.06617,11.8496,-2.74603,-196.176,-759.816,-566.568,15260,-700,-6020
11.9326,17.7942,6.29669,6.61502,5.31281,-1.90916,-11.2061,-6.629,14.097,11.2641,8.13528,14.7802,1.68188,-0.619091,-15.3307,-13.3417,-198.128,-766.16,-571.448,15120,-1120,-5320
7.25173,9.1226,3.57498,-2.85883,0.512882,-1.54643,-15.9959,-8.61617,7.11196,9.32784,11.1755,10.8284,3.58063,-0.28061,-27.1477,-15.0531,-198.616,-770.064,-569.496,13860,-700,-5040
8.14699,12.6112,1.3335,7.08153,4.36177,-0.75449,2.03793,0.89513,16.493,8.5267,8.56418,6.47936,3.15041,0.990436,1.2332,-2.61759,-202.032,-771.528,-569.984,14000,-700,-4200
7.09303,12.384,-3.54104,9.96023,2.02796,-3.72958,6.95802,1.1549,16.2681,3.6928,5.03528,2.8692,-0.700554,-1.6247,9.15265,0.381845,-199.592,-775.92,-574.864,14980,-980,-3360
-47.2007,-14.3923,-13.5411,17.6576,9.70433,1.52176,26.9889,14.047,-57.9287,-32.8871,-19.1046,-13.6791,-8.97765,3.38342,27.3352,19.7503,-198.616,-776.896,-587.552,13160,-840,-2940
-89.7417,-52.2527,-30.2541,-3.11011,-3.40988,-3.8214,18.7936,15.0996,-115.633,-58.4967,-34.4637,-40.9572,-18.3655,-5.48303,13.5175,15.8871,-194.712,-776.896,-590.968,11620,-1120,-2800
-61.6007,-46.0724,-23.6131,-15.8182,-11.4342,-5.41982,4.67657,6.81645,-77.7891,-39.9775,-21.3887,-32.6072,-11.5901,-8.2571,-3.43228,7.25674,-191.296,-765.672,-584.136,9800,0,-2940
-8.2352,-13.2196,-8.53094,-10.1237,-3.74025,-3.52969,2.78931,3.80705,-10.0071,-7.27857,-3.18201,-9.37556,-0.478062,-3.76831,-4.55206,8.94033,-191.784,-771.528,-599.752,10080,1260,-3500
28.635,14.476,0.477142,-6.22972,0.0269048,-3.03475,-4.55935,-1.10669,38.1821,14.8088,6.83999,6.78178,4.31272,-0.868639,-12.2124,7.54459,-190.808,-765.672,-586.576,11480,980,-2800
27.5235,31.7168,10.4103,23.651,19.9822,6.89416,17.1171,3.06636,38.2661,11.5867,4.98602,23.4053,9.18935,13.5891,17.443,24.5614,-194.712,-777.384,-590.48,12180,-840,-2240
23.1932,20.7922,12.7649,11.4188,10.2383,2.10921,0.951238,-5.51629,25.8718,14.2384,7.77173,18.2638,7.44396,6.07433,-3.13748,10.9067,-195.2,-779.824,-594.384,13160,-420,-2240
9.54959,-19.2025,0.744437,-35.0234,-26.0021,-9.40726,-34.071,-21.8114,4.24365,6.29457,7.65597,-11.5044,-1.7807,-14.0127,-48.312,-26.1222,-196.176,-777.872,-591.456,13300,700,-2380
13.5142,-7.34173,4.19597,-18.5352,-13.2879,-4.55458,-20.1351,-14.5813,14.9011,6.38022,1.90914,-4.90559,-1.07445,-7.63861,-24.2515,-25.0214,-198.128,-789.096,-588.04,14000,1120,-2380
31.7313,24.3094,15.3887,15.2969,11.8886,4.60924,10.7024,0.22246,47.0476,21.2614,5.93962,18.4702,6.2355,6.42564,18.5331,1.73674,-203.008,-792.024,-593.408,13580,1400,-2520
30.7567,24.0202,17.383,14.1122,13.3883,6.07944,12.2731,2.04624,41.7897,22.8519,9.1274,20.0152,8.02642,9.20805,17.356,4.43235,-194.224,-774.944,-590.48,13440,-840,-1400
19.0155,11.3381,12.7989,-1.27588,5.81875,6.39911,-1.89674,-0.685673,23.029,15.0834,5.81659,12.8506,5.84457,7.33585,-1.70384,-4.5765,-191.784,-786.656,-600.728,13860,-1400,-420
6.83325,5.02176,1.94781,-0.00724454,-0.064724,4.48173,-3.93701,-1.56955,8.44542,4.72805,1.30574,4.70906,1.36913,3.72058,0.865495,-5.72606,-200.568,-784.216,-593.896,14840,840,-560
-21.4279,-18.6944,-9.93504,-9.28572,-8.32772,-2.47298,-1.7504,3.3948,-33.842,-12.5082,-6.10069,-18.5364,-7.19173,-6.83097,5.50049,-9.62958,-199.592,-775.92,-593.408,12320,980,140
-42.4541,-43.0293,-21.3975,-25.9075,-22.4027,-8.06391,-8.6153,1.83919,-62.4759,-28.09,-11.1271,-36.0165,-13.1793,-15.8619,-3.84962,-18.0321,-202.52,-764.696,-586.576,12460,280,980
-44.8597,-31.2081,-12.8975,-2.5942,-3.18963,4.84647,9.1419,11.6419,-64.6077,-29.7557,-14.5924,-20.1519,-5.3286,0.487436,10.6996,4.85068,-209.352,-773.968,-591.944,13580,-980,1400
-7.69682,-4.62487,1.90155,7.44696,3.63484,6.77391,3.49334,5.37319,-13.0355,-1.87447,-0.701335,-0.337526,3.95089,4.85313,6.22247,6.25179,-205.448,-764.696,-587.064,10920,-2660,2520
42.3941,51.6317,22.4668,48.2137,29.2942,10.73,23.1719,4.96518,59.9685,25.3006,12.2322,36.2138,12.745,14.6085,40.9821,14.7337,-200.568,-771.528,-590.48,11060,-4480,3220
22.8758,40.2663,18.5751,42.8376,29.1097,10.4763,27.846,10.5929,33.5123,12.0235,4.40443,28.1317,8.41488,14.0763,40.3572,20.4314,-202.032,-766.648,-592.92,9100,-1680,2100
3.60837,1.45322,-0.890169,-1.03351,-4.07052,-2.09986,-0.269128,1.35377,6.6275,1.99902,2.07769,-1.88028,-1.90006,-3.59508,-1.97694,3.50157,-197.64,-772.504,-596.336,9520,-1680,1960
9.88743,2.82969,0.0960712,-5.63118,-8.20758,-2.97803,-8.48528,-5.68866,13.7601,7.61903,7.7398,1.52506,1.26128,-3.44236,-13.2605,-3.72633,-199.104,-746.152,-571.448,9380,-2520,1540
7.28387,-3.33028,0.907313,-13.7544,-10.9433,-3.04028,-14.573,-3.49527,7.20654,9.28203,7.55738,-0.428772,2.15189,-4.89918,-22.8206,-5.94069,-194.712,-768.6,-577.304,7280,-1680,980
5.02428,-12.008,-5.35703,-20.9811,-19.1382,-4.84281,-20.1274,-6.66405,2.30979,6.42959,7.50072,-7.67237,0.211123,-8.27724,-27.635,-12.2052,-195.2,-766.16,-570.96,7000,-700,0
-2.58386,-8.66645,-8.49438,-10.9072,-8.6627,-3.12069,-9.87962,-3.49901,-5.47459,0.811078,2.31515,-6.59969,-1.39115,-3.68401,-14.2515,-5.49635,-196.176,-769.576,-570.472,5880,-1120,-700
-12.2159,1.2237,-0.819704,15.5146,15.2986,6.79128,21.8294,9.64167,-16.0275,-6.27395,-5.67502,5.33779,2.62053,12.4615,21.3355,18.3119,-195.688,-778.36,-567.544,4900,-1960,-980
-0.172003,6.26289,7.45783,7.13471,12.1528,3.23956,8.75535,5.57836,-1.0018,3.87743,2.27084,11.1389,6.48506,9.29222,4.89455,11.5282,-199.592,-782.752,-595.36,3780,-1820,-1680
4.64698,10.7033,10.3666,2.9475,11.1337,1.11008,1.16753,1.04954,4.83847,6.35742,2.9608,12.9213,4.93733,7.65338,-4.64685,9.13636,-198.616,-772.992,-570.472,5320,-2240,-840
-16.0685,-8.67288,0.999994,-1.14135,3.39452,-0.874207,2.36175,-2.28363,-20.1693,-8.33959,-3.20217,-3.69269,-0.572591,3.53046,3.39648,8.85551,-198.128,-774.944,-581.696,3500,-1820,-560
-6.39448,-4.09132,-3.49814,-2.43213,-2.40244,-3.77306,3.16943,0.986376,1.04866,-8.33614,-3.92701,-6.85058,-4.11033,-2.12545,7.61075,6.77041,-198.128,-772.016,-581.696,3500,-140,-840
-0.936448,6.09229,-4.22079,2.7987,0.336985,-4.90465,7.62747,4.12046,8.23542,-6.92783,-7.39106,-2.63646,-6.38537,-2.52508,11.9731,5.50726,-197.152,-775.432,-578.768,3360,-280,-560
-14.2499,-10.0889,-13.0799,-7.89691,-7.36266,-7.32937,1.15779,0.0972283,-9.56672,-14.1216,-11.1283,-12.61,-10.8148,-7.6764,3.36845,-3.93974,-200.568,-774.456,-574.376,2520,420,-420
-21.6366,-17.9368,-9.9678,-19.57,-11.4825,-6.76061,-17.5156,-5.9762,-24.5537,-13.4806,-12.8348,-16.2339,-9.5613,-10.4293,-23.3396,-17.0725,-201.056,-777.872,-574.864,2240,980,-280
-17.4032,-30.7423,-13.293,-37.9132,-26.5891,-8.33777,-35.8702,-12.6387,-23.318,-11.9489,-7.07881,-22.9981,-8.76099,-16.3125,-46.6471,-31.4321,-202.032,-781.776,-575.84,2240,980,-420
6.62116,0.350068,-2.15423,-3.99909,-5.5286,-1.96211,-7.8656,-3.35583,6.08399,1.93452,0.89921,-3.10297,-3.793,-6.32111,-7.3377,-14.5599,-202.52,-780.8,-571.936,2100,560,-280
-15.6526,-19.6989,-11.5055,-14.1892,-14.6418,-6.10454,-10.7162,-7.66709,-23.8097,-13.2556,-6.21956,-17.9386,-8.0627,-10.3108,-12.3079,-15.8879,-200.08,-780.312,-572.424,2100,840,-280
-14.3942,-22.1954,-13.2905,-23.0452,-20.962,-7.40724,-19.8866,-11.7593,-17.7347,-14.9429,-7.88831,-17.8876,-7.7868,-11.088,-25.4932,-18.8369,-203.496,-778.848,-578.28,2800,980,0
-9.71818,-6.17182,-8.01364,-6.48684,-7.88742,-4.6746,-10.5478,-8.43749,-12.7665,-10.0647,-6.61072,-7.05628,-5.14109,-6.55947,-12.6641,-8.51264,-202.52,-778.848,-579.256,3220,140,420
-15.0134,-15.3964,-12.1782,-9.19022,-10.0104,-3.95071,-9.96823,-11.7963,-21.5337,-13.6604,-4.87582,-11.8233,-3.85297,-6.84568,-11.3569,-9.59275,-200.568,-776.896,-578.28,3360,-140,840
23.5905,18.6416,2.65035,11.22,6.30817,1.21043,4.58395,-5.98681,32.7238,11.8361,8.98759,12.0912,5.01376,0.180337,7.85135,0.825655,-203.984,-775.92,-578.28,3220,140,700
48.1227,41.8668,17.5816,27.5953,21.3497,8.13365,16.9949,0.534679,62.8899,27.8868,15.9229,32.7304,12.8521,11.6005,22.5609,11.0149,-204.96,-780.312,-574.376,3220,140,560
36.78,38.8893,20.4584,32.3715,27.3004,11.4608,21.8859,7.584,44.7673,24.942,13.8177,32.5139,14.0737,15.1828,28.5993,16.2392,-201.544,-781.288,-572.912,2800,-140,140
-2.19147,12.8685,6.68222,18.7802,17.2499,8.27585,16.755,9.69781,-4.13698,2.52109,1.72029,10.937,7.04106,8.69997,21.5744,14.7499,-199.592,-781.776,-580.72,2240,-560,0
-14.3291,-9.76913,-2.88712,-2.46734,1.42283,4.91271,3.94482,6.00912,-20.532,-6.00626,-0.34971,-5.46805,2.108,1.3583,5.38024,7.59317,-201.544,-780.312,-571.448,2100,-980,-420
18.7694,17.6006,11.4708,10.266,14.9717,10.2384,11.3022,14.1202,22.7937,14.9692,7.55721,15.6512,8.1486,9.19452,12.1934,14.7341,-198.128,-782.752,-572.424,1540,-980,-700
22.2681,25.1023,17.688,21.4168,22.259,11.0448,18.7409,17.5366,26.8138,20.19,7.61313,21.9597,8.84887,15.3523,21.8509,18.6579,-200.568,-782.264,-571.936,1400,-840,-1400
-4.53371,-1.72297,4.60867,5.91223,4.24969,2.78521,6.10553,9.97256,-8.48491,4.31853,2.51619,0.672505,0.894695,5.33565,10.5911,10.1508,-199.104,-782.752,-576.328,840,-1540,-1540
-23.9069,-5.17253,1.33597,20.5861,12.1785,3.04869,18.1835,12.4296,-34.7828,-8.31031,-4.6286,-3.73036,-2.2451,6.67071,31.3775,18.9939,-198.616,-784.704,-576.816,0,-2100,-1820
-17.8152,-15.3659,-4.18255,5.67239,-2.49305,-0.0266777,7.0527,3.84236,-25.9032,-7.70789,-0.934789,-11.0003,-2.72967,1.69151,14.7356,8.17106,-196.176,-786.168,-578.768,-420,-2800,-1680
14.4947,11.8954,8.51533,7.85104,0.65582,0.867669,3.04035,4.10693,18.3887,12.0747,5.63,5.1997,2.72405,2.94376,2.93218,3.09256,-195.2,-789.096,-580.72,-280,-2660,-1820
21.1351,3.35319,8.04709,-11.0651,-8.48374,-1.95339,-8.75046,-1.32753,24.3697,15.5008,8.18148,1.33839,2.84969,-1.22273,-18.7436,-5.4637,-200.08,-785.68,-582.672,0,-2800,-1820
20.5052,-6.0374,5.58097,-24.1606,-13.711,-4.25229,-13.9604,-4.24224,20.2624,14.8209,10.0323,-2.71461,2.34709,-5.03807,-28.6884,-10.1582,-199.104,-787.632,-580.232,700,-3080,-1680
19.5795,8.54374,9.0134,4.38413,4.30195,0.673819,8.97906,1.45805,21.8429,13.8544,7.78351,8.75055,3.5564,4.60418,5.9049,0.150038,-200.08,-791.048,-581.696,1400,-2940,-1540
19.6474,11.2585,11.3808,8.1215,6.99374,2.91748,5.27599,-2.58628,22.7804,11.8535,6.85768,13.975,8.99135,7.73542,2.70736,-5.35376,-197.152,-790.072,-581.696,1960,-2940,-1540
-12.4778,-8.09385,2.83403,-1.90228,1.81437,1.51212,3.76912,-1.68373,-16.3216,-10.9788,-6.65189,0.670539,2.71137,3.33246,-4.02695,-5.6537,-198.128,-786.656,-583.16,2660,-2800,-1400
-42.2266,-26.6723,-10.9399,-13.1821,-3.89577,-1.90575,3.59851,0.710483,-47.5883,-29.8883,-20.1008,-15.3466,-9.27546,-1.74293,-6.37165,-1.09476,-195.2,-785.192,-582.672,2940,-2800,-1120
-38.6924,-35.0689,-23.5294,-29.7251,-24.3628,-13.5981,-19.3775,-11.3737,-38.3684,-27.6204,-15.9909,-28.7769,-16.2745,-17.7375,-26.7549,-16.1261,-196.176,-785.192,-582.184,3080,-2380,-980
-14.0433,-16.8495,-17.3157,-19.0204,-20.8301,-13.3461,-23.1403,-15.0092,-9.18506,-12.0425,-7.37152,-16.3581,-10.4695,-16.6345,-22.8147,-18.3618,-197.152,-785.192,-584.136,3360,-1960,-980
-9.77869,-11.8431,-17.2682,-12.4638,-17.1791,-9.35146,-18.9003,-13.5924,-5.96549,-11.4092,-5.0066,-12.0584,-7.77988,-13.243,-14.6207,-15.064,-200.08,-782.264,-585.112,4480,-1540,-840
-21.7138,-14.9554,-18.5992,-12.4993,-14.5407,-7.84664,-15.7395,-7.89261,-21.7189,-16.3608,-8.8092,-15.3809,-7.89454,-10.7336,-13.5239,-9.18855,-195.2,-783.24,-584.136,5600,-2240,-280
-13.3886,-6.36696,-9.65,-4.73683,-8.02344,-2.52097,-12.2309,-7.35069,-15.8809,-10.7372,-5.65516,-6.34027,-2.53792,-3.21197,-11.0093,-5.08835,-202.52,-785.68,-589.504,6160,-1960,0
-3.72933,-3.51816,-3.941,-2.84947,-7.08186,0.416156,-12.7697,-9.78224,-10.3871,-4.7937,-1.98075,-1.001,0.108874,-1.32221,-10.2506,-2.89797,-197.152,-780.8,-585.112,8260,-1960,700
14.4579,22.5753,11.8273,20.89,18.3458,7.88386,12.9149,5.73495,11.5942,11.162,1.03605,15.9517,5.61675,8.62558,22.7067,19.3216,-197.152,-781.288,-587.064,9940,-2100,1400
28.8405,31.1418,16.2264,23.9266,18.6946,8.60916,13.8483,3.86904,32.5026,18.441,10.1612,20.9838,8.93219,9.195,24.1209,14.0382,-198.128,-779.336,-587.064,10640,-1820,1960
24.3154,30.0199,17.6451,23.1861,21.4837,9.49523,13.8757,6.81072,25.7568,13.1187,7.33131,22.814,10.1547,12.8919,18.5262,11.3137,-198.616,-779.336,-585.6,12320,-1680,2520
-4.72784,-5.24622,-3.68009,-7.32457,-1.32824,-0.706039,-3.51995,3.5051,-8.10324,-8.80185,-3.44743,-6.28453,-3.30275,-2.17289,-6.83506,-0.902327,-197.64,-780.312,-589.504,13020,-1540,2940
-5.20271,-8.99631,-10.4184,-13.7183,-10.4469,-6.38963,-12.2849,0.0791704,-2.04728,-9.49652,-2.21429,-12.966,-7.92662,-9.68136,-14.3431,-7.6414,-197.64,-775.432,-588.04,14560,-1540,3920
12.9467,7.84545,2.84315,3.73615,2.85461,-0.386178,2.10252,5.0263,18.2525,6.04969,4.92242,1.11455,-1.51073,0.0468613,6.89593,0.163392,-194.224,-778.848,-588.04,15260,-1260,4480
7.99056,4.05007,2.7774,2.79313,2.04531,1.69891,3.89186,3.68415,11.8644,4.72242,2.48795,0.188354,-1.37234,2.53445,8.61919,-0.607229,-197.64,-778.36,-588.04,15400,-1400,5180
-6.69381,-6.39246,-4.57906,-2.77398,-1.62935,-3.25109,3.54973,2.29227,-5.4668,-1.28591,-2.49639,-8.38812,-5.58802,-3.21024,9.51143,-2.7429,-197.64,-775.432,-581.696,15260,-1120,5600
-9.83627,-9.34739,-7.46919,-4.4653,-3.46203,-5.13489,1.22735,-1.10165,-8.86918,-3.91453,-3.01296,-8.34351,-6.46513,-6.67877,4.61503,-5.39873,-196.664,-778.36,-584.624,15400,-1120,5600
-6.0105,-7.22062,-5.69828,-9.93224,-5.44587,-3.04691,-6.18621,-3.56913,-4.62147,-1.89999,-0.373399,-4.89647,-1.54083,-6.6083,-11.7854,-9.46377,-200.08,-775.92,-581.696,14980,-1680,6020
-9.53921,-13.0764,-4.21026,-19.9907,-9.72744,-0.972428,-12.7784,-5.95952,-13.9717,-0.311668,3.06854,-7.47144,2.72826,-5.72627,-26.1041,-13.0798,-201.544,-779.336,-578.28,14000,-2380,6020
3.43242,6.85947,7.48287,4.22772,7.48453,9.97463,10.3595,1.92117,3.32242,7.87201,7.34501,10.5537,9.53386,9.44299,2.84336,4.61358,-199.104,-777.872,-580.232,13300,-2660,5880
11.7152,21.6582,17.9846,22.524,23.2174,15.7416,27.009,12.3717,11.6378,16.5974,8.33941,24.0662,14.5742,17.6995,26.7978,20.7526,-199.104,-774.944,-575.352,12040,-2800,5600
0.448963,4.46598,6.69499,8.58418,9.95122,8.5003,16.161,10.0912,-2.4415,6.18265,1.74097,8.99631,6.99106,8.93289,16.6545,16.2237,-199.104,-779.336,-576.816,11340,-3220,5320
-5.69824,-6.34594,-3.36312,-1.9878,-1.45105,0.610525,7.88626,9.16707,-6.94591,-2.91651,-0.894074,-4.23394,1.17745,0.569079,8.23479,12.0188,-200.08,-780.312,-575.84,10220,-3360,4760
13.998,12.0508,8.2397,12.259,7.93164,2.56473,11.2806,8.67575,16.1564,9.96081,5.42438,9.42926,7.3024,8.07461,10.986,13.256,-198.616,-780.8,-575.352,8400,-3640,4060
17.8002,18.5285,11.8773,18.1337,8.97714,3.82615,8.73193,3.73009,21.5152,11.2452,5.32749,13.0523,6.82223,8.87692,7.82386,7.05522,-197.152,-781.288,-575.84,7560,-4200,3500
-9.96674,-8.32926,-1.55949,1.48813,-4.34062,-1.25366,-0.491157,-0.282277,-12.3639,-9.07837,-7.04305,-4.86534,-2.55238,0.132055,-5.24046,-1.39552,-196.176,-780.8,-577.792,6720,-4760,2940
1.48919,-9.6748,1.26789,-5.8904,-6.25991,-3.68155,-8.87236,-5.04445,-1.76242,-2.14071,-2.88894,-2.36059,-1.95916,-3.47037,-14.6636,-6.11465,-195.2,-782.264,-582.184,6020,-5320,2520
11.3158,-2.14208,5.02219,-4.59743,-4.97452,-3.77328,-13.0797,-8.79968,8.85227,3.83364,2.33473,2.62629,-0.901102,-3.10474,-16.6896,-11.1604,-193.736,-784.216,-577.304,5600,-6160,1960
2.47462,-5.04934,1.37019,-2.49257,-1.98521,-4.79971,-7.28242,-6.27957,-1.70913,-0.373031,-0.133693,-2.46596,-4.34438,-2.25558,-7.04237,-8.39097,-194.224,-787.632,-578.768,5180,-7140,1540
-4.52387,-8.4656,-7.64365,-2.48788,-5.03751,-7.36686,-2.49269,-7.46589,-7.42771,-7.25906,-1.67213,-6.98642,-6.53298,-4.94376,0.791712,-7.09781,-190.32,-791.536,-578.768,5320,-7840,1260
-3.16086,-3.55863,-8.54294,-2.20832,-2.87193,-6.63292,-1.88281,-3.93901,-5.39026,-4.44027,-3.43203,-4.70911,-6.27659,-5.22909,-0.162186,-4.71627,-187.88,-793,-584.136,5740,-8680,1400
-8.28057,-7.59935,-11.1399,-7.56116,-6.33179,-6.21985,-8.41741,-5.42008,-8.74547,-8.4078,-6.25145,-7.96669,-8.79722,-7.22421,-7.28365,-5.89485,-187.88,-790.56,-582.184,6440,-9380,1260
-16.1914,-13.351,-16.236,-14.0282,-10.7616,-7.8057,-9.64009,-1.7002,-15.5502,-12.1786,-8.39805,-15.2491,-11.6693,-11.8346,-8.80477,-4.78866,-191.296,-794.952,-580.232,7420,-10220,1820
-5.76701,-2.89084,-7.37563,-7.60831,-7.06337,-4.0688,-7.38525,-2.2857,-2.39621,-3.33445,-1.64069,-7.35358,-5.72204,-8.27097,-4.57575,-5.14116,-188.368,-793,-579.256,8120,-10780,2380
12.0815,17.8413,9.59313,11.6382,5.92739,5.47185,-0.557154,-3.24254,19.5331,7.88702,3.51654,10.0203,5.03097,5.65587,5.27357,-1.49232,-188.856,-797.392,-575.84,8960,-11060,3080
16.1429,24.5649,18.0204,21.3571,17.9828,12.6781,12.2817,7.19207,22.4863,14.239,4.58767,16.7274,11.9921,13.304,15.1512,13.8229,-189.832,-795.928,-575.84,9660,-11200,3640
2.68105,0.742655,7.12332,0.634718,2.35214,6.42476,-0.0413425,0.379984,1.74836,5.13704,3.27248,1.35313,6.86276,4.37165,-1.40086,5.53726,-190.808,-799.832,-570.472,9940,-11340,4340
-18.8289,-12.4197,-5.85542,-9.93898,-6.58267,0.366224,-6.27393,0.851465,-21.6319,-11.0088,-5.6723,-11.7914,-2.43421,-2.63781,-6.10052,-1.74228,-191.784,-804.224,-569.984,10220,-11480,5040
-17.8288,-5.18738,-6.69088,-0.544378,-1.85702,-0.597598,-1.34877,2.5765,-17.1362,-12.1551,-7.78803,-6.31554,-4.2951,-0.205836,3.88963,-0.60055,-192.76,-805.688,-566.08,10220,-10640,5600
-3.46334,1.48631,-2.2467,-2.5078,-1.19469,-1.38119,-2.64418,-1.36709,-2.36783,-1.72156,0.619488,0.490277,-1.1174,-0.754544,3.08651,-3.46146,-195.688,-803.736,-568.032,10220,-10500,6020
-4.23122,-3.53927,-3.10284,-9.3527,-2.75258,-1.74096,-2.18394,-1.78873,-4.0532,-2.05918,1.7401,-0.928014,0.00971518,-1.39771,-1.33447,-4.95901,-195.2,-799.832,-569.008,10500,-11060,6720
-2.13965,-5.60302,-1.15702,-11.4438,-2.416,-2.49243,-5.3476,-3.29891,-2.59893,-0.456744,2.33329,-0.927421,0.449477,-1.08302,-7.27335,-4.86534,-194.712,-800.808,-568.52,10780,-11060,7280
-0.553814,-1.49393,-0.429991,-4.74411,1.47997,-0.679314,-0.644618,-0.383828,0.711284,0.38636,2.94661,1.28804,1.03412,-0.126716,-0.905802,3.28963,-201.056,-801.296,-560.712,10920,-10780,7840
-3.25386,-6.39282,-4.09666,-6.09171,-2.7616,-3.18653,-4.1097,-2.27279,-3.54159,-1.55725,0.593682,-3.63787,-1.47199,-4.00781,-2.515,2.60591,-200.568,-800.808,-562.664,11060,-11060,8540
-6.43815,-11.068,-7.48005,-6.71996,-8.33926,-3.82665,-5.82689,-3.87784,-6.39438,-6.54791,-2.79742,-7.60297,-2.47511,-5.2255,-3.11514,-1.8256,-203.496,-803.248,-559.736,10500,-11200,8960
6.6692,4.16998,0.812827,6.70978,3.14143,-0.271195,5.56904,5.40607,7.7185,1.22874,-0.0214224,3.96649,2.3057,1.20608,7.69533,4.3993,-203.984,-800.808,-558.76,9940,-10920,9100
17.3902,11.3568,7.93667,12.1514,5.91209,1.74784,8.10988,4.13221,20.5913,9.15788,5.87238,10.6716,5.62473,5.85937,8.99742,3.76037,-207.888,-797.88,-553.392,9380,-10360,9380
17.4345,15.7514,13.7936,19.9113,12.0074,6.47534,14.6218,6.37001,20.1277,11.981,6.85347,14.5599,7.37644,7.59054,15.2026,8.45835,-207.888,-800.32,-555.832,8680,-9240,9520
7.59298,9.17764,10.9778,14.6262,7.90725,6.1342,12.1425,4.72649,5.53627,5.68481,3.4218,9.84857,4.47694,6.06472,11.4385,5.19385,-213.256,-799.832,-549.976,8260,-8260,9520
-0.0160595,-2.7389,0.577229,-3.53137,-7.49649,0.822979,-5.28133,-4.17944,-4.81653,-1.07756,1.03122,-1.10363,-0.116381,-1.72728,-11.4867,-7.80896,-217.16,-801.784,-551.44,7560,-7280,9520
-1.5341,-9.16255,-3.00154,-12.9455,-12.4905,-1.39267,-10.0584,-3.18958,-7.7425,0.404822,0.648918,-7.90167,-1.17843,-6.40054,-21.4873,-7.41511,-217.648,-798.856,-551.44,7140,-6160,9520
-6.74887,-16.7179,-7.85625,-14.2475,-12.3607,-1.46971,-2.81063,1.58328,-12.2571,-3.83093,-3.98543,-14.709,-3.79645,-5.12717,-16.1793,-1.61038,-223.992,-798.856,-553.88,6720,-5040,9520
-5.15584,-13.4209,-8.3568,-9.02131,-8.19554,-1.13565,-1.04231,-0.0806843,-9.58925,-4.83584,-3.96042,-10.1698,-3.99816,-3.02053,-10.7255,-4.08288,-226.432,-796.904,-555.832,6580,-3640,9380
2.3085,4.21438,1.05409,7.36833,6.89374,0.871261,7.09613,1.12107,2.32277,1.22255,-3.46992,3.35468,-0.133512,3.72558,3.98022,-0.332706,-236.192,-793.976,-557.296,6300,-2240,9660
11.7414,21.2217,7.66442,20.9284,17.0836,5.83908,17.5445,3.40513,14.5248,2.83222,-1.59684,14.1649,2.63371,9.70628,18.3984,8.54573,-236.68,-793.976,-559.736,5320,-1400,9240
12.5579,23.3704,6.12023,21.2391,17.6762,3.82933,14.6383,5.29621,15.743,4.89602,0.834198,13.8839,2.02833,7.84603,18.3256,8.4674,-240.584,-792.512,-560.712,4760,-280,9520
-1.52961,5.25724,-5.81457,6.01189,5.05584,-2.39149,3.69819,2.49081,-0.229344,-1.25947,0.0892995,0.124917,-3.27844,-1.5553,8.70525,3.24869,-244,-791.048,-564.128,4200,0,9380
-0.592588,3.38349,-1.54413,0.649892,4.61324,-0.689269,-0.00295523,0.629718,-0.542238,3.98858,4.33347,2.0205,-0.744601,-0.919368,3.92852,3.72585,-244.488,-788.608,-567.056,3780,560,9100
