0.646415,4.096,-0.279547,4.05054,1.89243,-4.1025,3.73342,-2.9292,4.3123,0.436881,0.315802,0.971388,0.330684,-1.38766,2.83269,0.592448,130.296,-692.472,-692.472,-28000,4060,-7980
7.00418,4.88874,3.33576,3.20949,1.68997,-3.70854,1.56639,-3.0327,7.02497,8.38713,7.51547,2.31278,3.17793,-2.17095,3.64717,-0.702168,130.296,-694.424,-693.448,-28140,3500,-8400
9.5073,2.69676,6.73382,-0.065098,-0.309842,-1.79225,-2.71283,-3.50092,6.05246,12.8604,10.4399,3.17045,6.85497,-0.894803,0.0733781,-1.70122,134.688,-695.888,-691.984,-28420,2940,-9660
7.08028,3.92594,7.21547,2.69815,2.26022,-0.571878,1.30652,-0.955603,1.94706,11.6939,8.75767,4.46752,7.69144,-0.354855,3.99746,-0.0523109,131.272,-696.376,-693.448,-30660,2520,-10780
0.409247,4.81688,2.81523,8.85735,5.00412,2.62916,9.51803,4.97876,2.32736,2.37405,0.489841,3.0364,1.88008,2.82421,14.581,7.58638,137.128,-693.448,-694.424,-32340,1260,-11900
-6.21815,1.42852,-6.67815,5.26208,0.883181,2.2889,7.7889,6.36288,-3.49826,-8.86279,-10.5484,-3.28592,-7.02154,-1.14393,6.23228,7.04749,137.128,-691.496,-689.056,-33320,560,-12600
-13.1505,-14.8476,-12.0989,-12.0249,-10.1896,-0.777387,-9.17958,3.24459,-12.4305,-15.3851,-14.6032,-13.23,-10.9502,-6.71129,-12.8243,-1.83464,135.664,-691.496,-685.64,-34160,140,-13580
-13.0809,-18.7461,-11.4251,-19.6783,-13.4608,-1.72616,-16.1942,-1.06646,-15.2156,-15.8262,-17.3239,-13.3122,-11.1058,-6.70145,-27.2977,-6.45831,139.08,-692.472,-683.688,-34440,-560,-13860
-8.1227,-15.5638,-6.19105,-20.3206,-12.5038,0.095265,-20.7529,-9.10619,-13.1754,-8.00517,-8.01715,-8.43575,-4.62416,-4.64892,-31.6423,-12.9577,141.52,-696.864,-684.176,-35140,-1260,-14280
2.59493,-1.41348,0.478013,-3.49586,-1.65382,1.44587,-6.39971,-6.77735,-1.08446,1.78558,1.27348,2.31123,0.519665,-0.250819,-8.3745,-6.59775,137.616,-701.744,-691.496,-38640,-5180,-15120
0.416779,3.50705,-0.300574,8.24878,4.36105,0.308349,8.64849,-1.33232,-1.97989,1.77837,3.95953,3.12234,0.668753,0.377524,13.7548,0.99974,130.784,-684.664,-688.08,-45500,-7420,-17640
-12.3577,-11.1263,-10.4715,-4.15276,-6.48602,-4.92036,2.37651,-3.0674,-16.8348,-8.06728,-1.65125,-10.9229,-5.4915,-8.01061,7.84933,-2.49344,158.112,-693.936,-686.128,-46060,-1820,-18480
-6.66271,-4.33576,-6.55216,-0.833943,-1.23311,-3.58644,5.09421,-0.328079,-7.36815,-7.52435,-4.81838,-5.56594,-5.7747,-2.438,7.75763,2.48053,151.768,-693.448,-687.104,-47880,-3360,-18900
5.4454,7.33816,7.20783,4.03618,6.52357,3.62124,2.70662,1.21782,4.42157,3.71048,3.185,7.38912,5.66779,6.82479,-1.07831,4.32776,145.912,-691.008,-688.568,-50260,-1680,-20020
10.9895,14.4518,15.9555,9.91451,12.8026,8.61369,0.486179,4.23184,12.3404,10.0594,10.2536,15.1266,13.3099,13.6622,-2.15071,5.90064,152.256,-691.008,-687.592,-51520,-3080,-19600
15.264,17.0519,17.4489,11.6799,13.3386,8.13404,0.0194604,0.13288,15.6348,15.7393,15.2482,16.2906,15.4132,12.2674,-2.44196,3.4621,157.136,-693.936,-690.52,-53060,-2940,-20020
5.59967,-8.22641,3.24955,-13.002,-7.97335,0.764599,-14.6826,-4.88475,3.82674,8.87625,10.4614,-3.07865,6.61926,-1.08655,-15.7617,-7.94552,154.696,-692.472,-691.984,-54740,-1960,-20020
0.852022,-10.3508,-6.22271,-13.3112,-11.7143,-1.77955,-9.65934,-1.47346,0.82279,-0.70909,-6.94365,-7.65248,-3.9829,-5.28138,-10.1035,-5.49384,154.208,-691.496,-691.008,-56280,-1820,-19880
0.117662,-4.49296,-4.91385,-6.4315,-3.49611,1.8689,-1.31058,4.44486,2.2606,-5.24854,-13.5586,-2.92373,-5.98093,0.207294,-2.93572,2.73295,155.672,-691.496,-693.448,-58660,-1680,-19740
7.35292,15.9147,5.90795,18.786,16.2956,7.41319,17.3349,11.2602,16.6236,-1.98885,-7.48255,12.2083,0.279336,13.1695,23.3537,14.7698,155.672,-694.424,-695.4,-61040,-1260,-19600
10.3785,27.6542,9.55045,33.67,24.7957,2.60568,25.0333,8.71339,18.381,2.7548,0.480886,18.2663,2.1478,12.9199,31.8814,15.5759,156.648,-693.936,-693.936,-62440,-1120,-19320
2.51026,8.83483,1.15077,11.1977,5.16321,-7.61178,5.02632,-0.413417,6.27612,1.60399,6.93941,3.84392,-2.60643,-4.07245,10.6701,0.60033,156.16,-694.424,-697.84,-64120,-1120,-18760
-8.23923,-7.8206,-6.8019,-4.58733,-6.86525,-9.48475,0.60684,-3.52959,-11.1759,-4.33359,2.79656,-7.86635,-6.30835,-12.2704,0.874625,-4.22809,154.696,-694.424,-699.304,-64960,-1260,-18200
-14.1027,-16.7158,-9.42951,-14.8038,-12.8021,-6.12372,-2.73445,-4.02888,-19.866,-5.65533,-0.595996,-14.1629,-5.85853,-12.6383,-2.65292,-6.78339,153.232,-694.424,-696.864,-65660,-1120,-17500
2.1794,-4.82119,-2.67186,-11.7285,-10.6295,-3.27743,-6.21516,-5.53658,-0.994066,5.13605,4.48038,-4.59189,-0.656955,-8.16003,-6.63017,-8.75338,152.256,-692.96,-699.304,-65380,-980,-16240
1.48233,-0.465919,-1.1034,-3.2028,-2.86191,-0.26526,0.737673,-0.508263,0.81312,2.58753,1.75408,-1.2364,0.898016,-1.25861,-1.39567,-2.26562,148.352,-693.936,-700.768,-65240,-840,-15540
-5.78475,-1.11316,-1.22487,4.07657,2.51394,1.66382,7.04481,3.32402,-3.10401,-3.40145,-1.45006,-1.6414,0.0843931,1.84546,8.94605,5.03966,142.496,-693.936,-700.768,-63000,-1540,-13300
2.78276,4.76924,4.19096,7.74645,5.02708,2.09856,4.5597,0.690474,6.71915,2.36681,1.61094,4.30325,2.6155,3.92266,8.44004,4.31562,175.192,-704.672,-718.824,-60480,-4340,-10780
11.996,14.5737,9.48967,15.2085,9.30434,2.57758,3.61334,-1.01435,13.8044,9.21161,5.10457,12.4093,5.85964,4.80642,9.11687,2.66744,148.84,-690.032,-719.312,-65240,0,-14560
10.0609,12.6094,9.33317,14.5745,9.93168,3.5325,3.08087,1.35618,11.6564,8.69576,6.14152,12.6211,6.59201,7.35574,9.14772,3.44141,161.528,-696.376,-724.192,-65520,840,-13860
-0.0100425,0.85795,1.30597,-2.67594,-1.08811,1.19641,-5.47293,-1.81932,-1.31447,1.86429,1.61843,2.23919,2.03274,1.29302,-12.3803,-2.77646,155.184,-701.256,-734.44,-62860,560,-13020
-7.0239,-4.43602,-4.31753,-4.84315,-2.82121,0.903554,-2.46668,0.596018,-6.34722,-5.64085,-4.52273,-4.4329,-2.84692,-0.723914,-8.31368,0.0499038,154.696,-699.792,-739.808,-57260,1120,-11340
-9.19122,-6.27973,-6.1396,-2.78779,-1.31636,0.0340668,3.20764,3.61992,-11.4366,-8.29925,-8.00718,-7.8056,-4.02739,-0.621293,1.0504,3.83056,156.16,-698.328,-744.688,-53340,700,-9940
-16.3716,-18.8448,-10.4007,-13.0313,-8.96197,-1.03548,-1.37928,3.59577,-21.3332,-13.1137,-7.99818,-16.6024,-5.14955,-3.50492,-0.268187,1.67481,153.232,-697.352,-747.616,-49560,980,-8960
-12.7618,-24.481,-12.1768,-24.8794,-17.8786,-3.56522,-13.1566,-2.13963,-20.7026,-10.6882,-6.21952,-19.5039,-5.03058,-6.68965,-17.6902,-8.22269,155.184,-694.424,-750.056,-45220,700,-7840
-5.32397,-18.1966,-8.83238,-23.5379,-16.9345,-4.40106,-17.2376,-5.22858,-13.5612,-4.79427,-2.7106,-14.0587,-3.62489,-8.58812,-26.929,-13.1616,147.376,-692.96,-753.96,-42280,840,-7560
-8.17925,-14.3522,-7.2377,-17.7684,-13.2731,-3.47612,-15.9319,-6.39972,-13.8416,-5.21488,-3.66619,-10.5748,-3.68358,-7.9176,-22.0769,-11.9223,145.912,-694.424,-756.4,-37520,840,-7000
-4.61369,-9.48593,-5.47954,-12.5658,-10.9072,-4.46985,-12.4284,-6.86621,-5.5173,-2.54873,-0.773493,-7.28528,-3.18217,-7.16793,-15.0805,-10.2813,147.864,-690.52,-755.912,-34160,700,-6720
3.02536,4.88071,0.605732,4.05738,2.39606,-2.37469,2.42679,-0.848838,6.95342,2.15343,-0.102905,2.98036,0.122083,-1.21304,2.6737,-1.12317,146.4,-689.544,-763.232,-29260,0,-6300
9.91715,17.9745,9.28873,17.1947,13.1746,0.940888,9.64636,3.98704,19.6172,6.81304,2.79574,13.6802,4.09789,7.31607,16.448,5.8977,142.984,-690.52,-764.208,-24640,-560,-5880
10.0665,21.8803,10.7621,20.2472,14.787,2.61808,10.607,3.26038,18.4509,6.88424,2.6132,15.3572,4.16737,7.46933,15.6753,7.47956,142.008,-688.08,-761.768,-21280,-560,-5740
7.72138,14.8414,9.09971,15.1006,11.8694,4.52256,9.72026,3.70701,14.7631,5.32639,2.88347,11.1456,2.87639,7.33434,12.7708,8.19526,140.056,-688.568,-763.232,-16800,-840,-5880
8.26929,8.66168,7.71214,9.95179,9.30491,5.00028,7.6284,1.1666,10.4674,5.70882,4.09131,8.21933,3.05486,5.21601,8.85792,6.14081,136.64,-683.688,-765.672,-13720,-980,-5880
4.76239,2.63009,3.47459,2.04893,2.29553,1.60174,-1.24241,-2.15035,4.66295,1.94783,2.46135,3.36389,0.991907,1.42446,-2.78962,0.759214,136.152,-683.2,-761.28,-10080,-1400,-6020
1.15955,5.64983,3.05055,7.05281,4.96926,2.40431,2.09734,1.60272,1.87056,-0.0632183,1.29295,5.31593,1.10929,4.21311,0.938732,2.61154,137.616,-685.64,-761.28,-6440,-980,-6020
4.67452,9.74409,4.84938,9.15276,8.67526,4.03766,2.21299,1.95669,2.45117,3.96925,1.55537,9.34405,3.16659,5.71492,-0.829329,2.05713,131.76,-681.248,-757.376,-4480,-840,-6300
4.01182,4.48076,3.47669,7.09273,7.42322,3.2251,1.89332,2.19786,1.8989,3.63562,2.14886,6.05993,2.53741,4.25512,4.85036,1.94724,130.784,-681.736,-755.424,-2100,-560,-6720
-0.347092,-7.8375,-2.36326,-10.6582,-6.05667,-2.10936,-7.67004,-2.95514,-4.64961,0.379684,1.58171,-3.76634,-0.033939,-2.94992,-9.50699,-6.1956,134.2,-677.832,-754.936,-980,-420,-6860
-0.981523,-13.5244,-5.72797,-20.2821,-15.4639,-3.99152,-12.4204,-5.05851,-4.24294,-1.30804,1.88272,-9.3049,-1.49612,-7.85994,-15.6407,-10.1305,133.224,-679.296,-749.568,420,-140,-7420
-2.50333,-6.44691,-4.94767,-5.04743,-5.51453,-2.02355,1.62896,-0.715738,-5.85964,-3.0233,-1.31216,-4.83893,-1.68185,-3.19184,3.56103,-0.570833,134.688,-677.344,-747.128,980,280,-7980
0.706687,3.2044,-0.691562,6.18078,3.69279,0.305314,10.4246,3.01948,-1.55107,0.443191,-1.0791,1.60294,0.514459,1.6255,14.2013,6.4073,134.688,-677.832,-738.832,980,560,-8260
7.68752,12.114,2.78459,12.281,7.87103,2.96392,12.2804,4.68969,10.6762,5.06363,0.699563,7.09557,1.50605,3.454,18.9212,9.75783,137.616,-676.368,-734.44,840,1120,-8820
6.19857,7.18861,0.189732,6.04712,3.0216,3.15856,6.90104,5.00793,12.3502,3.11147,-0.710233,2.99222,-0.273028,1.45769,11.0649,7.9712,134.2,-678.32,-728.096,140,1400,-9380
-2.98942,0.15529,-2.83389,4.48955,1.62046,0.830173,8.79077,4.10197,-1.38586,-2.55663,-4.21627,-2.29807,-2.00048,-0.457925,8.42133,8.31074,137.128,-678.32,-723.704,-980,2100,-9940
-10.736,-5.22417,-3.21141,3.03195,0.553272,-1.78227,5.1652,2.15169,-10.4993,-7.24789,-3.72695,-5.15815,-2.33418,-0.993014,7.41056,4.38912,136.152,-679.296,-720.776,-2100,2800,-10500
-14.3303,-9.68445,-4.58664,-3.23286,-4.41669,-3.27057,-4.40488,-2.2928,-19.1698,-8.50962,-4.68817,-7.71713,-2.72741,-5.13923,-4.65271,-3.95009,140.056,-679.784,-716.872,-3360,3500,-11060
-15.8045,-19.6341,-5.08585,-19.5914,-13.2503,-2.18112,-16.0274,-3.38125,-20.0663,-7.38112,-1.67203,-12.6016,-1.76439,-5.73974,-18.5972,-9.88129,142.496,-681.736,-714.92,-4760,4340,-11480
-10.6072,-14.924,-4.3256,-18.6582,-12.0267,-1.80606,-15.9709,-3.26388,-14.3428,-3.22777,0.553498,-10.2532,-0.733533,-4.99378,-21.9635,-10.1962,142.008,-680.76,-711.016,-6020,4760,-11760
2.30876,1.29615,2.13493,-0.36721,-0.278357,-0.0961381,-3.47797,-0.953884,4.43092,4.55327,4.17494,0.688617,1.61105,0.221311,-4.22333,-2.74306,147.376,-681.736,-711.504,-7280,4760,-12040
10.3533,5.3949,8.27304,5.60247,6.7248,3.30751,3.7813,-1.73292,12.1185,9.71432,6.31412,5.96121,4.85772,5.7646,4.29362,1.86828,147.376,-677.832,-714.92,-8680,5040,-12320
0.825541,-8.15871,1.43548,-7.90917,0.0664406,1.02563,-0.686667,-2.82341,-2.25326,3.43506,2.40083,-2.44257,1.40761,2.32796,-0.941146,-0.62883,150.304,-680.272,-712.968,-9240,5040,-12320
4.28241,-0.893834,-0.503473,-4.08157,-0.074249,-2.0138,0.0950278,-1.10182,4.30959,2.84707,2.51813,0.581445,-1.72254,-1.61752,1.52244,-2.51691,152.744,-677.344,-711.504,-9800,5180,-12180
10.5778,9.24058,2.02859,4.47518,1.13776,-2.77446,-0.0626619,-2.17295,13.8364,4.91878,3.11299,6.08805,-1.30534,-1.05617,0.388424,-2.85335,153.72,-675.88,-710.528,-10360,4900,-12040
0.417271,4.71068,-2.15694,2.70462,-2.55627,-3.63575,-2.09618,-3.98819,0.685704,-0.845531,-0.438059,0.307706,-2.03993,-2.53201,-3.13611,-4.04026,154.208,-674.416,-713.456,-10640,4480,-11620
3.14599,13.2335,0.309587,12.0275,3.8742,-3.74038,0.0980588,-5.02085,5.93155,0.505903,0.739095,5.70665,-0.789498,-0.610031,3.92285,-1.89882,154.696,-670.024,-714.432,-10640,3640,-11200
2.58542,12.2404,1.26341,12.2265,5.77694,-2.70124,4.68578,-2.64653,4.61941,-1.83815,-3.58717,7.11632,-0.620913,-0.850048,4.55077,0.448415,158.112,-669.048,-712.48,-11200,3080,-10780
1.77376,1.57479,0.233384,1.13951,0.782965,0.0542728,0.767282,0.630386,3.12526,-4.52584,-4.44389,2.13092,-1.17903,0.534038,-1.68394,0.048285,157.136,-668.072,-715.896,-11200,2240,-10360
3.50709,-2.25324,-1.23062,-6.81704,-3.75511,1.67665,-5.58851,0.0294328,5.4069,-3.47374,-2.95886,-0.100857,-0.513178,-1.15693,-11.7276,-3.65137,156.16,-669.048,-718.824,-11060,1540,-9940
0.693113,-2.80819,-3.19693,-7.12918,-3.95411,2.6565,-6.76737,0.0762394,2.56264,-5.36536,-5.80115,-1.35501,-1.00588,-0.879899,-15.9766,-4.45741,160.552,-665.632,-720.288,-10780,980,-9520
0.482274,1.16245,0.145821,1.12252,2.12416,3.69845,1.06785,5.47597,3.76317,-4.18607,-4.04274,-0.15403,0.0108928,3.85048,-2.92674,2.79689,160.552,-663.192,-717.848,-10780,420,-9100
-5.70525,-0.254781,0.387131,6.0877,6.10469,2.50683,10.2738,9.68305,-9.12718,-4.63799,-1.94954,-2.45528,0.57038,4.30728,9.95635,8.87341,160.552,-660.752,-721.264,-10080,140,-8820
-9.43027,-4.17407,0.157727,2.21103,4.03038,1.26091,9.40677,9.09345,-11.9094,-4.1656,-0.415112,-4.44409,0.621685,3.71862,15.0417,8.97819,163.48,-659.776,-723.216,-10080,-280,-8400
-4.80128,-4.98938,-0.00331756,-2.60152,-1.51144,-1.37664,2.27963,3.34168,-6.1503,-0.174882,1.02659,-3.83555,0.0684205,-0.672967,5.75227,3.28534,163.48,-664.656,-720.288,-9800,-420,-8260
3.38152,-3.42498,2.42672,-2.49476,-2.56227,-1.05978,-2.76439,-0.858504,1.79975,6.49006,5.75861,-0.445641,2.8053,-1.68418,1.00703,-0.903313,163.48,-664.168,-722.24,-9380,-700,-7700
7.93223,3.5001,7.72047,3.54798,2.98335,2.06317,-1.7252,-1.37643,7.42261,11.9476,9.00854,5.51791,6.11577,2.43171,2.67966,0.219921,165.92,-660.264,-724.192,-9380,-980,-7560
3.59307,9.60033,5.64125,9.46816,5.54211,2.3923,2.42107,-0.253429,5.90824,7.11558,4.65324,7.79122,3.8694,3.31653,4.60707,3.14505,161.528,-660.264,-727.12,-9240,-980,-7420
-3.58892,4.42184,-0.123111,4.42602,1.86523,1.02278,0.301715,0.232418,-1.1342,-0.105617,-0.0586523,3.53717,0.577475,1.83731,0.125604,1.54917,160.552,-662.216,-726.144,-8680,-980,-7280
-11.9954,-12.5857,-7.9542,-12.7389,-8.86694,-0.962168,-7.44817,-3.13688,-13.6889,-6.79905,-6.52305,-8.06731,-4.22836,-3.38306,-11.1736,-4.53815,160.064,-664.656,-728.584,-8540,-700,-7140
-13.7739,-14.0848,-15.1025,-13.2271,-11.0979,-4.02605,-3.4284,-4.23421,-15.6762,-13.7224,-17.5437,-12.6765,-11.7494,-8.2068,-6.25746,-5.02825,158.6,-664.656,-728.584,-8260,-980,-6720
-7.37582,-8.73559,-12.4658,-9.21285,-8.30897,-3.84827,-3.4308,-3.57692,-6.09264,-10.7243,-11.1909,-9.39389,-10.385,-7.62765,-1.21911,-4.11796,156.648,-664.656,-727.608,-7700,-840,-6720
-0.879587,-0.157996,-3.99584,-0.0116755,-0.628894,0.121892,1.40265,-2.35112,-2.59266,-3.22948,-2.53593,-1.66942,-2.047,-2.62295,1.42555,-1.6836,158.6,-665.632,-731.024,-7280,-420,-6580
3.78088,-1.30858,1.56912,-0.779939,-0.117011,3.22004,1.33653,2.85833,4.49623,2.57506,3.21378,-0.823059,2.96682,3.81505,2.11487,2.17752,156.16,-667.584,-733.464,-6580,-280,-6440
10.2305,1.77028,9.27392,0.0790917,1.33361,4.29156,3.01471,3.57637,8.45852,11.2872,11.0986,3.55925,8.49875,6.38829,-1.17075,4.76345,155.184,-667.584,-733.952,-5740,140,-6160
16.3185,11.8308,16.7995,11.5461,11.7416,7.56193,9.92874,4.98096,14.02,19.1578,18.794,12.9516,14.7979,13.0459,10.6521,8.99625,151.768,-671,-736.88,-4900,560,-6020
14.4575,16.2655,15.2172,19.68,16.3141,6.08556,17.8538,6.13619,14.5475,16.3857,17.1317,15.2561,11.9687,12.692,24.3502,14.2515,152.744,-671,-735.904,-4060,980,-5600
15.3264,20.8325,11.828,23.5152,16.529,0.2087,17.7232,1.70303,17.6882,14.3068,13.2876,16.6549,6.79235,6.13055,28.4575,12.0548,147.376,-671,-737.856,-3080,980,-5460
7.99393,6.00538,4.5831,2.29054,1.18781,-3.65385,-6.89526,-7.33733,7.83181,9.34502,9.40793,6.35954,2.21022,-4.77849,-1.65356,-6.29245,149.328,-665.632,-738.344,-2240,1540,-5040
2.03347,-1.01471,0.345053,-7.6648,-6.39399,-3.54915,-18.7552,-9.12487,2.172,1.44852,1.60332,0.175743,-2.36964,-8.12229,-20.1864,-15.5397,146.4,-667.096,-738.344,-1540,1960,-4900
-4.1609,-0.143178,-6.47773,-3.35081,-3.93671,-3.48256,-8.70092,-5.54471,-1.80845,-8.20331,-8.27212,-3.57983,-7.21943,-7.64828,-10.3954,-9.43324,145.424,-667.584,-735.416,-1120,2240,-4620
-7.16158,-5.13242,-8.61165,-4.9208,-3.92777,-3.12956,-4.91171,-3.88406,-7.2095,-12.3273,-11.032,-7.27235,-8.1874,-4.93709,-4.85,-4.77272,146.4,-666.12,-738.832,-560,2380,-4340
-4.35745,-4.67099,-7.51613,-5.42085,-3.82782,-4.18411,-3.08564,-3.86886,-6.56367,-9.44422,-11.4045,-6.7795,-8.09189,-5.44594,-4.47929,-4.53316,143.96,-664.656,-735.416,-280,2100,-4340
-16.1175,-16.0496,-13.7311,-13.8019,-11.5994,-8.0231,-7.43368,-1.99951,-17.9541,-16.4093,-14.7102,-15.1048,-12.6103,-9.57547,-9.71416,-7.80701,145.424,-663.68,-738.344,140,2380,-4340
-13.6103,-16.3061,-11.899,-21.7543,-16.811,-10.7024,-19.1464,-5.75296,-17.4637,-13.1284,-12.7841,-14.3497,-10.715,-13.3104,-26.432,-13.8504,144.448,-665.144,-734.928,420,2100,-4200
-12.8734,-14.6283,-6.62507,-20.3144,-13.335,-6.16519,-18.6241,-5.74868,-18.0356,-9.96053,-7.06389,-10.2751,-4.43889,-9.17167,-28.2336,-13.1958,146.4,-665.632,-737.856,700,2240,-4340
-9.31356,-10.2106,-0.108426,-10.1347,-5.16626,2.98703,-7.52163,0.880133,-12.1006,-3.87726,3.91078,-5.04734,4.56035,1.82547,-11.7956,-2.86051,147.864,-664.656,-737.368,840,2240,-4340
-5.67089,-5.06627,3.32582,-2.55137,0.248138,7.79943,1.11852,4.89166,-8.55443,1.73894,7.27355,-1.08018,10.3032,7.82387,-2.80523,4.34272,147.376,-664.168,-736.88,1260,2240,-4200
-3.09792,-4.42641,2.85046,1.63068,4.36799,9.17624,8.33579,10.8226,-3.18338,-1.40864,-4.21547,-0.792933,5.66511,10.8826,6.3949,9.37164,148.352,-665.144,-743.224,1680,1960,-4060
11.4729,9.71609,3.02523,13.78,11.158,6.59281,18.1061,13.8649,17.76,0.654956,-11.8784,8.04336,-2.80315,8.99996,16.3581,14.6252,152.256,-665.632,-743.712,2100,1820,-3920
10.1319,9.67769,0.321744,10.8947,7.10246,2.57067,14.043,8.5187,19.81,1.21171,-4.80375,7.05257,-3.7315,3.47664,13.5436,9.43702,150.792,-669.048,-738.832,2520,1680,-3640
5.01869,9.18899,-0.33196,9.56871,3.6977,-0.15038,9.50657,2.93213,15.0761,2.20824,4.48595,4.25886,-0.436917,-0.770006,11.3932,5.77189,152.744,-668.56,-737.368,2940,1540,-3360
1.36557,7.54509,1.18289,10.0617,3.05165,-0.643699,7.54063,-0.366315,7.66228,3.68162,10.1888,3.42908,3.7538,-1.89579,10.5716,4.05793,151.28,-672.952,-740.296,3220,1400,-2940
8.47769,13.2957,8.55777,18.1028,9.22745,3.66509,10.7853,3.96988,10.4266,9.81531,11.9672,9.72401,9.1759,4.6252,15.6066,7.91516,151.28,-671,-734.44,3780,1540,-2660
8.69142,13.1501,8.63404,18.9549,11.5548,7.33827,12.7832,8.57737,9.28487,8.67615,6.80331,9.91739,6.61124,9.11923,16.6821,10.8812,151.768,-676.368,-735.416,4060,1680,-2100
-9.10488,-4.83468,-1.52577,0.105119,1.44442,4.27402,6.0169,4.93611,-13.6251,-3.46907,-3.47771,-3.81453,-1.75993,4.22495,1.83364,6.47904,152.256,-675.392,-735.904,4200,1960,-1960
-16.5972,-18.8993,-4.95418,-17.566,-9.51237,1.94107,-9.33293,-3.62494,-23.4419,-7.86094,-2.74004,-12.104,-2.3815,0.528767,-13.8312,-3.49815,149.328,-672.952,-733.464,4340,2520,-1820
-3.82857,-9.19119,1.40989,-13.2764,-6.43481,-4.13527,-12.4853,-17.6959,-12.3879,2.51637,5.60587,-4.41282,2.57726,-2.72632,-15.4349,-12.8107,147.864,-672.952,-731.024,4760,2660,-1400
4.5864,5.51849,5.34765,5.39863,4.59579,-8.98369,-1.81235,-14.7145,-0.156231,6.3158,6.08192,5.76853,1.93211,-1.39862,7.10536,-8.38016,146.888,-670.024,-732.976,5180,2940,-980
11.4029,10.5791,1.23533,7.04233,3.55128,-9.06252,-4.38471,-9.87458,7.40921,5.40911,-0.898551,7.34167,-1.9505,-4.31337,4.42292,-8.34905,147.864,-671.976,-733.952,5600,3080,-1120
10.582,8.75053,-1.93011,1.49397,-0.668784,-3.6674,-5.52892,-2.61746,13.9449,2.26295,-6.23392,3.53711,-3.70142,-2.68515,0.183683,-3.90724,149.328,-671.488,-735.904,6300,3640,-840
8.45224,6.79945,-3.28614,0.572289,-1.46582,-6.50055,-0.575295,-1.10609,14.3541,1.50104,-5.54203,2.66021,-5.90086,-4.52882,3.45664,-0.857262,146.4,-670.512,-736.392,6860,3640,-700
16.1931,17.4829,2.30698,12.4221,9.18006,-7.87579,11.2046,1.49399,20.1586,9.47185,2.85387,12.4749,-4.31915,-2.18314,16.5365,4.9209,146.4,-671,-733.464,7280,3640,-840
7.09317,12.3853,2.43754,10.908,9.43634,2.98603,11.8335,9.04052,11.3727,3.97819,1.35978,8.80041,-0.278658,3.55493,19.015,10.6644,145.424,-670.024,-732.488,7980,3500,-840
2.45747,2.65755,3.3292,1.43312,1.3281,8.67758,1.70579,8.69376,6.22352,3.45058,3.66037,1.54779,5.10265,4.21082,6.51033,6.76919,144.936,-671.976,-728.096,8260,3500,-1120
-1.90297,-5.85535,3.08621,-7.19724,-5.72392,7.58705,-6.49486,2.43529,-2.44889,3.48316,6.34632,-4.97902,6.85486,1.45378,-7.38688,-0.362559,143.96,-672.464,-729.56,8260,3360,-1680
-0.32245,-4.99279,3.84922,-3.23333,-1.44641,7.31604,-1.74287,3.91295,0.176238,2.57073,6.15793,-2.78428,5.95889,4.37212,-1.65632,2.77685,141.52,-673.44,-729.56,8540,3500,-2100
-5.70419,-10.1232,1.60934,-5.2065,-0.205984,6.54731,2.56521,4.69764,-9.716,-0.833542,2.99953,-5.65328,4.05262,4.09905,-1.94159,4.4253,143.96,-675.88,-728.096,8680,3500,-2660
-11.7097,-21.8771,-1.28847,-18.663,-9.69242,2.09222,-10.7634,-2.08781,-19.618,-4.4275,5.45529,-12.4821,3.68848,-1.13628,-17.612,-6.44553,144.936,-673.44,-727.12,8680,3500,-3500
-14.6257,-24.5143,-4.10624,-23.8456,-13.4904,-1.17354,-18.1291,-6.85249,-24.4744,-6.879,3.24548,-14.6198,1.03771,-6.04086,-28.0836,-13.0804,145.424,-672.464,-731.024,8960,3500,-4060
-10.9563,-12.816,-1.68138,-14.5308,-9.43483,-0.330463,-18.0966,-8.82326,-18.4983,-5.57435,-2.39736,-6.5184,0.544866,-3.75056,-31.1241,-12.6001,150.304,-673.44,-733.464,9520,3360,-4620
-9.79925,-8.09605,-4.26103,-15.3762,-14.4747,-3.80077,-25.9799,-11.8531,-10.487,-7.81028,-5.59366,-5.11964,-2.68437,-7.38947,-37.2925,-17.0642,152.256,-671,-734.44,10360,3220,-4620
-8.1754,-6.96228,-8.31447,-10.8987,-12.0937,-7.40576,-12.6757,-9.14648,-7.0339,-9.46123,-7.19046,-6.21543,-6.53255,-10.1785,-21.5522,-12.1211,158.6,-670.512,-732.488,11340,2940,-5040
-4.21657,1.14554,-6.16454,5.49979,0.561941,-2.74277,12.7881,5.43991,2.96828,-8.44031,-7.14682,-1.14843,-4.67542,-0.591627,13.0186,4.52879,159.088,-669.536,-732.976,13020,2100,-4760
-13.1325,-9.00801,-6.30478,-1.80456,-1.77207,0.62884,8.67318,8.53218,-11.4147,-9.8747,-7.32579,-8.67757,-2.25832,0.989854,6.73518,5.82475,164.456,-664.656,-733.952,13860,1820,-4900
-17.2615,-11.3229,-5.21402,-5.86416,-1.29084,2.88438,-1.65574,6.35361,-17.7244,-12.2419,-10.8643,-8.57103,-2.99275,1.81408,-5.03662,1.69917,165.432,-661.728,-734.928,14980,980,-4620
-10.7358,-1.06613,-15.6496,1.7301,0.798039,-7.21095,1.22083,2.82603,-3.82523,-21.0904,-31.153,-4.62864,-21.4572,-6.88897,1.50544,1.37168,169.336,-664.168,-730.536,16100,840,-4060
7.08206,15.571,-13.5344,18.0729,9.35776,-13.5089,15.8465,3.54145,17.3024,-11.6543,-26.6968,5.04421,-25.0443,-8.62101,23.6461,6.47127,174.704,-662.216,-734.44,16940,-280,-3500
8.66441,24.6265,-1.11023,31.9609,20.1181,-4.90507,30.4009,10.5794,19.22,0.290153,-5.21756,12.473,-8.54157,2.80913,43.2265,16.7379,173.728,-661.728,-734.928,18200,-700,-2660
17.8926,23.8013,10.3471,27.8254,16.5763,0.0302424,23.2241,5.67671,20.6606,17.6437,20.6509,15.2163,8.42328,4.8373,34.9254,12.2782,176.168,-662.216,-732.976,18760,-840,-1680
34.6532,24.292,17.8292,14.8491,6.46238,0.665085,4.35888,-10.0111,33.2028,34.2346,35.3543,17.0032,18.3914,1.38961,9.83257,-2.50757,178.608,-663.68,-732.488,19740,-1680,-560
36.1291,20.5056,25.4486,8.38223,7.82205,9.73567,-1.63929,-8.60582,34.5291,37.7561,36.4571,20.2816,25.8033,12.3003,2.51285,0.409874,176.656,-659.288,-734.928,20440,-1680,840
21.2599,13.9205,23.9345,7.95205,11.6967,16.0623,4.47362,2.51749,11.3488,26.0398,24.3832,18.1783,24.182,18.2738,3.46977,8.36642,176.168,-660.752,-729.072,20720,-2240,1960
13.2822,9.72003,16.24,8.3247,10.9197,11.9574,7.65937,8.48768,6.13978,14.1789,11.4879,12.6779,13.3988,15.1477,10.7608,9.17308,175.192,-660.264,-728.096,21420,-2100,3360
-2.15146,-0.130927,3.97659,-0.790114,3.4171,4.88016,-0.245405,3.94831,-7.68771,-2.60501,-6.23138,2.67945,-0.231654,5.02791,-0.103988,1.21461,177.632,-660.752,-723.704,21700,-2100,4060
-17.7911,-12.2741,-8.97698,-8.38975,-3.58914,1.43271,-2.58964,2.73482,-18.6442,-19.5303,-23.0264,-7.89387,-10.5452,-1.62992,-3.69264,-1.12814,173.728,-660.752,-717.36,21140,-2240,5180
-24.1316,-27.6261,-20.28,-23.6508,-18.3612,-3.79739,-12.1001,-0.319216,-24.3305,-25.7544,-23.6675,-22.8722,-16.4337,-11.0414,-16.5509,-6.75313,172.752,-663.68,-717.36,20860,-2240,5740
-20.9083,-22.0675,-17.2458,-16.6911,-13.7809,-8.4991,-5.14574,-0.929991,-20.9715,-19.5243,-13.2355,-20.7017,-14.1344,-11.781,-9.16185,-1.99242,170.8,-664.656,-719.8,20440,-1820,6160
-13.4312,-11.7925,-9.17434,-5.29424,-3.37399,-8.58444,3.65274,-1.17938,-13.2734,-11.7455,-8.01418,-10.771,-7.68887,-7.51155,3.89432,1.61865,168.36,-662.704,-715.896,19600,-1680,6860
-7.83167,-10.2551,-9.77044,-9.92351,-10.8329,-10.5353,-9.69155,-10.6861,-5.30581,-5.43139,-1.25816,-10.5376,-4.74811,-12.9048,-6.17688,-10.2437,166.408,-664.168,-716.384,19040,-1680,6860
1.18286,-1.49963,-4.47293,-5.62847,-9.15315,-7.31983,-12.7629,-13.7741,4.63938,4.43647,6.53218,-3.68286,0.722868,-11.7613,-8.51597,-12.3045,166.896,-664.656,-715.896,18060,-1820,7140
2.40604,2.22356,3.81759,0.136874,-2.25163,1.74623,-7.39736,-6.39358,6.71173,6.17198,6.7792,2.84416,6.22304,-0.0419215,-5.20554,-5.43516,164.944,-665.144,-721.264,17500,-1820,7140
12.1702,11.1748,13.3938,6.48093,7.39558,11.7818,0.689618,2.91534,13.5722,15.63,15.3226,12.5803,14.736,12.5668,-1.88207,4.18391,163.48,-669.536,-722.24,16800,-1960,7140
15.6349,12.9447,21.7682,7.69123,13.278,17.7199,0.0637039,9.63009,14.696,21.3154,23.7937,18.0769,21.7789,21.7753,-6.22381,8.96754,162.504,-671,-718.824,16100,-1960,7000
4.82715,5.15579,12.9772,3.12593,8.48445,9.3154,-3.849,7.67341,0.0942803,10.5296,11.4565,10.9789,10.7119,14.2762,-11.7661,4.96448,162.992,-671,-718.336,15680,-1960,7000
-4.20474,-2.85251,-5.87834,-3.81762,-3.33972,-6.52763,-8.75435,-1.46434,-8.03828,-5.47971,-8.15085,-2.7069,-8.73248,-4.18208,-12.816,-6.84841,161.528,-672.952,-717.848,15260,-1960,6720
-1.35291,-7.64784,-8.73815,-11.2848,-11.2708,-11.6926,-13.3195,-8.2365,-2.43212,-5.78014,-7.31739,-9.1387,-9.59197,-10.0577,-14.5169,-14.4149,163.48,-673.44,-714.92,14700,-1820,6720
-2.20549,-9.43214,-6.52393,-15.4077,-12.5102,-7.07657,-12.5186,-7.26756,-4.70491,-4.80737,-5.6022,-10.0351,-5.69353,-7.99559,-16.9908,-13.7833,163.48,-669.048,-712.968,14700,-1540,6720
-15.545,-15.5035,-10.2282,-12.0274,-9.35647,-0.273294,-3.90591,2.58269,-17.7205,-16.0223,-11.6403,-14.4387,-6.56565,-2.20909,-4.81634,-3.75343,162.504,-667.584,-715.896,14420,-1400,6720
-29.953,-18.577,-16.6838,-6.45688,-6.16903,1.76354,4.15697,5.46897,-31.1916,-27.4074,-19.8453,-18.7058,-10.4919,-1.85311,4.35339,3.6974,162.992,-670.512,-712.968,14700,-980,7000
-24.6603,-15.7771,-15.2518,-7.25773,-6.86914,0.197666,2.89496,1.35412,-23.8376,-22.666,-17.755,-15.3939,-10.125,-5.29313,4.2439,2.01624,164.456,-668.56,-717.848,14700,-560,7280
-6.53746,-0.919499,-7.26157,3.36925,1.09291,-5.83888,8.02534,-2.19773,-5.95856,-10.0363,-15.3057,-2.32789,-9.37121,-6.74072,11.0135,3.39907,162.504,-668.56,-721.752,14700,-140,7140
6.76751,13.1638,4.85882,19.3894,13.5056,-5.99767,18.8316,0.779481,6.58574,6.55634,2.83897,9.87235,1.02761,-1.35723,26.5381,8.61058,162.992,-668.072,-723.704,14560,-420,7560
2.63917,10.8404,8.90383,18.3626,11.8834,4.48632,17.2841,2.80013,5.26885,7.04662,13.7914,7.55642,10.2586,4.9124,25.2557,9.32363,161.528,-667.096,-721.752,14560,-700,7840
-1.43057,2.94624,9.71106,4.46036,4.43828,10.3774,2.65333,1.20065,4.24943,3.61226,11.1989,2.45607,11.5705,8.21419,2.75315,2.72662,159.088,-669.536,-721.752,14840,-840,7980
13.2245,12.9822,14.1551,7.38038,9.81206,7.88315,-0.464193,3.88717,14.869,11.6967,3.28426,13.8772,7.23159,11.5393,-5.83442,4.29444,157.624,-667.096,-722.728,14840,-980,8400
29.2497,20.9379,7.38457,5.98013,4.72485,-7.39913,-1.82062,4.24633,36.3776,12.1301,-14.1189,18.3061,-11.5607,-1.29828,-7.29139,1.79567,156.648,-667.096,-725.168,15120,-980,8400
39.6641,16.3001,-4.73681,-10.5682,-14.4276,-24.5504,-11.4088,-5.85166,46.8545,18.7106,-3.60503,8.76186,-18.512,-25.3307,-17.647,-10.558,154.208,-670.024,-727.608,15400,-980,8540
36.9084,33.8688,4.88469,28.3043,11.3231,-10.7358,19.329,-0.980031,46.2116,24.9554,22.0828,20.7489,-0.442682,-8.75886,31.0772,7.05031,155.672,-670.512,-726.632,15820,-700,8680
16.8701,23.9821,12.9978,37.1572,23.5176,9.21113,32.4783,3.5187,17.2346,20.2968,29.8008,17.4395,17.9986,10.7622,43.9565,15.8385,150.304,-670.512,-730.536,16240,-560,8400
-3.62055,-5.45281,3.69225,2.08124,1.46689,11.8376,7.03895,4.10416,-6.93446,5.81325,18.3184,-3.76066,14.6241,7.74694,10.8878,5.6837,149.816,-672.952,-729.56,16940,280,8120
-16.7357,-24.2414,-8.41002,-23.1804,-13.8467,6.28156,-13.0926,0.251545,-21.215,-13.0989,-6.31745,-18.2748,-0.669639,1.01261,-18.5981,-4.88669,146.888,-676.856,-731.024,17500,700,7700
-20.9032,-25.4684,-10.2671,-25.0252,-14.03,3.87698,-16.451,-3.39987,-26.1529,-20.2017,-17.6537,-18.1065,-5.26763,-0.0143644,-23.5596,-8.02324,147.864,-674.904,-727.608,18060,1260,7280
-26.3067,-14.8738,-0.981675,-6.74132,1.33877,10.3352,-4.32032,1.82756,-33.7521,-17.0107,-11.3113,-7.82556,1.9594,10.2448,-7.06855,1.27743,145.912,-677.344,-732,18620,1960,6860
-22.5884,-7.01532,4.88707,5.10418,10.1024,8.3862,3.51001,5.91613,-32.9825,-8.06473,0.0364288,-0.745899,5.44158,11.3633,3.20422,7.71414,145.424,-678.32,-729.072,19320,2240,6440
-0.31661,-0.459358,11.1966,4.05026,9.65949,5.41595,4.03485,7.35737,-13.6714,11.407,16.9364,7.20909,11.1639,8.56163,2.44601,6.21688,142.008,-678.32,-725.656,19740,2660,5880
13.8894,-1.27492,12.139,-11.4042,-0.996656,6.68987,-13.1201,2.01475,4.48196,20.1558,21.3051,8.63392,14.7071,7.31404,-20.1243,-4.21114,144.448,-681.248,-728.096,19880,2800,5600
4.81946,-3.35283,-0.0892322,-14.667,-8.19281,-2.18598,-17.6142,-5.00888,3.45721,4.79318,3.80372,-0.167426,3.31387,-1.54554,-26.0106,-9.82788,143.472,-680.272,-729.072,20860,2660,5180
6.47084,9.19267,-2.69877,5.22654,1.70095,-12.9427,-4.15162,-12.2854,14.745,-1.87577,-11.7561,5.18938,-8.99375,-5.31845,-1.65106,-7.46323,146.4,-680.76,-727.608,21280,2520,5040
6.15737,11.1477,-5.61604,8.48654,1.12457,-12.6558,0.169139,-11.6778,16.9057,-4.18763,-14.8348,3.59091,-11.1456,-9.70056,5.4356,-6.64883,145.912,-677.832,-725.168,21700,2240,4760
-2.44928,-1.05216,-11.1917,-2.11392,-7.76094,-4.71275,-0.195798,-2.17332,6.4795,-8.56233,-10.4311,-7.81907,-9.09676,-10.5731,3.50527,-4.82621,145.912,-678.32,-726.144,21980,1540,4340
-6.58449,-1.19417,-11.421,5.31405,-3.3578,1.86129,11.58,11.4954,3.41983,-13.8478,-13.2628,-8.7412,-8.68454,-2.41027,17.8793,8.12592,147.864,-673.44,-722.24,21980,1120,3920
-13.6051,-6.77077,-13.4619,-0.875733,-4.33829,0.243807,9.52364,11.7527,-9.08059,-19.7378,-18.8942,-12.5918,-10.2503,-2.0178,11.5327,9.31134,144.448,-674.904,-722.728,21840,980,3080
-9.32059,-8.97766,-7.55053,-9.70195,-8.18389,-2.87845,-4.56598,1.26486,-5.72444,-11.1997,-8.66359,-9.58333,-7.45363,-3.43769,-2.85255,-1.96592,145.912,-671.976,-721.752,22400,-140,2380
-16.8136,-21.1041,-7.20623,-22.5928,-15.5634,-3.06272,-16.5488,-6.49386,-19.1717,-11.7743,-6.73289,-15.1586,-6.84609,-7.41956,-20.9007,-11.3789,145.912,-670.512,-715.408,22400,-980,1820
-17.5045,-17.7887,-5.33641,-16.6146,-10.9723,-0.22356,-13.2335,-5.0243,-20.2973,-10.788,-5.63999,-12.9249,-3.87518,-5.11198,-15.0822,-8.47104,143.472,-668.072,-718.824,21700,-1960,980
-0.793741,0.00719685,5.8727,1.95044,2.26933,4.72028,-1.5167,-3.20242,-2.34642,4.64431,9.74606,1.18874,6.60633,4.97272,1.70271,-1.11765,144.936,-666.12,-715.896,21700,-2100,420
19.8467,17.4606,16.9638,12.632,10.7653,3.9122,2.01223,-7.51323,20.609,20.3271,20.2865,16.0582,13.0169,6.92694,6.96216,-0.971658,143.96,-665.144,-712.48,21140,-2240,-840
18.6189,14.3331,13.8516,10.6089,10.6236,-3.53623,3.96941,-8.04116,16.3115,19.0154,14.0826,15.6771,6.76714,1.68251,5.34959,-0.878587,142.496,-664.168,-709.552,20440,-2520,-1540
-0.0313532,-4.10764,-3.03384,-4.0542,-2.95349,-14.2955,-4.28493,-13.0471,-5.80024,3.18761,-0.623587,0.00997614,-7.84938,-11.5412,-4.43576,-9.46159,143.96,-661.24,-713.456,19880,-2380,-2240
-16.3211,-16.8531,-18.5117,-12.6483,-15.1106,-15.7174,-7.66371,-12.3813,-22.3643,-13.1272,-10.9297,-16.2013,-13.3593,-19.8339,-9.27582,-13.585,145.912,-663.192,-709.552,19040,-2520,-2940
-17.8873,-10.48,-11.8905,-4.67006,-7.85423,-2.49825,-2.55776,-0.500679,-20.2784,-13.0466,-5.81054,-12.3976,-2.90147,-7.43133,0.478868,-5.03471,150.792,-662.216,-713.944,18480,-2100,-3500
1.22102,16.145,3.5546,19.6018,13.0139,10.2819,12.7078,11.1217,3.06433,-0.98912,-2.15495,8.85275,6.87666,9.52829,12.9576,9.36768,149.816,-660.264,-713.944,16940,-1260,-4200
5.43388,-3.58752,3.95779,-7.61464,-3.27595,12.6534,-4.12752,11.8569,7.04673,5.25084,2.34384,-0.30706,8.0426,8.35116,-11.2075,3.58336,154.208,-662.216,-718.336,15960,-140,-4480
-5.05825,-22.4143,-0.714719,-31.9726,-19.176,11.01,-18.0269,6.80375,-10.5493,-0.0109502,3.83846,-13.4817,6.12103,1.24391,-33.3415,-3.01593,157.136,-665.632,-719.8,14700,840,-4760
15.4251,10.2119,11.4946,4.25477,7.90529,9.81323,5.57149,9.70634,15.5025,12.0204,10.0914,11.5771,7.86367,12.6097,-3.05113,10.9505,158.6,-669.536,-719.8,13720,2100,-4760
34.1214,40.1531,21.1469,39.437,29.4716,7.06372,22.5749,8.26844,37.5169,24.4277,15.0653,33.4711,10.3838,19.3637,25.1802,17.0899,158.6,-671,-719.8,13160,2380,-4200
20.2233,23.4253,9.55506,30.2801,19.7471,2.592,25.436,8.30694,22.1432,13.172,8.78444,17.3523,5.77294,10.5556,32.5723,15.8836,159.576,-676.856,-719.312,12880,2240,-3220
13.081,1.83337,1.28194,4.38626,2.51384,-0.333024,10.404,5.47727,15.0906,8.96097,9.73345,2.31954,3.79315,1.28388,13.7258,7.69754,161.528,-682.224,-723.216,13580,1960,-2100
8.4437,10.8832,10.0407,15.8344,13.7678,4.73984,12.3114,3.55858,7.04031,9.72284,11.013,12.2336,10.2146,10.9247,14.4526,10.2281,159.576,-684.664,-722.728,14840,1960,-1260
-19.3401,-4.8174,4.7872,4.78501,7.21291,5.33921,-0.978892,-1.119,-30.0696,-7.2359,-6.04859,0.265497,5.13233,8.69159,-2.68184,2.65631,161.04,-691.496,-722.24,16520,1960,-140
-19.9393,-11.8652,-8.54129,-10.7997,-7.26886,-11.0099,-16.601,-8.77551,-24.9648,-18.2316,-25.066,-7.80311,-14.2382,-8.18319,-20.3143,-8.80162,162.504,-690.52,-724.192,17640,1820,420
11.6761,12.0837,-9.43703,6.80659,0.594282,-31.3823,1.98306,-7.29389,18.4532,-3.90579,-18.575,6.35378,-24.9977,-21.498,3.6833,-3.91935,163.968,-692.472,-721.752,18480,1960,840
11.9344,17.2597,-8.82007,17.2173,6.34555,-18.6045,15.5428,3.07515,23.8041,-2.25881,-7.29219,6.80144,-16.403,-15.578,25.4573,6.01374,165.432,-695.4,-722.24,19040,1400,1120
-3.89223,-3.62021,-7.07855,-4.71975,-6.41798,3.89602,3.78865,3.66977,2.97337,-5.57791,2.6566,-8.89231,0.704863,-6.21486,9.5655,1.21661,164.944,-693.448,-724.192,19740,840,1540
-4.60635,-19.0839,-2.0452,-25.6039,-18.0258,11.8503,-15.4505,-1.95371,-3.85935,2.47634,13.6848,-16.4297,11.2012,-0.724157,-15.9651,-8.54199,161.04,-697.352,-721.264,20440,840,1820
1.06788,-6.27637,10.2912,-10.2624,-1.45592,17.4679,-6.06676,2.89257,2.87007,7.46325,12.4357,-1.92117,14.5676,14.2253,-6.89835,-0.0552605,158.6,-697.84,-716.384,20440,280,1960
-2.34559,4.11718,11.7793,3.23024,9.69436,14.9939,4.86492,6.11413,-1.81421,1.22983,2.29286,4.95858,7.37329,15.4809,3.96671,6.7661,161.04,-697.84,-721.264,21000,-280,2100
-1.55997,8.48435,4.35163,9.00557,8.27215,6.00162,4.82567,2.33676,4.33725,-1.96278,-3.10506,4.3479,-1.74435,5.90265,11.9333,3.39888,158.112,-699.792,-711.992,21280,-420,2100
-6.03583,-3.76937,-7.14996,0.174585,-2.59169,-6.20217,1.44662,-3.83626,-3.86157,-6.47446,-3.55084,-7.28884,-8.35126,-7.40253,8.1274,-4.14172,156.648,-698.328,-704.672,21420,-420,1960
-0.354631,-0.717899,-6.18496,0.559897,-2.62335,-8.16149,3.23726,-2.94349,0.486874,-0.663749,2.93632,-4.32788,-6.67926,-5.85243,9.45886,-2.87891,156.16,-695.888,-705.648,20860,-560,1400
-7.27103,-5.38844,-5.71157,-5.42112,-5.44369,-2.06086,-4.4212,-2.0386,-8.49979,-4.36735,-1.35697,-5.36725,-3.30252,-2.2029,-5.49396,-3.7983,151.28,-696.864,-704.672,20160,-420,840
-16.6621,-17.6602,-8.52499,-21.104,-13.7491,-1.96228,-19.7275,-7.2057,-20.4658,-9.56278,-6.55389,-11.9717,-2.74829,-5.72072,-28.6737,-12.8075,151.28,-697.352,-703.208,19320,-280,0
-13.9637,-16.9905,-6.33037,-20.4566,-13.2661,-3.14878,-21.1875,-8.71757,-16.8097,-8.38866,-6.44794,-10.3243,-1.71423,-6.04256,-30.6127,-15.3449,149.816,-691.984,-699.792,18620,-560,-280
-9.63894,-15.4832,-4.7121,-16.2101,-12.7859,-3.04281,-13.8101,-8.49093,-15.1781,-5.40265,-2.36541,-8.4862,-0.236861,-6.90107,-17.6314,-11.0925,151.28,-687.104,-698.328,17920,-560,-840
-8.20485,-11.8888,-0.448739,-11.2905,-8.95564,-1.18658,-9.17843,-8.50193,-19.9138,-1.00749,1.07582,-4.73758,3.16127,-5.39734,-14.7289,-8.50022,148.84,-684.176,-702.232,17220,-140,-1680
-13.8886,-19.0765,-5.2514,-12.3926,-8.33545,0.134631,-5.81207,-3.09158,-24.5215,-7.9387,-6.94519,-9.7326,-0.589285,-2.85528,-11.0705,-3.00079,150.792,-679.784,-701.256,16800,-280,-2100
-5.0692,-4.93641,-5.57096,2.68949,1.46494,0.241499,9.77539,3.13716,-9.78593,-5.91498,-9.33909,-3.65539,-3.27713,-0.289609,5.49064,7.2726,151.768,-674.416,-704.184,16100,0,-2800
5.17482,8.32134,-0.51383,13.7192,6.79525,-1.4789,13.697,2.3689,9.15597,1.43881,-2.47281,3.94748,-0.974989,0.67766,16.804,7.86043,153.72,-672.464,-709.064,15120,560,-3360
12.3687,8.7831,0.6301,6.32142,0.780524,-7.04478,3.11343,-8.56405,13.4469,9.17241,3.12375,4.08914,-0.0492775,-4.52729,4.55545,-3.47,155.672,-668.56,-707.112,14280,1400,-3780
7.3405,1.9051,0.792047,-0.983296,-3.049,-4.32645,-6.20611,-6.41011,4.98944,6.78929,5.55932,0.0111183,0.712749,-3.82801,-5.19217,-6.34036,157.136,-665.144,-709.552,13300,1680,-3920
9.11796,2.84206,5.2869,-4.70411,-2.92852,0.973214,-11.0494,1.91433,7.4117,7.21078,4.54907,4.68016,3.31833,2.13795,-14.9092,-3.60491,160.552,-663.68,-713.456,13160,2520,-3920
11.2404,12.9746,3.73869,0.0014209,0.476373,-0.245263,-13.3934,4.4019,16.9466,2.0432,-6.54702,9.81938,-2.3887,1.77396,-19.4221,-4.23479,162.992,-662.704,-710.528,12320,3780,-4060
13.5522,17.2953,1.17378,9.81474,6.38083,-3.01963,0.976759,6.02834,23.2803,1.48494,-6.8289,10.8143,-6.45414,-0.714021,-0.0461833,1.66601,163.48,-662.704,-713.456,11620,4760,-4060
1.57297,-0.691074,-0.353097,0.464919,3.0249,1.64129,5.3866,7.62638,6.30391,-1.39479,3.36501,0.111482,-1.00905,1.22053,2.78004,5.59214,165.92,-663.68,-710.528,11060,5040,-3080
5.46218,8.14298,6.2482,8.13034,9.71505,7.5923,10.6436,8.8146,12.6875,5.24772,14.9971,5.84852,8.26196,9.20787,11.0664,10.2919,163.48,-664.168,-714.92,11760,5180,-2100
25.0113,31.6095,19.0237,32.1381,26.8525,12.1343,27.92,11.9206,34.8269,18.5303,19.5899,25.0126,14.1095,21.0522,36.205,21.1453,169.824,-664.656,-710.04,11620,5460,-1400
20.2386,29.2427,18.4104,36.2581,29.1878,12.2388,34.7834,13.2698,22.7476,14.6049,10.8124,24.4072,12.253,20.1937,45.3084,25.0377,168.36,-667.096,-710.04,11760,6020,-420
4.63325,12.6945,9.74451,26.098,19.6026,7.25724,28.2818,12.6959,1.1392,5.15663,3.60271,11.9808,6.14802,12.8648,40.8279,20.9579,169.824,-670.024,-710.528,11620,6160,140
-10.8274,-5.01338,-2.66093,4.82859,2.34335,-1.51166,7.54677,2.01735,-15.2231,-6.77695,-3.83093,-4.41874,-2.87318,-1.27586,15.4404,4.33647,167.872,-671.488,-709.064,10920,5740,420
-11.0286,-10.0142,-6.69419,-6.33655,-5.34924,-3.53957,-4.45802,-3.71633,-12.5865,-7.29639,-4.30156,-9.63828,-3.63207,-6.89945,-1.37897,-3.78724,165.432,-674.904,-712.48,10920,4900,1260
-3.42174,-5.1559,-3.90212,-7.97338,-7.16955,-2.01935,-11.3242,-3.99223,-1.65438,-1.86047,-1.67914,-6.24657,-1.6199,-5.25297,-8.93357,-8.867,168.36,-677.832,-711.504,10920,3780,1820
-3.31393,-2.21118,-4.86486,-9.04567,-9.75078,-3.49884,-14.1023,-7.24741,-3.33552,-1.55353,-3.63639,-4.94821,-2.98468,-7.97766,-14.3906,-13.4977,167.872,-678.808,-713.456,11200,3080,2100
-13.4659,-14.4966,-8.91681,-16.0455,-14.1915,-3.72026,-11.6839,-6.70728,-15.5776,-7.66971,-6.62591,-12.2465,-5.00285,-9.06582,-11.4359,-10.3917,166.896,-680.272,-713.944,11340,2800,2520
-18.4494,-15.9169,-8.42189,-9.94776,-8.79086,-3.05174,-3.12126,-3.62538,-22.5163,-11.2834,-9.14176,-12.4305,-5.23662,-5.31118,-2.53544,-2.66949,170.312,-682.224,-713.944,11480,1680,2520
-20.9225,-23.4206,-11.5062,-21.4518,-15.8178,-4.19545,-18.021,-6.38221,-26.3836,-13.7264,-10.1503,-18.2657,-6.61439,-9.17164,-20.9971,-10.3014,169.824,-682.224,-715.896,11340,840,2520
-10.9945,-23.6815,-8.40359,-32.4339,-23.6471,-5.81116,-34.8792,-14.2123,-15.5638,-6.39366,-6.07086,-16.2304,-5.18613,-10.9173,-47.1394,-21.5171,167.872,-680.76,-713.944,11620,280,2520
-3.08339,-12.1181,-2.99631,-15.5162,-11.3229,-3.39194,-15.4056,-8.04942,-7.11415,-0.429369,-2.35669,-6.23576,-2.51321,-4.49428,-24.5984,-9.93289,164.944,-682.712,-711.992,12460,-560,2800
5.18328,3.71791,1.24694,4.70438,3.51801,0.385788,9.11858,2.87737,4.60971,2.5693,0.614945,3.54645,-1.1355,2.06048,3.95761,6.31952,167.872,-684.176,-708.576,13020,-1820,2940
16.4404,9.53364,7.40483,3.69766,5.35421,2.27973,5.01579,1.20892,17.0439,9.67526,6.99864,10.0302,4.86594,4.21486,-2.45569,5.66593,166.408,-684.176,-706.624,13580,-2660,3080
7.73067,-0.0435094,1.52137,-5.46133,-2.96872,-1.87331,-3.44824,-4.712,4.55577,4.47243,5.40476,0.747429,2.64287,-3.1462,-11.2427,-3.6688,164.944,-684.664,-706.136,13580,-3500,2800
-11.7398,-16.6559,-7.28555,-10.7926,-7.54363,-3.78008,-0.897221,0.0838303,-16.3491,-8.02224,-0.745039,-12.8834,-4.16756,-5.79253,-3.32742,-2.3074,166.408,-681.248,-702.232,13300,-3920,2240
-3.70383,-1.59056,-1.44233,0.506972,2.27498,-1.49563,6.90241,2.56364,-7.56954,-2.3997,-0.36336,-2.20663,-1.44149,-1.72121,5.16759,1.11323,166.408,-681.248,-699.792,13440,-4340,1960
0.647306,8.80767,5.51795,11.9077,10.6388,2.81126,10.7078,4.07819,2.61139,1.33276,1.26032,6.5069,2.47952,6.55135,17.9334,6.0116,167.872,-683.2,-697.352,13300,-5180,2100
3.459,9.49366,3.37476,12.1394,8.69233,2.4052,9.71516,3.55453,6.9785,2.91423,2.39852,5.29593,1.99361,5.10783,17.0785,6.06111,167.872,-682.712,-698.328,13160,-5460,1960
10.459,14.0989,2.69645,13.3678,8.89944,3.63477,12.0373,6.65903,18.5693,4.46789,3.26273,7.6597,1.1037,6.51318,19.6086,8.34146,168.36,-686.128,-697.352,12600,-5600,1820
7.92995,10.813,3.749,12.5677,8.98099,3.3264,10.9542,5.05551,12.4636,3.5978,2.80523,7.61102,1.08042,6.69049,16.7926,8.44677,169.336,-687.592,-693.936,12040,-5740,1540
5.44576,21.2448,7.082,25.6387,17.4134,4.66059,15.7223,5.93836,8.87898,3.87104,0.652892,15.2128,3.10335,8.66758,22.151,11.4878,170.312,-691.008,-697.352,11340,-5460,1680
-1.58885,12.7884,3.93664,17.1347,11.5071,3.93208,11.2971,7.05518,1.96509,-0.341953,-2.19999,9.31587,2.24774,6.36615,15.6676,9.41738,170.8,-694.424,-697.84,10780,-5460,2100
12.9172,14.4414,6.37465,9.12185,5.29227,1.31104,1.43829,1.587,21.5193,7.90732,2.45217,11.8909,3.53277,4.10115,2.59382,2.59427,169.336,-696.864,-694.912,10500,-5180,2660
18.7838,13.3833,7.26379,-2.89725,-3.40132,-1.46698,-14.9163,-8.477,26.4017,12.1661,5.19018,10.8101,4.08793,-0.171325,-18.6341,-10.4233,170.312,-698.328,-699.792,9940,-4900,3780
1.90724,-6.96807,-1.15947,-20.0935,-14.4016,-3.17949,-25.3354,-10.4729,3.18089,1.73911,1.04951,-4.58704,-0.324846,-5.57355,-32.5687,-17.2612,169.824,-701.744,-695.4,9800,-5040,4760
-14.6434,-19.0943,-8.60848,-18.4883,-12.694,-1.42261,-11.3126,-2.82354,-20.9193,-9.64552,-5.80675,-14.0581,-3.36202,-6.36901,-16.7497,-9.2791,170.312,-699.304,-698.328,9940,-4900,6300
-15.2326,-15.6962,-8.76566,-4.85901,-4.98229,-1.26355,4.06468,2.72798,-20.7015,-10.7204,-5.71821,-11.7764,-4.19015,-4.20605,6.32156,-0.745171,168.36,-701.256,-698.816,10080,-4760,7280
-10.6918,-13.4088,-5.81976,-7.7618,-5.8593,-2.17447,-3.52069,-1.667,-17.8695,-6.12307,-3.55136,-9.24947,-1.66849,-5.3634,-3.87157,-4.78998,172.264,-696.864,-704.672,10920,-4340,8820
-0.045027,-9.55417,-0.0155892,-14.2478,-8.8385,-2.90508,-14.1673,-6.03174,-5.44762,2.70883,2.40508,-4.81629,1.55946,-5.02107,-19.8428,-10.803,172.264,-695.888,-706.136,11620,-4060,10500
-0.73656,-11.6773,-1.91131,-12.2721,-7.16908,-2.32551,-7.81935,-0.0361588,-0.444022,0.227521,1.74136,-6.3845,-0.702868,-4.45469,-11.2708,-3.02559,171.288,-694.424,-712.968,12320,-4060,11760
4.57172,2.90359,0.141942,4.40496,3.47921,-0.0254224,6.10296,3.79786,6.21871,0.587792,0.794051,2.12461,0.0676502,-0.631214,1.95757,6.49896,169.336,-696.864,-716.872,14140,-3640,13300
1.67226,3.33844,1.04084,5.22142,4.99219,1.33913,7.53884,4.33769,6.13331,-0.859786,0.691627,2.57019,0.673654,1.24345,7.69587,8.11591,168.36,-692.96,-714.432,15120,-3360,14420
-0.876024,-0.0942743,-0.281131,0.994535,2.13365,-0.141201,4.66684,1.30209,-0.452575,-0.986971,0.0742889,-0.7387,-0.242212,-0.202909,5.13256,5.77612,166.408,-691.496,-717.36,17220,-3500,15960
6.85486,7.14269,2.64436,4.91718,2.96415,-0.247889,2.8447,-0.0945098,9.76483,4.12041,2.6272,3.7587,0.582021,1.56911,6.70459,3.01035,162.504,-688.568,-714.432,18340,-3360,17360
9.25476,5.73341,3.58059,3.87827,1.60252,0.350781,-0.634157,-3.45656,10.9165,6.94965,5.7724,3.81962,2.13541,1.31273,3.30841,-2.24202,162.504,-689.056,-715.408,19740,-3220,18200
-5.00352,1.6953,-0.543653,7.0128,3.54515,1.16316,4.64291,-0.643697,-5.89476,-1.21001,0.0752137,0.168517,-0.243428,3.2019,8.73545,2.23051,163.48,-689.056,-716.384,20300,-2660,18620
-17.3096,-3.67517,-4.7483,8.9026,5.64199,1.4444,12.6822,5.35119,-21.0157,-10.4951,-6.4772,-4.29214,-3.06285,4.5902,19.1399,8.96819,157.136,-689.544,-712.48,20440,-2520,18900
-15.4058,5.44299,0.0576851,23.183,17.6867,5.44043,23.9389,10.3357,-19.8009,-10.2716,-6.336,3.57544,-0.991516,11.0887,35.0111,17.1052,156.648,-692.96,-712.48,20860,-2100,19040
-12.0565,-2.28646,-3.35261,7.38761,5.61892,2.35522,10.6119,6.55528,-15.1261,-9.0605,-6.79813,-2.99596,-2.87903,2.67607,16.0308,9.45071,153.232,-695.4,-717.36,20860,-1120,18760
15.7789,2.15464,1.28999,-9.11042,-7.78448,-1.30871,-9.05406,-0.697682,20.8048,7.05159,2.89235,0.919264,-0.20963,-3.11296,-8.50205,-4.57583,145.912,-697.352,-716.384,20860,-700,18200
3.25014,2.07953,-0.0236087,-1.76631,-2.27852,-0.409317,-2.53891,-1.28186,1.17545,-0.195023,-2.59301,1.11334,-1.94268,-1.4209,-5.81699,-1.5749,141.032,-697.352,-712.968,20580,-560,17640
-5.15421,-9.58155,-3.95303,-8.83123,-6.77456,-0.650627,-6.85135,-3.07126,-10.7999,-4.0731,-2.45107,-6.66052,-3.81856,-2.89854,-9.48306,-2.24649,140.056,-697.84,-712.968,20720,-420,17500
12.968,-8.25638,-0.951112,-22.9701,-16.4798,-3.40384,-22.1527,-10.0327,8.72347,9.61387,4.42318,-5.55303,-0.532003,-8.96773,-30.3907,-14.2129,138.592,-699.304,-712.48,21140,-140,16940
19.8527,0.222636,6.31712,-18.3083,-12.4391,-1.79856,-24.0694,-12.621,16.9749,15.9608,9.58281,3.19897,5.31303,-6.37861,-31.6206,-18.3362,136.64,-700.768,-711.504,21280,980,15820
5.22144,0.803741,4.45529,-7.09818,-4.29922,-0.378621,-12.9149,-9.68221,2.8584,6.16211,5.20644,2.40221,4.44715,-2.39012,-16.4756,-12.9148,133.224,-703.208,-712.48,20580,1400,14980
-6.0282,-9.45239,-1.91237,-19.056,-11.7488,-2.51488,-25.9019,-11.0646,-9.45631,-1.26,0.903214,-4.94286,0.975008,-6.45112,-34.6934,-20.144,134.688,-702.72,-716.384,20440,2240,13440
-10.0631,-19.5521,-5.29901,-30.4474,-19.674,-4.01765,-30.4132,-10.1573,-17.4545,-2.87037,0.156568,-11.6577,-0.144835,-9.41944,-43.3355,-21.5917,135.664,-705.16,-713.456,20300,2520,12460
-8.26539,8.63028,1.47665,24.0273,16.5547,2.84212,26.2208,9.0311,-11.0872,-3.18916,-4.22765,5.01966,0.533398,7.6232,28.8208,13.8169,132.736,-704.672,-719.312,20580,3360,10920
1.42938,24.9046,6.89953,47.3569,33.2234,6.13571,48.8653,17.4528,5.61014,1.17691,-3.08154,16.2913,1.49146,14.5627,57.2219,28.6499,134.688,-706.136,-721.752,20440,4200,9380
9.57575,21.7758,5.37837,30.2983,19.6974,3.18112,29.162,11.6927,20.5196,4.34051,1.91352,13.7265,1.73232,7.97655,35.8974,15.9026,133.712,-707.6,-715.408,21280,5040,8260
-2.55168,13.6893,0.807891,16.1528,11.375,3.02961,20.0855,9.16697,9.03529,-4.75734,-2.14597,7.11572,0.192367,4.36866,21.5326,11.4978,132.736,-709.064,-714.92,21840,5600,7140
-12.5815,-3.34696,-6.17714,2.08667,2.60778,2.04209,14.292,8.99175,-1.67343,-12.7623,-7.39623,-5.12923,-3.65318,2.30535,15.9446,12.4332,132.736,-710.04,-704.184,21840,5460,6300
8.7932,5.14776,0.0673086,0.750655,0.842861,0.415467,3.3173,3.28206,18.1434,0.826278,-0.553162,2.01279,0.5237,1.14004,7.00272,6.7965,130.784,-707.6,-702.232,21840,5320,5040
3.81129,-4.58329,-0.424802,-2.92279,-1.91505,-1.50165,2.04643,2.29818,2.78792,1.70676,-0.574388,-3.54698,0.502808,-1.20798,7.03965,5.19023,129.808,-712.968,-696.864,21140,4760,3640
4.98327,1.72169,3.90072,5.13141,3.55439,-2.02588,1.61069,0.380643,5.67855,3.45523,-0.185936,2.0405,1.68006,3.68417,10.9864,1.87576,133.224,-713.456,-692.472,20300,4480,3080
6.20812,1.6561,3.52659,-5.87753,-3.43465,-3.80979,-15.3327,-6.78435,4.75086,2.62262,1.59063,3.231,1.07811,-0.64195,-17.3076,-9.41492,132.248,-716.872,-692.96,19740,4200,1540
-1.12995,-15.3449,-5.47584,-23.3142,-17.7809,-4.42436,-22.3144,-6.74537,-4.61605,-2.53713,3.57768,-9.80298,-2.95599,-7.85203,-27.5028,-13.0567,130.296,-720.776,-684.176,18760,5040,280
-4.23136,-15.5752,-7.29387,-18.381,-14.5719,-2.86187,-9.82575,-3.68706,-8.41443,-4.4616,1.934,-10.5733,-3.41332,-6.69116,-14.9335,-5.79174,135.176,-724.68,-690.52,17360,5180,-1120
-6.88446,-1.57168,1.46318,-6.84769,-3.84126,1.33432,-16.4356,-6.22829,-9.75736,-1.75198,1.36968,2.67176,1.49707,1.14945,-23.0711,-6.98626,137.128,-726.144,-688.568,16660,6160,-1680
-11.226,-25.808,-5.19962,-47.543,-31.7953,-6.41524,-59.3626,-21.0723,-18.3683,-1.52002,3.37093,-14.2939,-1.35947,-13.1714,-77.0239,-34.5999,142.496,-730.048,-690.52,16800,6580,-1680
-14.1737,-35.3025,-13.2297,-40.911,-29.8141,-7.14097,-33.5965,-10.7226,-19.7031,-4.54089,0.0592875,-24.5115,-6.05043,-15.1234,-41.5419,-23.5836,144.448,-732,-688.568,17080,6720,-1120
1.28223,16.3246,4.69814,33.378,21.4152,4.79317,30.7989,10.7632,5.23552,2.09927,-2.17176,10.5646,0.333786,10.0471,42.4096,16.8383,147.376,-732,-690.52,17360,7140,-840
7.69349,28.3484,9.5866,44.4896,28.5498,6.4696,37.1208,12.7861,13.2605,3.95538,-1.2618,18.2517,2.44478,13.3621,51.1971,24.6303,148.84,-729.56,-689.544,18200,7420,0
6.28438,23.1139,7.38128,34.4834,21.0376,3.81045,30.6433,8.62356,11.085,4.49566,-1.01112,13.2074,1.12005,7.80261,41.9839,19.226,153.232,-729.56,-692.472,18620,7840,840
5.49579,11.2064,3.69878,18.8033,11.9496,1.86799,22.7255,6.7527,10.492,3.97977,0.948415,6.79674,-0.521087,4.25937,32.4497,13.7404,151.28,-725.168,-691.008,19040,8540,2100
14.0921,11.1898,4.0976,12.1778,7.90237,1.21484,17.3216,2.81865,18.2797,9.29202,4.02401,7.17896,2.3282,1.74199,20.6124,7.12827,154.696,-720.288,-688.568,19180,8960,3080
14.5926,9.48861,5.94321,10.2264,8.67428,4.13278,12.7637,3.86828,17.657,10.6325,5.60421,7.65012,5.10148,5.01135,13.1402,3.87575,157.624,-721.264,-694.912,19740,9380,4200
13.5909,6.26535,2.36252,-0.471703,0.769035,2.47852,4.48618,1.61538,13.2719,8.39509,5.45685,4.93687,3.82039,0.954939,-1.39666,-1.16691,156.16,-716.384,-692.96,20300,9940,5320
1.62805,4.74165,4.36516,-7.29002,-0.665128,3.44988,-8.70378,-0.00761887,-3.30822,0.809985,0.161752,5.70568,4.08013,2.19073,-18.6361,-3.05774,159.576,-716.872,-695.4,21140,10220,6440
-35.8523,-35.4445,-11.0415,-42.264,-23.8264,-2.18237,-35.1547,-5.96788,-53.3316,-21.3657,-10.7181,-22.471,-3.64701,-9.05689,-52.5964,-17.0198,164.944,-718.336,-698.328,21980,10360,7980
-35.8419,-31.6106,-15.1199,-26.1782,-16.5574,-3.91826,-17.6059,-3.99041,-51.2532,-22.8929,-11.7833,-23.8828,-6.56751,-10.0006,-24.7795,-9.83694,165.432,-714.432,-701.744,22540,11060,9380
-21.3648,-13.5491,-10.3715,3.91478,2.24567,-0.879655,11.565,4.97182,-28.7794,-16.0282,-8.29706,-13.6148,-5.9832,-0.926976,18.0714,7.40441,164.944,-701.744,-708.088,24220,11340,11060
8.33314,3.89517,-1.32757,7.16696,3.06366,-3.17782,0.00786125,-2.35615,7.86845,2.18665,1.08498,0.0966952,-1.43127,-0.944726,8.58092,-0.13968,168.36,-699.792,-714.432,25900,10780,13580
26.4948,13.5372,7.93359,-5.78544,-4.74979,-4.66882,-28.4193,-14.8318,27.9102,17.2496,9.7971,11.1732,5.5332,-3.86724,-27.6736,-17.3281,168.36,-694.424,-710.04,27160,10360,15960
22.6682,-2.33528,3.2599,-24.5458,-19.1754,-7.36379,-35.2511,-16.0479,25.9285,14.2403,12.1545,0.0249718,2.75387,-9.90925,-40.451,-21.9831,171.288,-688.08,-709.064,28700,9940,18620
-0.147978,-7.32207,-3.2773,-7.16583,-6.01551,-2.82224,-1.81318,-1.71979,3.81673,-2.61151,1.92216,-7.30761,-1.57047,-4.69882,-2.69253,-1.47609,165.432,-685.64,-710.04,30660,10500,20300
-4.32039,9.77179,1.01002,24.0256,15.6138,3.21157,27.9188,8.77899,5.12663,-6.26142,-1.77059,3.85335,-0.483806,6.74108,38.2975,17.3997,165.92,-686.616,-707.6,31220,10640,21420
7.94204,17.1389,2.97738,23.746,15.1356,3.04676,25.0302,6.93873,18.7677,1.60253,-1.60959,11.2891,-0.455856,6.6104,33.0139,15.8765,164.944,-682.712,-704.672,31360,10080,22960
-3.07619,2.43383,-2.24016,9.31383,6.7436,2.19197,17.5803,7.28167,1.54703,-4.08839,-7.50544,1.13886,-4.0263,3.99492,21.6058,12.3947,161.04,-679.296,-702.232,30940,9520,23520
-3.77923,7.00412,4.36956,13.2522,12.8706,5.94861,18.0662,9.59978,-2.00817,-1.48574,-5.02087,6.81388,0.135015,8.49159,23.4397,13.2812,164.944,-685.64,-701.256,30240,8680,23940
-1.64834,2.41997,2.20837,5.23687,6.83477,3.15077,8.70934,4.29213,-1.07522,0.938982,-1.94129,3.69289,0.720113,3.60065,9.71967,5.20312,161.04,-684.176,-702.72,28700,9100,23380
14.9764,7.88779,3.24862,-1.4554,-0.590884,-0.529806,-5.3984,-1.73425,21.4273,10.4017,4.01989,5.97964,1.5413,0.146169,-4.96826,-4.99509,158.6,-685.64,-704.184,28700,8960,23100
4.49978,0.608508,0.481393,-8.15482,-4.9305,-1.36281,-12.36,-2.63798,5.10724,4.06801,2.44021,1.2351,0.0733336,-2.21196,-20.7064,-9.04484,157.624,-686.616,-705.648,28140,7560,22820
2.45238,0.213609,1.49686,-7.80284,-5.44806,0.447375,-14.6005,-5.10166,0.886232,3.97858,2.99896,1.47103,1.62528,-1.72111,-21.1836,-9.64949,155.184,-687.104,-701.256,27860,6860,22540
-8.98019,-6.86657,-0.438831,-10.4467,-5.9569,0.868353,-9.89476,-4.06534,-13.309,-2.76648,-2.09721,-2.75573,0.975853,-0.515938,-16.1462,-5.86182,151.28,-689.056,-702.232,26880,6300,22120
-16.2041,-8.62452,-3.39072,1.24537,1.53761,2.73698,11.454,4.35045,-21.7246,-8.86636,-5.17371,-6.23291,-0.463781,2.00688,10.4784,8.15019,155.672,-687.592,-706.624,26460,6160,21420
-0.0572667,8.59426,3.51454,14.7462,8.80277,3.55618,12.732,3.07206,-2.16327,0.0645322,0.853676,5.29803,2.62492,5.05314,14.9499,8.2047,150.792,-685.152,-705.648,25340,6020,20580
-14.8118,-12.4824,-3.25982,-7.23981,-7.03753,-0.692245,-9.80846,-4.78888,-23.1895,-7.8512,-1.34852,-7.59438,-0.834448,-1.76559,-14.0325,-6.01832,151.28,-688.568,-705.16,25060,5320,19880
-15.9301,-26.3884,-10.2796,-27.2467,-21.4082,-4.19731,-24.4266,-9.61181,-27.6865,-6.87604,-1.80304,-17.8487,-3.44093,-10.1355,-34.3914,-16.9914,147.376,-685.64,-704.184,24640,4760,19040
8.36573,-4.21924,-1.16799,-7.8126,-7.07648,-1.55696,-7.50522,-1.83633,9.64006,6.9423,4.5937,-2.33144,0.245825,-3.45022,-8.36269,-5.43914,145.424,-690.52,-702.72,24500,3640,18340
24.7562,18.0352,6.3179,13.0257,6.5265,1.09409,7.98527,2.38404,31.3215,16.7271,5.92665,13.0285,4.4155,2.5359,9.80753,3.69242,140.544,-688.568,-704.672,24220,2660,17640
16.3499,11.4721,2.68026,8.88603,2.81554,0.606356,6.13256,4.81436,24.0368,9.95486,3.59224,7.63689,1.32499,2.25741,11.3484,3.24419,136.64,-691.008,-701.256,24080,1820,17220
3.51368,3.11749,0.253716,5.79286,2.29896,-0.379966,9.6602,7.66418,5.26281,1.07138,-1.92295,0.269478,-1.60394,1.19814,10.0153,6.17044,132.248,-690.52,-702.232,23240,1120,16100
2.78714,7.6563,3.71589,11.1799,7.06374,0.0534588,8.91993,6.67671,4.79785,-0.272925,-0.833348,3.74425,0.115105,2.96595,9.6653,5.84997,133.712,-691.008,-701.744,22680,420,15400
-3.35541,-2.5241,0.933352,-4.11092,-2.66216,-2.40628,-6.59251,-1.47265,-3.66693,-3.26038,0.50883,-3.16875,-0.16624,-1.85405,-6.65978,-3.17144,137.128,-692.96,-699.792,21140,560,14000
-8.47933,-12.0687,-2.94158,-15.9652,-9.86858,-5.10388,-15.4589,-8.215,-14.8172,-6.46077,-0.0135836,-9.16074,-1.45136,-6.89354,-16.7069,-9.01387,128.832,-687.592,-697.352,19460,1960,12040
-11.541,-11.8845,-4.74905,-14.0021,-7.86944,-4.07553,-7.69668,-4.91077,-16.8191,-9.19981,-0.907547,-9.00993,-2.28755,-5.90956,-5.74169,-5.32013,126.88,-687.592,-694.912,19460,1540,11900
-16.4061,-10.5401,-3.99589,-6.94025,-2.91657,-1.37739,-0.341706,-0.968583,-19.9593,-13.2278,-2.2226,-7.22293,-2.60311,-0.434522,0.834905,-0.869376,130.784,-687.592,-692.472,19600,1120,11340
-14.3045,-2.38516,-1.3109,3.99633,5.34135,1.28128,4.58787,0.953812,-12.5854,-12.4594,-2.2396,-1.68078,-1.74989,2.39225,6.83325,2.43254,131.272,-688.08,-696.376,19180,1400,10500
-2.6208,1.6857,-2.28374,5.14311,4.35387,-0.805627,7.61235,2.75989,5.63842,-5.16656,-2.44731,0.278344,-2.21129,0.647873,14.6537,4.43871,132.736,-683.2,-699.304,17640,2660,9100
17.2137,27.8863,9.1115,29.3576,21.0669,3.32792,20.9852,3.56955,24.5813,8.25663,0.450246,19.9844,4.34245,8.6887,32.0999,14.0373,132.248,-683.688,-697.84,16240,3080,7700
4.82498,12.6749,6.15765,17.5481,13.5161,3.1162,9.65357,2.8207,5.11471,2.8086,-1.31761,10.4826,2.89706,6.54327,13.9356,7.56001,132.736,-680.272,-694.424,15260,3080,6860
-1.71312,-5.20088,-1.58125,-4.87299,-2.85887,-0.971351,-4.72176,-0.314317,-2.54284,0.609491,-1.75484,-3.34504,-0.731433,-2.9815,-7.92951,-3.43559,133.712,-682.224,-692.472,13720,2940,5880
9.84836,1.62933,2.21937,-6.91473,-3.22586,0.590751,-7.22589,-2.06565,12.6012,10.7461,3.81621,2.98742,2.47371,-1.40206,-12.8026,-4.90729,136.64,-680.76,-693.936,12180,2380,5040
15.0131,3.76321,3.34805,-6.53405,-3.20946,1.09173,-8.28188,-2.9573,18.3569,13.4325,6.61005,5.00136,2.80573,-0.22391,-12.4343,-5.7263,139.08,-678.32,-690.52,11060,2100,3920
-1.76712,-1.89339,-0.201977,-0.0772529,2.28845,1.21655,4.28118,-0.311622,-4.39995,3.16408,-0.209561,-0.123289,0.110203,0.365344,1.56873,2.81449,138.592,-681.248,-688.568,9940,2380,2940
-7.40596,-1.85949,-1.61778,7.78783,6.83208,2.49838,15.6063,6.34556,-7.67165,-2.38878,-2.09423,0.0146132,-1.45838,5.15796,19.3069,11.7621,138.592,-684.176,-688.08,8820,2240,2380
6.27715,7.85896,1.56181,7.23232,3.19195,0.222587,6.0451,2.27056,9.07233,3.91634,1.98703,4.94476,-0.220531,2.62772,6.54,4.92663,141.032,-681.248,-686.616,8260,1960,1680
1.87846,-0.269983,-0.840676,0.887102,-2.84075,-0.442219,-2.56933,-0.667941,2.41296,1.39121,2.27581,-1.26571,0.0195947,-1.16732,-4.22564,-2.18919,142.984,-683.688,-689.544,7700,1960,1120
0.93335,-0.207172,-2.10747,1.68603,-3.07571,-0.242409,-1.52962,-1.96826,1.13309,0.487828,0.632777,-2.22165,-0.586389,-1.62743,-3.15113,-3.52699,144.448,-687.592,-687.104,6720,1960,560
0.120224,-8.30286,-4.24088,-13.7871,-12.3697,-2.19681,-14.3957,-6.83084,-2.68949,-0.261961,0.247222,-8.82076,-2.47918,-5.51862,-20.5447,-10.6925,143.472,-686.616,-683.2,6020,1680,140
0.18645,-9.63836,-3.43349,-14.9494,-11.0648,-0.836949,-12.6419,-5.67729,-4.19267,-1.65822,0.107759,-8.81238,-1.73516,-4.29108,-20.6254,-7.7232,142.984,-687.104,-684.176,5040,1400,0
-5.46715,2.25086,1.76576,11.9369,8.45035,4.46053,13.3707,5.43971,-8.67497,-5.30314,-3.83452,0.902297,0.139643,6.51074,14.1827,11.0236,146.4,-687.104,-679.296,4060,840,-280
8.11827,6.55017,2.9238,-1.30941,-1.14806,0.970096,-8.8414,-4.48801,7.21492,4.04755,1.70664,4.78595,2.38007,-0.162391,-10.9128,-3.49471,146.4,-691.496,-681.736,3500,560,-420
4.92232,-12.6541,-3.43084,-31.263,-22.4555,-3.93927,-37.05,-13.1864,3.11738,3.48991,3.5703,-7.68271,0.418604,-10.633,-43.3516,-21.9542,148.352,-691.008,-685.64,2380,-140,-700
-19.0095,-19.2898,-9.26669,-13.9234,-9.15921,-0.943383,-5.03522,-1.34724,-29.0787,-12.2961,-9.15708,-14.9422,-4.19749,-5.23009,-6.20948,-3.69109,149.816,-691.008,-684.176,1680,-560,-560
-6.35904,-2.65327,-2.93938,6.54318,5.38394,1.31343,11.8952,5.43988,-7.88142,-5.41757,-5.57928,-2.03822,-1.26809,2.35789,23.3397,7.82533,147.864,-693.448,-678.32,840,-980,-560
4.08189,3.14144,0.147787,4.33085,3.89712,-0.00337014,6.94485,4.68626,6.65057,2.29506,0.484194,2.62485,1.31207,0.362591,16.2533,4.67404,147.864,-693.936,-682.712,280,-1820,-560
-4.8425,-0.911572,-0.801604,2.04458,3.16147,-1.83384,5.22506,5.42934,-2.48088,-2.54309,-0.653327,-0.653602,0.092664,0.121172,10.8473,3.58755,151.28,-695.4,-683.2,0,-2100,-280
0.233332,6.58554,2.53294,10.3735,7.6836,-0.839915,8.61734,6.90311,3.13402,-0.659125,0.340572,4.45243,0.963004,2.62575,12.6033,5.66559,151.28,-698.328,-684.176,-420,-2380,-140
8.79177,7.79102,3.21018,2.57488,2.06338,-0.611496,2.12495,2.65575,12.791,5.80253,3.65119,6.2543,2.79991,-0.554222,0.369491,0.36921,149.816,-695.4,-684.664,-420,-3080,140
13.0313,9.74421,5.46059,1.00855,0.984016,-0.00397649,-1.57124,-0.528906,19.6819,9.92472,5.80311,9.11304,2.72803,-0.274869,-4.41533,-1.98059,153.232,-694.912,-683.688,-840,-3220,280
11.3806,14.0925,7.87509,8.58664,5.42768,0.707339,0.344832,-1.17967,16.9572,9.22374,5.40245,11.4364,2.65532,2.22366,-2.10961,-0.835049,152.744,-696.376,-686.128,-840,-3360,420
-0.68313,9.86912,5.53763,9.26447,5.42791,0.2464,-0.549436,-1.05966,-2.05856,0.916677,0.65086,7.76339,2.47447,2.82296,-3.63978,-2.1221,153.232,-699.792,-682.712,-1400,-3640,700
-30.8496,-10.8749,-3.37175,5.98484,6.81344,1.95007,11.4035,6.79549,-41.2237,-20.1358,-10.5702,-7.19931,-3.17222,5.24909,9.53343,8.38784,151.28,-695.888,-683.688,-1120,-3920,700
-36.0245,-17.7276,-6.76058,3.83012,6.33063,2.372,19.4427,11.1887,-46.5257,-24.0448,-13,-12.5266,-5.17518,3.84278,16.5999,13.5688,152.744,-700.28,-686.616,-1120,-4620,840
0.859298,-0.692783,2.09852,-0.713395,-0.0589991,-1.00026,1.48658,1.78275,2.4089,-0.75156,0.762325,0.803125,-0.263212,1.33152,-0.0288391,-0.181537,153.232,-699.304,-691.496,-700,-5040,700
7.07143,-0.659837,0.80593,-6.68154,-6.23877,-3.15224,-7.79908,-5.77783,10.8131,4.34917,3.8099,0.0269603,-0.637592,-1.5027,-10.023,-8.04703,155.184,-700.768,-690.52,-140,-4900,840
9.74285,5.00385,0.720447,1.91455,-0.80585,-0.739094,-1.23767,-4.48339,14.9748,5.1647,3.16113,3.38051,-1.4502,1.16709,-1.98068,-2.69427,154.696,-705.648,-695.888,280,-5040,980
12.3758,3.42344,0.60485,-2.37397,-2.4735,0.454106,-4.89231,-4.88035,18.8627,6.7056,3.73891,2.55722,-0.556084,-0.17287,-3.99595,-2.48137,155.184,-701.256,-696.376,840,-4900,1120
14.5515,5.58406,0.258888,-0.868378,-1.58535,0.0864195,-2.35156,-5.45058,19.5007,7.6409,1.92884,2.39879,-0.383994,-2.34972,-2.22248,-2.08778,154.208,-705.16,-695.888,1400,-4760,1540
14.2181,3.18639,1.77425,-2.37584,-2.4538,-0.147492,-3.71158,-3.45397,17.2592,8.82336,5.23015,2.13537,1.00247,-2.28841,0.401539,-1.85198,155.672,-703.208,-693.936,1960,-4480,1820
-6.58562,-11.2371,-3.29878,-11.5415,-8.09207,-0.718102,-10.8943,-5.25674,-13.7991,-3.27396,0.345572,-6.67189,0.0265915,-5.24673,-10.5744,-6.00331,155.184,-704.184,-697.84,2380,-3920,1680
-13.7079,-11.3187,-5.04579,-2.25659,-0.537542,0.950119,2.40813,-0.732621,-21.3129,-8.13859,-3.65952,-7.43747,-1.87778,-0.946445,5.69895,1.01079,156.648,-702.72,-694.424,2660,-3500,1820
11.4742,9.27749,1.82378,8.54934,5.84204,1.48471,5.7505,-1.43859,12.5742,7.28438,3.96871,5.72214,1.12932,2.2629,8.98874,2.63566,155.672,-701.256,-700.768,3220,-3080,2100
16.4556,17.3696,5.44933,14.5239,9.39784,3.43369,10.6808,0.971044,21.792,11.0156,5.37568,11.0972,3.13336,5.34967,15.5928,7.53661,155.672,-703.208,-697.84,3220,-2520,2240
5.44649,8.81419,1.83718,9.86625,4.24188,0.360742,7.0042,1.94719,9.17262,4.74951,1.97333,4.51111,0.623897,2.03114,12.7777,5.52388,151.28,-702.72,-695.888,3640,-2240,2380
-12.3387,-12.5244,-7.10502,-17.627,-13.9448,-4.18736,-16.8426,-4.08103,-10.3872,-7.18658,-0.109184,-12.2381,-3.64381,-7.8135,-20.1522,-9.58727,151.28,-697.84,-699.792,3640,-1960,2240
-22.7934,-17.7899,-7.78569,-20.7641,-12.5715,-1.23527,-14.3347,-0.948178,-26.7099,-14.7417,-5.06745,-15.0791,-2.99998,-5.59656,-22.876,-7.00866,148.84,-694.424,-696.376,3500,-1540,2100
-27.288,-21.3314,-7.42563,-15.6224,-8.75005,-0.336898,-11.9839,0.774829,-38.0053,-18.4531,-9.36598,-14.2538,-1.84553,-2.34615,-17.0794,-4.45051,149.328,-694.424,-695.4,3080,-1540,1820
-17.6513,-20.0103,-8.16284,-13.0482,-8.34076,-2.39514,-6.15398,-0.449764,-29.2366,-10.951,-8.46786,-14.7208,-2.00701,-6.1845,-11.7357,-2.73521,148.352,-695.888,-702.232,3080,-1260,1400
10.7585,9.88571,6.47708,8.80472,7.28411,1.83463,4.31512,2.97861,9.96927,9.16867,0.263188,7.56817,4.69569,3.48479,5.10401,4.23217,148.352,-696.864,-706.624,3220,-560,1260
8.22193,11.0236,4.88572,15.6561,12.0204,3.2502,15.8365,7.55076,8.50547,5.95541,-0.741648,8.2472,3.8535,6.07928,17.7902,9.46174,146.888,-699.304,-708.088,3780,-140,840
23.9432,16.8364,6.00507,18.5581,11.9058,2.67649,19.9526,8.51049,34.3619,13.9222,5.54911,12.0188,3.78205,4.28143,26.6063,10.7767,147.376,-698.328,-710.04,4200,140,840
32.3889,25.6975,11.5914,19.7801,14.4781,3.39586,17.0299,7.32249,45.5878,19.8442,8.46109,18.7183,5.96343,5.53116,23.0663,9.44682,145.424,-695.888,-709.552,4620,700,700
23.1554,21.8205,9.4198,15.3683,11.6519,1.20905,8.44815,2.95884,32.5467,13.787,4.19324,15.8802,4.62938,5.26791,13.1353,4.52328,147.864,-698.816,-709.552,5320,980,980
9.18119,6.73677,3.21366,1.45829,0.231542,-1.86891,-7.31584,-2.73565,13.6374,5.39076,2.11046,6.05076,1.2666,1.37008,-5.72307,-4.5741,146.888,-698.816,-709.552,5880,1120,840
0.420645,-1.39243,0.821556,-13.9339,-11.4113,-4.87532,-27.1385,-11.4619,-1.00779,2.05267,3.70415,0.893259,0.386509,-4.61441,-33.5355,-17.8819,144.936,-698.816,-709.552,6580,980,980
-25.2821,-23.0792,-10.1732,-23.988,-17.5831,-5.01545,-19.9965,-7.26932,-33.6941,-14.3268,-5.53927,-16.5107,-5.97004,-10.2462,-28.9639,-13.3289,146.888,-701.256,-708.576,7140,1120,1120
-14.5576,-10.2724,-4.21574,-1.73425,-0.431067,1.37889,6.87625,4.37818,-17.3262,-11.3178,-3.97188,-6.32226,-4.67358,0.018311,4.38702,5.41729,143.472,-702.72,-710.04,7700,1260,1120
-4.39887,2.91194,3.17813,4.5516,5.08946,3.17573,5.5983,1.92155,-6.91227,-3.11347,0.99933,4.49529,0.395273,3.81807,0.630669,4.93537,146.888,-708.576,-708.088,8400,1400,1260
-23.1713,-13.6042,-5.31146,-0.963261,0.873721,2.49287,5.81646,4.2403,-30.6871,-14.256,-5.38088,-8.83353,-2.90439,3.46902,4.63171,4.94154,146.4,-706.624,-707.6,9240,1400,1680
-17.7097,-7.51889,-4.65724,-0.263772,-0.330825,0.302585,0.465604,-0.327522,-24.1722,-11.6225,-5.21326,-4.29968,-2.75753,1.6211,1.1839,-0.76047,148.84,-710.528,-704.672,10080,1540,2100
-20.5753,-19.455,-8.78021,-15.6405,-11.6935,-2.1689,-7.49667,-3.8868,-29.7081,-12.5858,-5.32229,-12.3173,-4.2952,-4.82494,-12.0579,-6.47943,147.376,-713.456,-706.624,10640,1820,2380
-1.70872,-12.3139,-5.89949,-9.37237,-8.45202,-2.77887,-1.27821,-2.56295,-5.39354,-1.22476,2.09463,-9.1871,-2.49712,-2.84034,-1.82164,-3.08605,146.888,-711.504,-699.792,11200,2240,3080
18.5241,15.5073,4.31066,13.481,8.24812,-0.636361,12.3002,-0.0173923,21.5039,10.5339,4.27532,8.05958,1.75622,3.67935,14.0863,4.05583,149.328,-718.824,-703.208,11060,2380,3500
16.5425,16.3278,6.2035,15.6167,11.0066,2.34703,15.8932,2.05301,23.3635,10.1216,2.97128,9.49995,3.02986,7.84426,22.1612,7.79952,148.84,-715.408,-697.84,11480,2800,3920
21.5484,16.9047,6.72924,6.29871,3.89606,-1.88216,-2.18399,-6.31949,28.7954,15.1661,6.02535,11.9802,3.96535,1.40132,-0.247911,-3.26011,148.352,-714.92,-696.864,11340,3360,4480
13.9005,6.83796,1.75231,-5.35146,-6.04973,-5.26347,-16.9443,-8.07664,21.985,10.1206,4.89215,4.00561,1.35344,-5.58467,-13.3537,-12.5024,145.912,-715.896,-694.424,11200,3500,4620
-9.78273,-12.5188,-5.26985,-15.5505,-13.008,-5.06503,-18.0658,-5.01296,-12.1494,-5.91866,-3.49277,-10.4172,-4.28916,-9.36568,-16.8137,-10.0993,145.912,-712.48,-691.496,10500,3640,5040
-21.3293,-11.8357,-1.9927,-9.69656,-4.04669,1.11512,-8.41148,1.30085,-28.8222,-12.6053,-8.23334,-8.15284,-2.87379,-1.99524,-10.3882,-1.04957,146.4,-710.04,-689.056,10080,3360,4900
-19.3814,-17.8224,-6.53445,-9.63564,-4.02639,0.745182,2.84057,5.30409,-23.6036,-12.9497,-7.41917,-14.043,-5.23212,-2.00042,3.23918,5.79337,149.328,-706.624,-692.96,9520,3080,5040
5.2699,6.09431,3.19735,9.97147,7.09982,1.16494,9.68721,4.35901,9.77292,1.86252,1.93507,2.96358,0.13466,1.63362,15.4819,7.65437,148.84,-707.6,-690.032,9240,2800,4760
8.63329,3.82127,1.63011,-1.71431,-2.38638,-0.126353,-4.93583,-1.04205,13.5151,4.64901,3.74483,1.76378,1.55083,-4.30888,-6.45803,-1.53924,148.84,-704.184,-688.08,9100,2800,4620
9.35552,-0.767454,0.925064,-7.67912,-6.60359,0.915055,-8.34282,-0.496432,14.9202,5.97478,5.08567,-0.190157,0.696698,-4.72206,-9.55193,-2.49712,146.888,-701.744,-689.056,8680,2100,4480
3.14253,6.79749,2.42638,11.3241,7.02269,4.33215,13.3293,6.27858,3.89869,1.82848,-0.39137,4.82284,1.59335,2.42336,14.3076,9.0049,149.816,-701.256,-688.08,8960,1680,4340
-3.89681,6.33635,3.53179,20.132,13.9641,6.62011,21.6798,9.4419,-3.53481,-2.11789,-2.11215,5.78464,2.93924,8.51516,26.797,14.7266,149.816,-701.744,-686.128,8960,980,3780
1.96021,6.44533,3.94973,12.7844,9.29134,3.71019,11.4441,4.0954,2.09259,2.67192,1.16196,6.21898,3.54964,5.90761,13.4769,7.01619,150.792,-708.088,-686.616,8820,280,3220
7.68553,4.66174,0.502495,4.22919,3.27253,0.375965,4.64456,1.55216,10.558,5.36217,3.19252,4.53501,1.55484,2.23802,5.15966,3.13388,148.84,-706.136,-694.424,8820,0,2800
12.6301,12.8217,3.43653,13.247,10.2884,2.0497,13.6868,3.5185,16.3086,6.98357,3.07397,9.79441,2.35928,5.4075,15.0919,7.04046,153.72,-709.064,-692.96,9100,-700,2380
12.8333,12.4704,4.08766,9.82773,7.97904,1.86184,6.18228,0.975996,13.6129,6.16235,1.37913,9.81805,2.3812,4.11622,6.75072,2.15093,149.816,-708.576,-690.032,9240,-700,1960
5.12033,0.501811,0.884713,-2.25783,-0.569191,1.37055,-4.89217,-2.23055,2.8489,4.33746,1.8345,2.87365,1.21347,1.20033,-4.86411,-4.9238,150.792,-712.48,-691.496,9660,-1120,1680
-0.232228,-5.7681,-3.63615,-7.80162,-6.35497,-1.95643,-9.17007,-3.68521,-0.0761276,-2.03946,-0.593202,-2.99208,-2.15084,-3.28255,-10.0016,-7.00528,150.304,-711.992,-687.592,9800,-1260,1120
4.32049,8.6471,1.80495,-2.35418,-1.74224,-1.81215,-12.8372,-7.73862,11.5093,0.00490102,2.3709,4.59469,0.423944,-2.4164,-14.8214,-9.8243,151.768,-710.04,-690.032,9940,-1540,840
-8.88971,5.2608,2.51573,0.724111,1.54233,0.030007,-7.09223,-4.37716,-9.25075,-7.40906,-2.58421,2.36355,1.22885,1.83576,-9.35374,-5.20605,151.768,-710.528,-686.616,10360,-1820,420
-32.8771,-19.9801,-8.27956,-12.847,-7.73446,-1.09211,-9.68454,-1.67325,-47.1361,-21.8335,-11.1429,-15.9483,-3.24853,-1.49886,-17.3258,-4.11243,152.744,-708.576,-689.544,10780,-1820,140
-23.6357,-39.4779,-14.6522,-43.7904,-29.2583,-6.56378,-32.0959,-8.2669,-35.9892,-12.8112,-4.09163,-28.8185,-5.90358,-12.8135,-46.1295,-17.7763,155.184,-704.672,-689.056,11060,-1820,140
-8.14556,-33.0485,-11.5212,-41.1479,-28.0098,-6.74463,-25.8729,-8.0903,-16.6983,-2.33781,1.32493,-23.2029,-4.22054,-12.965,-38.2932,-17.8399,156.16,-700.768,-694.424,11480,-1960,0
0.610283,-0.969587,-0.408596,6.32851,5.54588,2.31569,17.8522,7.63598,-0.583881,2.16749,0.742029,-0.569045,0.253507,3.87406,18.8404,9.25869,152.256,-702.232,-688.08,11620,-1680,140
24.9325,33.681,14.786,37.64,27.1938,6.48713,32.6362,11.4025,35.1657,16.1859,6.33672,24.1683,6.24078,15.4069,42.5421,19.8238,156.16,-697.84,-688.568,11900,-1400,560
28.2381,24.5307,10.2922,17.6527,11.7076,-0.662474,11.9341,-0.263964,37.7992,18.5701,7.27305,17.3153,4.73166,4.15082,14.6155,5.91755,155.184,-698.328,-688.08,11900,-1260,700
18.6839,14.8869,5.48706,13.3481,6.58733,-2.53613,8.78506,0.396005,26.7359,11.7355,4.39334,11.3135,2.24708,1.75787,16.6924,4.79036,150.792,-699.304,-686.128,11620,-700,840
2.38084,8.97458,1.79895,14.0697,6.74125,-2.75882,10.3179,2.25758,2.75985,1.02296,-2.14422,5.28105,-0.599363,0.990696,18.1395,5.94204,154.208,-699.792,-688.568,11200,-140,1120
-1.90567,-0.173507,-0.250257,3.79626,1.09424,-2.80033,3.25133,0.457709,-1.97663,-1.12709,-1.79626,-0.81116,-1.03048,-0.816454,9.9671,2.18829,150.304,-699.792,-690.52,10920,560,1680
-8.05597,2.74213,1.80266,9.02658,5.72918,0.182759,4.78756,1.30987,-11.8194,-5.55362,-3.4192,2.10485,-0.214156,3.52955,8.90597,3.65105,149.816,-700.768,-691.496,10500,1540,1960
-32.6683,-12.7798,-4.66949,-5.74399,-2.52383,0.0630692,-12.088,-1.05687,-46.7959,-19.3275,-9.48439,-8.12735,-2.04832,-1.42695,-14.6511,-4.89595,149.816,-703.696,-688.568,9660,2240,2660
-36.4769,-42.4501,-15.0603,-46.8076,-30.8534,-5.03624,-45.2228,-12.4681,-54.445,-20.2317,-6.6177,-29.057,-5.43689,-16.0977,-58.6287,-25.8095,147.864,-704.672,-690.032,9100,3220,3080
-12.2932,-30.7538,-8.99182,-41.8734,-27.0632,-4.08668,-34.1626,-11.3026,-19.3781,-4.89271,1.00952,-20.211,-2.99145,-13.1191,-45.959,-19.2814,144.448,-704.672,-694.424,8820,4340,3500
1.75905,-0.598125,2.98485,-6.22341,-2.42307,1.36258,-4.18792,-2.16088,0.628399,3.36404,2.25578,1.45532,1.24629,0.748626,-10.3318,-2.02289,144.448,-705.648,-693.448,8120,4900,3920
-1.71483,4.47451,3.18203,6.92436,6.2999,2.72464,7.25464,3.35003,-0.321294,0.221668,-0.215851,4.28113,0.925469,4.55276,8.36913,5.27602,142.984,-706.624,-694.424,8120,5740,4480
3.91029,4.91162,-2.64618,14.1291,8.33545,1.43663,22.5595,7.40432,8.49772,0.6219,-1.41879,0.783221,-2.80817,2.17897,27.8654,12.6923,142.984,-707.112,-694.912,8120,6300,4760
28.0115,20.8832,3.27277,23.213,10.9727,3.38515,23.4606,7.40899,47.2013,13.6311,6.64793,12.034,-0.0789266,4.03016,34.3141,13.0289,141.52,-707.112,-698.328,8680,7280,5040
19.6577,11.5,0.243922,6.72012,-0.401477,0.696831,3.85565,0.109054,32.8632,10.2095,4.57602,6.68254,-0.329576,-3.7667,6.28875,0.173252,142.008,-709.552,-699.792,9100,7700,5180
2.27498,-7.98028,-5.77321,-10.1217,-9.55997,-0.778331,-7.75497,-0.641665,6.21648,0.314471,0.489557,-5.81444,-2.00959,-5.70469,-9.99577,-4.32761,142.496,-709.552,-700.28,9520,8120,5180
0.894978,12.3454,3.19547,18.4701,15.4227,6.46515,16.8507,8.69227,8.26615,-1.79071,-1.35482,7.90307,1.49525,10.4318,18.1158,12.0529,143.472,-708.088,-703.208,10360,8400,5040
-2.16228,15.8953,3.52385,26.6458,21.195,7.2865,26.1405,11.4037,3.29218,-5.34994,-6.71769,8.43891,-0.999426,11.4413,30.1018,17.4335,141.032,-706.136,-703.696,10920,8820,4900
7.69091,17.7001,3.76136,24.2511,15.7557,3.54241,21.6572,6.59104,14.1027,0.68174,-2.52676,9.27319,-0.511424,5.65778,33.9293,13.2233,144.448,-709.552,-702.72,11900,9240,4620
16.8865,18.9022,5.47458,18.2559,10.4946,-0.0594413,13.3066,0.927308,22.1101,8.49624,3.53306,10.678,1.00826,3.56862,23.8473,7.33551,143.472,-706.624,-703.696,12460,9380,4340
3.40159,4.12744,3.70744,-0.334526,0.0631307,0.586112,-7.09766,-4.17548,0.710865,4.52024,1.67681,3.72148,2.91323,1.71581,-5.29278,-2.92367,145.912,-705.16,-705.16,13440,9520,4060
-14.4737,-16.3881,-2.4094,-21.7738,-13.2569,-0.856302,-26.2479,-7.81813,-26.2418,-5.88729,-2.11835,-8.60373,0.688037,-4.43206,-32.3271,-14.4526,148.352,-709.064,-700.768,14280,9100,3360
-20.6599,-32.6486,-8.81059,-32.1743,-20.4031,-3.59449,-20.6504,-6.16279,-34.7388,-10.9322,-2.94937,-20.8097,-2.50904,-9.8226,-28.7613,-14.7083,149.816,-707.112,-704.672,14560,8960,2800
9.28792,6.46116,5.41129,11.477,8.35152,2.18197,13.7446,4.59884,8.83669,4.5839,4.97634,5.39359,3.51044,3.56754,17.5124,6.98595,150.304,-712.48,-704.672,15120,8680,2240
36.256,31.4656,15.7433,20.7789,14.1326,1.2175,5.42838,-1.23322,42.7295,22.8914,13.7167,24.6877,9.20503,4.89719,9.2165,2.38467,148.84,-711.992,-703.208,15680,8540,1680
16.8122,3.76638,4.84199,-10.548,-7.41165,-3.74571,-15.8983,-9.27134,17.4323,13.9093,9.5627,5.94461,5.202,-5.19187,-21.164,-13.0503,150.304,-713.944,-701.256,15680,8260,1120
6.36589,2.37894,3.61642,-3.02762,-2.60604,-0.952333,-3.7359,-3.75406,6.96139,7.59061,5.63826,4.31185,4.45552,0.0845798,-7.11204,-4.73053,152.256,-714.432,-699.304,15680,7980,420
-25.3537,-8.0143,-3.02095,3.56134,4.08798,1.80806,13.8132,6.30843,-33.8116,-14.8439,-9.16633,-4.56403,-1.32355,4.07928,7.21498,8.4958,154.208,-715.896,-702.72,15680,8540,0
-43.2024,-29.8154,-9.12446,-22.0127,-9.30454,0.24125,-7.83419,3.14316,-56.088,-26.4233,-13.3574,-18.5511,-4.61327,-0.171828,-21.0549,-1.63637,155.672,-715.896,-703.208,15680,9100,-280
-23.7919,-38.3739,-11.7501,-57.2275,-37.4429,-9.89688,-54.2247,-17.9162,-33.3286,-12.3318,-3.79825,-24.8981,-4.26917,-15.2693,-76.6295,-32.8688,161.04,-715.408,-697.84,15400,9100,-700
4.93848,-14.5987,-5.6834,-40.7448,-29.6125,-9.54428,-44.0386,-14.9465,7.09562,5.17232,4.503,-10.3251,-1.92819,-13.7818,-57.6814,-27.0301,161.528,-714.432,-697.352,14700,9940,-1260
8.18614,14.6853,4.47147,20.0181,14.0228,0.934424,17.6324,4.84567,12.292,4.59904,-0.165646,9.77616,0.773709,7.66912,25.0951,11.3928,168.848,-710.04,-697.352,13300,13440,-2800
7.02075,20.0452,4.0849,39.5855,25.6781,2.76583,37.6133,10.2081,13.7554,1.74605,-2.74146,10.2685,0.169535,11.4874,56.9775,21.1969,149.328,-704.672,-693.936,11620,19320,-5180
14.3572,16.0662,1.53521,15.9609,6.0058,-4.09158,7.84566,0.796821,21.7366,7.12036,2.97414,6.28607,-0.55768,-0.130614,18.92,1.86037,157.624,-710.528,-688.568,9520,17080,-5040
2.29289,1.15062,-4.63882,-1.19965,-6.13915,-5.7854,-3.62758,0.039967,3.79396,-0.439922,-0.0872394,-3.22706,-4.6964,-6.44528,-1.38498,-3.99563,148.84,-708.088,-678.808,9800,13160,-3640
-10.5166,-5.10397,-6.30338,7.48281,3.8328,-0.321055,13.2708,5.53789,-12.99,-7.10889,-5.02464,-4.89202,-4.38763,-0.139214,15.1435,8.13715,172.264,-706.624,-679.784,10780,8680,-1400
-10.5498,11.2727,3.94132,35.7719,28.9213,8.80875,34.2867,13.3636,-12.1414,-7.17618,-7.22278,11.0675,0.951669,16.7225,43.1395,25.7602,168.848,-708.088,-681.736,8540,6720,-1680
-10.8097,-11.1635,-1.6959,1.10045,9.86595,6.14031,13.2862,7.7999,-17.485,-6.83218,-4.50864,-3.86468,-0.183763,6.56827,9.87922,15.496,163.968,-705.648,-674.416,6440,7280,-1680
-23.0057,-46.2297,-10.5501,-44.7347,-20.8041,1.71915,-19.393,-0.338147,-37.09,-13.0766,-2.83194,-28.0191,-3.74794,-4.0966,-30.0035,-2.58526,167.384,-705.16,-670.512,3360,7420,-1680
1.92281,1.81382,7.76248,-1.52853,2.13747,7.89971,-2.10186,0.231845,-4.56811,3.03604,2.52758,3.2604,4.68962,7.73622,-1.18185,2.83993,163.48,-698.816,-670.024,980,7700,-2380
21.4939,30.3356,12.4712,26.7385,10.3312,8.17143,9.54513,1.60828,29.3191,12.6942,6.0299,18.4377,4.9091,5.20812,21.6782,4.83007,162.504,-698.328,-661.24,-2940,7420,-2800
30.3849,21.6468,4.057,3.66942,-8.00287,-0.591167,-14.3594,-7.39794,45.0583,15.9831,9.44331,10.5107,-0.00965688,-11.9823,-10.9555,-13.0114,158.6,-698.328,-658.312,-7980,7000,-3780
17.1748,1.38729,-4.54069,-21.3302,-19.4869,-8.16045,-25.8091,-9.50554,28.1725,8.04875,6.08524,-2.72571,-3.42802,-19.7454,-33.0821,-20.4971,150.792,-697.84,-652.944,-12180,7000,-4900
-21.8719,-23.1022,-14.1382,-20.7037,-14.1934,-7.48202,-9.49544,0.999071,-22.9197,-15.9945,-7.95172,-19.5727,-8.02795,-12.5426,-14.9687,-7.20905,149.816,-698.328,-644.648,-19040,6720,-6720
-17.7672,-18.7275,-10.8146,-14.955,-11.1274,-7.98231,-14.1344,-5.94036,-20.5122,-12.2868,-6.14887,-15.1056,-5.96631,-8.63777,-18.9534,-12.0991,144.936,-699.304,-645.624,-24220,5740,-9100
5.1243,3.50921,-1.32603,0.09666,-3.02054,-4.02283,-7.95574,-8.86016,10.5353,3.78006,1.09953,1.5128,-0.467353,-2.00806,-6.68683,-12.2342,140.544,-700.768,-644.648,-30940,5460,-10920
17.425,28.6172,8.26995,34.1026,21.4132,2.60521,23.7703,1.90173,28.5951,11.1912,3.4097,19.473,3.77347,10.4995,34.6522,9.72152,137.616,-705.648,-644.648,-37100,5600,-13720
11.7726,16.8292,6.34928,19.2882,15.6703,4.33417,22.8361,6.19649,17.3092,8.09421,2.12282,11.5684,3.80837,7.6669,25.2115,14.0446,136.64,-704.184,-650.992,-40740,6160,-15540
-11.6017,-5.12664,-1.7446,-3.59078,1.36372,1.86516,5.01585,2.76639,-14.289,-5.46821,-3.89572,-3.24445,0.648462,2.12233,1.1005,4.27202,138.104,-709.552,-657.336,-44380,7420,-17920
-17.5692,-19.8646,-7.60798,-18.6673,-11.9847,-3.22739,-11.7377,-5.37597,-25.8186,-9.79866,-4.76278,-13.9283,-2.51281,-6.32405,-16.767,-8.39099,138.592,-712.968,-665.632,-46480,8540,-19740
17.2373,3.02787,2.40038,-1.78881,-3.01857,-1.1761,1.06551,-2.45983,18.4499,9.94638,5.2014,2.8353,2.08999,-0.82831,0.836423,0.163053,139.568,-710.04,-674.904,-48860,9940,-21700
19.1504,17.8318,10.4916,24.1099,18.2856,6.11115,24.4612,8.70099,19.8018,12.3522,7.18575,15.758,5.59487,12.544,33.1855,17.0548,140.056,-709.552,-678.808,-49420,10640,-23100
1.26928,3.97059,6.02437,16.1313,14.7848,7.01172,20.8729,10.2071,-7.57769,3.37932,1.51646,6.21937,3.7643,10.8146,27.3003,15.0742,142.496,-708.088,-682.224,-49420,11340,-23940
3.97672,10.09,7.99719,17.7831,12.2179,5.93274,14.6453,6.93356,2.14867,4.6745,3.44292,9.39163,4.02878,9.99357,23.8179,11.4628,142.496,-706.136,-686.128,-49420,12040,-24920
8.05513,9.00145,9.09502,5.43956,3.33055,3.38508,-0.0453206,-1.028,6.96782,7.93339,5.92605,9.04838,5.41245,5.12475,1.43308,1.04001,141.032,-704.672,-689.056,-49000,12600,-25480
14.6492,1.68804,9.76511,-15.6325,-9.03334,0.243472,-23.8251,-8.18657,15.1883,13.2026,9.59135,7.25793,8.32409,0.0756672,-30.5818,-13.789,138.592,-699.304,-694.912,-48020,12600,-26040
5.99015,12.963,10.9891,-2.17798,0.377236,1.55595,-20.445,-8.30079,5.30607,7.06832,5.38024,14.2733,8.0683,4.45457,-26.97,-12.4257,144.936,-697.352,-694.424,-46900,12180,-26180
-34.8893,14.8516,3.10926,36.7147,28.8084,8.18992,35.6031,13.4634,-39.4679,-24.0261,-16.6916,10.6137,0.260173,16.5132,42.2858,24.7484,147.376,-695.4,-692.472,-46340,12460,-26180
-56.4041,-10.9456,-10.7949,26.7637,20.7737,6.26243,36.6322,19.6385,-64.4703,-39.5508,-24.9473,-10.5806,-7.91101,10.2126,44.1522,27.9729,149.328,-695.4,-695.4,-44520,12320,-26040
-1.29756,-29.4998,-13.9158,-57.4563,-43.7952,-13.999,-66.288,-20.5505,-1.71366,-3.00468,0.335283,-21.6427,-6.25268,-24.6491,-86.4682,-41.0225,149.328,-692.96,-696.376,-43120,12040,-25900
20.4166,-40.4963,-17.1497,-86.8865,-65.4137,-21.5392,-82.6639,-28.1602,23.9971,10.1825,9.79119,-30.4972,-7.1708,-36.4776,-111.599,-55.4279,151.28,-687.592,-704.184,-40880,11620,-24780
-1.61998,-22.7987,-18.1606,-25.1931,-21.9648,-10.362,-6.52067,3.68474,4.91896,-7.02063,-3.40736,-23.1907,-10.8047,-15.1784,-9.39615,-6.68407,153.232,-691.008,-701.256,-38640,11200,-23380
-9.8934,7.53352,-6.28079,26.7396,16.6784,-0.266641,35.0204,14.6048,-10.6176,-10.4818,-9.05104,-0.780318,-6.03823,4.1684,44.715,19.876,153.72,-690.032,-704.184,-36960,10780,-22400
-10.2503,21.7071,3.66364,37.971,27.6724,5.27177,31.5921,13.3604,-11.9568,-7.49268,-7.2037,12.514,-0.517692,13.307,41.5831,21.7277,156.16,-691.496,-704.184,-34860,10220,-20860
-23.0792,-35.0348,-12.5899,-31.7472,-16.7495,-3.0371,-14.8481,-4.0534,-35.7267,-12.969,-5.09882,-24.0195,-5.83843,-9.43715,-24.7552,-6.79275,155.672,-691.496,-706.136,-33040,9660,-19740
7.77914,-24.6527,-4.49808,-31.1033,-17.8989,-3.34669,-21.9285,-10.496,4.52958,7.93179,8.49321,-14.9347,-0.0528134,-8.84915,-28.2897,-12.8991,155.672,-696.376,-706.136,-30940,9100,-18060
25.2113,8.08768,7.3801,-3.63845,-1.78108,0.9029,-8.31447,-7.22334,29.7854,18.499,11.6696,7.63364,4.81845,1.12801,-9.33918,-4.78508,155.184,-697.84,-706.136,-28560,8400,-16380
15.8946,20.0971,10.0559,25.8274,17.8574,4.42045,22.6781,1.90011,17.068,12.3168,5.8831,15.1481,3.75307,9.96914,30.6703,14.154,155.184,-694.912,-707.6,-26740,7560,-15260
24.3436,40.9554,15.3102,51.263,34.317,7.56724,40.9737,9.96466,35.489,14.6474,4.16589,28.0996,4.78648,16.025,57.0792,26.8941,155.184,-694.424,-702.232,-25060,7280,-13720
10.0306,19.8052,11.0397,25.6636,17.1564,4.47633,17.3569,1.87848,14.1663,8.08472,3.45189,14.6622,4.60998,7.76563,27.1242,11.3532,157.624,-693.936,-701.256,-23660,6440,-12880
4.01664,13.5363,7.82139,17.4847,11.73,4.45721,11.147,1.52438,9.47701,4.33071,0.786577,9.63196,5.25154,4.76983,19.2285,5.40714,160.064,-697.84,-701.744,-22120,5880,-11760
8.12144,11.6519,6.00875,14.9148,6.21054,2.92899,5.26464,-1.29098,17.4324,4.5808,1.93064,8.1813,2.97977,1.71488,14.8822,0.364919,156.16,-694.912,-699.792,-21280,5460,-10920
17.046,9.9463,5.13218,-3.31696,-5.77925,-1.47423,-14.4876,-10.2678,23.2736,10.6004,6.01757,7.93413,3.34565,-3.75889,-14.864,-13.628,156.648,-693.936,-697.84,-20720,5180,-10780
-11.7723,-25.7325,-9.27123,-45.1125,-31.0603,-6.03026,-41.4832,-13.2854,-13.7984,-6.81897,-1.95891,-17.6357,-4.31434,-13.8035,-57.1555,-25.7937,153.72,-691.496,-692.96,-20860,4340,-10640
-35.2404,-27.7699,-14.1542,-26.4542,-20.0158,-4.97373,-19.4487,-6.75313,-45.3202,-21.3082,-10.3148,-21.7974,-7.84594,-9.71481,-25.4786,-13.7456,157.624,-691.984,-687.592,-21280,3500,-10640
-57.4672,-52.6817,-23.4763,-37.9826,-24.4962,-4.33256,-17.3074,-3.575,-79.7534,-33.3608,-15.7381,-37.8423,-10.7867,-12.4849,-26.9828,-10.5664,156.16,-691.496,-685.64,-22120,2520,-10780
-34.5102,-42.0754,-17.6433,-41.9459,-28.311,-4.62689,-32.1596,-5.58606,-45.6679,-19.6212,-7.26919,-28.6688,-7.84312,-14.4459,-46.3833,-19.0253,156.648,-695.4,-682.712,-23520,1540,-11060
12.3394,7.95187,-1.56759,0.452964,-2.41425,0.174437,2.27177,4.05501,20.3233,4.62321,-0.366339,3.57365,-1.95876,-4.16681,-1.25076,-1.30723,156.16,-695.888,-682.224,-23660,1680,-11200
26.8486,39.5122,12.9735,50.6905,34.8547,10.0895,47.7481,23.2288,39.4228,12.3185,2.56359,27.0055,4.01149,18.3807,59.9076,33.1294,154.208,-695.888,-679.296,-24500,1820,-12600
16.4986,7.12231,7.26204,10.8485,11.1597,5.55468,15.1243,11.178,13.6133,9.37279,5.99939,8.62099,4.27281,8.82916,12.6778,12.8689,157.624,-701.744,-682.224,-26180,1960,-13720
35.0511,27.4373,15.87,17.6594,16.0909,5.41003,12.5003,4.04248,40.428,22.4242,13.2657,22.1882,8.67237,9.44355,13.9239,7.61923,157.136,-701.256,-682.712,-28000,2100,-14980
59.6468,75.6609,31.2905,69.1614,49.9315,11.4553,47.8577,13.6343,79.8691,34.4627,15.6426,54.3959,14.0165,25.7899,62.2193,28.9119,156.16,-703.696,-687.104,-29400,2100,-16380
29.791,44.8068,18.1323,51.9279,37.925,8.41525,43.94,13.1063,40.0391,16.859,6.75028,32.0208,7.45832,19.6401,58.6353,28.1067,155.672,-702.72,-681.736,-29960,2100,-17220
-5.18938,12.2846,2.81371,21.8262,15.6536,1.03229,16.7612,4.59736,-4.80134,-3.70588,-2.14934,6.91116,-1.00526,7.70006,27.2467,11.3314,158.112,-700.768,-684.664,-30380,2240,-18060
-30.7561,-29.7594,-14.2877,-23.818,-16.7548,-7.89122,-17.3854,-6.06959,-42.1823,-17.8317,-6.69958,-23.2712,-7.35117,-9.22334,-15.08,-12.5479,155.672,-700.768,-689.544,-30240,2100,-18760
-12.0416,-15.3029,-7.03053,-10.5942,-7.02631,-5.33265,-5.26534,-2.73192,-21.1607,-5.68025,-1.28211,-11.4552,-1.55636,-3.43721,-0.144829,-4.3282,152.256,-701.256,-683.2,-30240,2240,-19320
-8.69284,-25.2427,-5.78154,-27.1303,-17.7235,-5.46629,-22.7934,-8.74263,-16.5497,-3.29378,2.22195,-15.6467,0.686915,-6.82049,-23.2518,-13.2601,157.136,-696.864,-688.568,-30380,1820,-20020
-42.894,-70.2659,-22.8745,-78.9862,-47.4806,-7.70482,-53.1458,-12.84,-60.4353,-25.9706,-11.4149,-46.5637,-5.89313,-20.3258,-82.0331,-28.3772,151.768,-693.448,-687.592,-31080,1540,-20860
-47.6085,-52.6242,-24.082,-46.1366,-31.101,-5.93513,-32.5965,-5.43015,-58.5556,-32.6684,-18.3785,-39.283,-10.4408,-14.8394,-45.6901,-18.1916,152.256,-688.568,-684.664,-31500,980,-21700
-2.87762,25.8142,-1.45184,36.2711,14.0648,-3.49293,12.4389,-0.773136,3.12653,-5.8705,-8.83282,11.1993,-3.63027,-1.31323,26.1807,1.67133,149.816,-687.104,-683.2,-32060,-140,-22540
7.12822,5.44337,-1.31637,-8.93128,-11.4408,-5.2235,-20.5268,-6.83442,12.3731,4.03324,-1.21917,3.42821,-2.07703,-8.78676,-30.2038,-12.2551,153.72,-686.128,-682.224,-33320,-1540,-23520
37.5828,5.32506,7.45173,-34.3154,-27.087,-7.69629,-46.2564,-17.9572,46.4519,26.9179,17.3888,7.93845,5.03617,-12.5034,-64.5416,-28.8475,151.28,-687.592,-682.712,-34300,-2940,-24360
32.1789,34.6586,18.2085,16.2974,7.87634,0.229294,-0.873744,-7.1527,44.5686,21.3382,11.7956,26.4326,9.17672,5.57705,0.0999559,-3.72161,155.184,-693.448,-688.568,-34860,-3640,-24640
-41.3209,-0.406693,1.68724,28.1689,24.498,7.841,37.4919,13.6866,-50.6773,-23.0871,-14.1694,0.688083,0.241499,16.344,42.3631,25.2172,155.672,-695.888,-690.032,-35000,-4480,-24500
-46.5572,-31.1781,-12.4784,-10.9274,-1.97156,1.48511,8.46582,5.81895,-61.7037,-26.1849,-12.7211,-20.26,-4.66916,1.09609,-0.825767,7.50384,158.112,-699.304,-697.84,-35000,-4620,-24080
0.535647,-19.8141,-9.74038,-21.1125,-14.4927,-4.24016,-5.14106,-4.75889,1.37067,-0.389347,1.41784,-15.778,-4.50301,-9.72662,-8.48721,-6.40251,162.992,-698.328,-699.304,-34440,-4620,-22960
40.2568,24.494,13.2138,20.0296,12.9101,1.65296,16.0373,-1.35372,49.8106,27.1839,15.5991,17.6904,5.54991,5.26188,27.8562,6.48096,162.504,-701.744,-705.16,-33320,-5040,-21140
32.2666,30.4798,16.8309,36.3544,25.8316,6.69711,30.6258,4.29936,38.11,24.1125,12.6853,23.9125,8.35598,12.8602,45.7047,19.38,164.944,-698.816,-706.624,-32060,-4900,-19740
15.8668,10.2474,5.26025,11.2949,7.58865,4.66564,10.7388,3.33985,21.5354,9.44587,5.34443,7.76131,2.60568,4.78711,17.9827,10.5338,165.432,-697.352,-706.136,-30100,-5600,-17780
-0.95186,-4.8781,-2.59453,-15.5754,-14.0152,-1.1802,-28.4735,-9.45032,-2.9756,-2.01192,-1.40411,-4.65574,-1.19793,-7.33515,-32.7823,-16.3845,171.776,-696.864,-701.256,-28840,-5740,-16380
-14.7342,-10.9327,-5.38997,-8.19759,-5.87461,1.63574,-7.68831,-0.40921,-21.9987,-10.5307,-6.45841,-8.01143,-3.13365,-4.02119,-10.9594,-5.69157,168.848,-691.496,-702.72,-27720,-6160,-15120
-20.6563,-10.3747,-10.1928,7.55595,2.14781,3.3289,17.7301,10.8166,-20.3951,-18.063,-11.0668,-10.819,-6.43033,-0.782055,26.0134,8.54349,175.192,-694.912,-699.304,-27160,-6720,-13440
-5.43337,-10.6708,-7.64995,-14.2068,-12.6267,-1.05165,-10.5906,-0.0631737,-5.36372,-6.94234,-5.04409,-9.49374,-4.0115,-8.39277,-14.1124,-7.05893,178.608,-692.472,-702.232,-26460,-7280,-12600
13.6489,-10.6011,-1.01047,-31.0025,-20.9838,-3.6203,-27.8637,-6.83242,17.1295,8.68652,6.28022,-5.38794,0.614639,-9.54746,-34.5651,-16.8068,177.632,-696.376,-697.84,-24640,-7280,-11340
31.2578,59.2911,24.8106,63.0069,47.8145,12.1433,48.2944,17.5354,46.2472,17.1251,2.60969,44.6211,11.4228,27.3797,60.4993,31.9177,181.048,-694.912,-698.816,-23940,-7000,-10500
1.80764,30.1893,17.3713,40.0572,39.0309,15.9682,35.8439,19.195,7.62402,1.55699,-3.80125,28.0162,9.16894,28.7099,37.6812,30.1956,180.072,-700.768,-695.4,-22960,-7420,-8960
-20.7473,-10.4893,-5.25957,1.62318,4.46004,2.3063,8.24575,7.42909,-21.7475,-13.2003,-6.91045,-8.81763,-3.64648,5.12183,9.69055,7.3036,179.096,-698.816,-692.96,-22680,-7700,-7700
18.5877,17.1743,3.28679,17.1792,7.85012,-1.66856,10.0918,2.52755,25.7506,11.2313,8.3824,8.43053,0.290239,0.634118,18.8924,2.61455,178.12,-698.816,-694.912,-22820,-7980,-6860
19.3312,2.47144,0.966022,2.57064,0.668699,-1.80566,9.09897,3.77049,23.3555,12.7532,9.48549,-0.422129,-0.0653093,-1.42305,12.213,4.07109,179.096,-697.352,-698.328,-22540,-8540,-5880
10.1133,6.53951,1.04393,4.99171,0.324722,-3.81717,0.370545,-3.41441,10.3278,8.18391,6.91937,0.79797,0.876317,-2.9984,2.76507,-2.17651,181.048,-702.232,-704.672,-21980,-8680,-4900
-9.56292,-15.1353,-3.84018,-26.4627,-18.5638,-7.40912,-28.9737,-14.197,-23.472,-0.187565,4.35354,-10.4085,0.725148,-11.919,-36.9661,-20.0894,181.536,-702.232,-709.552,-20860,-8260,-3780
-34.0616,-42.717,-14.7475,-42.3535,-29.4348,-8.20469,-31.6758,-9.63097,-54.1352,-17.208,-4.61855,-29.2773,-6.31165,-15.1093,-42.9731,-17.861,182.024,-704.184,-713.456,-19880,-7840,-2520
-18.264,-52.6847,-21.6098,-68.5816,-51.4418,-15.2188,-53.4077,-19.9354,-32.04,-9.70112,0.309758,-38.7854,-10.2556,-28.8811,-74.885,-33.5352,182.024,-699.792,-717.848,-18200,-7700,-1680
-6.33467,-37.0376,-22.2549,-39.0403,-32.5499,-10.7678,-17.504,-5.01545,-3.34342,-9.65255,-3.62964,-32.7103,-13.3633,-20.3048,-22.8733,-10.7636,180.56,-697.352,-711.016,-16940,-7420,-840
-15.9898,13.3666,-13.4302,36.5551,15.1267,-1.0148,31.5134,10.4076,-7.07591,-22.1183,-19.6956,-2.73738,-12.3741,-0.712913,47.0061,17.6423,177.632,-691.984,-711.504,-16240,-7700,-280
-20.6052,35.9135,8.51164,59.7507,43.1602,9.71672,40.3653,14.141,-20.5839,-17.8754,-16.5786,23.9494,0.115812,20.1013,52.9184,28.493,182.512,-694.424,-714.92,-15400,-7560,0
7.27713,1.03907,6.74561,2.33122,4.39386,0.00433142,1.19547,-4.39111,4.68164,9.25147,9.05514,5.90512,4.55375,2.15212,3.88306,0.376273,183,-690.032,-717.36,-14840,-7280,-140
62.4941,32.1501,24.1464,-2.74448,-4.83306,-3.12948,-31.6386,-24.4022,69.2068,47.6327,32.2268,30.7181,17.3524,-2.31621,-31.6728,-24.7423,181.536,-690.032,-723.704,-13440,-6580,140
26.0929,10.0984,16.2076,-23.2901,-14.2458,-1.24862,-51.2949,-24.9645,21.8281,24.3906,18.3125,16.7144,13.136,-2.59059,-63.574,-32.4449,178.608,-689.056,-723.216,-12040,-6020,140
-36.2434,-40.9604,-12.3895,-36.8482,-18.3503,0.11335,-20.1539,-3.01271,-51.6357,-21.3382,-10.5824,-24.4613,-4.97859,-4.14605,-38.4846,-10.1529,178.608,-686.616,-730.536,-10500,-5600,420
-32.281,-19.2628,-7.32757,-1.16089,5.47056,5.6019,15.1192,11.2127,-41.3827,-19.8704,-14.8054,-12.4579,-3.49578,6.87269,12.0392,9.50596,177.632,-684.664,-730.048,-8820,-4760,840
-8.79186,-0.762822,-3.98848,-2.35561,-4.03879,-0.401776,0.571169,5.12306,-1.25851,-7.97877,-10.2402,-3.20961,-3.02181,-2.14783,2.43266,-3.51521,176.168,-685.64,-730.536,-7280,-3640,1680
-0.625628,24.4334,9.18837,21.2498,18.7435,6.40913,15.2742,13.1586,11.93,-4.74316,-11.3108,16.7144,1.99435,12.0824,11.4039,11.7277,175.68,-684.176,-731.512,-6020,-3220,2380
-8.45777,-11.2742,-0.236955,-5.48295,6.39806,4.32791,18.3548,17.5552,-4.26052,-8.36847,-9.19212,-5.30297,-2.6783,9.32484,11.8687,18.3212,175.192,-682.224,-726.632,-4480,-2660,3500
-19.7398,-11.014,-6.53768,12.1857,15.7432,6.72898,43.8347,24.3432,-17.7395,-19.0301,-16.7581,-8.91491,-5.80992,12.5577,48.6601,32.2128,173.728,-680.272,-728.096,-3360,-2380,4060
-22.7319,10.6925,-0.867285,52.8095,42.6982,14.4412,77.4362,36.1549,-22.0101,-21.5242,-20.1432,5.2386,-4.73987,25.9334,95.6336,54.1097,168.848,-682.224,-727.608,-2100,-2240,5040
35.9796,41.1562,20.9634,48.6596,33.7126,9.59253,36.6367,6.12883,46.3745,24.9203,14.6824,31.8044,11.0317,18.7098,59.8363,20.0394,167.872,-681.736,-729.56,-840,-2240,6020
57.5909,33.5259,20.8169,-4.12028,-8.55529,-5.48471,-38.5712,-31.7125,66.6348,43.3592,32.552,26.9682,15.2655,-7.45692,-33.3511,-35.8207,165.92,-679.784,-727.608,420,-1960,7000
14.841,8.05115,-0.156477,-6.20979,-9.99626,-6.7495,-18.1645,-13.8457,18.1277,9.68542,11.7254,3.49182,1.15527,-9.87372,-14.2115,-18.0258,165.432,-672.464,-727.608,1680,-1820,7840
-14.7092,13.4651,0.790324,28.1377,17.9891,0.875033,19.0999,4.25706,-21.6378,-9.5544,-4.28683,7.84742,-0.665215,5.45958,24.5892,11.846,169.824,-675.88,-730.048,2520,-2520,8260
-2.97928,-23.3543,-9.11609,-40.3464,-33.0801,-12.6491,-48.162,-20.2908,-10.4306,4.86545,11.2924,-15.6945,-2.31014,-20.0125,-59.2747,-32.6078,169.336,-678.808,-727.12,4060,-2520,8680
39.3668,-15.5092,-5.37051,-59.6842,-54.1631,-21.6603,-79.1919,-36.8536,42.5728,32.6578,28.8838,-11.8323,0.457426,-34.3884,-90.3783,-58.4227,167.872,-669.048,-719.312,4900,-3080,9520
36.8094,1.06978,-0.31686,-17.656,-22.3976,-13.253,-26.8553,-16.2932,42.9316,27.3097,21.2196,-0.847223,0.70945,-17.1166,-27.0448,-22.682,164.944,-667.096,-705.16,5880,-4200,9800
27.462,21.5305,16.0908,16.1807,11.2751,2.89273,0.292963,-4.90466,29.5638,24.481,15.3932,20.7943,10.1916,7.82082,1.66696,0.932901,163.48,-671,-692.96,5740,-6580,9800
-19.6046,-4.59839,6.77614,7.37297,12.2543,10.2223,13.2496,8.15646,-27.9856,-9.63332,-8.65708,2.90289,3.7484,12.0694,5.79025,16.7935,164.944,-670.024,-679.784,4900,-8820,9240
-80.1236,-45.5911,-27.4068,-5.25066,1.38772,9.26454,31.8067,25.2783,-89.3102,-61.591,-44.3825,-38.1611,-16.3249,2.64891,25.125,32.1403,164.456,-673.44,-682.712,3500,-11480,8260
-53.4465,-33.6446,-20.2623,-7.41008,-2.90147,7.96993,17.516,21.2104,-55.6569,-44.7103,-34.7755,-29.2914,-11.1711,2.25685,16.3059,21.7739,170.312,-679.296,-701.744,2380,-13160,7840
-17.6332,-32.0028,-17.1433,-27.3352,-19.875,-1.49932,-4.71561,4.75105,-23.865,-15.3525,-8.81927,-27.0945,-7.43534,-11.3204,-9.23418,-1.69341,175.68,-680.76,-711.016,2380,-14000,8260
18.1029,28.6513,2.64056,40.1047,24.3813,4.48868,37.7378,15.8738,24.8077,5.64926,2.00829,13.4479,-0.6927,8.5193,54.3665,24.5386,177.144,-685.152,-713.944,3220,-14840,9800
19.8041,41.4492,5.85449,56.3377,36.8111,5.8974,52.1235,21.6289,27.3612,6.94822,-0.628318,23.7325,0.218059,14.208,67.6312,34.7728,175.68,-691.008,-711.992,4340,-15820,11200
13.3051,17.4877,6.97245,14.628,13.3452,4.6334,12.2688,5.27225,16.6737,9.10011,5.18827,15.1702,6.96999,6.11476,16.1249,8.49723,177.144,-693.936,-714.92,5740,-16940,13160
6.96118,19.3463,17.5007,9.70884,14.5376,8.38766,-1.00961,-1.43472,7.50906,7.92296,2.64953,20.6492,14.3136,12.0895,-7.36422,1.19175,175.68,-694.912,-721.264,6860,-17360,14560
-9.25386,-14.8874,-3.91103,-28.3392,-16.6155,-3.51929,-34.8118,-10.0368,-14.1653,-4.59466,-2.42932,-9.83932,0.118625,-6.96879,-53.3882,-17.825,174.704,-689.544,-715.896,8680,-17780,16800
0.813807,-36.9628,-15.635,-61.8043,-48.2149,-16.9625,-63.2288,-26.0319,-2.99162,3.31374,8.99316,-29.2415,-6.78925,-26.7813,-80.4186,-42.7994,172.752,-685.64,-710.04,9800,-18480,18340
21.406,-1.6329,0.908339,-19.7667,-19.5244,-9.71538,-28.164,-18.6428,23.0026,16.0207,12.1181,-2.37435,-0.212518,-11.4362,-31.3234,-25.6008,173.728,-683.688,-705.648,10360,-19180,19180
42.261,36.5932,19.2533,14.4767,7.43098,0.509225,-12.25,-12.4374,50.711,28.8012,15.8715,28.2689,8.21738,4.96824,-9.9174,-12.721,172.264,-685.64,-703.208,10780,-19040,19880
10.7373,5.24251,8.568,-7.98994,-5.35004,-1.10594,-15.8376,-11.767,11.3243,7.9493,5.71287,6.77475,1.2216,-0.459999,-17.4764,-13.7199,169.336,-685.152,-697.84,10920,-19180,20160
-29.8548,-5.05225,5.12756,22.8922,18.617,4.94678,29.2682,0.388097,-42.5716,-14.7933,-5.39013,0.277743,0.701245,10.9073,42.2312,11.9143,164.456,-683.688,-691.496,10500,-19320,20160
0.69205,23.3337,18.8551,45.9508,37.0573,11.3108,40.1457,7.7927,-4.66845,5.02883,2.79388,23.2807,7.86997,22.643,54.5452,22.2478,161.528,-689.544,-693.936,9520,-19460,19600
-17.9246,-0.104411,-0.117864,8.66931,7.75492,3.5869,4.49622,5.64002,-23.2106,-10.9214,-8.54314,1.13011,-4.15019,6.42105,4.79426,5.16421,157.624,-691.008,-687.104,8400,-19460,19180
-106.577,-89.3664,-44.8994,-60.8633,-39.4623,-7.21685,-18.8194,6.18335,-125.757,-70.5733,-40.0704,-67.7801,-25.4835,-18.5436,-30.965,-8.30206,155.672,-695.888,-680.272,6720,-19320,18200
-48.0633,-49.4098,-29.9141,-24.775,-17.2885,-3.65304,10.6826,15.7285,-47.271,-37.6572,-23.7477,-41.2618,-18.9778,-9.71009,13.769,8.84469,151.768,-700.28,-676.856,5040,-19180,17080
61.3917,40.1298,10.2622,23.659,9.61895,-2.37394,10.9676,1.00643,81.0202,35.3625,18.832,24.31,1.2891,-1.49789,21.2814,3.17516,147.864,-706.624,-676.856,2800,-18620,15540
72.2652,42.5694,15.3258,7.61697,-0.69481,-5.83899,-15.7504,-11.2701,93.5433,45.4949,27.3148,28.9724,6.11062,-6.07232,-10.0052,-14.6821,138.592,-709.552,-675.392,560,-17780,14000
46.7789,29.4564,14.1627,11.8401,8.07248,-1.88243,0.587087,-5.91752,55.3966,31.8126,18.0254,23.1518,7.67436,1.63528,4.92769,-3.72209,137.128,-714.92,-678.808,-1540,-17500,12600
7.77895,-4.26531,4.78492,-14.3467,-3.19888,1.45968,-9.75928,-0.631759,3.36001,8.55173,5.73554,2.7789,5.27784,1.24509,-17.6925,-2.04318,132.248,-717.36,-678.808,-3920,-16240,11060
-52.817,-48.4881,-17.3791,-38.8956,-19.9676,-0.603033,-15.4367,4.19965,-70.4144,-31.7746,-15.9619,-32.3723,-6.08143,-6.53773,-29.6163,-2.29764,129.32,-718.824,-677.344,-5460,-14980,9660
-37.4095,-29.474,-12.6143,-16.9544,-8.39004,-0.968278,-4.03534,4.63989,-49.453,-23.5789,-13.4606,-20.9925,-3.7085,-2.98738,-8.90274,1.10387,118.096,-714.92,-673.928,-6720,-14700,8820
48.1294,34.7402,15.0159,0.115067,-3.2931,-5.00265,-27.6895,-12.8958,61.3207,31.3456,18.3211,27.2919,11.006,-2.34787,-33.4054,-18.5121,131.272,-715.896,-674.416,-7420,-16800,7560
33.8523,23.9292,8.44823,9.13116,2.87897,-2.42043,2.83278,-1.42771,46.9541,19.5118,8.83374,18.2715,5.36043,2.12099,1.57736,1.07368,117.608,-714.432,-677.832,-11200,-13860,4900
-3.26133,31.5702,5.9308,64.8382,43.5483,10.3692,67.8131,23.4924,3.92013,-6.25236,-9.13851,18.5584,1.79356,21.5797,87.4478,43.2597,119.072,-717.848,-676.368,-13160,-11900,2940
-36.5071,30.8782,9.46279,73.9416,55.7824,18.4539,67.5759,28.1043,-38.0223,-23.6848,-18.8964,20.6411,4.96881,31.5126,86.4209,49.0207,117.12,-720.288,-681.248,-14700,-11760,1260
-55.8757,-7.46338,-5.56686,20.3098,17.7716,8.08047,15.8861,11.3443,-70.6242,-33.566,-20.7647,-6.86344,0.0631431,9.66296,13.1603,15.2799,110.776,-723.704,-676.368,-16800,-10500,-980
-36.9653,-60.5319,-26.6368,-64.1252,-45.1357,-10.1375,-43.1203,-9.42545,-49.0628,-23.0095,-6.35641,-45.4219,-8.05628,-24.8241,-63.9728,-26.0909,112.24,-731.024,-671.488,-17920,-9520,-2800
-9.71985,-66.7569,-29.3172,-87.1836,-65.5574,-17.8138,-63.4089,-23.0694,-18.271,-4.83497,6.05717,-52.401,-8.11024,-37.9246,-86.6302,-43.3789,108.824,-753.472,-670.024,-18760,-9800,-4340
26.9121,-8.6446,-2.27693,-24.512,-22.2897,-8.55406,-22.6309,-16.1183,30.9915,19.4381,17.3365,-8.9944,3.87311,-14.4801,-24.3672,-21.5587,108.824,-762.256,-681.736,-18760,-8680,-5460
46.2501,45.5034,19.6527,51.4603,32.6499,6.33772,42.29,8.49301,57.5114,28.3274,12.9692,31.7399,10.7911,16.5064,60.1056,22.8319,108.336,-760.792,-693.936,-18760,-6720,-5740
40.0358,45.9432,22.7891,43.7831,29.626,8.5491,27.3026,7.47803,50.6751,22.8012,7.93348,35.141,10.8485,17.305,40.018,18.1163,118.096,-757.376,-716.872,-17640,-5600,-5180
16.1109,30.6538,22.2046,24.9892,23.0398,10.0489,11.5123,6.41195,22.0313,9.81032,0.833769,29.3674,10.1487,19.2221,14.5383,11.3235,126.392,-742.248,-738.832,-14840,-3220,-3500
27.4482,32.1364,19.3493,20.7231,17.5372,4.32499,9.20031,1.55697,33.4777,16.7944,7.24555,26.609,4.15586,11.5135,8.49414,7.35844,141.52,-701.256,-784.704,-11200,-1260,-840
22.532,-8.1252,-6.29106,-25.1058,-23.7084,-10.9753,-23.3865,-12.9436,26.8835,14.3667,14.0182,-9.92729,-10.4061,-19.283,-26.729,-18.5575,115.168,-672.952,-675.88,-7280,700,2800
2.60977,-10.1283,-11.5284,-7.84345,-12.8589,-8.31243,-4.41964,-4.66921,2.53546,1.65454,6.39152,-12.479,-13.0306,-13.8233,1.18341,-6.39121,141.032,-688.08,-715.896,-6860,-4480,2940
8.28806,9.16981,10.15,5.99882,7.54563,3.63525,2.19133,-0.96307,2.62997,8.52571,6.31214,12.4117,1.90025,6.19655,4.04529,1.10358,173.728,-681.736,-891.576,-840,4760,4620
-22.395,-29.5545,6.91734,-39.9933,-17.2247,4.44601,-41.8519,-15.2272,-44.8456,-3.8918,3.0565,-7.98626,5.52901,1.36685,-55.5257,-23.123,111.264,-699.792,-674.904,9940,15960,13020
-45.3861,-46.4357,-11.1182,-50.1535,-28.8079,-0.695354,-41.9197,-14.8467,-63.9354,-23.5615,-9.68669,-28.6118,-4.6478,-9.52643,-55.431,-25.1986,128.832,-648.552,-635.864,13300,2660,13020
24.3126,34.1295,10.4376,25.0658,14.8127,3.74018,9.57615,-2.83112,36.7206,10.2565,1.20215,22.4714,3.05809,5.92989,20.2248,2.02924,128.344,-658.8,-614.392,10640,-4900,5880
28.0179,39.0206,10.5433,38.0905,25.1636,6.99927,27.4501,9.22743,44.5511,10.3199,-1.36275,25.2082,3.81394,12.2076,37.467,16.5734,142.008,-684.664,-660.264,9800,-8400,2240
-17.3716,1.13266,-7.26223,18.2683,11.1866,4.40449,20.0669,11.503,-16.6444,-14.4202,-14.0245,-3.64122,-3.23126,3.97833,22.4622,14.6285,149.816,-667.096,-671.976,7420,-7700,-2240
-25.3021,-8.31756,-6.51403,11.5861,9.05126,4.72365,16.7399,10.5246,-30.3506,-16.8373,-13.9033,-6.83677,-1.46407,6.51001,20.8578,14.4119,155.184,-674.416,-692.472,3220,-12600,-5600
8.21363,0.675212,-1.07399,-11.5448,-9.03246,-2.97696,-19.4545,-5.4894,9.5725,6.08754,-0.259112,0.903942,2.78635,-4.54877,-26.2869,-11.8462,161.528,-687.592,-724.192,280,-16100,-6160
-20.7309,-23.4207,-16.534,-26.1301,-23.2866,-8.98816,-25.4588,-8.44471,-18.176,-15.7357,-9.13568,-21.4141,-6.2473,-15.7898,-28.034,-19.6086,155.184,-701.256,-730.536,280,-14980,-4760
-86.7412,-51.4824,-38.2053,-13.0886,-12.7892,-6.48145,12.6501,11.9618,-95.4283,-62.5168,-38.691,-46.0228,-21.2787,-11.4265,13.2479,7.32017,160.552,-707.112,-739.32,840,-12040,-3220
-82.9788,-54.15,-38.7181,-14.8035,-11.2277,-4.58353,18.3041,18.3425,-92.7582,-60.1387,-38.6961,-46.8803,-21.8665,-9.8396,15.9419,15.1582,155.672,-699.792,-740.784,1960,-8400,-980
-40.0895,-47.682,-25.8047,-28.7277,-17.9235,-4.58389,2.5776,9.76956,-47.4108,-28.6265,-16.4976,-37.846,-13.573,-10.9278,-6.47431,5.72374,157.624,-690.52,-735.904,2380,-6440,-980
19.969,3.25134,-0.996032,-5.76094,-6.96552,-7.24895,-8.57548,-7.05456,23.7062,12.8005,10.6556,0.637586,-0.616618,-7.78631,-10.9654,-8.68208,159.088,-685.64,-745.176,2100,-5740,1820
48.3376,27.7804,16.7455,9.81448,5.97271,-3.67465,-3.97259,-10.7815,56.9083,34.454,23.1143,23.5914,10.0869,0.856879,-1.05778,-7.43745,162.016,-678.808,-742.736,2100,-5740,1820
70.5878,48.6154,30.7617,23.8942,14.4417,-1.3804,-3.19417,-13.6094,85.2852,50.8567,32.488,40.4853,16.866,6.18909,8.11386,-8.26302,159.576,-671,-735.416,1960,-3920,4060
41.2737,40.3978,22.7301,22.7455,13.6326,-1.04378,-0.697855,-11.1818,48.3894,32.9405,22.1145,30.2215,11.6423,4.67421,7.0182,-5.74932,162.992,-670.024,-720.776,1960,-3920,4060
-26.9256,-14.1136,-1.41043,-13.0856,-5.72911,1.43697,-7.51859,0.712216,-35.7686,-11.439,-1.59204,-9.65066,-1.25232,0.906224,-13.0046,0.420606,164.456,-679.296,-724.68,0,-4200,4760
-27.6603,-50.8262,-14.1042,-61.9012,-38.0944,-6.19768,-36.1795,-7.55412,-43.2179,-13.8114,-1.44965,-35.2706,-4.91163,-14.9136,-57.0589,-18.5055,162.992,-698.816,-734.44,0,-4200,5460
64.9399,20.2789,21.6385,-15.2092,-5.50015,0.018871,-13.6478,-6.92791,69.1378,43.585,28.0425,21.6603,13.6306,3.48439,-22.3424,-6.2609,165.432,-710.528,-749.568,2240,-3920,5600
71.8486,67.3366,34.2251,59.1152,41.9551,9.15259,39.7289,8.67618,81.4977,47.3029,28.2475,52.7807,18.6148,25.0204,55.493,22.7264,164.456,-691.496,-741.76,5460,-1260,6580
46.7505,68.1917,34.9007,79.201,59.0423,18.1248,61.1669,22.8253,53.4372,33.1044,17.0102,53.4102,18.1553,35.2978,80.8002,39.8029,163.48,-671.976,-736.392,8400,840,7840
-3.1268,4.37384,7.41039,10.7418,10.6527,9.79282,11.6404,12.4708,-3.90644,-2.21224,-3.0898,5.80672,2.90361,12.0468,13.4728,14.36,166.896,-663.192,-734.928,11620,980,9100
-40.2463,-39.8292,-17.0587,-28.9012,-17.3011,0.57269,-14.2596,4.18948,-47.8547,-27.5136,-15.6025,-28.0086,-9.53754,-5.59776,-23.7507,-2.6443,163.968,-656.848,-724.192,13160,280,9940
-19.4351,9.69729,1.67505,20.2066,16.8448,7.0979,14.9004,9.19803,-17.2386,-14.2036,-10.168,8.38715,-0.054322,11.0483,17.7656,13.0627,159.088,-655.384,-728.584,14420,-420,10500
-24.1391,-16.5172,-12.3864,-18.5449,-17.0428,-3.49866,-28.2499,-6.94128,-23.4714,-17.6335,-9.62791,-13.9515,-6.43819,-10.7944,-32.7851,-17.1687,153.72,-661.24,-720.776,15120,-1400,10920
-5.90244,-19.1174,-17.1901,-20.3172,-21.8603,-9.25997,-19.84,-7.04938,-2.96475,-7.86778,-3.60911,-20.3792,-10.0329,-18.7087,-22.4724,-17.1454,151.28,-664.656,-722.728,15400,-1680,11060
10.2408,11.3748,-1.36815,18.6797,9.89547,-0.58236,20.8789,4.67695,17.6473,4.12708,1.79752,4.60857,-1.51341,1.02951,26.0976,8.39685,149.328,-664.656,-723.216,15820,-2100,10920
-9.20644,-9.05004,-3.84688,-7.94427,-3.98768,0.80595,-1.10574,1.00903,-9.92913,-8.22869,-8.38353,-6.73031,-1.76862,-2.81023,-5.24898,-2.31481,150.792,-670.024,-727.608,16520,-2660,10780
-24.9326,-27.5785,-12.1814,-22.1944,-15.0049,-2.1391,-11.9703,-4.0725,-34.1186,-17.0757,-11.9496,-21.1269,-5.03213,-8.73626,-16.3262,-10.6099,154.208,-673.928,-731.024,16520,-2800,10500
-24.7602,-13.8952,-12.3482,3.5551,2.11833,-0.0689463,9.68236,2.09953,-31.5034,-18.4806,-13.0826,-12.4702,-6.59669,-1.48636,13.9632,4.74004,153.232,-677.344,-730.536,17500,-3080,10780
-16.1333,-0.171391,-7.57847,12.4925,6.75978,0.265247,12.7892,-0.354913,-22.2001,-13.758,-11.4931,-3.08098,-5.27714,-0.395632,19.7755,7.00879,153.72,-679.296,-733.464,18760,-2940,10920
1.71809,0.0911575,-0.760013,-4.75787,-6.07932,-1.09411,-10.8996,-10.3362,2.06309,1.2618,-0.319094,0.435156,0.189683,-4.84477,-7.70935,-8.02699,151.768,-676.368,-737.856,20720,-2660,11200
-8.20942,-12.3293,-0.807993,-16.5429,-11.6516,-2.49604,-15.4687,-13.8592,-13.2405,-1.89112,-1.49539,-6.77705,0.633996,-6.06517,-21.2443,-11.4861,152.744,-670.512,-729.072,22260,-2520,11620
28.5577,20.3942,18.7034,7.10192,9.37984,3.90594,1.3021,-6.14111,30.6976,24.4157,12.3903,21.3449,11.328,8.87492,-2.94728,1.18015,151.768,-673.44,-726.632,24220,-2520,12040
34.479,32.2239,16.686,17.6752,13.3415,3.43046,4.23587,1.1722,44.895,22.533,8.85605,25.6664,8.05727,8.16982,2.48827,4.78938,147.864,-672.464,-723.704,25480,-3500,12180
8.51133,7.50195,-0.895969,2.28808,-2.78524,-4.29033,-5.11117,-2.37088,16.4662,3.02591,1.12673,1.93965,-2.51785,-5.62366,-2.59907,-4.71847,147.864,-670.024,-717.848,26320,-3220,12180
-6.31378,0.0298322,-8.51202,5.10577,-1.58133,-5.91356,5.78438,2.40336,-1.46462,-8.22891,-3.77023,-5.62868,-7.53338,-5.09808,10.6409,2.69089,151.28,-674.904,-718.336,27020,-3080,12180
-32.3752,-25.975,-15.033,-16.7531,-11.9435,-4.10182,-3.33605,2.94649,-38.8821,-21.5576,-7.38135,-21.132,-8.08362,-6.80969,-5.93853,1.00428,147.864,-671.488,-711.992,27160,-2800,11900
18.5157,10.4412,8.75312,2.31102,2.83436,0.824708,-0.335549,-0.0767936,19.1765,16.4197,14.2453,10.3974,6.96986,2.43815,0.0528864,-1.08273,150.304,-668.56,-716.384,27860,-2100,12040
24.1917,11.6276,11.0177,-4.85125,-1.61476,0.718904,-14.7664,-3.00938,29.3458,19.0675,12.8257,12.6365,7.92695,2.01053,-17.2625,-8.24887,148.352,-665.144,-713.944,28000,-1540,12040
-28.6553,-20.1932,-12.0707,-7.08319,-3.17411,0.0883918,4.55128,9.59236,-32.7201,-21.6122,-14.9762,-16.9471,-6.31981,-1.80001,-0.513815,5.20643,149.328,-666.12,-716.384,28560,-840,12040
-23.7644,-15.9048,-8.81557,2.24276,4.18955,3.14611,13.4503,12.6675,-29.1383,-16.1172,-9.56191,-13.5843,-3.63716,4.67959,16.1739,9.65312,151.28,-663.192,-715.408,29260,280,12040
-9.11143,-18.0721,-6.01051,-27.1337,-19.7523,-5.12875,-29.0753,-11.8712,-16.8784,-2.90834,2.53852,-12.9346,0.0760215,-9.0595,-35.249,-22.2588,151.768,-663.192,-714.432,29540,700,12460
6.66698,-3.35133,1.56428,-14.9182,-10.7989,-2.79251,-18.1705,-8.87276,5.03638,5.93461,7.16039,-0.845576,2.90823,-1.99756,-22.8594,-12.8298,152.256,-661.24,-717.36,29540,1260,12740
10.7835,4.5894,5.46343,-0.0547833,3.41923,1.44193,3.41918,2.23673,10.1257,7.05299,5.75162,5.88132,3.31563,5.82945,1.44882,4.73233,152.256,-660.264,-715.896,29820,1960,12740
4.52254,9.3563,6.14164,16.6584,14.3358,2.75286,20.5866,8.43344,3.44195,2.39849,1.08012,7.03412,0.734967,7.93781,27.0211,15.2571,151.768,-659.288,-710.04,29540,2520,12740
-7.37269,-5.33197,-0.575127,0.427044,1.23597,-0.863718,7.30881,4.65778,-6.4832,-4.77487,-0.655852,-5.28269,-4.10403,-0.855896,13.4598,5.9348,150.304,-654.896,-705.648,29260,2520,12460
-20.7247,-23.9523,-11.4226,-19.4887,-16.5082,-5.88364,-12.0923,-3.62376,-21.5406,-13.0417,-3.37372,-19.0671,-9.3725,-12.1384,-12.2328,-9.97067,146.888,-660.752,-702.232,28560,2520,12320
-4.61441,-7.65613,1.22852,-3.17215,-0.68937,1.8998,1.54105,1.61527,-7.07376,-0.429161,0.0067224,-2.67313,-0.909407,-0.408849,1.96613,-0.0258769,145.912,-659.288,-700.768,27440,2800,11620
14.5828,22.9953,12.346,20.739,15.031,4.98513,12.1548,2.79929,17.6318,10.028,2.52391,18.9355,5.47296,7.52116,16.969,7.53032,133.224,-652.456,-664.656,25760,2940,10780
8.67346,17.5124,1.43011,20.25,11.8818,3.16983,13.2692,4.65531,14.0355,1.07345,-5.37891,9.73268,-0.192708,4.3051,17.9434,8.36456,146.888,-680.76,-704.184,23240,3220,9520
33.6864,28.036,6.33429,21.4665,11.1735,1.88118,8.48357,4.40708,45.5057,17.1819,2.92439,17.9353,1.58105,5.5315,12.1986,6.22416,138.592,-686.616,-698.328,19320,1260,7280
22.4697,18.1645,8.74032,9.79341,5.63892,0.231256,-1.59829,-5.81164,23.9372,17.8248,8.24792,14.5191,5.91826,4.065,-2.82533,-1.38958,140.056,-680.272,-697.352,20020,4200,6860
-1.85285,2.98871,0.831009,8.06872,6.006,0.257855,9.03138,-1.82621,-2.78273,-0.075354,-2.44377,2.17471,1.49178,3.1447,6.54469,6.35571,138.104,-674.904,-694.912,18060,5880,6020
-0.0223018,-3.95118,-5.06395,-4.32323,-5.52138,-2.8167,-3.26522,-4.83315,4.92046,-2.40259,-3.6505,-4.79011,-2.42224,-5.24937,-4.34691,-2.54422,140.544,-683.688,-701.256,17360,4900,5320
-1.58573,-5.79824,-4.28888,-10.4286,-9.32094,-3.8661,-9.9938,-7.48018,-1.42182,-3.55625,-2.86193,-6.7432,-1.59285,-7.94317,-13.6996,-9.09557,143.96,-681.736,-705.648,16100,4060,4480
-8.73663,-18.7281,-5.37648,-26.1957,-18.9404,-2.81505,-22.562,-6.9809,-9.41506,-5.64472,0.361138,-13.6767,-1.22621,-8.70696,-28.7031,-14.0971,139.568,-676.856,-700.768,15680,4200,4340
-25.1897,-23.7713,-10.0979,-21.8713,-14.0929,-1.05353,-11.3898,-1.45718,-29.6936,-15.846,-5.49574,-17.2055,-4.53007,-5.41988,-19.4264,-6.50659,141.032,-676.856,-695.4,15400,4760,4060
-19.5593,9.14802,2.35265,27.5018,24.3933,9.12191,32.6874,16.9826,-21.087,-14.2009,-11.0514,7.55295,0.034716,15.4592,37.5723,25.1003,137.128,-676.368,-691.496,15400,4900,3500
-29.0896,-13.2143,-3.92034,5.73324,10.0235,6.28489,19.6786,11.7439,-41.3549,-18.1261,-12.2507,-6.66591,-1.08166,8.35121,21.1606,16.9156,139.568,-672.464,-690.52,15540,4900,2520
12.1067,4.80472,3.65519,-0.0955015,0.322281,0.891041,-2.87989,-2.58627,11.7853,10.09,7.15813,6.54713,4.65785,1.61207,-0.25236,-3.34852,137.616,-671.976,-685.64,15260,4480,1680
33.1359,21.2453,11.8136,3.802,0.0225663,-0.729961,-15.2863,-10.467,36.541,24.8448,18.1974,18.1625,9.2265,-0.42592,-12.233,-14.3054,124.44,-657.336,-658.8,14000,3500,560
0.0991843,12.8582,11.6443,16.2494,14.415,7.19307,8.09338,4.44201,-6.28412,3.72989,5.49737,13.7732,9.10574,10.527,8.97758,4.84962,151.28,-699.304,-696.864,13020,2660,-420
-9.0604,3.6585,3.96342,14.1815,12.9565,6.05145,14.9142,10.1887,-13.9187,-5.52186,-2.42832,4.00706,2.69522,7.79623,14.2675,11.4499,147.376,-703.696,-704.672,8680,140,-3220
3.92346,-2.6535,-3.15853,-6.90342,-5.92269,-2.83596,-5.87783,0.828768,7.62191,0.533124,1.53292,-4.15767,-4.17503,-4.31056,-7.98333,-1.96978,142.984,-688.08,-698.816,12180,1400,-3220
-5.31598,-17.7321,-14.2317,-23.3748,-19.2488,-8.14497,-15.3461,-4.59743,-5.56102,-6.58144,-2.03405,-18.1591,-10.8351,-14.3261,-20.7293,-9.60987,146.888,-686.128,-692.472,11900,4480,-3500
-4.03959,-20.3298,-12.8199,-22.5467,-19.3801,-8.24963,-16.2856,-6.94698,-4.11628,-5.74627,-0.270435,-18.2698,-9.80379,-14.5922,-16.385,-12.115,141.032,-696.864,-695.4,11480,560,-2800
36.3983,13.297,8.45389,-8.01587,-8.03717,-5.16379,-19.8365,-13.7095,41.8258,25.9897,16.7792,11.0207,3.98346,-7.21196,-23.3842,-16.5625,146.4,-698.328,-702.72,11060,-700,-3080
31.6377,22.3169,10.1792,9.65931,3.75703,-2.86588,-2.88356,-8.5863,40.8191,22.5163,13.0472,15.754,4.04499,-1.61528,1.98419,-7.35428,146.888,-699.304,-698.816,10360,-980,-2660
1.03754,8.90711,5.11735,12.8609,9.89701,1.33788,10.8045,-1.49308,4.2351,1.82428,-0.154453,6.90533,2.05469,3.47541,15.3661,3.58813,146.4,-702.72,-691.008,10920,980,-2240
-7.4347,-13.4873,-5.70067,-17.1016,-12.9484,-4.33291,-16.5164,-9.57484,-7.38343,-3.79499,-2.72221,-10.5723,-1.70616,-8.49613,-17.8443,-11.0632,136.64,-705.648,-692.472,11760,2660,-2240
1.36153,0.642438,-1.42188,-0.623951,-0.423609,0.0298916,-0.693692,0.184037,3.986,0.785007,-2.69637,0.177453,1.97863,1.40691,2.8991,2.43494,136.152,-700.28,-688.568,13020,3640,-1960
-9.92089,0.673587,-1.60528,8.48536,8.73465,3.90523,16.7227,10.5021,-11.527,-7.6381,-8.52723,0.442703,2.35795,10.624,15.3354,15.8418,136.64,-702.232,-691.008,13020,3640,-1680
-15.7916,-1.00853,-6.82766,9.93212,6.86966,2.40612,20.6476,15.0193,-11.9734,-15.0125,-13.7251,-5.0398,-2.63575,7.57402,22.5693,16.6754,142.008,-700.28,-689.544,12460,3640,-1540
-1.40994,11.4161,2.78179,21.9773,14.0611,4.02122,21.5856,12.6161,2.22107,-3.92521,-6.0879,6.65375,1.61912,10.2688,28.9563,17.1941,139.08,-702.72,-688.568,12460,3500,-1120
-8.16157,6.26364,1.82586,19.9162,12.562,3.79445,22.3231,9.10903,-9.26751,-5.39624,-3.80924,3.04512,0.587918,6.48669,30.0969,14.6443,139.08,-700.768,-689.544,12600,3640,-840
-22.1961,-14.2642,-3.53523,-1.22469,0.936952,3.17546,5.01788,4.19903,-30.1592,-12.0377,-5.02671,-9.4219,-1.48701,1.12376,5.59645,4.21376,143.96,-701.744,-688.08,12880,3500,-700
-19.3185,-24.7241,-6.0671,-24.361,-14.7931,0.832723,-20.75,-2.5242,-27.5911,-9.59582,-5.37338,-15.635,-2.7505,-6.70057,-28.3528,-10.6649,143.472,-696.864,-690.52,12880,3360,-280
-10.1851,-15.7304,-1.0945,-25.9973,-16.4661,-1.88442,-29.8284,-7.50859,-18.604,-3.25432,-1.099,-7.60281,-1.41108,-8.70856,-38.4275,-18.7117,145.424,-690.52,-691.008,13160,3640,0
-17.0316,-22.4755,-4.18989,-28.2425,-18.5183,-5.51629,-28.6289,-9.84876,-27.5568,-8.41249,-0.94511,-12.7041,-4.51468,-9.80427,-35.6449,-20.8886,146.888,-685.152,-687.592,13440,3780,0
-34.8934,-24.3569,-13.6279,-8.29129,-5.26056,-3.58712,8.99472,6.06381,-44.7388,-24.1864,-13.1875,-19.8452,-11.3794,-4.99159,4.56008,2.2014,148.84,-683.688,-683.2,13160,3920,280
-33.4545,-21.3607,-15.3839,-1.8453,-1.80575,-2.79541,10.8654,6.64555,-36.0702,-26.0085,-13.0514,-19.6884,-12.0198,-3.07333,12.7422,5.74715,148.84,-679.296,-682.712,12880,4200,140
28.0784,12.8184,2.10634,-0.177206,-3.72362,-5.56753,-8.20014,-8.72449,36.6927,14.5994,10.8075,7.30472,-1.46183,-6.40364,-9.16744,-9.74081,151.28,-683.2,-682.224,12320,3780,0
55.3747,32.8251,17.3107,8.94945,3.60731,-2.56406,-9.69547,-10.9692,67.9146,35.6467,23.2149,26.0941,9.04526,1.07694,-8.27025,-9.44577,147.864,-685.64,-686.616,11060,3920,-280
49.4332,34.7366,18.2586,18.2285,10.7443,1.08539,-0.349089,-6.42311,58.0832,32.4118,19.5439,28.152,10.2754,5.0147,3.9065,-1.02367,143.472,-691.008,-685.152,9520,3920,-560
28.4461,20.9005,10.0632,11.2802,5.88762,1.20828,2.06156,-4.54136,35.437,18.3601,12.1737,16.9113,7.05111,1.86709,4.27142,1.1289,144.936,-690.032,-686.616,8400,3920,-560
12.7091,10.0459,5.2408,7.47949,7.18013,3.48605,8.3989,-0.0863265,18.0395,8.9501,4.11824,9.88312,4.88847,5.57985,6.56564,7.29481,143.96,-691.984,-690.52,6860,4200,-560
24.4475,26.5412,15.9841,24.0132,22.3266,8.52535,22.1417,3.55013,29.1051,19.0868,7.10683,24.0821,11.8219,16.896,24.0602,15.4779,140.056,-690.032,-695.4,6020,4900,-280
9.61957,16.8026,7.44763,14.3319,13.3907,5.00826,12.4164,3.27753,13.2587,6.3802,1.12289,11.5585,5.06202,10.2719,13.3932,8.45311,139.08,-690.032,-695.888,4900,5600,-140
8.18109,11.253,5.81736,8.65479,8.23515,3.58033,4.79628,3.90071,12.2387,5.13808,3.74518,7.68382,3.39598,6.14775,6.59825,3.77503,141.52,-689.544,-701.256,3920,6580,0
-10.7809,-3.18861,-1.49246,0.78931,1.52955,1.62504,2.98455,2.10888,-14.5623,-5.78854,-2.3136,-3.85966,1.72469,1.13644,2.11132,1.69761,136.152,-685.152,-700.28,3500,7420,280
-25.5775,-16.4953,-6.71834,-8.96748,-4.66314,1.88094,-3.25301,3.17949,-34.1079,-14.148,-8.70076,-11.0724,-1.72113,-0.490447,-3.38064,0.497195,134.2,-684.664,-699.304,3080,8260,560
-28.4314,-21.1245,-12.7232,-12.3799,-8.89944,0.357142,-4.33762,2.98227,-36.5565,-18.2863,-12.4096,-16.4894,-6.21763,-5.77844,-5.93528,-0.631919,137.128,-680.76,-702.232,2660,8820,700
-37.9575,-26.0783,-19.3364,-14.2438,-13.1009,-2.91848,-6.11335,3.34911,-42.4684,-27.7113,-17.7145,-23.9898,-11.5075,-10.544,-5.71334,-2.56113,130.296,-684.664,-701.256,2380,9100,560
-43.6175,-35.7046,-24.2912,-23.2709,-19.617,-6.68171,-10.1508,0.141097,-50.063,-31.6318,-20.1002,-30.9663,-15.0438,-14.2879,-10.5607,-5.27585,130.296,-684.176,-701.256,2240,9380,420
-13.308,-15.5873,-14.6864,-10.2538,-11.4391,-5.92384,-1.49197,0.909622,-14.8164,-11.6226,-9.67917,-16.6035,-10.8624,-9.37262,0.738622,-1.13109,130.784,-684.664,-699.304,1680,9800,0
21.6196,13.1017,6.16994,5.41083,1.34952,-1.26311,-2.12234,-1.29185,27.6346,16.498,8.44946,8.87322,2.97425,0.253879,1.95472,-2.94279,134.2,-688.568,-702.232,1540,9660,-560
22.4793,19.1926,15.7384,11.911,9.50688,3.23361,1.57422,-2.0903,25.3808,20.524,10.489,18.1994,10.267,7.45363,1.82473,0.871312,132.248,-690.52,-702.72,1680,9940,-840
10.762,4.34817,7.81006,4.23353,4.52924,1.44433,3.16853,-0.341019,11.2842,10.585,7.25846,6.60701,6.27667,3.4301,4.48908,1.31038,133.712,-688.568,-704.184,1960,9800,-1400
18.6451,0.0637487,3.10569,-7.93733,-6.14826,-3.65657,-10.244,-6.48019,22.1678,11.5784,10.5826,1.30766,2.65973,-3.58018,-11.3841,-7.65494,139.568,-693.448,-703.696,2380,9380,-1680
22.9715,14.9765,11.2798,0.999767,2.1064,-0.473535,-9.08022,-6.49361,28.1027,13.6192,9.23547,12.8135,6.25921,2.71556,-12.3566,-5.7964,138.104,-694.424,-702.72,2800,9520,-2100
6.31614,1.59043,0.155697,-3.97114,-4.11696,-3.76704,-5.97151,-4.95363,10.7424,0.128485,2.31144,-0.33828,-2.48367,-3.61379,-10.3656,-4.32604,142.008,-690.52,-705.648,3640,9100,-2660
-5.86982,-6.88881,-1.91174,-3.723,-3.39934,-2.3587,1.14639,-1.89985,-6.93143,-6.2173,0.173722,-6.95091,-3.26241,-3.57481,-2.711,-0.235135,142.496,-694.912,-701.256,4340,8680,-2940
-10.6823,-4.03724,0.87446,2.3152,3.07779,1.71159,5.29984,2.27107,-15.2026,-6.28392,0.546962,-3.09213,0.0890134,1.79401,2.49026,3.28896,146.888,-696.864,-703.208,5040,8400,-3220
-15.6206,2.68695,6.38266,11.5284,13.8114,8.09477,10.8188,7.57969,-20.0861,-8.14138,-3.82894,5.84768,4.45932,12.4695,9.33838,9.7336,149.328,-696.376,-701.256,6300,7980,-3500
-11.889,1.45009,2.8192,7.50067,8.33605,5.2731,7.70818,5.44218,-15.8643,-6.37739,-4.06853,3.01114,2.94489,7.05612,6.05776,6.68005,151.768,-694.424,-701.256,6720,7700,-3780
-8.62517,-4.17889,-2.00756,0.839322,0.265182,0.709873,2.12956,1.1326,-12.9007,-4.83595,-1.98441,-1.79134,0.000116685,0.012944,4.4157,0.684054,153.72,-692.96,-704.184,7700,6860,-4060
-17.7189,-11.2851,-9.54614,-3.34774,-3.58235,-1.63465,0.802506,1.64613,-24.2006,-14.8907,-12.1052,-9.55157,-6.56259,-4.68586,-1.34274,-1.27585,153.72,-696.376,-700.768,8260,6580,-4200
-13.7281,-19.2708,-16.9991,-15.5101,-17.0299,-6.32697,-9.04757,-1.12888,-14.5087,-13.1359,-9.54706,-18.472,-11.8556,-12.8475,-6.64078,-7.4168,156.648,-694.912,-705.648,9380,6020,-4480
-3.51517,-5.93249,-8.33172,-2.27704,-4.95106,-0.655916,3.76894,4.07929,-3.17063,-4.82861,-5.5174,-7.78471,-5.8218,-3.66937,8.82246,2.09427,158.6,-697.84,-703.696,10220,5460,-4760
