-1.41176,0.253179,-0.188676,-3.16807,0.859448,-1.21869,-0.95431,3.38022,5.18311,3.05263,3.13751,2.73398,3.82504,2.90806,-0.653506,2.5296,28.304,-848.144,-523.136,-700,1540,-1960
2.48997,3.46426,3.05475,1.09865,3.83077,0.396263,1.45358,3.7679,2.05004,1.54133,0.624487,2.52418,1.38839,1.48539,-0.264034,0.389177,30.744,-851.072,-520.208,-700,1540,-1820
3.28017,4.7839,4.58025,5.69639,5.15415,2.88289,3.45111,3.46521,-3.52097,0.417474,-2.60835,0.765507,-2.24079,-1.52455,-1.84984,-5.09149,35.624,-846.192,-524.6,-420,1400,-1680
0.143224,2.09106,3.50977,4.5788,4.19447,3.78022,2.90939,3.94185,-8.57039,-0.253039,-2.50129,0.731443,-1.78418,-0.836907,-2.04362,-3.72678,34.16,-848.632,-523.136,-560,1680,-1680
0.981798,3.36895,2.76692,3.91227,3.4886,2.43672,0.874692,0.983413,-7.4207,-0.195878,-4.10578,3.31768,-3.16558,-0.034866,-2.71284,-3.74801,32.696,-847.168,-523.136,-420,1400,-1540
0.249766,3.52725,3.10565,2.6593,2.11862,1.29416,-2.39822,-0.824977,-2.37471,0.0945879,-4.47575,4.99472,-3.59193,1.63554,-5.00831,-4.78679,35.624,-846.68,-525.088,-560,1260,-1400
-2.6013,-0.809273,-0.0677634,-2.64922,-4.14003,-0.727715,-6.43763,-2.8225,1.86301,0.257815,0.194225,5.27146,1.10862,2.97489,-4.01408,-2.67359,35.624,-846.68,-523.624,-560,980,-1260
-6.2408,-5.68276,-5.69673,-5.5441,-10.5589,-3.5143,-6.03914,-2.31621,0.865287,-1.9605,1.34937,0.600435,2.52461,0.18474,1.58578,0.803442,34.16,-848.144,-523.624,-700,560,-1260
-3.72866,-1.26579,-4.52735,-0.428556,-5.84824,-1.4932,-0.0429214,0.875261,-3.46153,-6.18719,-4.30857,-3.37037,-3.31223,-3.4186,5.51199,1.71379,34.648,-847.168,-526.552,-280,700,-1260
-1.25864,2.08912,-1.48169,2.52882,-0.591664,0.765562,3.21289,1.55902,-3.72935,-5.87169,-7.33166,-3.81651,-4.05138,-2.64287,3.9113,1.86007,34.16,-847.168,-527.528,-560,560,-1400
1.89246,6.48035,1.22933,4.14165,3.97892,1.78408,6.42946,3.3134,-0.0934705,-5.59467,-6.96639,-3.69067,-3.78574,-2.46887,3.80367,3.97736,32.208,-847.168,-526.064,-280,280,-1400
5.2309,8.09576,3.65628,3.92297,5.08834,1.29245,4.74983,0.776025,2.67483,-0.796627,-1.88536,-1.59539,-0.27002,-1.62354,2.30379,2.66957,34.16,-845.704,-526.064,-280,0,-1400
-0.391051,-0.529956,0.996677,-0.634599,0.329656,0.51568,2.24897,0.0433952,0.41681,3.31732,1.25114,-1.99636,3.77993,0.136042,0.964475,4.76747,35.136,-848.144,-526.064,0,0,-1540
-0.806611,-1.50008,0.764239,-0.625439,0.323796,1.03573,2.57788,0.6217,-0.485829,3.61536,0.886462,-2.52755,4.10395,0.181089,1.72919,4.36364,33.184,-849.608,-526.064,140,0,-1400
-0.35919,-0.615178,-0.745081,1.98473,1.12825,0.122327,1.48877,-1.22355,-2.51154,-0.981934,-0.115394,-4.50407,-0.703172,-2.75687,1.05678,-0.0776848,33.184,-847.656,-524.112,140,-280,-1260
-2.21765,-7.82666,-2.17031,-3.61301,-1.10465,-0.990959,-1.90101,-3.38598,-1.33067,0.793752,4.76827,-1.68213,2.82577,2.75415,0.787825,3.31737,33.184,-847.168,-526.064,0,-560,-1260
0.260321,-9.66128,-0.309514,-4.29911,-0.9071,-0.273511,-2.83444,-5.11605,0.944092,3.8363,7.83388,1.18799,4.81817,4.77048,-0.670523,3.17659,33.672,-848.144,-521.672,-140,-560,-1400
1.23188,-6.37243,-1.83446,-1.71008,-1.11729,-1.6901,-2.18783,-3.85854,0.234778,0.948863,3.86866,-1.29795,0.595556,0.185942,-1.11059,-0.732732,34.16,-849.12,-524.112,0,-700,-1260
7.64603,3.81997,1.90145,3.32908,2.30416,-0.589379,-0.300075,-2.58786,5.57431,-0.980814,0.128136,-0.559884,-4.4696,-2.05565,-2.67372,-5.42019,33.672,-849.608,-523.136,-140,-700,-1400
7.71049,6.82809,1.84229,4.64623,3.50078,0.153484,0.921374,-0.129541,6.2649,-2.77252,-2.67089,-1.87033,-6.86892,-4.46398,-3.66077,-5.09024,32.208,-849.608,-524.112,-280,-700,-1120
2.54093,4.1727,-0.953866,1.95586,0.758973,-0.881823,-1.44241,0.485748,5.2192,-1.44294,-2.17361,-3.03763,-4.99532,-3.04916,-2.52884,-4.06784,32.208,-849.12,-524.6,-280,-700,-1120
-0.535569,0.490274,-0.613085,-0.341407,-0.955185,-0.956903,-4.13134,-1.68095,3.07702,0.828624,0.658075,-0.769473,-2.81319,-0.580919,-4.19869,-4.1115,34.648,-848.144,-523.624,-420,-560,-840
-4.3849,-5.46057,-1.70722,-3.80992,-2.49307,-0.0362501,-4.01796,-1.44413,-1.58059,1.53796,3.41653,1.26171,2.08578,2.19219,-3.70521,0.0235797,34.16,-847.656,-522.16,-700,-840,-840
-6.88246,-5.55656,-1.89038,-3.26214,-2.45366,1.43527,-0.894483,1.68415,-5.44325,0.621996,1.75965,0.411279,1.73533,2.20813,-1.05769,1.94226,33.184,-850.584,-524.6,-280,-560,-700
-6.91382,-4.90327,-1.91614,-3.9351,-4.03282,-0.0522098,-1.76563,3.7275,-5.27238,2.49904,1.96689,0.223527,2.46569,1.43547,1.26661,1.4699,34.648,-848.632,-525.088,-420,-700,-700
-3.18717,-1.48742,-2.25042,-3.79835,-4.07506,-1.74014,-1.77616,2.08387,-2.17006,2.67915,1.82077,2.62948,2.90527,0.359784,4.63786,0.653359,36.6,-850.096,-519.72,-420,-280,-420
2.47544,4.01026,-0.829858,-1.17401,-0.52216,-2.50943,-0.480676,-1.14121,1.07538,2.1007,-0.458706,4.82592,0.541603,-1.69223,4.50967,-0.909767,34.16,-847.656,-521.672,-840,-560,-280
4.53306,5.53618,1.85379,1.00658,3.76867,0.395355,1.12293,-1.95356,1.51037,1.94451,-2.6627,4.9062,0.566297,0.280128,2.51068,-2.44817,37.088,-845.704,-515.816,-1120,-980,-280
3.54398,3.81846,6.50935,-0.27483,4.9129,2.21477,0.22598,-2.55978,0.516502,5.73563,0.320108,8.60754,4.974,4.98975,-1.16603,-0.948,35.624,-845.216,-522.16,-1400,-700,-140
2.26178,1.77982,6.18741,-1.22301,3.28973,0.894593,-0.131222,-1.232,-1.79598,3.8845,2.92452,8.12036,5.38383,6.24261,-1.81447,0.84908,37.576,-848.632,-519.232,-1680,-840,0
-0.664114,-0.597952,0.900999,-1.01944,1.76795,0.198017,2.8471,3.04936,-3.91187,0.494562,1.94461,3.01862,3.44424,4.11626,2.42353,3.13483,37.088,-844.728,-522.16,-1820,-840,0
0.417529,-0.15044,-0.953561,-0.38177,0.830125,0.424472,5.09251,6.39361,-0.0898618,0.529178,0.7858,1.03744,1.60933,1.9962,5.58499,4.35824,35.624,-843.264,-519.72,-1820,-1400,0
1.28667,1.6446,-1.4362,2.12269,0.255445,-0.0449683,4.82928,5.11253,2.14458,-1.52635,-2.60725,-1.42105,-1.59306,-1.63298,4.30103,2.3744,40.016,-844.728,-520.208,-1960,-980,140
2.37101,4.91025,-0.470588,6.24882,0.374329,0.156821,5.00239,2.23229,2.13328,-4.6618,-6.41878,-3.76837,-6.23024,-5.46673,-0.566577,-2.56111,36.6,-844.24,-523.136,-2240,-1120,0
-1.018,2.62851,-0.583832,5.06146,-1.98432,0.281592,2.37018,-0.753662,-0.421069,-4.86299,-4.17393,-4.74363,-4.61383,-4.68371,-5.11929,-3.45336,37.576,-842.288,-521.184,-2520,-1120,-140
-6.80258,-5.09118,-1.80493,-1.93606,-6.25795,-0.849985,-3.90327,-4.41941,-3.15243,0.0772261,4.89679,-2.75718,3.15862,-0.15388,-6.08168,1.27494,36.6,-847.656,-522.648,-2940,-980,-280
-7.37445,-6.25251,-3.56601,-2.54381,-4.90904,-0.486402,-2.0665,-1.70431,-3.34564,-5.03696,2.05852,-5.83761,1.18322,0.370283,-2.97613,4.33408,35.624,-847.168,-524.6,-2800,-980,-280
-3.27904,-1.41028,-2.5674,1.87593,-0.294007,1.0813,0.907468,2.33595,-0.180996,-9.23823,-3.49725,-7.4769,-3.2971,-1.92726,-1.64559,1.71272,36.112,-849.608,-523.624,-2800,-980,-420
0.546097,-1.77517,-0.238467,0.511761,0.0652354,2.4638,0.67215,3.17161,1.88213,-5.34897,-2.70672,-3.99673,-1.14289,-0.678571,-1.32949,1.7467,34.16,-851.072,-521.184,-2940,-980,-140
4.81148,2.41598,2.79501,3.48006,2.84202,2.44609,1.96184,1.48876,2.75324,-1.90568,-3.64005,-2.60747,-2.27378,-2.23208,-0.160047,0.303679,35.136,-850.096,-522.16,-2940,-700,-140
6.44899,4.79098,2.80142,3.53002,3.17134,1.08451,0.151739,-1.90306,4.21585,0.856578,-3.28454,-1.42766,-2.99129,-2.46025,1.07671,-2.04942,32.696,-850.584,-520.208,-2800,-700,-140
1.95584,-0.787719,-0.436752,-0.735805,-0.362266,-0.220136,-2.78231,-3.05251,3.44504,2.6962,-0.461507,-0.363565,-0.971542,-0.891287,2.49885,-0.465636,34.648,-850.096,-523.624,-2940,-840,0
-2.38307,-3.83844,-1.43487,-2.93803,-1.74787,-1.0268,-3.43277,-1.36774,0.55844,1.41412,2.08223,0.13812,1.17786,0.905247,2.85531,-0.486223,34.16,-853.024,-523.136,-2940,-840,0
-5.82123,-6.14734,-3.35022,-5.19548,-2.5182,-1.88708,-5.4452,-2.28853,-3.76035,0.229638,2.26267,0.548079,2.78473,1.64408,2.33133,-0.811595,30.744,-850.584,-520.696,-3220,-840,0
-2.91466,-2.53599,-3.06531,-3.15701,-1.66027,-2.89329,-5.31362,-3.29769,-2.24485,1.93094,1.80127,2.20401,0.930428,0.32878,-0.0819026,-3.19805,32.208,-845.704,-519.72,-3080,-700,140
0.445849,0.993714,0.00111303,-1.35039,0.697236,-1.94138,-2.42709,-1.47223,-0.297672,3.63469,2.82527,3.9254,1.30419,0.629712,-0.928445,-2.48614,32.208,-849.608,-521.184,-3220,-420,140
1.64477,3.29749,2.65086,1.6452,4.75007,-0.871755,0.184377,-0.231679,-2.21442,2.79858,1.73625,3.06357,1.16521,-0.891974,0.358592,-2.72477,32.208,-845.216,-523.624,-3220,-280,0
2.42108,4.75559,2.55766,1.64397,3.30755,-2.33758,0.64759,-0.480679,0.202663,3.03966,1.5382,1.32424,0.166009,-1.48861,1.59176,-4.09545,32.696,-846.192,-528.504,-3220,0,140
4.19271,6.81489,2.89022,2.82232,3.56418,-0.433121,2.99477,1.45474,1.36846,2.72887,0.618588,0.959006,-1.21682,-1.45435,1.44243,-3.92683,30.744,-846.192,-526.064,-3220,420,-140
3.86923,5.75475,2.9057,3.37412,4.53741,1.88574,4.8417,2.15093,-1.22613,0.71973,-1.08706,1.31296,-2.23474,-0.0751522,-0.332738,-1.79251,32.208,-845.216,-528.992,-3640,560,0
0.825381,-2.43865,-0.422264,-1.85176,0.162768,1.3049,0.9159,1.2306,-2.67304,1.11925,1.54355,2.97054,-0.128371,3.35975,0.0509268,3.41454,33.184,-844.24,-525.576,-3640,840,-140
3.11285,-1.74918,1.21535,0.762311,1.38622,1.41597,1.05235,2.61958,-0.214012,-0.792843,-0.406509,2.07755,-1.64266,1.3238,-2.11743,1.85792,30.744,-843.752,-523.136,-4200,700,-140
5.66868,4.96138,4.59599,4.73686,2.72872,1.68031,2.96129,2.01646,2.24369,-2.67085,-3.30345,1.86127,-3.99236,-0.439881,-2.76471,-1.29647,33.184,-845.216,-524.6,-4200,840,-420
4.25452,2.16015,1.78092,0.263241,-2.21439,0.479719,-0.46763,-2.56112,2.94501,1.17121,-0.363871,1.84426,-1.22664,2.29885,-2.84437,0.88885,30.744,-844.24,-524.6,-4620,1120,-280
0.580046,-0.056373,-3.1064,-0.531636,-5.41446,-1.05166,-0.723189,-4.13359,4.33054,0.352929,-0.428282,-2.46564,-3.25926,-0.868402,-0.796403,1.46157,34.16,-845.704,-524.112,-4900,980,-420
-1.84092,-1.40919,-3.50943,-1.82408,-5.0123,0.171372,0.8486,-0.107833,3.68911,-0.00152555,0.688862,-2.73943,-0.644957,0.499343,2.05182,4.00071,32.208,-845.704,-525.576,-5180,1120,-420
-8.70657,-9.58378,-5.46848,-7.69725,-7.99977,-0.721354,-3.12733,-0.900632,-0.241617,1.76872,4.16945,-1.90403,6.35875,4.35455,-0.0890903,7.17324,33.672,-846.192,-527.528,-5320,1260,-420
-13.1573,-14.7066,-6.73959,-12.317,-9.95257,-1.7961,-6.73641,-1.88067,-4.18703,3.67648,6.5152,0.0555043,11.1296,7.04806,-1.82133,8.23713,31.232,-847.168,-528.016,-5180,1120,-560
-8.12581,-8.44532,-0.918938,-3.75704,-0.844057,1.07861,-0.0916768,0.382619,-6.71414,-0.101174,1.42499,-1.31231,5.64151,3.54406,-0.355446,3.61575,30.744,-850.096,-528.504,-5180,980,-560
-1.99211,0.591725,1.37498,3.99306,4.83225,2.80295,5.12734,2.54873,-5.21052,-4.72023,-5.03689,-2.43276,-1.76045,-2.3704,0.598877,-1.35312,30.744,-851.072,-528.504,-5040,1260,-420
0.788747,2.53611,0.651231,3.5422,3.40256,2.75915,5.68278,5.30343,-2.50015,-2.95803,-5.43163,-1.20754,-2.27158,-1.1968,1.49803,-0.0277776,30.744,-848.632,-528.016,-4480,980,-420
0.678889,4.4157,1.08504,5.97593,4.87688,1.50515,6.81411,5.45358,-3.59826,-4.8785,-8.18442,-3.34185,-5.41494,-4.07719,4.83561,-1.20167,30.256,-849.12,-528.992,-4340,840,-420
4.63154,8.5009,2.388,6.86127,5.99156,0.383543,4.35037,4.04452,0.836058,-3.08947,-6.37599,-1.5243,-5.98337,-6.66427,3.38318,-3.80234,30.256,-849.12,-526.552,-3920,980,-420
5.34006,9.01606,3.54715,6.15455,5.8535,-0.715678,1.90108,0.746216,4.43533,-0.359492,-2.44128,1.07008,-4.30506,-5.4604,1.67589,-4.40338,32.696,-849.12,-530.944,-3500,840,-420
3.89333,6.62457,4.33093,4.6795,3.9361,-0.172677,-0.741085,-2.36531,4.89449,2.12604,-1.22326,1.54958,-2.15415,-3.62373,-0.595093,-4.20815,28.792,-849.608,-530.456,-2940,700,-280
2.48609,2.25955,3.28846,0.521247,0.580472,-0.597175,-4.27213,-2.91892,4.72474,2.88398,2.08328,2.68193,1.39622,-0.502242,-1.65104,-2.86698,31.232,-847.168,-529.48,-2800,560,-420
0.131146,-3.91118,-1.44652,-5.76468,-3.75314,-2.51547,-8.36352,-2.7062,5.6155,4.0794,5.78503,3.24036,5.9335,1.74245,-2.90837,-0.394887,31.232,-849.608,-528.016,-2660,140,-280
-1.85825,-8.20476,-3.42106,-9.16049,-6.49426,-2.24582,-7.68166,-0.838144,6.14799,5.19869,8.21201,3.13882,8.77461,4.54076,-0.232168,3.85508,32.208,-848.144,-530.456,-2380,-140,-140
-0.0102683,-5.14632,-2.24259,-6.92051,-4.13758,-2.07621,-3.77122,-1.51853,4.80257,1.80751,5.01379,2.22738,6.04323,3.64365,2.95281,2.71016,32.208,-845.216,-526.064,-2240,-280,-140
2.63237,1.43552,-2.01549,-0.406537,-1.00546,-1.51115,-1.63636,-3.07716,3.3863,-2.72708,0.522107,-0.355741,-0.842914,-2.08547,-1.02854,-3.42772,29.28,-846.192,-529.968,-2240,-560,-280
-2.60795,0.13948,-1.65886,-0.274264,-0.797281,-1.41161,-2.82224,-4.77837,-3.0058,-1.03994,5.20329,-0.740849,0.51459,-0.889593,-2.4378,-3.32542,31.232,-846.192,-528.504,-2100,-560,-280
-7.73343,-5.4877,-2.91526,-1.54118,-2.37373,-1.59417,-3.98486,-4.29784,-8.91634,-2.08763,4.85502,-2.52736,0.608259,0.257836,-3.72006,-1.26089,33.672,-845.216,-529.48,-1820,-700,-420
-6.60315,-6.48128,-3.36406,-1.26456,-1.95394,-2.25973,-1.72823,-2.41445,-9.02839,-5.46488,0.900387,-2.84044,-2.16461,0.0995764,-2.38916,0.537629,30.744,-845.704,-528.016,-1960,-700,-280
-0.534612,-2.09932,-0.637382,1.98183,1.47727,-0.26834,2.74542,-1.08601,-4.05158,-5.55665,-1.8625,-1.60489,-3.18058,-0.338878,0.0477114,1.18826,28.304,-845.704,-528.016,-1960,-700,-420
4.59715,3.02796,3.26482,3.60587,3.23817,1.7396,3.97831,-0.382032,-0.196468,-1.8461,-2.01801,1.42092,-1.19884,1.11491,-0.450188,1.38907,36.6,-843.264,-528.504,-2100,-840,-560
4.91819,5.72842,5.2054,3.67986,4.06369,1.46539,3.58895,-0.88827,-0.931487,1.25619,-2.16722,0.86744,-1.79351,0.290204,-1.18499,-1.09193,33.184,-842.288,-528.016,-2520,-700,-560
3.64183,4.25724,2.4752,3.83806,1.62314,1.88552,3.41315,3.08225,-0.31605,0.847902,-3.17614,-3.56516,-3.54729,-2.53659,-1.81631,-1.47215,34.648,-839.36,-526.552,-2940,-840,-560
3.74812,3.24753,-0.674729,2.58018,-0.372463,1.77188,3.58934,6.39749,2.28279,1.74901,-1.9234,-3.54043,-2.82922,-1.75809,0.111468,0.310921,32.696,-842.776,-529.48,-3220,-700,-700
3.21749,2.08476,-0.441538,0.881151,-1.94473,2.87189,2.23801,6.38115,2.23322,3.17853,-0.345089,-1.16903,-1.24897,-0.379433,-0.278287,-0.364929,35.624,-840.824,-528.016,-3360,-420,-840
0.966593,0.555493,0.112555,-0.493767,-2.09472,2.46243,2.47855,5.34102,-1.54565,4.02795,-1.06945,-0.206334,0.136278,2.18155,1.73636,1.45041,36.6,-841.8,-529.48,-3780,-280,-700
3.9553,4.93433,3.68157,0.29234,2.32625,1.99536,2.45663,1.67098,-0.841059,3.89364,-2.91187,4.00472,0.303313,5.13548,2.05119,-0.231741,34.16,-841.8,-528.992,-3640,0,-840
6.37489,6.06257,4.60938,-1.1426,2.51573,0.730224,-0.933761,-2.09053,3.63709,5.74048,0.0457505,8.13646,2.6557,5.03676,-2.19463,-2.17534,36.112,-840.824,-529.968,-4200,0,-980
-2.78576,-1.32817,-1.11418,-1.05636,0.910807,-0.238688,2.70048,-0.0508138,-3.00761,-1.36193,-3.92066,0.778765,-0.870188,1.66648,2.08986,0.68359,35.136,-842.288,-524.6,-4620,0,-980
-3.88094,-0.522731,-1.0123,1.75426,2.44909,1.35778,6.50546,3.16085,-4.42953,-5.07782,-6.02625,-1.59326,-2.40345,-0.242948,5.94875,2.79006,33.184,-839.848,-528.504,-4760,280,-980
1.28894,6.6693,0.766648,7.00551,5.03059,1.95601,8.20757,3.557,-1.41156,-6.74335,-8.50935,-2.83752,-5.55257,-4.21601,5.14119,0.344552,35.624,-840.336,-527.528,-5040,420,-980
-0.913284,1.16133,0.141601,2.48849,0.477001,0.392259,2.33963,-0.0291042,-1.04928,-4.34585,-4.10727,-1.83484,-1.52355,-2.77507,3.46506,0.692234,35.136,-839.848,-525.576,-5460,560,-980
-2.65439,-3.73502,-0.363387,-2.45082,-2.46928,-1.66845,-3.16849,-2.76106,1.86784,0.541896,3.08391,1.77151,3.62974,-0.586725,2.49342,2.22884,33.184,-842.288,-530.456,-5180,840,-980
0.665795,2.10744,1.85923,0.690128,2.09735,-0.981553,-2.96056,-3.05103,4.31628,0.422338,1.5734,1.64838,0.383508,-2.1876,-0.589122,-1.47175,34.648,-840.336,-531.92,-5740,840,-980
-1.77126,-1.41129,0.744239,-3.16276,0.125803,-1.05771,-6.65194,-3.597,5.07396,4.79238,7.20063,3.31578,4.27272,0.419993,-3.11707,-0.805857,33.184,-842.288,-528.504,-5880,980,-1120
-6.91864,-9.55635,-4.94545,-7.17808,-5.22662,-2.37974,-8.6366,-3.49599,2.96558,5.27524,7.96636,-0.292366,4.96277,1.49911,-1.2585,1.43138,36.112,-841.312,-530.944,-6020,1260,-1120
-5.98966,-9.05469,-4.9106,-5.05284,-5.18989,-2.99087,-6.69309,-3.36337,2.98072,2.45518,4.36364,-1.84646,1.52202,0.370604,-0.0132723,0.787188,36.112,-843.264,-529.968,-6020,1400,-1260
-6.04407,-8.54675,-3.96209,-3.14452,-3.96456,-3.18329,-5.45977,-2.85908,-0.450427,-1.04414,2.16091,-2.60504,-0.437852,-1.31858,-3.21088,-0.789103,34.16,-844.24,-528.504,-5880,1540,-1120
-4.09629,-7.94411,-3.46947,-3.96726,-2.40007,-2.74941,-5.16579,-2.05629,-1.7303,-0.176121,4.20935,-0.85501,1.19788,0.159937,-2.32854,-0.114151,34.648,-843.752,-530.944,-6020,1680,-1120
-3.13505,-6.33386,-4.63904,-3.48846,-2.97917,-2.23239,-3.90571,-0.393124,-2.27192,-1.1404,3.5548,-1.89039,-0.301174,0.09394,-0.189535,1.24027,35.624,-846.192,-533.384,-6020,1820,-1120
-1.33809,-2.53285,-4.16658,-1.06015,-2.79064,-0.999394,-0.957792,1.94094,-3.26997,-2.66275,-0.234707,-4.81357,-1.70065,-2.30794,-1.31923,2.52372,36.6,-844.728,-533.384,-6020,2100,-980
0.878081,-0.405341,-0.91797,-0.67279,-1.23322,0.648478,1.29532,2.94784,-4.35028,-2.62385,-2.01718,-2.04385,0.469363,0.0608013,-0.541219,4.08838,36.6,-845.216,-527.04,-6020,2100,-840
0.591996,-1.18294,0.204421,-0.435185,-2.03677,1.49702,1.79245,3.51157,-5.19212,-4.126,-4.46666,-0.382577,1.16846,0.246248,0.368968,2.88993,35.136,-847.168,-528.016,-6300,2100,-700
4.66903,3.15107,3.4934,2.18112,0.61654,2.02926,2.05829,3.32622,0.321616,-1.06592,-2.17898,2.55842,1.53461,-0.187947,-1.35076,0.142953,34.648,-844.728,-528.016,-6440,2520,-700
7.4861,7.38127,5.73747,4.48297,3.62276,2.5688,2.09293,0.320578,4.24661,0.539187,-2.06826,4.95921,-0.873728,-0.369661,-2.96214,-3.16469,37.088,-844.728,-528.016,-6300,2660,-700
10.1309,12.079,7.21576,5.59974,5.86078,2.73943,2.41097,-0.0699305,9.36625,2.99272,0.268156,6.02375,-1.61976,-0.546149,-3.28975,-4.68083,37.088,-841.8,-529.48,-6300,2800,-700
8.39332,10.9681,4.67052,5.60021,4.29456,1.23563,2.39249,-0.152118,8.79742,0.696186,-1.48608,2.6211,-3.52453,-0.857954,-4.22676,-5.35272,35.136,-843.752,-525.576,-6720,3080,-560
-2.83851,1.45242,0.727967,2.80626,1.29368,-1.17805,2.24065,-1.34818,-2.27997,-2.30579,-2.48158,-3.4174,-2.04315,-0.783039,-2.0385,-3.33001,35.624,-846.192,-528.504,-6860,2940,-420
-8.84939,-5.41441,-2.07569,-2.47316,-2.36328,-2.22341,-0.016874,-2.19457,-7.89443,0.737933,4.18485,-4.90595,3.20429,2.49127,0.820504,0.242585,35.136,-845.216,-524.112,-7000,3080,-420
-7.11676,-5.94976,-3.16607,-4.52219,-3.22086,-1.32134,0.156649,-1.9143,-4.89013,1.40215,5.176,-3.23044,3.81863,4.91352,3.1177,1.67309,35.624,-840.824,-528.016,-7420,3080,-420
-2.30743,-3.59133,-0.694972,-4.37669,-2.397,-0.837909,-1.48398,-3.52877,1.47008,4.43288,5.57526,0.0306517,3.70308,4.56864,1.03996,1.15845,36.6,-841.312,-526.552,-7700,3220,-560
1.86929,3.41843,1.74088,-0.745808,0.332915,0.239956,0.956802,-4.53031,4.74264,3.69663,0.627743,1.584,0.506833,1.65712,3.49508,0.361264,33.672,-843.752,-526.552,-8120,3080,-700
5.61867,11.4684,3.521,4.3618,5.8529,2.15908,5.22315,-1.48555,4.44779,0.351838,-4.2443,1.89534,-3.54407,-1.50764,3.21273,-1.97747,34.648,-841.8,-528.992,-8680,3360,-840
6.68207,10.575,2.63459,5.29492,7.16293,2.90602,5.24292,1.68199,0.555788,-1.34831,-4.4115,1.79847,-3.56228,-2.5374,2.65945,-1.71048,32.696,-843.264,-526.552,-8960,3220,-840
4.57106,6.83859,3.91119,4.36336,6.26973,3.02283,5.09656,4.20585,-4.06649,0.0237857,-3.11283,2.58418,-1.1587,-0.94283,4.20944,-0.139603,32.696,-843.264,-528.016,-9660,3080,-1120
2.10744,-0.278749,2.47993,-0.95383,0.443691,1.40345,1.0765,3.86477,-3.80853,5.18431,3.18092,7.2364,3.6105,2.6268,0.398698,2.16187,33.672,-839.36,-529.968,-9520,3080,-1120
0.892343,-0.187509,-0.0121434,2.00645,0.95859,1.29442,3.5937,2.72557,-5.12435,-1.58397,-1.48456,2.71073,-2.31241,-0.567118,1.48404,1.43248,31.72,-841.8,-533.384,-9800,3080,-1400
-3.03054,-4.12561,-3.71374,2.43881,-1.13041,-0.385221,2.4849,2.79652,-7.65002,-6.27112,-4.55258,-3.55991,-4.98651,-4.1374,2.43873,0.0737508,34.648,-842.288,-529.48,-9940,3080,-1540
0.358327,-3.06188,-3.02114,1.03279,-1.68873,-0.66419,1.20006,3.71885,-1.51538,-1.77837,-2.94095,-2.89332,-2.05263,-3.5082,1.34455,-1.14754,36.112,-841.312,-529.968,-10080,2940,-1820
3.75211,2.18745,0.0840798,2.48131,0.638231,1.08114,1.25951,2.81164,2.96488,-0.2448,-2.77161,-2.36747,-1.93736,-3.3631,-1.32376,-2.34603,35.136,-839.36,-529.48,-10220,2940,-1960
-0.826226,-0.669094,-1.57385,1.41003,-0.98337,-0.686494,-1.96903,1.27866,-0.530488,-3.1213,-3.02901,-4.6009,-2.17846,-3.10628,-3.39244,-1.59561,34.648,-843.264,-530.944,-10500,2940,-2380
-1.45151,-1.08425,-1.21839,0.992955,-0.767557,-1.83944,-2.81662,-0.0102425,-0.36842,-4.40229,-3.13672,-4.66963,-2.20424,-2.30306,-4.31759,-1.72079,36.6,-841.312,-533.384,-10360,3080,-2380
-0.644668,-2.61444,-1.90325,-1.50096,-3.12515,-2.74705,-4.74757,-2.62177,5.74023,-2.1146,-1.98991,-2.4096,-1.242,-1.56547,-6.10292,-1.1929,35.136,-843.752,-532.896,-10640,2800,-2520
0.366257,-2.19959,-1.52576,-1.11814,-2.83089,-2.15176,-3.32309,-2.3692,8.00894,-2.34461,-2.23209,-2.70012,-1.77463,-1.186,-2.16523,-0.241422,34.648,-845.216,-530.944,-10920,3080,-2800
-5.82034,-11.0162,-2.61368,-5.55458,-4.54241,-0.92335,-3.82518,-1.37049,1.78113,-0.0268639,3.09875,-2.54057,3.17667,2.55867,2.2694,5.05392,34.16,-842.776,-529.968,-10780,2660,-2800
-8.20999,-14.304,-3.28826,-9.59733,-6.59736,-0.650861,-6.42856,-2.60827,2.89087,5.1884,8.75535,1.61268,8.02912,5.45362,2.50615,7.64599,33.184,-844.24,-535.336,-10640,2520,-2800
-5.23843,-7.45983,-1.32966,-5.80044,-4.03579,-1.93644,-5.63141,-3.20602,2.85482,4.13987,7.03839,3.29641,5.5969,2.72479,2.92753,4.60012,33.184,-844.24,-529.48,-11060,2520,-2940
-1.0997,2.41142,0.995605,2.15881,2.71417,-1.44005,-1.20895,-1.45823,-1.58717,-2.93262,-1.1761,0.924094,-1.4221,-1.7272,0.920993,-1.40566,31.232,-845.216,-531.432,-11060,2380,-3080
-2.51291,-0.474695,0.286347,-1.27048,3.02531,0.140981,-1.26567,1.99536,-2.88634,-2.42644,-0.668158,3.62242,1.56043,3.16057,0.593115,1.16588,30.744,-846.192,-531.92,-11200,2240,-2940
-4.69677,-6.77154,-0.682193,-7.45983,-0.552042,0.892175,-3.08081,2.10094,-2.39323,3.36781,3.61064,5.87245,7.28132,8.14329,1.60448,6.00851,28.304,-848.632,-533.384,-11620,2100,-3080
-0.116631,-2.53635,0.989909,-5.79138,-0.0962645,0.823266,-2.15387,0.383753,1.01378,7.22243,6.38377,5.68197,7.99933,7.69772,2.89579,5.018,30.744,-846.68,-531.92,-11620,1960,-3360
1.44291,1.67328,0.747471,-3.01387,0.449599,0.439387,-1.14082,-1.9743,-0.424269,6.30363,4.428,2.73366,4.97406,4.10553,2.20454,1.85766,30.744,-848.632,-533.384,-12040,2100,-3360
3.61704,6.9328,0.594105,3.01885,1.05441,0.256194,0.876229,-1.98059,-2.59721,1.36982,-1.38271,-0.155,-2.05717,-2.39273,-0.168248,-5.11748,30.256,-846.192,-534.848,-12180,2240,-3360
6.73804,13.0151,1.74129,9.63297,2.99467,-0.653391,4.4798,0.677082,-0.742072,-3.50354,-8.15203,-3.17708,-10.3847,-7.97129,-1.75448,-11.4936,27.816,-848.144,-535.336,-12180,2240,-3500
8.89354,14.3963,3.08047,9.11162,3.01384,1.21825,4.15518,-0.416009,3.44379,-2.01978,-7.44647,-2.61399,-9.54138,-7.78068,-4.15372,-10.4067,29.28,-848.632,-534.848,-12040,2240,-3780
2.53762,2.92847,-0.0935624,0.701243,-2.59769,1.2873,0.657215,-1.90828,2.96116,2.23648,1.48317,-0.98606,-1.57978,-1.19523,-5.49057,-2.58766,31.72,-845.704,-535.824,-12040,2520,-3780
-4.56789,-6.41811,-3.3399,-4.00343,-5.54787,0.344657,-0.233573,-1.35217,-0.756264,1.23904,4.3416,-2.45591,2.23149,0.657765,-4.48234,2.12816,28.304,-843.752,-533.384,-12320,2380,-3920
-1.26835,-2.52019,-0.961035,0.61307,-1.50871,0.432859,2.20029,0.251404,-0.798399,-2.28576,0.512363,-4.80644,-1.6441,-2.29658,-3.95539,0.0914212,31.232,-844.728,-533.872,-12180,2660,-3920
2.48682,3.59193,2.4291,5.8726,1.94781,0.591388,4.57539,0.117719,-1.03684,-4.35949,-2.85593,-5.63016,-5.66055,-3.70392,-4.14026,-3.04641,32.208,-844.24,-533.384,-12320,2380,-3920
1.60903,2.84711,2.76929,5.20742,2.275,1.01166,2.62705,-1.63823,-3.25423,-3.35736,-1.04219,-3.56313,-3.62321,-2.57407,-3.18705,-2.54689,33.184,-843.752,-533.384,-12180,2100,-3780
-5.09408,0.774508,0.291079,1.94472,1.80555,0.474566,0.804168,-1.03086,-6.71853,-3.13963,1.25528,-2.53788,-0.758212,0.176387,-0.972463,0.0721178,33.672,-845.216,-537.776,-12040,2240,-3640
-10.2803,-5.38007,-1.27142,-4.30878,-0.533431,0.585009,-1.81781,0.664373,-8.35651,-0.305791,6.97855,0.976411,5.52813,4.80256,2.88709,5.71848,34.16,-844.728,-537.288,-11900,1960,-3360
-9.82894,-13.2587,-4.16461,-8.79957,-2.78761,0.781353,-2.52591,2.55922,-8.32646,1.35604,9.05219,2.13749,8.12635,6.88858,6.67739,10.9987,33.184,-842.288,-536.8,-11620,1820,-3220
-3.98616,-8.66223,-4.90812,-5.59148,-1.47257,-0.624113,-0.0234921,4.84439,-3.15711,-1.09612,2.34548,1.9552,3.58757,2.88729,7.55572,8.86869,35.136,-841.312,-541.192,-11200,1400,-3080
6.56362,2.24456,-0.505118,-0.852177,2.06019,-0.82388,1.30807,3.85179,6.85547,1.0484,-1.99539,5.76744,-0.272913,0.331839,3.93754,3.08147,35.624,-842.288,-539.728,-10780,1260,-2660
7.23816,2.67653,1.43836,1.16066,2.90372,-1.71402,0.35015,1.42295,5.22791,1.86376,-4.31857,6.06681,-1.15269,-0.808307,0.971943,-0.693398,38.552,-843.264,-544.608,-10080,1260,-2380
2.30184,-1.42959,-0.0477128,-0.2175,1.56495,-1.97805,-0.280632,0.821949,0.441031,1.76506,-5.2832,4.00329,-0.836535,-0.779712,3.25611,-1.59671,38.552,-842.288,-542.656,-9800,840,-1820
1.96373,2.26775,0.691586,2.7077,2.23106,-0.248656,2.80829,0.688867,-1.48976,-0.782273,-7.2972,0.793541,-2.68547,-2.36786,4.15259,-3.9609,37.088,-841.8,-547.048,-8820,140,-1540
4.91833,6.00195,3.01885,3.18683,1.13098,-0.455504,2.14602,-1.6347,2.41256,0.471832,-4.71374,0.885165,-0.782764,-2.26721,1.46243,-4.96306,40.504,-843.264,-545.584,-8400,-280,-1120
7.22489,4.3147,3.97981,-1.93691,-1.55317,-1.23831,-3.76242,-4.59388,11.6266,7.59248,2.50996,5.70724,4.66225,1.62863,-2.14873,-2.3078,39.528,-843.264,-549,-7140,-980,-700
7.38036,7.15616,5.74417,1.78058,1.47594,-0.130934,-1.27906,-3.92074,10.9564,5.63984,1.70993,3.92694,3.13193,0.476405,-3.81446,-3.62646,41.968,-843.752,-547.048,-6440,-1540,-420
4.81912,8.77523,5.41811,5.07451,3.69461,0.421614,2.67412,-3.45128,6.63198,0.308863,-0.178372,-0.294707,0.247603,-1.16874,-1.11284,-5.162,38.552,-844.24,-547.536,-4900,-2380,280
1.03752,5.79349,1.56276,6.19694,1.67345,-0.983908,2.36611,-4.15015,1.69958,-5.79797,-3.46332,-5.45494,-4.56672,-4.70413,-0.487744,-5.93303,39.04,-842.288,-549.976,-3360,-2800,700
1.70391,5.32269,-0.594847,5.41059,0.823698,-0.555463,2.50421,-2.43935,0.809546,-6.98049,-4.16086,-7.37697,-6.18286,-4.6492,-0.361634,-4.31163,41.48,-844.24,-549,-2380,-3080,700
3.74131,8.21271,2.29079,5.46153,4.06978,1.40238,3.35171,-0.441252,2.19992,-4.295,-3.28395,-4.3107,-5.01948,-2.25127,0.116915,-1.38532,40.016,-842.776,-546.56,-980,-2940,980
2.17336,10.8914,3.40295,8.7812,7.24657,3.58551,5.4543,3.71098,-1.65019,-6.71487,-6.59992,-3.46561,-9.01357,-3.85728,-0.746068,-2.17474,39.528,-841.312,-544.608,-420,-3080,1120
-3.50025,2.1939,1.03798,5.57185,4.3477,3.85246,4.24273,8.35473,-7.76405,-6.69819,-5.64068,-3.03331,-6.86564,-1.59678,-0.628426,1.5583,40.016,-841.312,-544.608,700,-3080,1260
-4.19847,-6.71521,0.188076,-0.512013,-0.00123097,4.59616,1.07189,8.56914,-6.89792,1.24178,0.69036,-1.0485,0.486543,2.77407,-0.618309,6.39181,39.04,-841.312,-544.12,1540,-3080,1260
-0.698879,-8.57733,-1.34111,-4.84996,-4.39884,3.36119,-3.73788,4.96847,-0.0909409,7.22903,5.95134,0.893679,3.6696,4.10244,-3.16256,4.34575,39.528,-838.872,-541.68,1960,-3220,1400
-1.77279,-10.2405,-2.54181,-6.46288,-5.04656,1.96602,-2.78264,2.06652,-0.406996,5.7249,5.78887,2.11168,3.77836,4.62607,-1.19338,4.94121,36.6,-839.36,-539.728,2240,-3500,1400
1.79987,-4.4417,-0.450489,-3.50513,-0.46003,1.85607,1.60632,1.63556,-0.776255,3.45117,3.33247,3.47964,2.24386,3.52547,1.69886,3.0296,36.6,-838.872,-542.656,2380,-3640,1540
3.26187,-1.59012,1.09645,-2.50624,1.50838,0.806435,1.23003,1.4467,-2.36161,2.61993,3.06362,3.25712,2.97345,3.61144,1.82877,1.21922,36.6,-835.944,-539.728,2380,-3640,1260
-0.557868,-3.55131,-1.068,-3.32029,-1.52837,-0.674491,-1.28941,0.264214,-3.18432,0.109637,2.57683,0.840981,3.26644,1.97873,-0.323769,0.782342,36.6,-835.944,-539.728,2100,-3640,1540
-4.22798,-6.07764,-4.58318,-6.34444,-6.77495,-3.60979,-5.99213,-1.95602,-1.10919,-0.436833,3.40953,-0.628766,4.2149,0.69741,-1.15612,0.583938,37.576,-836.432,-541.68,1960,-3920,1260
-12.2683,-13.7762,-10.0232,-10.4704,-10.5849,-5.12724,-8.87183,-3.6117,-3.5522,-1.23991,3.37627,-2.60766,5.70652,1.79223,1.95898,4.03066,37.088,-837.408,-539.24,1540,-4060,1260
-14.3486,-15.0956,-11.9428,-11.254,-11.7174,-5.6637,-10.5417,-6.68391,-1.79026,0.607958,4.6381,-3.23962,5.49975,1.02521,0.295105,3.63383,36.6,-838.384,-541.68,1400,-3920,1400
-10.3541,-6.85897,-9.23956,-6.77462,-8.56957,-6.49223,-8.45712,-7.99597,1.87917,-1.66041,-0.442205,-2.9577,1.07526,-2.35281,-1.49179,0.0614297,36.112,-836.92,-542.656,980,-3920,1260
-11.5531,-4.13044,-8.62469,-3.16389,-6.80057,-7.00439,-6.35154,-4.82808,-1.38726,-6.556,-5.2412,-5.33278,-3.18222,-5.27025,-2.50977,-1.75914,35.624,-834.48,-541.192,840,-3920,1120
-16.1653,-12.1359,-9.72773,-7.89958,-9.58271,-6.21644,-9.43235,-3.53089,-5.95233,-2.04896,0.432505,-3.57795,2.05976,-1.2898,-1.66855,2.495,36.112,-834.48,-543.144,560,-4060,1260
-14.9707,-14.6028,-7.29248,-7.8889,-9.6938,-4.44833,-8.56394,-3.88534,-6.94475,1.74911,5.84703,-1.59778,5.71911,1.25938,-1.53546,3.0843,36.6,-835.456,-541.192,420,-3920,980
-9.64257,-7.55736,-2.85197,-2.82915,-5.48559,-2.18197,-4.29326,-3.09912,-5.2469,0.694159,7.09414,-1.47704,2.38794,0.124542,-2.20536,-0.658355,33.184,-836.432,-544.12,560,-3920,1260
-4.67164,-1.8702,0.00178519,-1.0329,-1.27013,-0.923598,-1.56485,-2.07117,-1.11657,-0.293051,4.62509,0.175719,1.79851,0.573256,-1.23544,0.112185,33.672,-834.48,-540.216,420,-3780,840
0.588793,2.19478,2.93239,0.369448,2.16642,0.625678,1.71815,-0.157141,4.33151,1.45082,2.46043,1.94324,2.43137,0.944417,0.714939,2.00445,35.624,-833.992,-540.216,140,-3360,980
11.5883,8.01021,6.90413,1.38415,4.22008,2.01999,1.89099,-0.928656,13.4765,6.29043,3.2143,6.93754,3.3952,1.8503,-0.784143,0.136586,34.16,-834.48,-541.68,280,-3640,840
20.6011,13.6245,14.0158,4.74776,12.4637,5.26704,6.77625,1.99186,10.5216,9.51184,3.04399,10.9572,3.10764,5.14485,-2.55217,-0.476477,37.088,-837.408,-542.656,420,-3360,840
23.0378,18.6656,19.1106,10.741,21.9262,8.84416,14.523,5.92467,1.49083,7.53695,-2.43555,11.4226,-0.0810561,6.70754,0.24282,-1.46947,34.648,-835.456,-542.168,560,-3080,420
26.2479,25.0427,20.4199,16.7306,26.0946,10.8309,18.3356,9.66472,2.60162,3.37504,-7.68102,8.95185,-4.63069,3.66438,1.05974,-5.13996,35.624,-835.944,-541.192,280,-2940,280
24.2569,25.8372,16.5644,16.7749,22.4755,10.2529,16.2234,10.1433,8.51545,0.281586,-7.88836,5.22568,-7.78184,-0.537398,3.17492,-6.17768,34.648,-834.48,-547.048,280,-2380,0
15.6317,16.3041,7.53711,9.2252,9.94739,5.69447,8.20682,4.34375,8.90318,0.545153,-4.02531,1.87506,-5.30197,-2.78467,5.96073,-4.74715,35.136,-834.968,-544.12,700,-1820,-140
9.76095,11.5284,2.08326,7.51129,3.22368,1.61528,7.02602,0.153861,4.03505,-1.83801,-5.28164,-1.37597,-6.9597,-5.74882,7.67706,-4.37102,33.672,-836.92,-543.632,980,-1120,-280
10.4095,12.0078,2.02282,9.68514,2.4813,0.479842,6.33201,-1.96593,1.48963,-4.69268,-7.34673,-3.56271,-8.97603,-7.60973,3.7325,-5.83864,33.672,-835.944,-543.144,840,-420,-700
8.43455,10.1264,2.24901,11.0773,4.85406,1.22426,8.8604,1.2528,-5.33461,-7.92789,-8.51221,-5.51915,-10.9236,-8.38829,3.3236,-4.99201,35.136,-833.992,-541.192,980,-140,-840
-0.925883,1.84077,-1.74697,7.64995,1.12052,0.200094,8.76646,2.11899,-10.2632,-9.42985,-8.65344,-7.79144,-9.07798,-6.8875,5.01143,-0.876469,32.208,-838.384,-539.24,1120,280,-980
-6.24566,-4.18923,-5.0264,2.61569,-3.55668,-2.06073,3.17116,0.925401,-6.39846,-7.00433,-7.00228,-6.78421,-4.83132,-4.71943,1.365,0.810385,33.184,-841.312,-539.728,1120,700,-980
-7.64185,-5.16808,-5.60358,0.767196,-5.22783,-3.20605,-0.623903,-0.358252,-4.12495,-6.84624,-6.07204,-5.97589,-4.76212,-3.55634,-2.23877,-1.12239,36.112,-838.384,-541.192,1260,980,-980
-13.6414,-10.8209,-7.69309,-4.57766,-10.477,-4.6417,-7.26306,-2.39038,-6.95691,-5.54832,-1.8123,-5.31757,-1.08298,-1.04761,-6.10413,-0.922344,33.184,-839.36,-540.704,1260,1400,-980
-16.6712,-14.8438,-8.55644,-10.9997,-14.4405,-5.08771,-14.9473,-3.86523,-4.48228,0.84125,7.09757,-1.15843,6.34671,2.72756,-9.04274,1.12585,32.208,-840.824,-538.264,1680,1540,-840
-16.9038,-14.8602,-7.75814,-10.3899,-13.2187,-2.87859,-14.6075,-3.5254,-4.34111,0.318909,8.12713,-2.16718,6.49751,2.97564,-7.35311,1.3567,32.208,-839.848,-539.728,1680,1820,-560
-14.1577,-12.8642,-7.27491,-7.99805,-10.348,-3.03373,-10.6479,-3.03105,-2.61029,-2.75477,5.00461,-3.47616,4.49302,0.48574,-3.64342,0.581575,33.184,-838.872,-536.312,1540,1820,-560
-10.7276,-11.8789,-7.55528,-8.49359,-8.68062,-4.02353,-9.69534,-2.6503,2.4108,-2.37446,3.82993,-3.36902,4.28949,0.740447,-2.82988,1.78816,32.208,-837.408,-538.264,1400,1960,-560
-9.21394,-11.5402,-6.63694,-7.62163,-6.07646,-3.33873,-7.92251,-0.649516,1.33968,-0.883064,2.98338,-3.55557,3.02145,1.86703,0.0709309,3.60377,33.672,-836.432,-540.704,1400,2240,-560
-9.64238,-11.9667,-5.53734,-8.09272,-6.32706,-2.40537,-6.61752,-1.11479,-3.11906,2.44436,2.65063,-2.49055,3.11089,3.14321,2.32316,3.82338,33.672,-838.384,-537.288,1260,2520,-560
-6.32659,-8.95463,-3.97719,-9.11942,-7.12747,-2.82019,-7.18391,-2.97487,-1.36283,7.57804,5.97662,1.89904,5.21556,3.19167,1.65668,3.45763,36.112,-836.92,-538.752,700,2520,-560
-2.63343,-7.61948,-3.42373,-10.5976,-7.61589,-2.33645,-8.95819,-2.17126,4.15148,11.1016,10.9522,3.59112,8.86415,4.12963,0.379842,3.79666,36.6,-835.456,-538.752,140,2800,-700
-0.0177627,-4.88286,-3.02178,-8.88099,-4.96921,-0.838484,-7.51435,-1.47011,8.01417,9.8584,10.0677,3.50493,7.45037,4.21092,1.03802,2.8084,34.648,-835.456,-541.68,-140,2940,-700
4.99589,2.75357,-0.210847,-1.13796,2.07021,0.534616,-0.145805,1.701,6.35221,3.88832,2.63527,2.88396,1.16744,1.15516,1.67032,1.43763,34.16,-836.432,-536.312,-560,3080,-980
4.49084,2.4645,2.50399,1.87404,7.19394,2.95394,7.02442,6.5217,-0.512734,1.01261,-1.10059,3.17472,0.383628,2.42471,3.72796,4.83776,33.184,-837.896,-541.68,-1260,3500,-980
3.43809,-0.179401,4.98803,1.23077,9.18147,4.78019,9.06137,6.70311,-2.26248,3.53902,-0.337054,4.52377,2.73097,4.64193,2.26942,7.53581,35.136,-837.896,-537.776,-1540,3500,-1260
5.63206,5.50053,7.19505,1.38034,10.1341,4.99592,8.3079,3.5885,2.16568,4.57678,-1.56211,6.4577,3.84657,5.11274,1.14504,7.29213,34.16,-835.944,-536.8,-1680,3640,-1260
8.7684,11.1098,8.29118,2.76937,9.42861,4.22732,7.51994,1.305,6.61343,2.77766,-2.54935,8.41797,3.02708,4.06616,1.46997,4.71141,36.112,-835.456,-539.24,-2100,3780,-1400
7.13228,9.93322,6.86889,4.65495,7.6185,3.9179,8.84842,-0.544444,2.59505,-0.972125,-3.66221,4.92844,-0.437782,1.63456,2.46272,1.31746,38.064,-837.408,-538.752,-2380,3920,-1400
6.5376,9.17156,5.5312,5.91586,6.51326,3.0635,9.40507,-3.52532,-0.391619,-3.45113,-4.07491,2.06118,-2.28277,-0.494112,2.98981,-1.63236,36.112,-832.528,-543.632,-2380,4200,-1540
6.12948,9.34353,3.04918,11.1806,6.43452,0.938513,9.68605,-3.69048,-4.37124,-10.0128,-11.2913,-4.18506,-9.14871,-6.55465,-0.324703,-6.13722,36.112,-832.528,-542.168,-2520,4760,-1820
8.4614,11.1328,3.82597,9.44555,4.36063,-0.731341,5.12275,-6.10228,-0.788286,-4.50732,-7.57146,-0.797337,-6.73159,-5.86068,-2.42956,-6.8729,35.136,-831.064,-544.608,-2800,5180,-1960
7.18539,5.96451,2.77238,4.04913,-0.135439,-1.88053,-0.746779,-6.06398,1.80635,0.690548,-0.0273701,2.38759,-2.44304,-2.57369,-6.21249,-6.4254,35.136,-830.576,-541.68,-3080,5880,-2100
2.17563,-2.2734,-1.00659,-0.010489,-5.25982,-3.96612,-7.03032,-6.14354,1.07024,2.56488,4.70092,0.961021,0.0277444,-1.8937,-8.25279,-6.35698,37.576,-830.088,-544.608,-3220,6160,-2100
-3.11665,-4.10363,-2.49166,0.423509,-5.14151,-2.60514,-4.14689,-2.39941,-1.36632,0.356457,3.40244,-2.3634,-1.49648,-2.71939,-4.06963,-5.1309,38.064,-833.016,-542.168,-3080,6300,-2100
-9.04467,-3.93972,-3.25352,3.11642,-2.85584,-0.706093,0.450263,4.51034,-7.06153,-5.17317,1.36085,-7.53322,-4.99126,-4.13913,1.60355,-5.4196,36.6,-834.968,-540.704,-2940,6860,-2240
-6.92619,-1.55089,-2.31249,1.06298,-2.43337,-0.822975,-1.39815,6.2283,-1.29883,-4.61208,2.61289,-4.35966,-2.50389,-2.24689,3.05741,-3.77772,37.576,-836.92,-543.144,-3780,6580,-1820
-5.13326,-2.17822,-2.67811,-0.826906,-2.70218,-1.65266,-4.17688,5.66725,1.83932,-3.42091,2.05895,-1.32255,-1.00778,-0.0284489,1.91753,-1.74466,38.552,-834.968,-541.192,-3780,6300,-1820
-1.9625,-2.93079,-2.70975,-3.92659,-3.00989,-1.44113,-5.83209,4.24834,2.52289,1.02441,3.06708,1.43014,2.38307,2.94343,1.10125,1.38753,36.112,-835.944,-543.144,-4060,6160,-1820
2.5268,1.15009,-0.00749659,-1.02378,1.13735,0.98112,-0.739309,4.42116,0.0405711,0.590277,-2.05182,0.153269,0.0853246,1.62571,0.682976,1.82167,34.648,-833.016,-538.752,-3920,5740,-1680
1.27884,-1.84941,-0.183662,-1.10722,-1.35595,0.156036,-3.33982,1.14302,-2.88072,1.36533,-2.06437,-2.30993,0.256102,-1.57806,-3.434,0.176782,37.576,-837.408,-539.728,-3920,5040,-1400
-1.18111,-3.08425,-1.64918,-3.0088,-3.14551,0.0571018,-4.48422,-0.820538,-5.03387,1.40546,0.136531,-1.82108,1.34229,-2.11252,-3.03682,0.716029,36.112,-833.992,-539.24,-4060,4620,-1260
-0.535271,-1.13627,-0.174013,-0.797257,-0.0120675,1.95712,-0.582001,1.37294,-5.96252,-0.975057,-1.51112,-2.62644,0.176418,-1.79088,1.36491,0.540315,37.088,-833.992,-542.168,-3920,3500,-1120
0.971797,-0.772272,-0.276042,-0.291284,1.04533,1.39596,1.5284,3.28039,-1.25581,-2.32335,-3.80811,-2.22088,-0.00254922,-1.18212,3.68168,1.57082,37.088,-834.968,-538.752,-3640,3080,-1120
1.80623,1.45797,-0.538455,0.0769399,1.19927,0.160978,1.07504,2.43275,1.86693,-1.58221,-3.39692,-1.37415,0.00937805,-0.73035,2.90766,1.47475,39.528,-832.04,-540.216,-3360,2240,-1120
1.47526,3.35459,-0.0306399,0.603704,0.550794,-1.16033,-0.928654,0.108452,5.27792,-0.0798758,-2.32876,-1.49368,-1.06624,-1.81429,1.15877,-0.0359218,39.04,-833.016,-538.264,-3220,1680,-980
-0.351088,6.30991,0.817346,3.79809,3.20466,-0.594551,1.3733,-1.85762,3.817,-2.28542,-4.35967,-2.95812,-4.22009,-3.26743,1.22664,-3.84495,37.576,-829.112,-537.288,-3360,1120,-1120
-3.41227,0.0916208,-0.177843,1.02315,2.16161,-0.249081,2.84398,-2.63167,-2.75652,-1.50802,-1.62411,-3.16964,-1.49369,0.0380954,2.9633,-1.55054,39.04,-833.504,-535.824,-3500,420,-1120
-0.183708,-1.3992,1.12374,-2.16089,0.669946,-0.519468,0.0765728,-4.7004,-0.261031,3.38062,2.56926,1.70999,2.80615,3.42654,1.03438,0.605883,39.04,-836.432,-538.752,-3640,140,-1260
4.50036,2.16596,3.16804,-0.341979,2.52144,2.05555,0.676874,-4.97049,4.61433,4.76199,1.82823,4.30377,2.05475,4.0174,0.694975,0.258849,38.552,-835.944,-536.312,-3640,0,-1400
-2.80976,-5.46851,-0.771586,-2.54651,-1.09265,1.67941,1.67055,-3.28893,-2.09844,1.17867,1.40121,2.34723,2.3882,5.79436,4.10015,4.8564,34.16,-839.848,-532.408,-3920,0,-1540
-7.12129,-12.28,-4.57854,-7.10493,-5.48474,-0.38358,-0.115585,-3.16438,-6.03866,1.68371,3.74441,1.5455,5.05969,7.17797,5.67731,7.8309,35.624,-842.776,-538.264,-4060,-280,-1680
-0.750749,-5.84227,-2.32437,-3.44385,-2.00097,-0.174019,0.480215,-2.18931,-0.217285,2.90026,3.37784,2.84939,2.65356,3.40908,4.01844,4.94568,33.672,-844.728,-533.384,-4340,-140,-1820
-0.588448,-1.30025,-1.02379,-0.227083,0.273111,0.0770942,0.699465,-1.32002,1.87935,1.46636,2.15678,2.03448,0.321888,0.153745,1.53174,2.88477,33.672,-845.704,-535.336,-4340,140,-2100
-3.27271,-4.76663,-0.75119,-3.83456,-2.91674,0.160448,-1.40555,-1.04329,1.95828,5.27394,7.73722,3.73091,3.43183,2.43592,0.914349,4.42833,34.16,-845.216,-535.336,-4060,280,-2240
-2.59888,-4.60485,0.226605,-2.14227,-3.16594,-0.867792,-1.08533,-0.116021,1.66395,3.40006,5.58991,4.24218,1.41916,1.40611,0.0622007,3.7275,33.184,-845.216,-533.872,-4340,560,-2240
2.04228,2.45771,0.985273,2.69061,0.0393033,-1.06938,1.66896,2.74365,2.92881,-0.951389,-0.840869,1.51014,-2.17661,-2.07646,-2.76995,-0.169865,35.624,-846.192,-534.36,-3920,980,-2100
4.9158,8.22179,2.0556,6.2454,2.55614,-0.824795,1.9368,4.12798,3.86022,-4.1496,-4.66658,-2.10962,-4.35512,-5.10855,-8.8737,-4.95557,34.648,-846.68,-534.36,-3640,1400,-2240
4.78824,7.70351,1.78446,3.45238,1.94421,-0.602392,-1.41525,2.44898,4.97264,-0.586238,-1.83134,-1.63237,-2.19547,-3.84294,-11.5661,-5.04835,33.184,-847.656,-531.432,-3640,1680,-2380
2.7399,5.18881,1.08,-0.283677,0.105796,-0.205008,-4.21835,1.2985,3.74076,1.65728,1.73146,0.179082,0.638553,-1.57641,-13.0734,-4.10125,37.088,-846.192,-536.8,-3500,2100,-2520
3.29146,7.08866,1.90026,2.04737,1.64347,-0.0795329,-1.07438,2.39114,1.6166,0.0340324,-0.282157,-0.937428,-0.998911,-2.84549,-12.3836,-2.81438,36.112,-846.192,-535.336,-3920,2100,-2520
1.82371,5.26547,2.29745,2.70181,3.31631,1.30837,3.31922,5.86551,-1.29701,-2.64652,-2.59713,-1.21551,-1.38555,-2.05319,-8.59486,-0.239358,39.528,-842.776,-535.824,-4200,2240,-2660
0.691158,2.80805,1.85436,4.37508,5.22537,1.85879,5.26628,4.92212,-3.14594,-6.6656,-6.37863,-2.36257,-3.92629,-2.42014,-5.30106,-2.01103,36.112,-844.24,-536.8,-4480,2380,-2660
2.40337,3.42611,1.85952,5.22646,4.18357,0.700815,4.8455,0.490828,-2.09552,-5.44584,-7.13635,-2.53235,-3.65216,-3.05589,-3.73359,-3.95989,38.552,-836.432,-537.288,-4760,2240,-2800
1.46895,2.12378,1.91354,5.06676,2.67485,0.0787419,6.16751,-0.359908,-3.99972,-7.14348,-6.53163,-2.82505,-4.21723,-2.56851,4.10044,-3.93974,36.112,-836.432,-539.728,-5320,2660,-2940
1.99434,0.537586,1.10684,1.96757,-0.124551,0.143651,2.70381,-2.66705,-0.85488,-3.1,-2.07481,0.435047,-2.04269,-0.395598,10.8932,-3.54308,41.48,-833.504,-537.288,-6020,2520,-2940
-1.93686,-5.80231,-1.74398,-4.90781,-4.31586,-0.434295,-2.50879,-2.86725,0.504725,2.36024,2.89201,3.67689,3.77103,3.33324,13.5987,0.161392,42.944,-834.968,-541.68,-6440,2100,-3080
-3.66042,-7.19297,-1.72378,-5.46932,-3.48654,0.156588,-1.96144,-2.06907,0.509896,3.90829,3.15409,3.47598,4.69668,4.11687,13.7952,3.25841,43.432,-830.576,-540.216,-7280,1680,-2940
-2.95493,-6.55399,-2.76283,-5.96116,-3.58743,-0.372861,-2.69825,-2.47889,1.81237,4.53673,2.8433,2.44544,4.65942,2.68955,11.7956,5.10463,43.92,-829.6,-541.192,-7560,1540,-2940
-2.30091,-7.87249,-3.9191,-8.98645,-5.17862,-1.09823,-5.1242,-3.04681,2.26702,8.06203,7.57127,2.85022,7.78234,4.27262,9.55561,6.12628,42.944,-826.184,-546.072,-7700,560,-2800
0.014524,-4.92787,-2.76598,-5.33729,-3.13379,-1.36549,-4.24129,-3.09032,-0.822117,6.70307,5.45348,1.42616,5.38913,3.49537,5.27642,4.32374,42.456,-820.816,-548.512,-8540,700,-2520
1.23868,1.30147,-0.0646043,0.934583,1.22469,-0.835928,-1.39872,-2.68433,-4.12718,0.421141,-1.60053,-0.381596,-1.05529,1.32363,1.35795,1.16077,42.944,-822.768,-550.464,-10220,-280,-1960
-0.225322,4.087,1.87185,4.69041,2.99522,0.519965,-0.494287,-4.111,-6.23862,-3.5052,-4.2558,-2.47662,-4.69826,-1.14366,-2.43214,-2.46037,40.992,-819.352,-551.928,-9940,-1540,-1400
-3.56031,3.91014,1.95954,6.25503,2.91551,1.59658,-0.270646,-1.95095,-7.98632,-4.4786,-2.1453,-5.22761,-4.84036,-3.42206,-4.24197,-4.72504,44.408,-820.328,-551.928,-9240,-1400,-1260
-10.3371,-3.50435,-1.37316,0.656524,-0.774388,2.12472,-1.66031,1.50761,-11.0462,-3.65335,2.96998,-6.01633,0.10394,-0.324517,-3.52166,-0.644903,37.576,-824.72,-555.344,-9660,-840,-980
-7.52538,-3.37903,-3.58669,0.115595,-2.44527,-0.213313,-2.3793,3.01212,-6.71962,-4.59584,1.40477,-5.37434,-2.49475,-2.63335,-4.29443,-1.59014,35.624,-823.256,-556.32,-9940,-840,-560
-4.96618,-5.57964,-4.58903,-5.71906,-7.07663,-2.37795,-7.38958,1.80045,4.24842,0.706775,6.21008,0.711559,2.34358,0.52507,-4.85845,0.705392,33.184,-821.792,-558.272,-9240,-560,140
-1.36712,-4.20595,-2.33,-6.56256,-4.16927,-1.31796,-4.62289,2.67583,8.8467,5.3406,7.14372,4.17737,5.56432,3.00483,-1.17364,4.19687,26.352,-826.672,-561.688,-8960,-700,840
3.90541,1.77249,0.913485,-0.808821,0.781191,-0.582315,-0.11957,2.33097,8.24107,4.12444,0.0369661,2.39339,0.881168,0.0528943,-1.47914,0.862197,24.4,-825.696,-563.152,-8960,-980,1400
5.16993,1.71636,1.02955,0.226459,1.0361,-1.39222,0.713011,0.917327,5.13065,2.85784,-2.75889,0.660547,-0.150951,-0.938927,-1.51698,-0.211403,23.424,-831.064,-561.688,-8540,-980,1680
3.30892,1.28569,0.320428,0.391601,0.975262,-1.02781,0.695501,1.53681,3.09335,1.44621,-2.59409,0.151077,-0.644575,-1.27305,-1.64067,-0.211437,23.912,-829.112,-560.712,-8120,-1120,2240
4.41446,6.25904,0.644362,3.10727,2.56367,-0.580165,1.50912,0.943338,5.3565,-1.36914,-4.0299,-0.691019,-4.48196,-3.91679,-1.32961,-2.2724,23.424,-832.528,-562.176,-7280,-980,2660
6.06586,9.74865,2.10001,6.17269,4.1751,0.655917,5.08513,0.754275,5.2293,-2.97872,-5.70056,-2.07873,-5.91947,-3.54539,-1.01392,-3.30763,20.496,-832.04,-563.152,-6160,-840,2660
1.50385,4.57198,1.44607,2.59801,1.31868,-0.26824,4.37764,0.37959,0.652303,-1.71784,-3.63372,-1.77536,-3.15514,-0.398217,-1.2779,-1.45505,24.4,-836.432,-561.2,-5180,-980,2660
4.97097,10.0093,4.88226,5.9843,7.00853,1.61828,7.50578,1.84842,-0.426229,-1.81491,-5.99403,0.0429094,-5.24413,-0.125373,-0.0749161,-1.38399,20.984,-837.896,-559.736,-3220,-700,2520
4.71302,9.8635,5.36853,9.01451,9.97994,4.44724,8.45344,1.96573,-5.32742,-7.02397,-10.0008,-0.613368,-7.18196,-0.871668,-1.1677,-3.20058,20.496,-838.872,-557.784,-1960,-980,2380
2.9458,2.62726,3.95221,4.24425,3.78693,3.3051,3.03677,0.275363,-4.85025,-3.77396,-4.14584,0.429044,-1.67799,0.747901,-4.37352,-2.17775,24.888,-839.848,-551.44,-420,-1120,1820
-3.10989,-11.0443,-0.988249,-8.53631,-7.53959,0.464665,-5.67909,-0.926493,-2.8214,6.94635,10.4452,5.11425,10.4194,7.17826,-4.74645,5.70533,26.352,-840.336,-552.904,1260,-1540,1400
-1.95031,-10.1544,-2.54974,-8.05753,-8.04762,-1.69484,-5.49373,-0.485318,-0.656802,7.33619,10.7169,3.48569,9.1597,2.94679,-1.9206,4.21614,33.184,-841.8,-551.44,1960,-1820,1120
1.29004,-4.05202,-0.91059,-2.30825,-2.10762,-0.633046,0.637189,-0.323356,0.280832,1.8463,3.81633,1.63296,4.85212,-0.442693,2.83519,1.59037,33.184,-843.264,-550.952,3360,-2520,420
-2.95007,-6.42128,-3.02784,-2.10596,-1.12817,-1.37567,1.53555,-1.39041,-2.52721,-2.05946,0.951356,0.449018,2.25888,-1.37241,4.16954,1.74196,33.672,-843.264,-549.488,3920,-3080,-140
-0.0983393,-3.51466,-0.88806,-0.604664,1.45297,0.266427,1.03675,-1.29814,-1.3332,-2.28907,-0.334383,0.229804,1.65192,0.0300827,2.22726,2.09164,37.576,-844.24,-548.512,4900,-3780,-560
4.41958,2.81772,1.49569,3.40646,4.51274,1.10693,3.76327,-0.339261,-0.803138,-3.86943,-2.71935,-0.638593,-0.227035,-0.873036,2.06661,-0.761989,38.552,-843.752,-548.512,5600,-4900,-1120
1.66114,3.01187,-0.0747465,4.77268,2.14531,-0.240869,3.05714,0.472907,-2.12408,-4.76256,-4.65013,-3.1652,-3.74082,-3.55321,3.41806,-2.56893,42.456,-842.288,-544.12,6160,-5460,-1400
-1.30585,-2.29432,-2.74414,-1.15603,-3.08559,-1.23258,-0.844622,0.00301002,1.46942,-0.408082,-0.520793,-0.360036,-1.54326,-0.837777,4.00192,1.00101,45.384,-842.288,-549.976,6860,-6300,-1820
-1.83294,-4.90625,-2.48502,-5.37548,-6.12241,-2.48624,-4.507,-2.27834,6.17852,3.59749,5.32782,2.0755,1.90887,1.93849,1.15823,1.39415,45.384,-838.872,-549.976,7420,-6720,-1960
-3.85251,-3.63105,-0.874352,-2.10761,-2.77026,-1.18241,-1.48632,-2.93078,0.557868,-0.728026,2.98993,0.139673,-0.556956,0.964894,1.34578,-1.15649,49.776,-835.944,-547.048,8120,-6860,-2100
-7.91376,-5.83483,-2.52936,-3.10939,-3.35152,-1.68094,-3.5905,-3.51639,-1.99229,-0.427531,2.81341,-0.281704,-0.77975,1.62016,-2.08644,-1.5126,51.24,-835.944,-548.512,7980,-7420,-2380
-4.75492,-2.62336,-1.11448,-2.24151,-2.23887,-0.739386,-3.70582,-2.54265,0.172547,2.18821,1.25925,0.669225,-0.0706099,1.26508,-2.95203,-1.25049,53.68,-833.504,-549.488,8400,-7560,-2380
-0.5215,5.29749,1.62366,3.99256,3.71255,1.35786,2.29048,0.453638,-0.732439,-1.82701,-4.81617,-1.41104,-4.88488,-2.25126,0.406383,-3.87288,51.728,-831.552,-549.488,8260,-7420,-2520
2.87223,9.01722,3.58015,4.76156,5.63714,3.19984,0.247156,2.16844,4.12415,0.86188,-2.41621,-0.0215292,-2.68505,-1.24578,-0.401327,-2.35161,53.192,-828.624,-549.976,8400,-7140,-2380
3.86799,8.33033,3.43718,2.81544,3.80914,2.66032,-1.36828,2.17468,7.06758,3.09801,0.0982627,0.291908,-0.350245,-0.253879,-1.60999,-0.924407,52.216,-827.16,-548.512,7980,-6580,-2380
-0.489754,1.59587,0.21481,-0.176403,0.71559,0.979866,-1.61664,-0.125788,3.75922,1.79004,0.967175,-1.52452,-0.548181,0.908726,-0.128236,0.690473,54.168,-826.184,-547.536,7700,-6300,-2100
0.577416,2.1684,0.737165,1.62245,1.39125,1.01555,1.19379,1.94087,1.84573,0.235632,-0.00118408,-2.40636,-1.41798,0.147088,1.82047,1.54245,50.752,-827.648,-547.048,7420,-6020,-1960
1.98803,5.65537,1.69805,1.55125,1.57707,0.129986,-0.447745,2.16749,3.30265,1.34817,0.166942,-0.97718,-0.449848,-0.0714132,-0.160752,0.764648,50.264,-826.184,-549.488,7140,-5320,-1540
3.88505,6.81918,1.46448,-1.45079,-1.02911,-1.02198,-5.71537,0.730712,8.60828,5.62793,2.72202,2.81771,3.07456,1.22339,-4.7117,1.41372,52.216,-825.208,-549,6720,-5040,-1400
-6.0419,-9.11043,-3.51219,-10.6169,-7.56068,-1.87982,-8.91586,1.28288,0.442567,9.11632,6.43635,2.90754,10.2099,6.35269,-3.28014,7.41169,52.216,-823.744,-546.56,6300,-4620,-1120
-8.06001,-12.58,-3.9698,-6.96196,-4.77015,-0.697502,-1.5983,2.23957,-10.4297,1.09188,-1.18654,-0.642538,5.40773,3.86502,1.96667,7.01248,47.336,-825.208,-549.976,5880,-4200,-700
-1.12275,-1.11403,1.43461,3.11617,2.99008,0.927949,5.89705,2.53813,-11.0577,-5.40443,-6.53063,-1.5233,-2.1931,-1.51845,2.19093,0.820776,45.384,-824.72,-549,5460,-3640,-280
-2.15985,-1.47678,2.06643,1.50256,3.16614,1.11837,5.38204,0.973386,-10.5328,-1.60894,-0.804038,0.602565,-0.554995,-0.434191,1.81651,-0.28302,45.872,-825.696,-550.464,4900,-3360,-140
-1.72359,-4.1839,-0.163342,-0.23447,-0.343354,-0.765952,2.95849,-1.07065,-7.95262,-0.725024,2.83595,1.35684,-0.0849923,-0.934827,3.16344,-1.13732,45.384,-825.208,-548.024,4620,-2940,140
1.29975,-0.353714,0.00442055,2.59541,1.75151,-1.4325,3.4715,-3.14072,-4.4745,-3.68902,-1.12188,-0.715139,-1.59954,-3.0262,3.89517,-3.57156,43.92,-824.72,-549.976,4340,-2380,420
2.82256,1.79682,-1.17672,2.99987,0.786244,-2.3438,1.04473,-2.18198,-2.36846,-5.81198,-3.93459,-2.18793,-3.37229,-4.15953,-0.0895376,-4.49325,42.456,-825.696,-547.536,4200,-1960,700
5.32256,-0.377786,-1.88819,-1.94867,-2.74684,-2.83527,-2.75204,-2.3283,2.29706,0.284779,1.75773,0.789524,0.322021,-1.52115,-1.6178,-1.73199,41.968,-826.672,-545.584,3780,-1400,700
6.85492,5.53473,-0.467437,3.21128,-0.0461827,-2.02803,2.99682,-2.38434,1.57437,-3.91332,-4.45375,-1.93906,-4.34259,-3.74335,0.563702,-4.205,40.992,-829.6,-547.048,3220,-1120,1120
7.16911,10.8663,1.07231,9.14053,3.97133,-0.0461139,6.964,-0.97478,0.575192,-9.77955,-10.2378,-4.7842,-8.41605,-6.28072,-0.162918,-5.48646,38.064,-829.6,-547.048,2940,-700,1260
2.89909,5.78388,0.361945,3.05635,0.473333,0.16029,1.83491,-1.24302,3.23308,-3.68344,-2.51986,-2.44093,-1.78998,-1.78478,-1.81322,-1.81727,37.088,-829.112,-544.12,2380,-140,980
-2.11603,-2.85871,-2.31426,-4.63724,-5.34211,-0.580363,-5.42464,-3.22424,3.99647,3.66758,5.14904,0.808562,4.48513,2.61271,-4.14767,0.0578829,36.112,-829.6,-545.096,2240,0,1260
-2.4299,-5.36078,-2.40028,-5.57993,-4.22851,-0.384788,-5.26756,-3.8714,5.20751,4.69625,5.76412,2.05501,4.38824,3.39688,-3.83081,1.14409,32.696,-828.624,-548.512,1680,560,1120
-1.82148,-1.0478,-1.04608,1.70228,-0.0613061,0.194943,1.44089,-0.904139,0.446564,-2.31412,-1.00019,-1.24343,-3.43593,-1.80861,0.081425,-2.39721,34.16,-828.136,-546.072,1260,700,1120
-0.377236,-0.193002,-1.2497,2.17346,-0.0834277,0.996484,0.435843,0.0418546,0.296018,-0.989085,-0.449665,0.019806,-3.88657,-1.88967,-0.887685,-1.81508,31.72,-829.6,-546.56,980,700,1120
-1.59349,-3.05554,-0.500962,-0.769576,1.41104,2.03759,0.308168,1.7149,1.49911,3.01989,3.41408,2.83114,0.947052,2.02951,1.82804,4.18019,29.768,-828.624,-547.536,700,1120,840
-3.97823,-6.77595,0.440714,-3.24628,1.78933,3.77414,-0.0867721,3.76641,-1.00181,4.24931,6.69343,3.61166,4.97698,3.95614,3.72984,7.11486,31.72,-832.04,-544.12,560,840,700
-3.44458,-8.32502,0.620497,-6.62769,-1.16869,2.74893,-3.91899,5.91871,2.39247,7.01941,10.0263,5.8782,7.21145,6.54467,-0.961017,7.80127,31.232,-830.576,-544.12,420,1260,560
0.579266,-3.23957,1.33717,-7.40643,-1.34487,0.912414,-5.09254,4.90144,10.4076,9.03668,8.13538,8.41443,8.17108,7.81634,-2.98021,7.10485,33.184,-831.552,-549,-140,1260,140
-0.99864,-0.126468,0.0227115,-3.59639,-0.907029,-0.873629,-3.7107,1.18072,8.38487,2.87783,1.22694,3.28219,2.684,3.03246,-1.35544,2.32332,30.256,-833.504,-546.56,-280,1120,0
2.23369,5.58002,2.69179,4.67792,4.72589,0.472122,4.93652,3.7871,3.59772,-4.08418,-7.6482,-3.01075,-4.47269,-1.79166,4.17865,-1.14677,34.648,-832.528,-547.048,-700,980,-420
5.06213,8.30572,4.1549,9.21537,5.69808,0.598783,7.7066,5.75711,1.06507,-5.47877,-9.52148,-6.20029,-7.26049,-5.25315,5.50274,-3.73234,29.768,-832.04,-546.072,-700,1260,-840
5.70633,9.88584,4.05827,12.9607,5.22186,0.346518,7.39999,3.70784,-1.51194,-7.28045,-10.5818,-8.23582,-10.4613,-10.4861,4.09134,-9.20603,32.696,-835.944,-546.072,-980,1260,-1120
2.72669,6.89552,3.28269,7.58118,2.96806,1.942,3.47535,2.06819,-1.99331,-4.53675,-6.40024,-4.4275,-5.10716,-5.74465,0.953122,-7.14636,31.232,-832.04,-545.096,-1120,980,-1400
-6.4011,-6.08448,-0.419485,-0.469556,-1.44044,1.84576,0.491479,1.0162,-12.7119,-3.38948,-2.07558,-3.67989,0.443076,1.05976,0.0901541,-0.783947,33.184,-832.528,-548.024,-1120,980,-1680
-8.7649,-9.64311,-1.14369,-5.81555,-1.00783,1.39369,-2.19381,-1.58014,-16.0855,1.22965,4.03242,0.815418,5.31577,5.86675,-0.868663,3.69761,33.184,-829.6,-545.096,-1540,700,-2100
-4.72497,0.52261,1.70873,-0.721191,3.38253,1.44602,-1.4032,-3.57422,-13.5178,0.396595,3.26131,0.216967,2.0092,2.56182,-4.24613,-1.83371,31.72,-833.992,-544.608,-1400,980,-2380
0.340771,4.56169,0.692457,0.7196,0.535085,-0.433082,-1.32512,-5.06481,-6.69189,0.100476,1.04719,-0.956353,-0.487128,-0.628683,-4.2681,-4.33124,34.16,-832.528,-548.024,-1680,840,-2800
4.9471,5.98354,0.0376115,-1.02513,-0.835859,-2.73128,-1.81909,-5.22736,2.77899,2.3329,0.155718,2.22395,-0.109326,-0.845273,-3.55894,-1.80094,32.696,-829.6,-545.584,-1400,980,-3220
10.1215,12.299,0.694626,1.96486,-1.31477,-3.97141,-3.20467,-7.7226,9.75078,0.522765,-5.77739,2.48363,-3.88679,-3.62441,-8.79222,-5.51626,34.648,-833.016,-551.44,-1540,980,-3220
4.86433,-3.05177,-3.2544,-12.5679,-10.7108,-4.81492,-11.3897,-8.63186,16.0725,12.2862,7.68925,9.41818,9.32873,7.19761,-8.70328,4.19254,34.648,-833.016,-547.048,-840,700,-3500
-4.45942,-14.457,-4.84033,-12.7874,-9.32907,-2.64884,-4.89032,-5.35126,4.2723,8.71586,7.20966,5.19555,10.6868,8.36957,4.05882,10.5487,34.648,-833.504,-552.416,-700,560,-3640
-3.52915,-4.79856,-3.70939,-0.231209,-3.10119,-1.05128,3.49818,-2.34232,-0.909827,-2.92257,-2.73458,-2.79205,-1.23622,-1.72322,9.17597,4.63254,36.6,-833.016,-549,-140,560,-3640
-4.47592,-7.07415,-3.64913,-2.69732,-4.32154,-1.45815,0.226366,-0.550196,2.5706,-1.31889,2.42519,-1.61495,2.15264,0.364558,5.84006,5.90022,37.576,-830.576,-549,280,420,-3640
-7.78462,-11.9692,-4.51703,-4.83967,-5.57193,-1.06123,-3.69796,0.152226,-0.309957,0.151337,4.72565,-1.62383,5.15109,2.22719,3.102,5.99549,34.648,-835.456,-549,560,280,-3640
-4.2776,-5.44178,-1.6508,-0.236507,-0.92853,-0.452835,-2.35723,1.71576,-2.74868,-0.640959,1.47083,-0.548079,1.09493,-0.0424994,0.619862,0.788051,39.04,-836.92,-547.536,700,280,-3500
1.40389,4.8059,1.38316,5.61096,3.22918,0.0389059,0.675787,2.38057,-1.10147,-3.07094,-2.36647,-0.490209,-4.82281,-3.86211,-2.15041,-5.52473,38.552,-835.944,-544.12,1260,280,-3360
2.70679,6.25629,0.899863,5.21412,2.79743,0.115542,1.26835,0.661949,2.31518,-2.14574,-1.02781,-0.89214,-4.88671,-3.42643,-4.92321,-7.30381,39.528,-838.872,-545.584,1400,-280,-3360
-3.32868,-1.84156,-1.67216,-1.46038,-0.105932,0.111132,0.788023,2.49899,1.88938,-0.2228,3.4408,0.0280261,0.801049,1.6099,-0.521421,0.835998,37.088,-838.384,-543.632,1820,-560,-3080
-3.65225,1.51354,-1.22627,5.02852,6.69839,1.58179,9.25225,8.84326,-5.23185,-7.47766,-5.47661,-5.37722,-6.43813,-3.28077,7.59423,2.18308,36.112,-834.968,-546.072,1960,-560,-2940
3.02737,8.11007,3.60575,8.54074,10.0233,2.48317,9.86047,9.67061,-3.03812,-6.0737,-7.72105,-3.71909,-7.57252,-5.544,5.34791,-1.15273,39.528,-835.944,-549.488,2380,-980,-2660
5.11055,8.27277,4.99115,7.31965,8.98474,3.3038,7.03823,8.34465,-1.40019,-3.46633,-6.4897,-2.19658,-4.85811,-3.81352,3.26155,-2.00632,36.6,-834.968,-547.048,2660,-1260,-2380
6.15148,10.6488,5.93365,9.27925,10.422,3.26257,6.38894,5.6128,-2.99606,-4.81315,-8.29149,-0.953883,-6.1265,-3.55508,-0.326367,-4.80372,39.528,-833.504,-548.512,2800,-1260,-2240
4.86241,6.51265,5.01846,4.52582,6.84212,1.46735,0.638653,-1.11139,-2.49087,-1.27822,-2.37462,1.23815,-1.91857,-1.40116,-4.1543,-5.25175,38.552,-833.016,-543.632,2940,-1540,-2100
1.79807,1.33122,0.983781,3.24153,3.31631,1.08419,0.596928,-2.73456,-7.0561,-3.58351,-1.15285,-2.46705,-2.67325,-1.72527,-1.25232,-3.94695,40.504,-834.48,-545.584,2940,-1680,-1820
3.24236,-1.66233,-0.139786,-2.49124,-2.08218,1.26516,-3.20047,-1.85497,0.971132,2.49875,6.40004,1.60591,2.09297,1.33439,-1.25333,0.452232,42.944,-834.48,-543.144,2940,-1540,-1540
0.937901,-5.96541,-1.11961,-6.95399,-5.49656,-0.494286,-6.08396,-3.10945,3.47313,6.08981,8.80334,3.72007,5.98666,3.53647,-1.62646,2.13617,37.576,-833.016,-545.584,2940,-1820,-1120
1.52699,-6.93811,-3.17249,-10.135,-9.06229,-2.31152,-8.8517,-5.44661,8.54814,8.1344,9.86915,4.58643,7.29167,4.26042,-0.0037764,3.3296,40.504,-833.016,-546.56,2800,-2100,-980
0.41452,-9.317,-4.28726,-12.0447,-11.5758,-3.42136,-9.11172,-7.56801,10.7565,9.0391,9.00653,3.96211,8.01998,5.06272,3.14147,5.26138,38.064,-833.016,-544.608,2660,-1820,-840
3.14316,-1.71341,-1.89849,-5.39183,-9.19388,-1.38477,-6.55626,-4.47585,13.3427,6.75758,3.76846,2.76069,4.24792,2.40107,-3.07117,1.54056,40.504,-831.064,-547.048,3220,-1680,-560
6.43536,7.23381,2.01102,-0.0605655,-3.56646,-0.464671,-4.8661,-3.52324,13.0703,5.82748,0.822826,4.63773,1.54097,0.386389,-8.90984,-2.67568,40.016,-831.064,-541.68,3080,-1540,-420
-2.24337,1.81571,0.694926,1.22023,-1.15637,-1.05246,1.42891,-0.45784,-1.44821,-0.320182,-3.69166,-0.46063,-0.406835,-0.174319,-1.96632,-1.46721,38.552,-832.04,-544.12,2940,-1680,-280
-5.76985,-1.24582,-1.28855,1.52462,-0.572259,-0.00566076,4.93549,3.09149,-5.39288,-3.49953,-5.75337,-4.58988,-2.30385,-0.281672,3.13584,0.363755,38.552,-833.504,-544.608,3220,-1540,-140
-8.59424,-3.31526,-1.0169,-0.612764,-0.998683,0.108083,4.67904,2.73994,-7.65196,-1.54612,-0.416361,-2.77597,0.4317,2.75122,4.84846,2.37226,40.016,-833.504,-547.048,3500,-1680,-140
-10.0443,-6.77334,-1.25696,-1.39863,-1.1,0.0741862,4.09829,2.39276,-12.5012,-0.461001,3.2271,-2.03034,1.72787,3.07584,5.02216,4.27122,39.528,-833.016,-547.048,3500,-1680,0
-7.45623,-3.8233,-0.530907,-1.13691,0.518092,0.940558,2.87001,3.39325,-7.95865,-1.45051,0.513506,0.424772,1.59421,2.62246,1.23445,5.5968,40.504,-830.088,-544.12,3920,-1540,-140
-3.23263,0.305291,-0.592254,-0.143153,1.24131,1.70492,2.82191,3.57928,-1.12352,-3.52933,-3.29572,-1.0031,0.889546,0.133608,-0.0380417,4.34151,40.504,-833.504,-545.584,3920,-1540,-280
-0.998702,-1.14638,-1.9274,0.510214,0.856602,-0.561606,2.0513,0.475326,-0.356476,-3.75015,-2.75776,-2.21133,-0.502869,-2.87629,3.0175,0.850554,42.456,-833.992,-545.096,4200,-1960,-280
3.23379,4.05041,2.04907,2.79848,5.19205,0.445828,-0.922115,-2.50132,0.725574,-1.37247,-1.66163,0.128584,-1.69854,-2.3908,-1.45677,-3.1603,43.92,-833.016,-546.56,4620,-1540,-280
6.19473,10.731,4.31608,6.67506,8.99346,1.65734,-2.31744,-3.0778,0.415342,-2.02018,-4.70601,0.739215,-5.52541,-4.02083,-7.97758,-7.52864,43.92,-835.456,-549.976,4620,-1820,-420
0.636429,3.44618,0.793359,3.67576,4.88633,0.143401,-2.05313,-2.07472,-6.4032,-3.13711,-2.88283,1.10049,-4.20685,-2.04554,-6.21293,-5.54031,43.92,-832.528,-546.56,5320,-1680,-420
-2.4467,-4.10646,-1.90081,1.71303,0.214977,-0.808926,0.097245,-2.4903,-11.9274,-4.39278,-2.27507,-0.488045,-2.21322,-1.4742,-2.04611,-2.30309,43.432,-833.016,-546.56,5600,-1540,-280
3.30655,-0.337521,-0.451965,2.7896,-0.525024,-0.105311,1.59993,-0.727907,-3.7679,-2.72175,-2.69535,-0.180764,-2.5731,-2.7072,0.0463594,-0.849617,44.408,-832.04,-546.56,6020,-1540,-280
9.01669,5.94603,3.42035,2.63016,2.31332,0.5533,0.544085,-1.17772,5.13765,3.29965,-0.0206371,1.49759,-2.22368,-2.43024,0.143773,-1.99635,40.992,-833.504,-546.072,6300,-1540,-280
5.96138,2.83573,2.30881,-0.443385,-0.206084,-0.718498,-1.09037,-2.59733,5.25882,6.41452,4.65984,2.39028,0.481979,-0.0813274,0.796529,-2.23495,43.92,-835.944,-545.096,6580,-1820,-280
-0.30909,-3.48283,0.116654,-0.91506,-0.642226,0.466615,0.510971,-1.81698,-1.55891,2.11717,2.15088,0.813884,0.425602,1.87592,4.55511,-0.685669,44.896,-836.92,-546.072,6720,-1960,-140
3.0911,6.02112,2.54193,9.49652,7.17846,1.99525,7.93902,1.95994,-3.41052,-9.32532,-11.0428,-4.05369,-8.80084,-4.76162,5.68169,-5.84908,42.944,-834.968,-544.12,7000,-1820,-140
4.01078,5.99465,2.78953,6.98612,4.7929,1.57605,5.44749,4.97431,3.17607,-6.59508,-8.8449,-2.44032,-5.14919,-2.2398,2.37914,-3.27994,42.456,-835.944,-545.096,7140,-1820,0
-3.78556,-7.90519,-1.73947,-7.27829,-5.78893,-0.317506,-5.08266,3.829,6.37955,4.3487,4.99551,3.56434,8.08091,6.10166,0.313647,4.88351,40.016,-836.92,-547.536,7280,-1820,280
-9.14034,-13.8447,-5.00667,-11.4413,-9.2942,-2.84403,-8.88953,1.58142,1.73232,4.00477,7.64116,3.42795,10.7026,6.17403,-2.1294,6.65466,38.064,-837.896,-548.512,7420,-1680,140
-14.9275,-22.2468,-9.71899,-16.1714,-12.6924,-4.0483,-9.43533,2.0192,-0.53351,4.91085,9.33784,-0.189874,12.3157,8.23987,0.382534,11.4706,36.6,-832.04,-546.072,7700,-1120,280
-5.82066,-11.2423,-6.74239,-10.8429,-9.18524,-2.67672,-6.9071,0.42375,8.85064,6.41256,9.31343,-0.937283,8.60539,4.91814,0.48291,8.34418,39.528,-835.456,-547.048,7700,-840,280
6.6192,10.877,2.16569,5.07649,4.00294,0.336832,2.51895,-1.2425,13.0031,-0.34477,-1.52446,-2.24924,-2.68498,-3.72486,-1.86213,-2.46244,37.088,-835.456,-548.024,7700,-560,140
4.03091,12.3725,4.85545,9.19271,8.921,2.08426,7.59963,2.58886,4.0871,-4.86295,-6.64319,-4.01963,-6.72223,-4.85544,-2.41603,-2.92356,37.576,-830.576,-549,7560,280,-140
0.632243,5.3612,3.02743,3.71488,4.01047,1.06245,3.41912,1.53819,0.232629,-0.357517,-1.21717,-2.71361,-2.9104,-2.31176,-2.94087,-0.25642,36.112,-831.064,-551.44,7840,840,-280
4.96859,11.03,2.33893,6.95357,3.67997,0.0857984,4.84307,-0.233035,-1.07612,-3.12469,-5.28312,-3.48421,-7.32743,-5.80356,-0.478908,-5.54099,35.136,-832.528,-549.488,7980,1820,-420
-1.53468,2.37353,-0.317363,1.21993,0.242058,0.864294,3.48306,0.366651,-8.38032,-3.16815,-1.93093,-2.10897,-2.69649,-0.771518,1.0461,-2.04117,33.672,-829.112,-549.488,7840,2240,-840
-1.14944,-1.48303,0.615575,-3.52494,-2.39167,-0.516542,-3.79639,-2.81431,-3.87075,3.28746,4.78932,1.72789,2.11563,1.95497,-3.23293,-2.05372,31.232,-827.648,-549.976,7980,2800,-1120
5.29298,4.67835,3.19221,-1.83766,-2.46524,-1.90076,-6.02719,-3.69645,4.54383,4.82678,5.62138,4.35328,0.723628,-0.0414593,-4.11282,-4.33807,34.16,-827.16,-552.416,8120,3640,-1400
1.76526,1.36961,1.24299,-1.17996,-1.3359,0.0664417,-1.2909,-1.57105,0.0382107,2.28337,2.90032,2.83811,1.39637,0.876107,3.0013,0.421536,32.696,-828.136,-550.952,7980,4480,-1820
1.7926,-0.805259,0.777599,-0.11073,1.15843,1.23172,3.97176,2.25916,-3.35457,2.34734,0.993772,2.51885,1.44278,2.24745,7.4517,4.2453,33.184,-826.672,-552.416,7420,5460,-2100
0.460763,-5.33747,-1.51465,-1.00874,0.790961,1.22081,5.58991,4.66242,-4.29874,2.05036,1.12314,1.48486,0.867011,3.1121,10.2225,5.84529,31.232,-827.16,-549,7280,6020,-2520
2.26748,-1.55394,-1.28991,5.88413,3.79549,0.793641,7.16038,4.69676,-6.25182,-5.05527,-8.0636,-3.47403,-7.14292,-3.26533,8.43199,-0.1426,32.696,-825.208,-552.904,6580,6720,-2940
4.6416,2.71801,3.88053,4.08157,5.14154,2.31491,0.248871,0.766274,-2.38786,-0.0332839,-2.9726,2.30744,-2.57112,0.0746086,-5.64546,-3.12382,32.208,-828.136,-549,6300,7000,-3220
-3.7963,-3.70104,1.32158,-6.31702,-2.51737,0.402862,-11.6538,-4.99367,-0.490168,8.38728,10.6617,7.31803,7.26224,5.63065,-14.8754,1.86173,35.624,-829.6,-551.44,6300,7140,-3500
-12.4148,-15.1875,-8.15033,-16.116,-14.0485,-3.13011,-16.1791,-4.8984,4.84443,10.8531,15.8075,5.00753,12.7394,6.62097,-6.93141,8.98126,35.136,-829.6,-553.392,6020,7420,-3500
-7.54613,-10.3286,-10.1344,-9.84519,-12.313,-3.36115,-7.55664,-4.64605,9.11271,3.99245,6.46089,-1.28711,6.01808,-0.175584,4.12958,5.90896,35.624,-832.04,-552.904,6020,7560,-3500
-3.21607,-10.1773,-10.1886,-6.68048,-10.9186,-4.15183,-0.35778,-3.0965,9.38223,0.202567,2.60811,-4.46444,2.28912,-3.36167,11.4756,5.19719,39.04,-831.552,-555.832,6720,7420,-3360
9.26827,-1.59848,-5.10576,-5.11863,-9.09341,-3.29526,-0.322002,-4.73557,20.9718,6.70859,6.37216,0.298282,2.97401,-3.15202,8.85508,2.96989,37.576,-834.968,-555.344,7140,7560,-3360
21.1987,25.1861,6.90137,15.0081,7.69917,0.6141,9.17766,-5.9679,15.1449,-5.29155,-9.53427,-2.07902,-12.598,-11.6301,1.96376,-11.7864,36.6,-839.848,-552.416,7840,7280,-3080
20.9584,42.8835,17.543,32.9465,25.7431,5.12426,15.9866,-4.24099,-9.56842,-21.052,-27.4186,-5.28046,-24.6469,-17.5568,-9.12464,-26.0564,35.136,-839.36,-552.904,9240,7420,-2660
-5.15169,14.3218,11.097,20.8858,19.9949,6.46598,12.1881,1.28743,-38.0081,-23.1148,-24.0541,-6.72066,-15.0672,-6.13119,-9.26936,-14.0719,38.064,-840.824,-552.904,9800,7560,-2520
-19.1185,-16.7833,1.28438,0.549195,6.44092,4.65889,5.34318,7.54892,-36.8468,-12.5702,-7.48236,-5.08009,0.545171,5.5286,1.07058,4.15037,35.136,-843.264,-550.464,10920,7840,-2240
-9.63739,-9.71254,1.42951,-1.9918,4.56327,2.15609,2.33323,5.70902,-15.9184,-5.48673,-2.68855,-0.505169,1.91992,5.95016,2.2715,4.23638,40.016,-845.704,-549.976,11900,7980,-2100
-5.8752,-4.85852,0.0639088,-2.44325,3.30863,0.179877,-0.332164,2.46472,-7.07065,-2.45012,-2.55334,0.0337356,1.80899,5.16211,-1.08201,1.0786,39.528,-850.584,-548.512,13580,7840,-1680
2.19492,7.9848,-0.242581,3.5005,4.11966,0.796133,0.410583,3.02811,4.84957,-4.10643,-7.13664,-2.89422,-2.53063,-3.06704,-5.65662,-5.43848,38.552,-849.608,-549.976,15540,7420,-1260
-2.99637,2.09107,-1.1471,-0.182353,2.92345,1.85367,2.76777,6.58691,0.955736,-2.50195,-3.89496,-0.2456,0.676072,2.75175,-5.07084,1.30249,40.504,-851.56,-546.072,17080,7000,-700
-5.52961,-3.33092,-1.35212,-5.83448,-0.400795,-1.10225,-5.70943,3.56505,1.59462,3.1151,2.51903,4.8417,6.57994,6.8221,-10.503,2.81877,44.408,-853.024,-549.488,19320,6020,0
-4.80954,-9.45932,-1.34211,-16.6223,-9.88439,-3.16206,-18.5998,-1.51611,14.403,16.2266,18.519,13.3192,18.5669,13.63,-14.0259,5.47949,45.872,-853.512,-550.952,21140,5180,560
-11.7384,-29.6176,-7.24843,-30.621,-21.3526,-4.48619,-17.3899,0.49056,16.2674,29.2288,35.2481,15.7257,30.1831,22.425,4.28444,20.6329,48.8,-858.88,-553.392,23380,3920,1400
-1.65132,-11.0994,-4.18208,-9.18487,-10.148,-3.31457,-0.88131,0.170907,10.3707,12.756,12.7977,1.65119,6.74999,3.73914,14.4173,8.1332,48.8,-856.44,-554.856,26040,2380,2520
11.6956,13.9766,3.67889,12.987,4.92142,-0.149165,9.85829,0.36358,7.1285,-2.52893,-7.71486,-6.81798,-14.4589,-10.0633,9.21568,-6.65278,49.776,-854.976,-557.296,28140,1400,3360
7.38221,9.6656,1.72329,10.9856,2.79389,1.66268,8.80931,1.94481,5.75198,-4.50112,-6.89195,-7.00779,-11.9077,-9.46274,6.69759,-4.21711,53.192,-857.904,-560.712,31080,0,4060
3.7411,-11.5469,-3.02353,-11.3443,-11.6693,-1.66941,-8.53423,-3.01121,18.0532,15.6421,16.2987,5.35048,10.5075,5.7419,-0.0249987,8.22484,53.68,-852.536,-562.664,33460,-840,4760
-5.00053,-22.5918,-9.25333,-15.3251,-15.2733,-3.37546,-8.42648,-0.271572,10.4952,10.4043,13.6612,0.709242,10.7785,6.43552,4.85805,11.9988,55.144,-853.024,-565.592,36540,-1680,5320
-9.57713,-17.1447,-9.45853,-3.33805,-7.92438,-2.14639,2.4878,1.14414,-5.21675,-6.84977,-1.24861,-10.1146,-1.46054,-5.22881,14.0273,4.63913,53.192,-852.536,-567.544,39200,-1260,5460
-0.695391,-0.81381,-3.14986,6.33161,1.36208,-1.25946,7.72582,-0.686994,-6.14457,-10.4741,-8.59032,-9.50586,-10.1531,-9.85118,11.1511,-2.0769,54.168,-851.072,-562.176,41020,-840,5460
17.1133,25.2551,8.08041,19.5949,13.9498,1.44369,10.8793,0.35594,-1.37947,-12.3689,-15.8547,-4.8986,-19.0274,-14.4959,-1.34696,-11.5505,53.68,-846.68,-555.832,42980,560,5460
18.2862,23.7758,10.7619,14.4963,11.443,1.3316,4.09897,-3.85745,3.47662,-4.5974,-8.40255,2.91393,-11.3434,-8.27835,-4.88469,-12.4075,56.12,-846.192,-556.808,44240,1960,5460
5.86151,1.69433,1.19548,1.41207,-3.58763,-2.14051,-5.58542,-7.90907,2.05877,0.749348,-0.404197,1.87353,-2.16268,-4.17189,1.10697,-9.46396,54.168,-844.728,-549,44660,3640,5180
9.21208,5.78945,2.13454,-0.183481,-2.89315,-2.18802,-6.37474,-6.42384,11.728,5.98864,1.00831,4.65091,1.62643,-2.89844,-3.11182,-7.34128,53.192,-839.848,-544.608,44380,4760,5180
6.08619,11.6504,9.66239,9.97468,14.943,6.92588,12.9919,5.96762,-6.91225,-2.49337,-8.4853,2.80491,-3.31379,0.728534,-1.41181,1.66976,51.728,-837.408,-543.632,43960,5320,5180
0.455032,12.2232,8.39689,5.91125,11.0936,4.97093,-0.519011,1.20917,-9.89828,-0.687303,-4.64257,4.61194,0.672724,1.41607,-16.4942,-4.02136,55.632,-837.408,-547.048,42840,5740,5180
-0.735238,16.1045,-0.237804,0.0312828,0.490282,-1.74311,-15.6243,-7.31269,2.25582,1.04962,-1.43827,3.15706,0.662831,-2.94146,-27.1682,-11.5742,55.632,-832.528,-548.512,41860,5740,5320
-9.68697,8.52532,-5.76042,2.07691,1.91742,-0.446225,0.671803,2.19369,-10.9072,-9.72674,-9.61604,-5.27052,-5.41514,-2.10572,-9.07339,1.09019,57.096,-832.04,-544.12,40740,5600,5180
-12.9588,1.9391,-2.54876,5.51935,5.69173,2.2519,10.6736,3.27507,-19.7814,-13.7266,-11.7236,-8.02889,-6.02541,-0.932558,4.85465,4.03129,55.632,-833.504,-544.12,40040,6720,5040
-16.3746,-22.0881,-4.25876,-13.9979,-7.71532,0.191183,-5.50509,-4.52925,-10.5551,5.61041,12.6063,1.04465,13.833,11.9803,5.71138,11.534,52.216,-830.576,-544.608,39480,7280,4900
-14.5792,-19.3573,-2.58437,-11.9412,-3.47444,1.25349,-6.70795,-3.07345,-9.17346,1.46286,8.10983,2.34044,12.1862,12.4882,4.42632,8.90236,51.728,-833.992,-545.096,38640,7980,4620
-6.84492,-6.8965,-1.23515,-0.130569,5.22031,3.87056,9.58507,7.48992,-8.7994,-8.15184,-3.93511,-2.62079,-0.178263,4.84383,10.8778,9.29042,47.824,-832.04,-541.192,37940,8540,4480
-1.82442,-10.1201,-2.84427,-0.166528,0.0419022,0.660681,11.1177,11.1699,-4.97698,-2.58078,-0.459153,-4.3413,-2.3799,-0.173275,12.2362,10.5793,46.848,-831.552,-542.168,37240,9660,4200
4.00545,-10.1878,0.473136,-5.2991,-2.38639,-1.22186,2.35332,2.04035,2.78431,9.40977,11.2196,4.97614,6.24859,4.88421,5.60682,7.41187,47.336,-832.528,-535.824,36680,10920,3920
9.88401,0.661055,0.697504,-7.78117,-6.68977,-2.57643,-7.47096,-0.49991,14.4782,16.0847,16.628,9.93468,9.57498,4.34252,-5.05542,3.31735,40.504,-832.528,-541.68,35980,12180,3500
20.0102,13.3169,2.05529,-7.62564,-11.206,-4.54019,-22.0034,-7.74823,31.8212,19.244,17.983,12.788,9.79572,0.881148,-20.2732,-9.07078,37.088,-831.064,-540.704,33740,15120,3080
11.9539,12.8678,3.0326,-6.48604,-7.62544,-4.8921,-23.6025,-15.5903,24.0462,12.6987,10.0185,12.2348,6.35572,1.50274,-23.3614,-15.7074,29.768,-828.624,-537.776,31780,16520,2380
-11.3477,5.7086,-2.69027,6.52413,4.49508,-0.424109,1.62335,-1.19015,-15.1942,-16.4376,-16.2538,-6.71805,-11.3317,-5.03696,-4.79017,-9.67217,27.816,-828.136,-536.8,29540,19460,1540
-23.3888,-13.2746,-6.1069,4.44506,4.44454,1.14017,16.4334,7.19694,-29.573,-20.5797,-16.7425,-13.5933,-9.90317,-2.06183,17.7947,2.45183,27.328,-830.576,-533.872,28000,21280,560
-16.2666,-14.3924,-4.73135,11.3591,8.01216,1.89255,24.0231,11.212,-32.6332,-21.7708,-18.7478,-18.9645,-15.7676,-9.3851,24.3144,2.0068,24.888,-833.016,-534.36,25620,22540,-140
-8.54494,-14.096,-6.53339,-3.21505,-6.4806,-0.612335,1.88444,2.19942,-5.70179,-4.66546,-1.65514,-6.662,-0.0531195,-0.988205,9.23097,2.52254,23.912,-836.432,-530.944,23940,22680,-980
5.64657,4.11253,0.049547,5.72266,-0.638335,0.327241,4.87985,0.38688,8.57353,-2.92381,-7.1094,-4.00718,-4.29954,-6.75975,5.76263,-5.32851,23.424,-834.48,-528.992,23380,22400,-1820
24.1173,10.9256,7.02993,5.47452,-1.87886,-1.23106,-1.32415,-2.14347,27.6724,13.0929,2.8289,2.95498,0.604886,-6.16064,-1.77123,-9.18317,22.448,-830.088,-531.92,22400,22120,-3080
26.0436,7.76464,6.40012,-4.1309,-8.48994,-4.04481,-12.2551,-7.83977,37.5067,24.7998,16.614,9.97851,8.8979,-0.593229,-5.28385,-9.13958,23.424,-831.064,-529.48,21560,21980,-4200
19.9818,11.9912,4.57375,4.17304,0.901096,-0.871018,2.2184,-1.32771,18.4972,11.9596,6.06903,3.05599,-1.48722,-3.24127,3.69432,-5.40895,23.424,-831.064,-526.064,20020,21700,-5180
-0.314917,3.94715,0.211524,10.7495,6.09939,2.916,13.0911,5.07756,-14.2017,-10.6159,-10.6263,-10.1778,-10.5554,-6.03511,11.1737,-1.79644,22.448,-832.528,-522.16,19040,21000,-6440
-7.17516,9.87876,0.987982,17.3762,15.33,6.72749,17.7411,12.7599,-26.5668,-26.9279,-24.0809,-13.6791,-17.7352,-7.23588,5.1864,-1.93011,23.912,-829.6,-522.648,17640,20580,-7560
-13.7376,-11.478,-5.07999,-5.61573,-0.571468,3.77536,3.18219,11.9285,-14.4081,-6.85635,0.207136,-2.45268,3.39942,6.86413,-0.272651,14.4867,20.496,-832.528,-518.256,16100,19880,-9240
-8.83609,-14.0264,-1.55633,-4.67856,6.11783,3.64346,11.3009,8.63564,-11.2225,-2.27655,2.4182,-0.148283,3.67299,9.34956,8.60261,18.9483,21.472,-832.04,-520.208,15960,19320,-10360
7.67435,10.4132,4.88957,5.81289,10.4701,2.15743,10.222,4.32028,3.64937,1.37682,-1.64677,1.78553,-4.99582,-0.611732,2.85522,7.18091,24.888,-836.432,-520.696,14000,18480,-11340
-1.54045,-0.421347,1.75346,-8.64082,-5.95818,-2.35937,-14.6086,-9.56978,4.46771,14.2969,15.6098,9.50175,9.68839,3.70174,-8.58301,2.51749,30.744,-833.992,-517.28,11900,17920,-12460
-14.5355,-1.80062,3.78926,-0.29376,3.37328,1.05478,-9.82525,-9.29638,-22.8934,-4.74601,-0.250791,4.10971,2.12299,3.54368,-9.74498,-2.80614,32.208,-837.896,-527.04,10780,18620,-13440
-33.9394,-32.1351,-6.75139,-25.5445,-16.416,0.111369,-35.548,-7.33351,-20.4086,5.11061,15.3525,12.1464,23.7787,20.1456,-25.5843,8.08163,35.136,-840.824,-522.16,8540,19460,-14560
-21.9447,-41.7792,-9.95841,-54.1422,-37.8727,-7.62763,-68.6407,-19.8261,30.8108,39.1471,48.317,36.076,50.3723,35.9644,-42.877,10.6071,37.088,-839.36,-521.184,8540,19880,-15120
9.93978,4.29699,-3.08629,-11.0837,-5.70272,-3.1698,-5.52314,-1.24944,40.5482,11.2138,8.95302,14.3281,7.00831,6.35562,-1.95248,9.09085,33.184,-840.336,-525.576,8820,20160,-15400
37.8947,48.4558,10.2169,33.1111,21.5142,0.370342,36.2553,3.02184,33.0304,-12.8085,-25.3181,-6.39978,-30.4821,-24.5847,19.2526,-12.0852,36.6,-843.264,-517.28,6720,19880,-15680
35.4837,43.7753,9.95045,26.3637,13.4716,-0.467856,21.5048,-2.74817,31.1344,-5.16859,-17.209,-4.2933,-22.5523,-21.9094,8.09674,-14.5267,39.528,-840.824,-507.52,4900,18900,-15680
11.6461,8.32219,0.573743,0.20547,-3.28447,-3.45615,-2.8735,-6.61265,18.5707,9.18291,3.36908,0.500692,0.977089,-4.26524,-1.86256,-2.71173,40.016,-845.216,-505.568,3080,18060,-15680
-7.568,-0.756071,-1.47015,-0.110645,1.39779,-2.20562,-3.43221,-4.65375,-9.47674,-5.79933,-3.34141,-6.3395,-0.0135022,0.275771,-4.45723,-4.09343,44.896,-847.168,-504.104,1540,17640,-15820
-17.4012,-12.8943,-2.64076,-1.5907,4.50517,1.09104,3.2749,1.19161,-28.3078,-10.9307,-5.66544,-8.31101,1.36008,6.14706,2.72826,3.91311,47.824,-848.144,-507.032,140,17780,-15680
8.40866,4.49398,10.5867,12.6215,12.1158,1.82846,5.74063,-3.18348,-16.1223,-3.23479,-6.63844,-5.78608,-6.34215,-4.371,1.73908,-13.3906,51.728,-851.56,-508.008,-280,18060,-15400
18.1095,12.387,10.0854,15.6317,12.6575,4.33289,20.4248,7.22818,-0.683068,-1.93105,-8.73251,-6.86987,-10.3161,-6.98353,15.3741,-5.65138,54.168,-854.488,-508.008,-560,18200,-14980
1.64227,-2.3398,-6.00588,8.63852,-4.4331,-2.32332,13.7306,6.86744,-8.0506,-5.76962,-8.089,-16.465,-10.3143,-14.8661,19.7963,-6.26605,56.608,-854.976,-500.688,-1820,17500,-14140
2.46828,2.22326,-1.51056,-0.316745,-5.47182,-2.23518,-3.8156,-0.435976,3.04857,2.90047,-0.315626,-1.61862,-0.572174,-3.86836,-1.34929,-8.38528,61.488,-852.048,-494.344,-2520,16940,-13580
-7.52687,0.280076,2.08411,2.61568,5.50932,2.10915,5.63752,2.95888,-20.7369,-5.97456,-5.61795,-1.0194,-2.04655,1.79711,-0.681339,-0.468986,60.512,-851.072,-494.832,-3780,16240,-12740
-34.8409,-33.2379,-13.5838,-17.0269,-14.7717,-0.454289,-10.8879,1.4474,-36.9602,-5.96462,7.65613,-4.67475,11.7896,8.37985,1.76604,9.96742,63.44,-848.144,-498.248,-5600,15400,-12040
-31.0938,-34.2218,-17.7875,-28.404,-25.7057,-3.47994,-24.2544,-0.781886,-12.8346,6.22767,18.6163,3.88793,20.0882,12.6746,-2.26118,12.7413,66.856,-846.192,-498.248,-7280,15400,-11480
-25.546,-2.58129,-4.03093,8.04553,8.13733,4.3836,9.73038,7.00902,-45.3791,-25.1484,-18.8555,-10.1333,-11.6852,-3.82895,2.33572,-1.07518,68.32,-845.704,-501.176,-8540,14700,-10640
-45.3517,-23.5768,-5.17517,13.3803,17.2519,10.2454,26.2824,13.3112,-87.1056,-40.3123,-27.3366,-22.0104,-16.1379,-1.56751,10.5042,7.37827,67.832,-849.608,-493.856,-9100,13860,-10360
-2.79821,-9.22876,0.031402,6.16644,7.36177,3.90655,9.48246,5.54621,-19.8297,-4.64361,-3.79294,-4.88334,-3.88871,-2.96024,-2.08766,2.28001,69.296,-849.608,-496.296,-9660,12740,-9800
57.0117,47.5742,16.743,17.0598,11.5211,-0.719649,-3.489,-5.2765,60.696,20.6497,3.02468,14.6207,-8.0633,-12.8264,-25.4028,-19.4963,69.784,-850.096,-499.224,-10220,11340,-9240
31.3237,6.55007,2.45074,-12.6035,-11.9545,-7.17335,-18.6638,-8.84595,54.9965,35.3805,27.2876,18.2109,15.376,5.87683,-17.1202,0.747458,71.736,-854.488,-510.448,-10500,10220,-8820
7.95018,-26.0437,-18.3075,-32.8878,-32.9991,-11.9365,-18.0652,-3.05148,54.0775,38.4747,37.0178,10.8823,26.3031,11.2699,8.23138,23.372,76.616,-835.456,-534.848,-10360,9520,-8400
13.2053,4.54732,-10.6676,4.06638,-6.13993,-4.80841,14.5256,8.0567,29.1217,0.508391,-3.49793,-11.3228,-9.40629,-12.1548,21.3778,6.83481,73.688,-860.832,-503.128,-9380,9940,-7980
3.91359,-2.25862,-4.72483,-2.93983,-6.5593,-0.105885,2.86254,3.9851,17.1515,1.0681,-0.555377,-2.19992,0.265529,0.911518,6.46776,6.60719,62.464,-841.312,-508.008,-9380,6440,-7280
7.88341,0.682875,0.0880995,-8.64676,-7.33834,-0.118231,-7.72228,-2.80388,28.242,8.31899,6.39347,9.88435,6.45293,5.94237,-2.26033,4.73868,66.856,-845.704,-509.96,-10640,5460,-6580
38.2733,23.4131,20.5544,-14.9697,-5.1301,-2.26432,-36.551,-23.1757,70.1296,37.7124,28.5562,41.1176,23.6904,16.1859,-29.368,-13.1791,60.512,-849.608,-507.032,-10780,4620,-6160
29.0794,27.2469,18.8143,-3.7568,6.74947,2.17377,-14.1771,-11.0934,48.3051,17.6553,10.8939,29.4773,10.7627,12.3381,-13.5908,-7.1544,62.464,-854.976,-514.352,-11900,3220,-5600
-6.17547,17.3905,11.3509,25.3325,33.7279,11.6014,39.3563,19.7835,-29.0809,-36.2014,-36.2296,-10.6655,-25.2481,-1.82847,20.6324,5.38013,55.144,-847.168,-517.28,-12740,3640,-5320
-27.3252,16.2739,0.698859,37.1741,30.0643,9.4846,46.7587,24.2284,-72.371,-59.3948,-51.8951,-34.6056,-42.3598,-20.8553,26.5543,-0.821336,50.752,-845.216,-513.376,-13720,3920,-4900
-49.4609,-17.5284,-12.9525,26.4472,9.16795,2.46729,31.3836,14.8,-101.361,-55.2863,-38.5036,-46.8211,-34.0595,-24.9477,31.9358,-4.1425,42.456,-839.848,-503.616,-15820,3080,-4340
-12.4443,-0.904414,5.76519,17.5986,7.99516,-0.192439,5.73265,-6.021,-44.6688,-17.2663,-13.0562,-17.3952,-13.2223,-12.4159,7.45118,-18.5003,36.112,-834.48,-470.432,-19040,1260,-3780
25.6672,48.3279,27.8838,38.4848,29.4403,3.70221,5.62824,-14.4494,-11.4661,-14.8038,-21.6065,-1.849,-25.1121,-20.3152,-13.3167,-42.2493,45.872,-861.32,-524.6,-27160,-1540,-4060
-1.4581,10.7168,8.44122,17.0469,10.9751,3.51888,-2.75384,-4.16782,-23.484,-15.5472,-12.6104,-7.89377,-14.3318,-9.93209,-10.7662,-20.0069,39.528,-842.288,-528.504,-25620,-980,-4480
-16.7171,-30.3842,-6.61373,-23.4634,-10.591,4.43355,-14.0065,6.31091,3.56689,10.059,14.7846,7.67457,19.5073,23.4922,-5.76114,20.9865,36.112,-843.264,-508.008,-24080,-560,-3640
-28.1871,-73.6947,-16.5987,-61.8582,-35.4101,-2.08489,-33.9215,-1.98663,22.8793,46.1659,53.2926,24.0446,57.1621,48.4014,-1.74193,45.2999,37.576,-847.656,-503.128,-26740,-4200,-3500
-12.2422,-42.0078,-18.7441,-57.8004,-38.8906,-7.67713,-40.2688,-5.34754,50.8103,47.7257,52.3982,26.8974,50.4941,35.6717,-18.1346,36.0775,33.184,-838.384,-499.712,-29400,-6580,-3500
20.9539,12.6438,3.0755,-34.7572,-18.9669,-6.23931,-49.2439,-15.5052,66.9536,47.7924,41.1002,41.5556,37.1107,22.5022,-50.3761,4.18918,30.744,-833.016,-488.976,-33740,-8400,-3920
36.1434,27.4196,10.8081,-18.5111,-10.2234,-8.4269,-43.9126,-22.4789,60.963,46.6277,34.7583,39.0678,27.3304,8.49446,-48.172,-12.6072,30.744,-829.6,-475.312,-38500,-10640,-4620
20.3716,6.03138,-5.98239,-11.9249,-16.3526,-9.75956,-17.8113,-10.8797,41.4844,27.7743,22.3576,10.8617,14.7101,-3.76459,-10.7254,-1.95477,37.088,-849.608,-502.64,-45080,-13860,-5460
-1.21328,-27.8557,-20.354,-23.3003,-28.6924,-9.76481,-1.30565,0.913881,29.6533,22.4165,24.2067,-3.22493,18.4858,1.76861,25.2426,21.5897,38.064,-857.904,-515.816,-47180,-15120,-5740
-1.39927,13.1158,-11.0021,23.6079,6.60167,-4.09554,36.5708,9.28507,-13.8258,-30.7978,-29.4704,-30.7379,-28.7246,-26.8041,36.5972,-4.17012,40.504,-864.248,-518.744,-45920,-16240,-5600
-9.93767,26.9992,3.5141,57.8487,39.0921,5.18254,61.4802,13.3826,-74.103,-67.2815,-67.2769,-46.2659,-56.9844,-39.2693,38.2464,-25.1856,39.528,-865.224,-518.744,-43260,-17640,-5040
-23.6252,17.1642,-2.20313,58.4764,37.6381,9.099,68.8549,23.1296,-92.0043,-74.5484,-72.8619,-53.7845,-60.2746,-40.698,42.9245,-16.2078,37.576,-867.176,-509.96,-42700,-18340,-4760
-46.8884,-15.3329,-7.4816,44.315,26.9622,9.1809,57.2374,17.3752,-118.604,-68.2533,-58.3739,-55.5119,-47.1993,-31.4949,41.5371,-9.73083,36.112,-872.544,-513.864,-41860,-19040,-4620
-39.916,-63.9584,-3.72506,-12.706,-6.36656,2.68871,1.88615,-7.11091,-65.2734,0.38684,11.7496,-8.41443,14.7971,14.5572,19.3083,8.53554,34.16,-869.128,-519.232,-40600,-19880,-4200
19.2024,-3.72301,8.37157,-7.80303,-1.3206,1.57235,-9.14628,-6.6101,35.9979,20.8215,13.3223,15.5895,10.9042,11.547,-6.80672,0.217072,34.16,-871.568,-514.352,-39620,-21140,-3640
66.6471,67.0834,29.2218,3.992,9.79227,5.41208,-34.9346,-11.4045,96.2167,33.5794,9.84007,43.7787,6.1395,7.85429,-66.9864,-22.7743,30.744,-865.712,-513.376,-38780,-22260,-3220
39.6149,33.5743,10.6085,-24.12,-17.8972,-3.86149,-55.3429,-16.7303,80.4039,48.887,39.1241,45.453,28.3074,17.142,-66.5296,-8.48129,28.304,-860.832,-510.448,-38360,-23240,-3220
4.26121,2.31469,-1.08221,-20.3304,-13.7418,-4.38936,-26.688,-7.34036,23.5041,23.6857,25.3695,21.5429,18.4705,14.1138,-23.3628,5.0831,27.328,-857.416,-504.592,-40320,-24360,-3220
-12.8143,-27.5962,-6.35291,-29.7388,-18.3526,-2.9548,-21.0935,-2.59589,8.44991,22.6202,30.1352,16.0263,27.0887,21.7207,-1.45261,17.9599,27.328,-856.44,-505.568,-41860,-25480,-3500
-6.72143,2.43905,-2.69061,0.058604,3.73778,1.25847,5.66095,7.408,-10.2668,-6.80736,-4.11288,-1.68329,-4.34626,-0.0402751,7.15953,5.22099,30.744,-861.808,-521.184,-42560,-26460,-3360
-26.2378,-0.292971,-2.6904,13.0643,13.8462,5.83222,14.4035,12.1916,-54.0375,-33.2254,-27.3763,-15.1677,-19.0315,-4.74511,1.53173,1.07025,29.768,-863.272,-512.4,-42840,-27720,-3360
-47.8005,-38.1827,-13.4974,0.248409,3.4109,4.50114,22.4728,14.9851,-73.2842,-33.0937,-18.4184,-22.5154,-9.93718,2.20965,30.5524,17.8117,28.304,-866.2,-510.936,-41720,-28420,-3220
-23.3576,-23.236,-8.48113,7.5094,4.2786,2.11218,19.4458,8.84068,-45.2271,-24.9139,-16.2164,-19.8932,-13.6107,-7.78817,31.7659,4.46888,30.744,-870.104,-514.352,-40880,-30100,-2940
1.03596,-22.5053,-6.09356,-16.5455,-15.7853,-3.39694,-8.17592,-1.07586,23.8599,14.9682,18.3462,3.99003,15.6098,6.94792,18.3208,10.4689,27.816,-874.984,-515.328,-40180,-31500,-2800
24.8405,-1.07697,6.25141,-18.1483,-9.83197,-2.29677,-14.7545,-5.81714,60.5849,32.2754,24.9024,23.074,21.6099,14.5043,4.72446,8.75562,26.84,-877.912,-514.352,-39340,-32620,-2380
51.3537,26.1088,21.4744,-3.06185,7.29565,1.42796,-10.2189,-6.57731,70.9027,35.4478,17.3727,30.4525,12.3935,11.8243,-7.71027,-3.63214,24.4,-876.448,-508.984,-37940,-33040,-2100
47.3561,32.4545,11.3684,8.04207,7.11085,-0.86546,2.43247,-1.65643,59.2445,19.3195,4.54822,11.898,-4.11122,-4.98437,1.16438,-6.4534,25.376,-882.792,-507.52,-37800,-33320,-1960
26.5656,17.2617,-7.64443,1.87002,-14.5536,-8.56839,-1.93559,-2.10164,46.2373,11.3936,7.84917,-6.61634,-4.82709,-16.7961,8.03844,-4.00398,20.496,-875.472,-488,-36680,-33880,-1680
9.66524,21.6426,-9.11606,13.3042,-8.90892,-8.27936,8.03007,-0.49753,13.7315,-12.6704,-11.0849,-18.977,-16.9841,-25.6882,9.8991,-11.9206,12.2,-901.336,-453.352,-37240,-35280,-980
-19.4282,24.4676,-8.0098,41.3455,16.8359,0.800982,37.0257,12.5576,-57.0957,-60.0713,-53.1539,-43.6105,-44.8939,-37.5389,12.1394,-19.151,36.6,-1022.85,-510.448,-38220,-42140,280
-3.2655,23.5626,6.84639,28.2965,17.415,4.71746,14.8275,6.44685,-33.632,-30.0526,-28.1995,-17.2007,-22.8962,-15.8635,-23.986,-15.8212,49.776,-944.28,-644.648,-16800,-43820,1960
-3.33729,-9.58963,6.80062,-16.5719,-6.49265,1.53957,-22.4252,-6.20069,6.50108,21.2503,24.7133,17.6892,19.8381,19.2877,-41.486,6.529,-10.736,-774.944,-433.344,-1960,-25620,1540
-31.1398,-47.6235,-10.8002,-38.1443,-25.9254,-3.161,-21.4092,-5.11094,-7.88526,26.3203,38.7156,11.4692,32.4844,25.3068,-5.02018,24.5641,56.608,-925.248,-600.24,-25340,-34020,840
-39.4557,-39.9763,-17.8335,-4.55556,-5.32446,-1.68514,23.3774,10.2252,-49.7709,-19.0099,-8.79055,-24.504,-4.89249,-2.5596,39.0137,17.8565,27.328,-968.68,-527.04,-7000,-29120,4200
-6.4451,24.8494,7.41207,39.2203,28.6426,3.91906,32.8079,4.90363,-47.6514,-43.5196,-46.9725,-26.3785,-36.2273,-25.7335,15.5176,-21.6849,34.648,-913.536,-615.856,7700,-27300,5600
7.49108,38.6207,30.141,33.0907,36.7581,8.4621,-0.768424,-13.4209,-36.781,-21.108,-31.0277,5.53536,-16.8846,-6.12357,-31.5829,-36.1343,21.472,-796.904,-469.944,18760,-21980,7000
-12.4027,5.41388,16.2418,10.5233,26.4002,9.63964,-2.05767,-3.2389,-38.0756,-12.7322,-15.5877,8.66042,-1.81755,10.9469,-24.7999,-10.5812,57.096,-820.328,-540.704,6160,-28000,6160
-3.35798,-21.0506,1.46586,-30.871,-11.0215,2.25752,-31.6397,-7.1507,19.7605,34.926,32.9383,28.9502,35.9871,29.6948,-20.9999,11.8587,60.512,-873.032,-604.632,6860,-30940,7420
10.0113,-40.7835,-9.43139,-63.9778,-41.3438,-6.59746,-51.3548,-14.5684,75.608,76.1399,72.2195,45.9541,66.5461,42.9709,-6.24016,32.708,71.248,-922.32,-669.536,18480,-24080,8680
-14.2075,-51.7624,-28.0433,-56.0947,-44.6023,-9.42354,-26.1782,-3.61028,50.5641,45.792,50.7978,16.2189,48.9207,27.4388,27.951,41.2737,32.208,-876.448,-512.888,34020,-21000,9100
-13.5307,-4.95843,-13.0466,3.59802,2.25851,-0.79543,16.0123,6.61628,-6.62315,-20.1463,-17.578,-16.3895,-8.50668,-6.40342,29.3511,8.13688,73.688,-899.384,-645.136,42000,-31780,10360
25.6883,54.5124,16.6394,52.9116,42.9542,6.93938,41.8059,7.22801,-11.8115,-39.971,-50.0871,-20.4533,-47.6663,-31.8664,9.15804,-29.0626,17.568,-723.704,-479.704,52920,-22960,10780
31.1801,24.7638,14.8693,11.9978,8.80524,3.39911,2.21308,-1.79538,27.3797,13.8542,6.89765,8.09202,-4.70655,-5.40704,-11.9738,-14.1457,115.168,-812.032,-728.096,30100,-22400,8960
29.6633,15.3274,3.09809,-6.08156,-13.0116,-4.01942,-17.8856,-2.44915,47.2747,27.4638,23.0297,12.9266,5.15875,-2.19446,-19.5223,-7.70513,96.136,-774.456,-665.144,40180,-20860,9100
3.06397,7.47597,-1.39008,8.09746,-4.23102,-2.35089,-1.32043,3.38689,-4.56389,-6.07515,-4.35154,-7.37995,-12.2841,-10.7841,-4.85121,-9.90676,76.616,-763.232,-571.448,52080,-15540,8960
-16.6567,2.70149,3.67694,17.1355,9.81226,1.00934,4.34949,1.28395,-51.3134,-27.9431,-20.4467,-11.6624,-17.9883,-11.3344,-5.45205,-13.9713,82.472,-802.272,-547.048,46200,-26320,9660
-37.7086,-21.5263,-8.94322,4.52449,0.800549,-1.06185,0.732357,1.84055,-68.1326,-30.7659,-16.6168,-16.9361,-9.49986,-5.31154,-5.26258,-0.121594,76.616,-854.976,-568.52,40740,-27580,9240
-50.759,-42.1426,-18.8288,-7.22352,-8.13445,0.242712,6.74971,7.64678,-65.9167,-31.0916,-12.9075,-21.8329,-2.28938,2.47417,6.27262,15.5788,82.472,-833.504,-634.888,42140,-23240,9380
-5.43584,-31.9911,-12.1646,-30.2245,-24.9141,-4.25629,-10.5649,2.53561,23.5371,22.6431,27.0511,10.7764,23.9691,17.1566,3.48572,23.8502,79.056,-805.688,-624.64,47460,-21560,9940
36.0578,9.98421,4.6543,-24.8568,-14.8467,-5.02747,-18.8498,-8.5964,82.8073,42.5701,33.3903,33.5299,24.3242,17.7788,-6.11781,8.74928,85.4,-803.248,-623.664,53060,-23520,10780
27.6084,29.7937,8.72458,10.8085,11.9764,1.92088,10.4497,-3.12848,36.1059,-0.302294,-9.69366,8.22469,-11.9484,-4.66295,7.1836,-6.42322,76.616,-833.992,-613.904,58800,-22540,10640
4.97997,18.7503,6.92464,28.9734,24.325,7.3043,31.8776,6.56312,-21.979,-31.7222,-37.0211,-15.3106,-30.7625,-15.3399,20.2225,-6.88111,59.048,-810.08,-527.04,61880,-26180,11480
-12.0545,-1.49604,-2.02874,25.1064,17.269,5.30349,35.4068,12.6334,-41.0444,-37.2208,-36.4404,-26.7516,-29.4349,-16.5215,30.5286,-1.19552,67.344,-852.536,-616.344,56840,-28980,11200
9.15722,1.15699,-6.25841,2.41673,-11.4076,-4.20062,-0.613909,1.36085,16.7663,1.17779,-1.56118,-9.55037,-7.551,-12.9821,10.1329,-3.9642,66.368,-775.432,-584.136,59780,-29820,11480
34.5168,27.411,6.23646,7.22895,-1.59614,-3.48662,0.312507,-2.47807,48.0932,15.0577,5.83758,3.31196,-8.27914,-11.3051,-0.334198,-10.63,77.104,-782.264,-595.848,57120,-27020,10780
26.3814,29.7074,8.64132,5.24261,0.968059,-1.82429,-6.2399,-3.7828,33.1664,15.2213,9.21282,7.52625,-2.51956,-5.4132,-13.1075,-10.9929,77.592,-819.352,-589.016,52220,-28280,10500
-10.9604,-5.84992,-1.75368,-9.43376,-6.68251,-2.63372,-16.6136,-5.9358,-14.9913,6.9176,13.2135,3.98354,11.038,6.70124,-16.6622,-0.879731,65.88,-808.616,-522.16,53200,-28000,11200
-52.8195,-52.2778,-19.0198,-29.2412,-20.3092,-2.47508,-19.0963,-1.51244,-55.9214,-1.80999,18.7531,-3.90034,26.9212,21.0119,-3.55381,21.5676,76.128,-813.984,-541.192,51940,-33320,12180
-22.9247,-25.359,-6.25371,-23.2451,-14.0019,-2.10889,-28.8537,-9.50237,-22.4462,10.9527,20.3524,9.8605,26.0801,17.9174,-19.0673,8.44233,70.76,-809.592,-512.4,52640,-37520,13300
15.8881,-4.01367,6.28475,-20.6851,-4.71524,-0.235797,-18.7131,-7.63488,31.87,36.9396,31.018,24.8521,30.1202,20.9948,-16.6027,11.4364,97.112,-925.736,-648.064,49000,-37240,13580
10.1798,7.89948,9.24228,-1.81502,10.2149,3.09926,1.60827,-0.185084,9.94287,14.3599,7.19579,11.4064,10.8838,9.6555,-6.22677,4.08028,50.264,-841.312,-508.008,58100,-32620,14700
0.0103331,9.08656,10.1582,18.917,22.7348,6.26398,23.9681,7.40368,-24.8825,-13.6853,-20.1571,-9.01678,-10.858,-3.44058,12.4664,-3.54218,41.968,-873.52,-537.288,55440,-30100,15820
5.00399,-0.524605,2.81404,6.04128,3.25268,-0.254034,10.3432,2.15888,1.33482,1.47119,-4.92006,-6.58107,2.44546,-3.80444,19.8324,-2.45072,33.672,-885.232,-476.288,54460,-31080,16800
9.2214,8.71214,-2.39591,10.1972,-0.752264,-2.79801,9.36888,3.10497,14.1112,-3.4023,-8.93169,-14.0852,-4.70966,-15.1828,17.9314,-8.44099,53.192,-928.664,-630.984,55020,-33880,17080
13.2578,19.2646,-1.62077,22.6625,9.55365,0.520112,27.651,9.56739,11.38,-16.3964,-23.0126,-22.6111,-21.0132,-22.6392,22.4834,-8.04927,58.072,-1055.54,-739.32,67620,-26600,17500
18.1203,38.5951,6.33522,32.3989,17.5086,3.77719,23.0863,7.4689,8.8175,-22.2101,-30.1539,-17.5359,-33.2042,-26.2508,2.57733,-19.1161,18.056,-816.424,-596.336,107800,-12600,17780
-9.25112,14.2569,3.05326,10.0661,4.46411,4.31209,-8.90001,1.80659,-16.218,-14.4713,-12.9882,-2.16367,-14.6552,-8.02422,-28.5442,-12.8928,-0.488,-805.688,-576.816,100940,5880,15540
-52.9044,-56.0358,-9.85977,-34.5652,-19.755,1.90465,-29.7086,-2.13396,-41.9084,4.36145,20.0354,15.4246,25.8243,29.6898,-16.8184,18.262,86.376,-848.632,-532.896,97720,-2940,17500
-9.94592,-17.8141,5.433,-15.4248,-4.98703,0.865192,-17.6184,-7.44384,0.4492,10.7414,13.1169,24.5414,11.6424,17.2386,-8.10253,1.74113,-30.744,-569.984,-386.496,116900,-280,21000
22.3642,30.0585,16.0278,22.1178,21.748,2.62971,11.8188,-5.79486,12.1183,-10.6632,-18.5496,11.0573,-20.8877,-9.04957,-1.11885,-19.1701,54.168,-813.496,-521.184,71960,-12040,19740
11.4864,9.83752,2.29857,-0.316411,2.35393,0.760976,1.65587,-0.155765,30.3369,1.52087,-1.34073,11.203,-0.881048,4.38109,-5.01998,4.09977,48.8,-832.04,-568.032,75740,-20720,20720
11.0412,5.28637,-8.63232,-10.6027,-15.3044,-4.55396,-7.72637,0.472257,40.118,9.68861,8.81676,5.5673,4.13214,0.47752,-3.99122,10.3329,7.808,-870.592,-499.712,77700,-11200,19880
-31.7408,-27.5471,-20.1526,-8.69326,-14.4441,-3.10954,4.00442,4.19086,-36.8366,-16.6694,-2.02856,-19.8846,-1.58702,-1.93805,16.1536,14.3929,17.08,-892.064,-555.832,80360,-10780,21280
-29.4647,-24.2353,-7.41927,12.8444,13.4146,2.77597,28.1453,8.55278,-74.7406,-32.3134,-19.2384,-27.9323,-18.4439,-7.09725,23.4878,5.80495,1.464,-845.216,-530.456,80220,-1820,21420
17.2042,9.21708,13.1713,11.8486,15.8407,2.53159,8.36474,-0.725263,-10.8824,-0.122384,-1.73011,0.65121,-7.40915,-2.87377,-3.97812,-8.86147,0.976,-842.776,-515.816,83160,7420,20720
8.27182,-3.19013,6.45225,-25.4426,-14.5366,-3.64581,-37.6813,-11.0474,27.1529,31.6639,32.9436,26.3116,29.5036,19.8302,-34.0239,1.64563,20.496,-859.368,-506.056,73080,0,20160
-22.4161,-30.5434,-13.7774,-31.6909,-22.0243,-6.55529,-26.3071,-5.12325,2.98732,16.5192,25.0632,7.59777,26.6611,16.7693,-11.7171,15.1982,5.856,-870.104,-488.488,71820,-3080,19740
0.396421,-23.1223,-16.289,-35.7704,-30.5354,-10.5517,-29.5507,-10.7079,40.6304,34.8139,36.4531,12.0492,31.399,12.6592,-7.05545,16.672,9.76,-897.92,-493.856,66080,-5040,17780
4.85157,7.006,-5.34912,6.29954,2.74437,-2.10817,10.4025,0.433317,-1.50962,-5.10177,-7.75141,-9.96632,-8.17492,-10.5634,12.8677,0.863351,24.888,-847.168,-527.528,68040,-4340,16940
-4.52205,6.63279,2.53105,31.5441,25.7254,6.9523,37.3566,9.89477,-48.8376,-34.4408,-35.0327,-28.3749,-32.5908,-19.929,28.2889,-7.41393,46.36,-822.768,-579.256,65240,-1400,15260
37.8728,17.3287,8.72512,-3.52126,-3.53106,-1.03459,-12.7119,-7.15813,55.9245,31.0288,21.9191,15.9887,7.72997,0.542703,-9.4859,-4.75785,55.144,-821.792,-560.712,67480,2940,16100
59.3432,50.055,17.0146,4.23785,-0.100537,-2.62942,-14.5007,-10.1942,89.4358,35.1655,18.9417,25.8687,4.88065,-4.22292,-15.9048,-16.6353,31.72,-847.656,-485.56,71400,2100,17220
23.0918,24.0082,8.60705,9.91856,-3.21613,0.697104,3.89498,0.148312,31.1887,6.92985,-0.471468,3.6881,-0.656611,-4.68286,4.89883,-9.68889,28.792,-894.992,-461.16,71260,-4060,18340
-5.11604,5.98334,-0.222016,15.1557,2.46361,3.54728,20.3665,11.0507,-12.5834,-18.0034,-19.3451,-13.8832,-11.0719,-6.03668,15.7768,-1.44466,41.48,-863.272,-522.648,72660,-7000,18060
-19.6161,14.9048,5.58361,37.4819,30.5587,7.87805,37.1145,13.7435,-63.8093,-49.316,-47.7677,-26.6095,-35.3297,-16.3335,15.9792,-14.0273,53.192,-871.08,-589.016,74760,1260,15960
-53.5856,-22.3576,-4.99418,12.8751,13.2471,6.31114,14.5877,10.9698,-90.469,-45.5579,-31.2891,-22.0891,-14.6346,-0.495514,4.37376,-1.57521,30.744,-874.008,-508.496,81760,8820,16520
-45.2252,-37.4751,-12.1456,-10.7007,-3.67643,2.17971,0.205268,7.93151,-54.8399,-18.6231,-5.5568,-10.6785,5.55779,10.2128,4.07424,13.9577,42.944,-892.064,-509.96,83020,6020,16940
2.66383,-9.53702,-3.00198,-7.98508,-5.5675,-3.67008,-5.30969,-4.36355,7.56392,10.3666,10.5119,1.59787,6.8647,0.269255,4.44623,1.52654,31.232,-880.84,-509.96,83020,4060,15960
20.7929,9.8203,1.8005,-6.53918,-5.7044,-4.41658,-8.99191,-6.45033,40.4792,18.7992,11.4137,9.09403,6.72395,-0.77298,-3.87545,-1.37637,37.576,-853.512,-504.104,83160,6300,15540
14.5062,5.10476,3.54297,-11.6886,-8.02178,-1.96773,-18.0207,-6.56023,35.0518,23.1636,15.9357,14.331,14.0326,5.69569,-14.7742,-0.195739,39.528,-828.624,-501.664,78120,7980,14280
-7.59624,-11.8487,-2.05242,-11.8155,-6.60943,-1.14047,-15.1857,-5.21518,-3.91324,9.65297,10.3571,7.37416,11.8151,7.72186,-13.4615,1.90956,34.648,-837.408,-505.08,77280,7280,13860
-12.7111,-18.3669,-5.75152,-3.68734,2.96133,1.41495,7.98012,4.10221,-19.9007,-5.12929,-3.16681,-3.66954,0.329655,5.48079,6.48772,10.0152,32.696,-852.048,-493.856,76580,6860,13580
7.48427,-9.2501,-6.65774,-9.20928,-9.84403,-2.37036,-1.20608,-2.64363,21.0934,10.7763,7.11025,2.9024,5.7981,2.30038,8.30728,6.27926,28.304,-851.56,-484.584,77000,7280,13580
24.022,17.9293,1.06192,5.22257,-1.10297,-0.0237453,6.10634,-1.94733,32.4394,4.98614,-3.96634,1.59601,-6.47552,-7.35743,5.7514,-3.14883,31.232,-846.192,-517.28,73920,7700,13440
29.3157,20.6468,13.1155,-4.47701,-0.27542,2.13037,-12.5855,-6.18444,39.5545,24.6158,16.7364,21.747,9.15121,7.15897,-15.1544,-3.35399,31.232,-835.944,-495.32,69440,9380,13440
21.3535,9.61318,10.9078,-25.7705,-13.9638,-2.85078,-39.4774,-13.0165,51.0441,43.6063,40.9542,39.0171,30.6064,21.1869,-35.0451,2.48689,28.792,-845.216,-498.736,64820,7980,13020
-3.70936,5.6131,1.94175,3.8806,4.98404,0.093044,3.43483,2.28108,-8.65394,-6.90119,-2.56204,0.503323,-4.3428,-1.67624,3.59168,-1.06844,27.328,-831.552,-480.192,61180,8400,12460
-20.6592,0.207221,-3.0909,24.6834,17.3573,5.37,35.0571,12.8018,-49.428,-41.1974,-30.7468,-28.9743,-26.6851,-16.4353,31.1084,-2.22598,41.968,-874.984,-541.68,54040,7560,11340
-7.55712,3.32866,-1.08269,14.1678,8.74297,3.1647,19.7233,7.70671,-21.1877,-20.8881,-16.9029,-17.448,-16.0625,-10.7512,15.9863,0.512408,27.816,-844.728,-517.768,53620,7420,10500
-26.6733,-15.2403,-7.08735,-4.77214,-6.01178,1.04321,-3.84234,0.993986,-33.1198,-10.6295,-1.6819,-10.0792,1.67801,0.555644,0.771885,5.49147,19.032,-854,-512.4,56700,9660,10220
-37.1205,-23.729,-5.44262,-4.39758,1.19365,2.16456,-4.19485,1.35142,-56.5133,-14.8688,-1.63841,-9.03205,3.12298,6.21945,-8.56963,6.39254,12.688,-840.824,-466.528,55860,11200,10080
-9.24841,-8.28434,0.503455,-0.020192,5.41285,1.23381,3.19776,3.74475,-23.0896,-2.61976,0.151176,-2.24586,1.01846,5.32645,-4.92011,5.34524,9.76,-849.608,-460.184,51100,9940,9800
0.355964,-5.78098,-3.69646,0.253449,-1.61268,-3.13156,7.05599,2.69949,2.34204,-0.280014,0.382673,-5.34311,-1.60192,-2.51101,11.5605,3.89892,22.936,-862.784,-509.96,42840,4480,10500
28.3163,20.6805,4.9391,6.60844,1.78186,-4.49377,0.306977,-1.88447,43.9882,8.76438,0.134906,5.65564,-5.23375,-8.64306,-2.00537,-8.38039,0.976,-831.064,-505.08,45220,5320,9940
31.7823,26.8766,11.576,5.21016,5.38108,-0.110235,-7.63388,-1.66888,45.9796,13.4564,0.527219,16.4163,0.615888,-0.967892,-20.3133,-10.0145,2.44,-833.504,-463.112,51660,12320,9940
4.29477,-2.92042,1.46781,-10.6024,-7.64934,-3.40883,-18.9797,-5.43977,18.1252,13.8986,7.81955,13.7166,12.5845,7.2329,-20.4621,-2.82477,9.76,-863.272,-452.864,40460,8680,9100
-7.39494,-11.1185,-4.15304,-10.0222,-9.42768,-4.79554,-13.7589,-5.90848,2.2154,6.58976,3.59213,4.14263,8.0129,2.60545,-8.06907,-2.33998,41.968,-848.632,-601.704,36960,2800,9660
-8.96385,-6.41095,-4.52922,4.38879,1.40215,-1.97469,4.96648,-0.273614,-9.6674,-10.4094,-11.7056,-9.28935,-7.58805,-6.62586,7.62951,-6.98977,17.568,-865.224,-536.8,42280,12320,7840
2.93641,15.8147,-0.183054,25.0147,13.2898,1.32891,22.1311,4.59216,-11.9359,-25.7511,-29.7942,-18.3085,-26.7202,-20.1391,14.8018,-16.8211,12.2,-843.752,-452.864,40880,14700,7980
-28.1162,-9.55783,-10.0887,22.2435,9.31235,4.16126,28.681,13.2929,-61.299,-41.3041,-34.2493,-32.9925,-26.6787,-18.2498,24.3241,-4.39975,15.616,-922.808,-454.816,35840,10360,7280
-28.7056,-42.9818,-15.3473,-18.4804,-18.2901,-0.502393,-3.3155,7.71013,-26.9184,1.23408,12.7771,-8.44176,12.7342,9.80079,9.91262,18.8078,7.808,-813.008,-447.008,39900,6720,8260
8.66698,-14.9101,-4.25458,-25.3583,-22.3362,-4.8578,-22.329,-5.73797,37.3008,30.8816,33.4239,16.155,23.4226,14.2218,-8.39786,11.5833,31.72,-872.056,-522.16,31780,12600,5180
15.241,7.93441,3.55009,-11.2083,-9.13258,-2.11879,-16.5016,-10.4955,33.2772,20.1487,20.2879,13.9701,12.7552,7.49352,-10.044,0.604346,35.136,-830.576,-491.904,29680,13300,4620
20.2537,17.1746,10.1011,-3.09639,3.21779,-0.018665,-11.7504,-9.50539,23.7891,15.5209,11.3629,16.0497,6.75434,5.81461,-11.6893,-4.92376,17.08,-817.888,-464.088,27160,13720,4200
19.849,15.7028,7.66884,-2.17864,2.99802,0.379319,-7.93659,-6.04211,21.4495,14.2236,8.35754,13.4514,5.54784,3.41109,-9.63531,-3.80084,26.352,-891.576,-470.432,19320,10500,3500
5.87582,1.55424,-0.319951,-5.9558,-1.16993,1.6772,-0.899035,-2.36741,13.4956,8.16897,7.86955,5.59515,4.81442,5.96369,2.38324,8.45146,14.152,-824.72,-468.48,21980,9800,2940
7.72557,16.5743,4.43404,16.8414,15.8856,3.78596,20.5491,-0.0793187,-6.41842,-12.7621,-13.1544,-9.4154,-16.2173,-9.01848,14.5426,-1.93191,30.744,-845.704,-492.88,16380,13300,420
10.6252,14.7313,9.56446,13.38,16.2075,4.93127,14.6243,-1.75862,-2.05481,-5.09243,-5.98307,-1.41852,-7.31126,-3.27973,7.58407,-2.73204,20.008,-856.928,-450.912,18200,14280,700
13.1378,16.837,10.898,8.21815,11.8777,4.30559,4.08205,-5.54805,6.92593,2.78165,0.999353,7.17847,-0.206259,1.31169,-2.43965,-4.87685,15.128,-838.872,-453.352,16660,12880,420
2.6528,9.49974,7.64422,6.90947,11.4056,4.85953,6.22941,-1.37317,-9.6676,-2.88743,-4.2235,3.31926,-2.2891,4.04427,-0.926934,-1.41859,17.08,-860.344,-470.432,12600,13440,-840
-7.51449,-6.97431,-0.359598,-4.201,0.00704295,0.453467,-0.134642,-1.59038,-10.5834,1.58291,1.31745,1.03824,2.96093,6.73009,-0.758675,5.93256,20.984,-838.384,-458.232,14420,14280,-1260
-2.50596,-6.95647,-3.05783,-9.97382,-11.135,-3.40352,-10.2705,-5.07403,7.13021,11.6831,10.3112,4.28117,7.93752,4.13891,-6.17085,3.30194,15.616,-821.792,-437.248,12180,14280,-1960
-26.711,-23.1083,-11.8368,-9.37088,-13.9452,-1.21655,-7.69044,3.58786,-25.4899,-7.76049,-0.0232716,-7.24045,5.56199,3.23534,-0.0453031,6.02365,22.448,-857.416,-474.824,6020,13300,-2940
-33.9971,-10.5522,-9.77888,19.5713,9.57213,4.05915,24.4052,19.0527,-69.3244,-46.2944,-36.332,-29.0873,-24.71,-14.6047,17.0224,-1.91911,23.912,-858.392,-471.408,9380,14000,-3360
-17.7374,-15.3265,-8.25177,0.390197,-0.250494,2.02735,12.6096,17.5916,-27.7232,-16.6986,-13.7738,-10.5428,-5.30073,-1.56216,11.8352,9.68195,16.592,-845.216,-462.136,14140,16380,-3920
10.426,0.833562,-3.37588,-9.24933,-12.0318,-4.147,-9.28759,4.32872,30.4299,10.4071,5.35299,6.74195,6.64429,-0.301051,-6.53705,1.43011,16.104,-856.44,-447.496,12180,15680,-4340
10.0102,7.74319,0.0719382,-4.86251,-7.45494,-3.86643,-11.248,0.451324,27.2335,9.05971,5.04546,7.26017,4.94155,-1.83071,-11.3532,-4.32916,17.568,-887.672,-466.04,11900,15120,-4480
9.74196,7.74985,1.72493,-1.90983,-3.3485,-2.41654,-3.83934,2.06297,22.3593,8.18414,3.78683,3.31439,1.68099,-2.16615,-4.63997,-1.14368,19.032,-863.272,-458.72,16380,14140,-4340
3.22431,2.97013,-0.332658,-0.815531,-5.32224,-3.12401,-1.59376,4.66462,11.4154,6.08245,5.84309,-1.86525,0.0274322,-4.15851,0.746899,-1.0957,12.688,-855.464,-475.312,17500,14420,-5040
-11.6397,-12.3523,-5.0569,-11.9461,-13.5565,-4.52834,-13.5386,0.146738,1.18764,10.4331,16.4085,0.256738,11.7941,2.97949,-3.77459,1.48371,25.376,-875.96,-464.088,16660,17220,-5880
-3.97803,0.996525,3.41058,-2.98312,0.297729,-2.69353,-11.0828,-5.15449,-2.73335,4.74036,5.91476,5.71413,4.46455,3.75821,-11.1977,-6.20716,17.568,-857.416,-455.304,19600,17080,-6160
5.9092,5.02432,5.84319,-2.87907,3.94782,-1.44357,-8.29591,-9.74537,6.56306,9.74122,7.05325,11.6733,6.164,6.38815,-6.21509,-5.73768,20.984,-874.008,-459.696,17780,17780,-6440
2.20731,3.35277,1.36918,2.2242,6.83623,0.734914,2.23002,-4.45904,0.298186,-0.981794,-1.95069,1.72972,-1.59817,0.615313,3.60347,-2.76475,25.376,-873.032,-449.448,19040,16520,-5880
-7.6606,-2.3143,1.46837,9.76875,15.2218,4.73379,14.137,1.64035,-20.9791,-14.5506,-12.8934,-7.27311,-9.74935,-0.884338,9.38244,-0.0799682,25.376,-855.464,-449.448,18900,15120,-6020
14.497,9.39048,7.59941,9.23922,11.5611,3.70371,9.20906,-1.57916,11.1423,0.682503,-4.17189,-0.250016,-6.52572,-2.29873,3.74615,-3.32429,31.232,-853.512,-452.376,16240,13580,-6440
17.9108,8.92818,5.40567,4.52751,3.95289,2.60084,3.66474,-1.81061,23.7287,9.09781,2.65748,2.55462,-0.693792,-3.11403,1.88282,-1.30621,33.672,-856.928,-449.448,14140,11900,-6580
12.3601,2.11693,2.24316,0.322485,0.10657,2.86792,1.01613,-1.09356,18.1716,8.21609,3.97583,3.40173,2.56663,-0.146845,1.21706,0.827484,35.136,-872.056,-467.016,10220,10640,-6860
13.5792,7.21876,3.24776,1.49826,1.06326,1.79847,-2.8249,-3.40268,15.8614,4.78857,1.2409,6.51201,0.834555,0.395489,-8.34017,-3.55682,34.16,-875.96,-460.184,10500,10080,-7000
-7.46539,-10.1219,-6.01752,1.04174,-2.20828,-1.13443,4.04493,-2.89918,-13.7078,-8.20304,-4.31067,-5.55608,-4.02989,-2.26973,4.62159,0.925962,40.992,-882.792,-453.352,9380,8680,-7140
-17.3232,-18.9571,-8.39979,0.92394,-2.4368,-1.546,6.93588,-0.427708,-30.3978,-14.4032,-6.77575,-10.2505,-4.26216,-3.46338,10.2071,3.72264,43.92,-884.744,-452.376,8260,7980,-7280
-15.1739,-19.4302,-5.89408,-8.63346,-8.99805,-2.56614,-9.54429,-3.53932,-19.576,-2.11491,5.38736,0.696924,8.85845,2.96883,-4.91143,3.71117,40.992,-883.28,-437.736,7560,7280,-7280
-8.88511,-15.0587,-6.57793,-13.7288,-13.577,-4.75526,-12.4309,-2.4529,-0.0794221,6.56782,11.6524,3.81137,12.5456,4.52584,-4.64265,7.55804,47.336,-897.92,-446.032,5040,6440,-7140
-6.21474,-1.14122,-4.48734,1.22511,-0.934635,-2.55254,7.81291,3.80634,-8.82477,-10.3362,-6.83746,-6.35134,-5.5359,-4.72013,8.21717,6.05257,56.12,-916.952,-485.072,7840,6020,-7420
-4.62853,-1.61314,-2.17151,-0.157928,-2.23812,-1.31339,2.5704,2.29557,-9.94851,-7.56471,-4.15656,-4.1529,-3.74202,-2.50788,2.27287,3.2421,40.016,-903.288,-447.496,17080,8260,-6020
3.75495,5.43243,1.25918,-1.15675,-2.98691,-0.982928,-6.46571,-2.26859,3.85119,1.56684,1.37299,0.499797,0.82111,-1.13321,-5.82321,-2.23367,47.824,-878.4,-442.128,17500,8400,-5600
11.0042,12.5935,3.48973,3.8599,1.35967,0.897669,-3.0121,-0.873897,13.4893,3.09504,-1.82655,-1.48403,-3.74031,-2.74021,-3.83033,-3.89443,47.824,-885.72,-451.888,14980,6300,-5600
19.3459,25.7419,11.0876,13.0739,10.3396,3.83402,4.50898,1.43453,15.8014,1.15844,-7.93666,-0.908212,-9.42038,-4.19607,-3.78336,-8.33815,50.752,-882.304,-447.984,13440,4620,-4900
8.83322,19.6781,9.48994,14.0394,12.2363,5.33239,10.1584,3.79603,-0.89573,-4.23832,-11.2754,-4.6769,-12.0033,-2.93435,0.218079,-5.52904,47.824,-840.336,-480.192,12460,2100,-4620
-2.51041,11.2818,8.06142,10.4446,13.9509,6.39511,8.32323,3.41287,-15.7251,-7.83795,-12.5699,-1.55747,-9.05959,2.63239,-1.43956,-2.47465,46.36,-860.344,-483.608,8820,5740,-5740
-12.361,-2.95534,2.67579,0.570633,7.04198,4.54478,2.07352,2.2715,-22.8141,-4.06242,-4.65425,2.74116,0.586645,8.3614,-0.692703,2.05342,46.36,-865.712,-454.816,8540,6440,-5460
-6.1421,-18.0994,-6.38076,-18.1463,-13.279,-0.941723,-10.8037,-1.09624,6.92986,17.8259,19.2147,6.89548,17.0296,12.7579,0.704704,10.1616,40.016,-879.376,-453.84,6580,4900,-5040
2.77875,-8.66299,-5.87698,-17.3125,-14.0271,-3.70717,-11.6504,-4.02561,24.8395,19.6761,19.8609,6.48905,16.3191,9.04169,1.95451,6.54643,39.04,-867.176,-454.816,4760,2660,-4340
1.79814,1.23852,-4.49615,-3.10533,-4.15978,-3.61081,-1.03954,-3.05863,13.0081,2.38464,3.11031,-0.718451,0.818304,-1.46768,3.98811,-1.96897,42.944,-874.008,-471.896,1400,1400,-4620
-9.55419,-7.69907,-8.61812,-4.38114,-6.09171,-3.73609,1.79544,0.334541,-0.762072,-4.87,0.802275,-3.78902,-0.788158,-1.97245,5.94382,1.65354,45.872,-880.84,-467.504,700,1540,-4200
-10.8796,-7.37266,-8.02226,-4.00328,-5.33421,-2.66417,3.82064,3.87174,-0.653805,-3.65871,0.692768,-1.68126,-1.51842,-1.4464,6.19301,3.11001,40.992,-867.176,-465.552,140,0,-3780
-3.72647,0.533751,-1.60766,0.246647,-0.14055,-1.26477,0.460167,-0.577233,1.00248,-1.18048,1.0335,3.23884,-2.17831,-2.17044,0.0228036,-2.84898,39.528,-862.296,-461.16,-1400,-1400,-3780
6.75399,6.94317,5.12706,-1.15464,1.67035,-1.44022,-7.11502,-6.61708,10.1606,7.29487,5.2771,10.8328,3.64906,1.46072,-9.80416,-6.90432,40.504,-866.688,-469.456,-5180,-3500,-3780
0.301312,8.48875,4.64163,9.46146,10.926,0.5191,6.03903,-1.09487,-12.2841,-9.56677,-11.7533,-0.880197,-6.41009,-4.60484,-2.65532,-7.41514,35.624,-868.152,-475.8,-7560,-4900,-4340
-14.6702,-7.98897,-0.399687,5.60526,7.69652,1.84976,8.86287,5.96669,-33.2044,-15.2193,-12.2422,-6.75012,-3.80699,-2.26207,5.02583,2.48495,34.648,-872.544,-474.336,-8120,-5180,-4200
4.11258,-4.60416,1.38396,-7.23501,-5.9759,-0.799588,-10.4719,3.00811,7.87676,10.4592,10.5693,8.25836,10.9857,4.12372,-7.80941,3.06246,32.696,-881.328,-473.36,-8960,-6020,-4620
8.7808,-4.53202,-0.585207,-10.1971,-12.1903,-2.22264,-13.5709,0.275158,20.9721,15.0854,15.8295,8.12239,12.8697,3.27504,-6.60602,2.23526,30.256,-876.448,-471.896,-9100,-6440,-4620
2.16165,-6.54309,-2.09463,-4.23832,-7.64778,-1.11073,-2.76159,1.30362,9.17179,2.48456,5.01497,0.488696,4.66126,0.0692901,1.96508,1.6779,26.352,-877.912,-473.848,-9520,-6300,-4620
4.73005,-0.359594,-1.00844,2.8389,-1.37941,-0.390323,3.47428,0.894399,4.9328,-4.29152,-2.43473,-4.0711,-1.95183,-4.15256,4.97243,-2.65539,30.256,-881.328,-472.872,-9940,-6580,-4760
9.64518,9.90545,3.82267,10.3383,6.6158,-0.0532681,4.99685,0.796477,-0.56624,-8.35806,-8.96023,-4.69864,-8.11734,-7.81743,-0.701853,-7.33155,24.4,-878.888,-470.92,-10500,-7000,-4900
-1.25952,2.71281,2.44816,8.59983,7.5391,2.07704,6.15342,3.13722,-14.3201,-10.4709,-9.62621,-6.4123,-7.14848,-3.74751,-1.95667,-2.46151,21.472,-881.816,-471.896,-11200,-7420,-5460
-2.06126,-1.20207,0.620446,6.77805,5.25804,1.91722,5.55343,1.69381,-11.6469,-5.65551,-4.81173,-8.01213,-6.44102,-3.46674,0.899796,-0.522339,20.008,-885.72,-474.336,-11620,-7560,-5880
4.78358,1.0714,2.52139,2.59459,1.64484,1.02894,0.895905,-0.532368,1.22261,4.49011,4.67613,-3.10641,-0.530778,-1.05182,1.32804,-0.0446031,15.128,-881.328,-474.336,-11060,-7700,-6300
9.46241,5.82164,6.73968,4.52774,6.3563,3.93998,4.75991,0.333797,3.92786,5.25843,2.76606,0.030754,-0.978133,0.873628,1.63216,0.915003,14.152,-877.912,-474.336,-11060,-7280,-6720
13.5899,14.7468,7.34766,9.25013,11.0159,4.46926,9.6226,2.00894,7.67174,0.390284,-2.96459,0.821283,-7.35573,-2.63502,2.51037,0.00609818,15.616,-877.424,-482.632,-10920,-7420,-7000
19.3639,25.9911,9.52756,18.7517,17.7989,4.50565,16.0757,4.06323,8.07406,-6.57719,-13.6824,-2.13308,-16.053,-9.83652,1.85828,-6.77608,16.592,-874.008,-476.776,-10500,-6720,-7700
6.60005,18.1247,8.04537,19.4897,16.6906,4.06885,12.2832,2.91445,-12.9875,-13.1235,-18.9131,-5.5927,-17.5325,-9.28789,-3.97948,-9.13096,18.056,-872.544,-474.336,-10640,-6160,-8120
-15.0656,-13.4646,-2.18356,-2.4693,-0.178023,2.67611,3.57063,2.4291,-23.1594,-4.06839,-3.84587,-3.13873,0.691497,5.28889,1.09581,8.09093,19.52,-873.52,-480.192,-11620,-5180,-8820
-2.46085,-7.88296,-2.53619,-5.75935,-4.15258,-0.199817,2.04444,0.542475,3.21839,6.19675,1.90635,-0.372693,4.05351,4.2881,5.73009,8.86855,22.448,-875.472,-482.632,-12180,-4620,-9100
2.2151,1.07277,-0.784344,-3.98551,-3.99552,-2.10601,-2.56692,-3.68326,9.94137,6.52879,1.23506,0.611443,2.7225,1.66632,2.78519,1.94428,23.912,-872.544,-486.048,-11900,-4060,-9380
-6.21025,-8.41361,-6.32272,-9.45494,-10.3725,-3.91139,-9.56709,-5.6593,4.57466,4.89086,4.91676,0.514418,6.74652,2.5588,-2.24281,0.933335,26.84,-875.96,-483.608,-11760,-3500,-9380
-5.93869,-8.7831,-10.8743,-13.0439,-17.8865,-7.0155,-14.5966,-7.26696,13.2389,7.5482,9.9626,2.38047,6.75499,-0.506234,-1.97622,1.37317,29.28,-875.96,-487.512,-11340,-3500,-9240
-10.5581,-14.008,-12.6982,-18.5043,-20.1164,-6.23461,-17.3006,-8.39738,12.9776,10.1805,14.4194,4.20048,10.8229,3.58801,-0.00235447,6.77274,30.744,-872.056,-488.488,-11060,-3080,-9240
-14.3984,-18.8091,-10.233,-24.4125,-19.5201,-4.25975,-22.8298,-10.1471,10.7009,13.8768,20.3281,10.9905,18.6767,13.1561,-4.13922,8.73725,31.232,-868.64,-488,-10500,-2940,-9380
-17.7631,-14.6111,-3.82937,-17.547,-5.95373,0.524814,-14.9874,-4.579,-6.50388,1.94594,8.96676,11.5901,14.1542,16.428,-4.54774,8.60182,33.672,-868.64,-490.44,-10360,-2800,-9380
-17.7189,-6.38863,-0.904968,-2.54158,7.49229,3.14899,0.568023,2.4747,-22.8302,-16.2966,-9.76748,3.41786,1.24263,8.65891,-0.0614143,3.11415,36.6,-870.104,-488.488,-10360,-2800,-9380
-13.9775,-3.50488,0.20223,2.80829,9.0418,2.35498,5.37659,4.62326,-22.0307,-17.1359,-13.6539,0.650492,-2.74934,4.48741,1.67957,0.627452,38.552,-868.64,-489.952,-10220,-2940,-9380
-11.6575,-10.3655,-5.16767,-5.78167,-3.91672,-1.46768,-3.11402,1.47429,-9.33544,-4.52038,-0.872371,0.0129852,3.87802,4.13685,2.52505,2.26892,39.528,-870.104,-489.464,-9940,-2940,-9100
-3.30161,-10.1074,-7.18617,-10.0542,-13.1914,-5.39217,-11.0501,-2.3756,4.91032,6.2959,8.65885,0.485943,6.88619,0.963614,0.111348,-1.04996,44.896,-864.248,-492.392,-9660,-2380,-9100
-0.0560704,-8.52623,-6.58977,-13.1278,-17.6299,-5.94914,-17.2559,-4.78678,12.6904,13.7473,14.0492,3.09236,11.4628,1.48123,-6.5035,-3.79416,41.48,-868.64,-488.488,-10220,-2240,-8960
2.73756,-4.28926,-4.95678,-10.5451,-13.8495,-5.51141,-12.7047,-4.28287,14.5017,13.4613,11.8845,3.07332,10.2453,-0.219832,-4.78412,-5.51181,41.48,-868.152,-489.952,-10080,-2100,-8540
9.91657,11.5324,3.58154,10.0748,5.76043,-1.84308,6.5519,1.53502,0.184114,-1.83675,-6.28899,-4.9498,-7.46102,-9.14331,-0.479512,-10.5578,44.896,-867.664,-490.44,-10360,-1680,-8260
3.05634,12.2425,8.2086,21.5044,16.0387,1.71991,19.1799,3.20714,-24.1156,-13.7726,-13.9171,-13.9352,-16.3394,-13.732,3.31694,-11.5485,44.896,-871.08,-490.928,-10080,-1120,-7700
3.10159,2.0493,5.87869,14.2594,9.76667,0.974173,15.3427,1.61505,-15.8663,-5.48812,-1.84517,-10.9252,-9.43797,-9.64481,4.70411,-4.37231,46.36,-870.592,-493.368,-9800,-840,-7000
15.655,10.4151,5.9817,12.879,7.60443,1.90088,13.0095,4.37299,8.28142,-0.501424,-0.64359,-5.62334,-9.46747,-8.69635,2.93044,-2.05222,46.36,-867.664,-487.512,-9100,-140,-6580
17.9101,17.4075,7.97795,19.1593,13.692,5.05968,18.5908,9.15423,9.36851,-5.47551,-9.19242,-5.55855,-14.5876,-10.1888,4.11694,-2.07999,43.432,-870.592,-486.048,-9100,140,-5740
21.0773,16.3451,8.95829,13.3086,9.79085,4.00255,11.8551,6.64427,17.5336,2.11454,-3.60122,1.4603,-9.60444,-5.34685,-0.320622,-1.57539,52.704,-874.008,-467.016,-8960,280,-5320
26.0537,21.1473,12.383,12.9973,13.4777,4.83525,10.9291,4.37401,19.6066,5.42767,-3.04402,4.92725,-8.18816,-3.04086,-0.643125,-3.00167,38.552,-868.152,-489.952,-5740,280,-5320
21.0435,21.0088,13.986,13.7187,16.1515,5.69516,10.835,4.33822,11.4656,2.69761,-5.70863,4.66463,-6.89637,-1.18829,0.0542729,-2.80663,41.968,-866.2,-487.024,-7840,1680,-4340
16.3183,18.9676,13.8279,13.1331,15.8591,6.21982,12.8522,7.15976,5.9841,-0.623411,-6.65178,3.59251,-6.61644,-0.761232,2.05277,-0.417583,38.064,-873.032,-481.656,-9240,1820,-3920
11.2707,15.7757,9.27116,11.524,11.7395,6.28864,12.0625,4.0995,4.82205,-3.13463,-7.71569,0.920605,-8.42141,-1.57826,3.01661,-1.94772,38.552,-871.568,-482.144,-9100,2520,-3780
-12.6916,-9.91442,-6.51493,-6.76686,-7.22375,1.9271,-1.68001,2.48773,-4.2026,-1.98396,0.881934,-0.488544,3.32274,4.93572,2.96169,6.32848,40.504,-868.64,-478.728,-9240,3080,-3640
-16.3613,-15.8898,-9.29008,-12.5493,-12.0325,0.0436872,-9.69403,-0.484984,-5.48228,0.826552,5.6639,2.19997,8.7117,5.78722,-0.477724,6.98407,39.528,-868.64,-478.24,-9240,3640,-3780
-7.27942,-5.23681,-4.06028,-9.06626,-6.6815,-1.70958,-15.1564,-7.69054,-2.98431,2.44765,4.04493,5.91722,6.34678,4.03601,-9.40072,-0.699102,36.112,-870.104,-482.632,-9240,4060,-3640
-2.7676,2.48436,0.3944,-3.49091,1.15242,-0.566327,-8.31394,-4.25124,-4.25235,-0.736134,-1.52907,5.99776,2.94583,4.01929,-8.27324,-0.234035,34.16,-867.664,-483.608,-9240,4200,-3640
-11.2769,-2.93476,-1.59012,-3.86374,1.99703,1.95877,-3.64183,1.04983,-10.1234,-5.63803,-4.08074,1.01512,2.94187,5.50555,-3.1086,4.96094,37.576,-868.152,-484.096,-9800,4200,-3360
-21.5932,-15.0597,-9.45973,-8.70583,-4.90543,-0.987201,-3.42841,1.69459,-16.9055,-8.17362,-2.37429,-4.32607,3.36355,3.88622,3.4341,8.6995,41.48,-865.712,-482.632,-10220,4200,-3500
-21.3874,-17.2186,-10.1385,-9.97243,-7.83115,-3.33655,-5.40481,-2.56701,-15.9427,-6.50012,-1.82062,-4.69708,3.78703,3.42496,4.1795,5.09067,38.552,-861.32,-483.12,-10220,4200,-3500
-24.8309,-27.3378,-15.164,-19.4956,-17.5126,-5.51796,-12.5723,-4.75572,-10.9569,1.47776,7.95563,-4.11285,13.2817,7.44871,4.99334,9.95238,40.504,-862.784,-485.072,-10220,4340,-3500
-12.3559,-22.9919,-10.4759,-20.4175,-17.6692,-6.77528,-14.8938,-7.21217,3.80619,11.2918,14.2698,1.10003,16.9035,7.16415,2.76661,9.46005,40.504,-856.928,-488.976,-10360,4340,-3500
-4.23351,-9.88233,-4.77192,-7.59709,-6.50034,-5.19812,-4.93923,-4.37717,1.63614,3.7749,3.32277,-3.51129,6.385,0.59215,3.62711,2.03658,39.04,-862.784,-487.512,-10640,3920,-3220
5.64265,4.1345,1.46217,3.41644,0.507262,-3.7397,1.11904,-3.76466,1.3706,-0.6368,-1.45309,-5.46478,-1.168,-5.28637,1.87933,-6.78582,39.528,-863.76,-486.536,-10780,3640,-3220
13.5995,10.1012,5.8673,6.22357,3.36231,-1.27321,-0.187995,-4.61866,6.0502,2.45714,0.680667,-1.79386,-1.17945,-4.98893,-1.95951,-10.9512,41.968,-866.688,-488.488,-10780,2940,-2940
7.78603,4.10916,2.15121,1.84186,-0.100324,-0.670251,-2.61597,-3.81761,5.68235,3.64241,2.71012,-0.546543,0.692665,-2.66448,-2.26187,-6.31155,40.992,-866.2,-486.048,-10920,2240,-2660
7.18546,7.23881,1.25435,3.55661,2.3529,-0.681052,-0.775043,-1.12097,5.69102,0.414771,-0.205332,-1.78943,-3.10078,-4.05787,-1.83752,-5.4321,44.408,-870.592,-484.096,-11060,1960,-2520
6.29934,8.20021,1.4015,4.78282,4.84063,1.45941,3.752,0.300652,2.12191,-2.62812,-1.99956,-0.192279,-5.71457,-2.61165,-2.24775,-3.19306,40.016,-870.592,-485.56,-11340,1120,-2240
-1.47732,-3.05323,-2.19113,-2.94889,-2.55229,0.46268,-1.39057,-1.41565,-0.662122,1.29005,4.653,4.35551,0.436476,2.28907,-4.66057,3.23909,40.016,-872.544,-484.096,-11760,840,-2100
-0.335462,-2.77748,-3.42169,-1.91765,-4.48136,-0.20777,0.476436,1.11755,1.58049,2.06674,3.3696,3.45102,-1.78426,-0.0851511,-1.50585,3.39903,42.944,-869.616,-486.536,-11760,280,-1680
3.44609,2.69571,0.683871,2.91776,-1.07008,0.273625,1.87241,1.27132,2.83128,1.78257,-0.501878,3.76116,-5.23402,-1.4639,-2.87622,-0.859516,41.48,-871.08,-481.656,-12180,140,-1260
8.9541,10.3412,7.09035,11.9434,8.78065,2.79601,9.56354,3.22246,-0.0937304,-4.64508,-7.48151,0.969576,-11.2978,-3.74034,-0.600414,-6.87096,37.088,-869.616,-484.584,-12040,140,-1120
9.77224,11.0142,9.814,11.7486,8.62563,3.81697,9.56833,2.79635,1.85626,-2.47635,-3.68957,1.76036,-8.40136,-2.45465,-1.00221,-7.88859,40.992,-872.544,-483.608,-12460,420,-560
3.60938,4.7937,3.95082,4.72752,1.4372,1.74139,5.2998,2.34419,2.74671,-0.140327,0.86434,0.399679,-3.48107,-1.37592,0.722826,-3.23037,38.064,-871.568,-483.608,-12740,840,-560
3.3721,2.00422,1.22335,-0.676825,-2.97915,0.0338594,-1.82076,-0.729369,6.09477,3.27462,3.89613,3.56165,1.81453,0.461528,-1.23533,-2.7265,38.064,-870.104,-485.56,-13440,1400,-140
-1.74867,-3.29343,-1.36312,-3.88066,-6.10176,-1.49209,-7.09174,-0.189892,2.20871,3.18772,2.91915,3.71543,4.81698,1.80845,-3.63841,-0.357227,33.184,-871.568,-483.608,-14140,1960,560
-3.76825,-4.88457,-3.69444,-3.17029,-4.9391,-2.52928,-4.81617,2.57678,-0.630526,0.454286,0.547196,-0.358167,3.35833,-1.68177,-0.59853,1.56017,33.184,-872.056,-482.144,-14700,2240,840
-0.770148,-1.91246,-1.59797,-0.0392728,0.590749,-0.367082,1.49973,5.60793,-0.376923,-0.076757,-3.79465,-0.862286,1.2987,-1.68712,3.16334,3.15363,30.744,-873.52,-482.144,-15540,2100,1260
2.95484,2.40593,0.961426,3.82341,4.54555,1.88594,8.35674,7.53187,-1.4694,-1.62674,-6.99006,-2.08591,-2.51688,-1.33523,6.15303,4.15876,30.256,-874.496,-478.728,-15680,2100,1820
-0.112687,-0.820273,0.108271,1.3426,3.33198,2.52512,5.74739,5.33135,-1.14812,-0.787378,-3.61246,-1.07063,-0.542498,0.911121,5.89605,5.46281,33.184,-876.448,-478.728,-16240,1960,2520
-8.32838,-8.2348,-3.44053,-4.64123,0.266043,1.8264,1.18421,3.0746,-3.4192,-2.97685,-2.02344,-0.438303,3.47296,4.54942,6.78379,10.0353,30.256,-873.032,-477.752,-16520,1400,3360
-6.71283,-5.96618,-3.70264,-5.50046,-1.9521,-2.08145,-5.50932,-2.45005,1.15106,-3.25831,0.230969,0.0388369,3.76326,2.51765,1.54386,4.90517,26.84,-874.008,-473.848,-16520,840,3640
-5.38585,0.961972,0.965436,0.563762,3.21406,-0.472498,-1.09027,-2.01536,-0.809304,-5.6605,-2.17711,-2.29378,-1.46369,0.301267,0.391474,1.58462,27.328,-872.056,-477.264,-16520,-560,4200
-8.09574,-1.8644,0.465396,-1.43006,1.85232,0.289633,-1.765,-3.27329,-4.64626,-1.50736,3.7124,-2.39028,0.391063,1.18616,-0.232995,2.6603,31.232,-873.032,-476.288,-15960,-1400,4620
-5.92903,-3.92005,-0.405762,-4.53905,1.48828,-0.848765,-2.17303,-6.22999,-3.54329,3.33774,5.46567,1.04835,2.15416,4.40152,1.3195,3.3753,31.72,-870.104,-481.168,-16520,-2240,4900
-1.67494,-0.561669,1.74826,-3.03015,3.77674,0.389026,-0.174762,-4.98759,-1.65571,3.59078,3.81402,4.10913,3.2074,5.84651,1.18735,2.47816,33.672,-866.2,-480.192,-18760,-2800,4900
2.17241,1.98196,3.13315,-0.592244,4.64931,2.80453,0.930407,0.124281,0.687244,3.28453,3.94273,3.36947,2.49872,4.21148,-0.558445,-1.01223,34.648,-870.592,-485.56,-19880,-3220,5040
6.50587,4.60051,4.10844,0.674687,4.58154,2.98133,1.4556,2.54595,3.03515,4.11745,3.12877,3.60715,1.27541,2.80409,-1.59169,-2.55844,36.112,-866.688,-484.096,-20860,-3920,5040
5.22336,2.97794,1.38932,0.782406,0.714994,0.442558,0.103014,0.938193,1.22088,2.84488,1.16926,-0.62192,-0.896639,-0.806637,-3.49815,-5.45995,38.552,-867.664,-486.048,-21000,-4340,4760
2.04237,1.03849,0.543483,2.66335,-0.573017,-0.099095,2.84158,2.28065,-3.26163,0.085175,-1.0637,-6.74149,-2.14863,-3.30808,-1.13488,-4.38691,37.088,-866.2,-487.024,-21280,-5180,4900
5.83284,6.56157,3.27795,6.70199,1.74857,0.0636888,1.92931,0.915081,-3.1057,0.00883382,-4.01036,-7.0644,-3.78258,-5.96461,-5.20933,-8.34363,35.624,-868.64,-482.632,-21840,-6020,5040
