-15737.282126,-1578.882525,-3286.846374,-20091.893684,-3970.206257,-7847.183388,-9453.357393,-6222.032752,5360.752983,15477.085468,14192.754232,14749.692649,20710.791136,17917.180707,8726.433960,11892.223286,26.352001,-841.799988,-537.288025,8960.000000,-4900.000000,-1540.000000
-15735.002248,-1577.273199,-3287.785147,-20051.749951,-3970.899161,-7849.016231,-9450.071687,-6220.512834,5340.591710,15441.456788,14153.392810,14716.701474,20670.178016,17876.813457,8693.778061,11866.898759,22.936001,-842.288025,-538.263977,8820.000000,-4200.000000,-980.000000
-15732.767073,-1577.720234,-3284.857069,-20034.516756,-3972.106155,-7846.490484,-9450.809294,-6222.256270,5332.232157,15426.257602,14137.299554,14702.239895,20655.537624,17860.831959,8673.169753,11853.934747,18.544001,-845.703979,-534.848022,8820.000000,-3920.000000,-700.000000
-15985.162972,-1590.863060,-3403.857756,-20189.973139,-3860.056860,-7830.978373,-9524.950030,-6093.018483,5429.462246,15600.578857,14393.674063,14856.489284,20746.241003,17927.060178,9052.590615,12120.993390,30.256001,-862.296021,-505.567993,3920.000000,-2100.000000,-3220.000000
-15987.912236,-1592.047702,-3399.454462,-20196.835124,-3858.134610,-7828.787902,-9525.352362,-6094.001960,5429.283432,15606.435014,14398.680854,14859.998507,20754.555852,17937.587850,9057.932682,12122.513309,28.792000,-864.736023,-508.007996,3920.000000,-1260.000000,-3500.000000
-15992.337882,-1594.841670,-3396.258163,-20229.871002,-3857.955796,-7826.999763,-9527.006391,-6092.526745,5441.219263,15636.743979,14428.073398,14884.384261,20786.697660,17972.165998,9086.229990,12142.652231,33.184002,-864.247986,-507.520020,4200.000000,-420.000000,-3500.000000
-15994.215428,-1596.495699,-3394.157099,-20271.042916,-3857.106430,-7824.876347,-9528.749827,-6088.481079,5461.827572,15674.361965,14465.736087,14918.180098,20829.188327,18015.483679,9122.283354,12169.094344,32.208000,-862.296021,-507.032013,4200.000000,140.000000,-3500.000000
-15994.953036,-1596.853327,-3393.911230,-20300.524867,-3855.944139,-7825.099865,-9531.946126,-6087.408195,5476.512668,15702.525163,14495.285093,14942.834072,20860.056086,18045.435017,9144.970375,12189.277970,30.743999,-857.903992,-508.984009,3920.000000,420.000000,-3500.000000
-15992.762565,-1597.278011,-3396.772253,-20302.737689,-3857.821686,-7826.955059,-9534.360115,-6088.056396,5478.904304,15705.699111,14498.973131,14946.522110,20861.643059,18046.105569,9144.165712,12192.921304,33.672001,-860.832031,-508.007996,3780.000000,1260.000000,-3220.000000
-15994.103669,-1599.379074,-3402.561355,-20280.050669,-3863.610788,-7832.811216,-9537.422304,-6087.363492,5470.723566,15684.129677,14475.749669,14927.746645,20836.877327,18015.573086,9120.584621,12178.124449,33.672001,-858.880005,-509.472015,3500.000000,1260.000000,-3080.000000
-15994.148373,-1599.088502,-3407.612849,-20242.164462,-3868.081137,-7837.147455,-9538.964574,-6089.106928,5453.557426,15647.294002,14437.349372,14896.878886,20796.979463,17971.562501,9085.492383,12150.050658,33.672001,-854.000000,-513.864014,3080.000000,1680.000000,-2660.000000
-15992.360233,-1592.718255,-3404.505957,-20206.714595,-3863.275512,-7833.302955,-9530.023876,-6087.005864,5436.793618,15613.118185,14403.665293,14870.682641,20763.742419,17940.135949,9062.537141,12127.788321,34.160000,-853.512024,-512.400024,2800.000000,1680.000000,-2240.000000
-15991.957902,-1588.784348,-3399.521518,-20199.740851,-3857.776983,-7828.564385,-9526.358190,-6088.414024,5430.244557,15608.066691,14397.853839,14865.340574,20759.808512,17937.900774,9061.061926,12121.462777,34.647999,-852.048035,-512.888000,2660.000000,1820.000000,-2100.000000
-15997.165858,-1594.037008,-3396.056997,-20226.965276,-3857.732279,-7826.105693,-9531.119112,-6092.280876,5436.301879,15631.156043,14423.714807,14883.713708,20788.172875,17967.896815,9081.647883,12135.030286,33.672001,-850.096008,-512.888000,2380.000000,1680.000000,-1260.000000
-16004.117251,-1602.888298,-3395.252335,-20272.808704,-3860.280378,-7824.853995,-9538.808112,-6095.141899,5453.669185,15670.383354,14466.205474,14917.822470,20833.256344,18014.120223,9113.834395,12160.287757,35.624001,-852.536011,-515.328003,1960.000000,1680.000000,-1120.000000
-16011.538030,-1612.164272,-3399.521518,-20316.796937,-3866.561218,-7827.893833,-9548.397010,-6097.980571,5471.841153,15707.241381,14507.198573,14949.047857,20874.271795,18054.710991,9143.115180,12183.868847,35.136002,-851.559998,-514.351990,1680.000000,1540.000000,-700.000000
-16008.721710,-1611.381961,-3405.064750,-20330.744425,-3871.165677,-7833.146493,-9553.180284,-6097.198259,5487.956761,15721.568849,14523.247126,14963.308270,20885.380612,18063.584633,9149.686593,12190.931999,38.063999,-852.536011,-514.351990,1820.000000,1400.000000,-280.000000
-15997.523486,-1599.513185,-3401.421416,-20304.659939,-3864.191933,-7833.682934,-9544.530159,-6093.532573,5487.867354,15707.330788,14506.349207,14954.121703,20862.201853,18041.948145,9136.811988,12178.884408,35.136002,-853.023987,-518.744019,1820.000000,1260.000000,0.000000
-15993.075489,-1594.282877,-3399.722683,-20264.918538,-3860.481544,-7833.325307,-9536.952917,-6090.224515,5471.103546,15674.563131,14470.966395,14927.590183,20823.890963,18003.704310,9108.022941,12158.432562,35.136002,-853.023987,-515.815979,1820.000000,840.000000,420.000000
-15995.623588,-1599.535537,-3401.779044,-20234.721331,-3863.096698,-7833.817045,-9537.265842,-6089.106928,5453.490371,15643.784779,14441.260927,14899.181116,20793.581998,17970.579025,9080.172668,12140.797036,31.232000,-853.512024,-515.328003,1680.000000,700.000000,700.000000
-15996.607065,-1603.692961,-3402.427244,-20218.404558,-3864.661320,-7832.677106,-9536.505882,-6088.995169,5442.314499,15626.708046,14424.653581,14882.037328,20776.840541,17954.038734,9064.682909,12128.771797,35.136002,-854.000000,-515.815979,2100.000000,140.000000,1120.000000
-15993.008434,-1601.256621,-3397.912192,-20224.998322,-3858.268721,-7828.094998,-9530.448560,-6086.648236,5444.348507,15633.122996,14431.247345,14886.775897,20785.043631,17965.683993,9072.885999,12134.739713,30.256001,-853.023987,-513.375977,2240.000000,140.000000,1400.000000
-15995.333015,-1605.235232,-3395.788776,-20263.420971,-3857.866389,-7826.440969,-9532.996658,-6090.448033,5460.307653,15669.221064,14465.221997,14913.150956,20824.002722,18004.531324,9102.189136,12159.594853,32.208000,-854.488037,-516.791992,2100.000000,-140.000000,1400.000000
-15998.842239,-1609.459711,-3396.682846,-20305.308140,-3859.542770,-7825.993934,-9537.265842,-6093.845498,5478.144345,15706.704939,14503.398776,14944.465750,20864.302917,18044.205671,9135.381476,12187.646292,31.720001,-855.952026,-514.840027,2520.000000,-280.000000,1680.000000
-15997.881114,-1608.185662,-3401.041436,-20322.943666,-3860.213323,-7829.190234,-9540.305679,-6095.678341,5487.845002,15721.635905,14517.681541,14960.335488,20880.127952,18058.153159,9151.385325,12197.749281,27.328001,-856.928040,-519.231995,2800.000000,-420.000000,1680.000000
-15993.522524,-1600.876641,-3403.142500,-20305.732823,-3857.642872,-7831.626574,-9534.740095,-6093.398463,5482.569990,15705.497945,14501.431823,14951.998288,20862.760647,18039.288287,9144.188064,12189.456783,28.304001,-856.440002,-513.375977,2800.000000,-280.000000,1540.000000
-15988.225161,-1591.555964,-3403.701294,-20264.650317,-3854.535980,-7832.274775,-9522.938373,-6086.514126,5465.582665,15667.075296,14461.824532,14921.756377,20822.482803,18000.910342,9121.635153,12169.295510,24.888000,-854.976013,-514.840027,2800.000000,-700.000000,1400.000000
-15985.341786,-1590.393673,-3407.277573,-20223.768976,-3856.078250,-7836.767475,-9519.987943,-6085.418890,5444.683784,15628.272668,14421.837261,14889.100479,20780.483875,17959.313745,9088.822793,12143.009858,21.960001,-858.880005,-513.375977,2520.000000,-420.000000,1260.000000
-15984.224198,-1592.539441,-3408.149291,-20197.572732,-3855.988843,-7838.130932,-9517.372789,-6085.307131,5429.305783,15603.037548,14396.356272,14867.016955,20753.393561,17932.782225,9065.420516,12124.346152,20.984001,-857.903992,-510.936005,2660.000000,-140.000000,980.000000
-15986.615835,-1597.635638,-3407.165814,-20204.680586,-3857.508762,-7835.940461,-9520.434978,-6087.832879,5428.501121,15607.306732,14402.748871,14867.039307,20761.037858,17938.012533,9065.375813,12124.860242,20.984001,-856.928040,-507.032013,2380.000000,-280.000000,560.000000
-15990.594446,-1603.514147,-3405.712951,-20239.191680,-3859.073384,-7834.711115,-9527.699295,-6093.890201,5442.113333,15635.872261,14433.147244,14890.195714,20795.392489,17971.473094,9086.744080,12141.109960,19.520000,-858.392029,-510.936005,2100.000000,-280.000000,280.000000
-15988.851009,-1600.027275,-3402.561355,-20276.094410,-3856.055898,-7833.772341,-9528.638068,-6095.410120,5463.056918,15670.942148,14466.540750,14924.080959,20831.602315,18010.879220,9119.019999,12163.551112,21.472000,-857.903992,-509.472015,1820.000000,140.000000,0.000000
-15986.235855,-1596.361589,-3401.644933,-20301.441288,-3855.273587,-7834.331135,-9530.649725,-6095.432472,5477.272627,15695.640826,14492.915808,14948.131436,20857.731504,18037.477796,9142.779904,12181.208990,20.007999,-859.856018,-510.447998,1960.000000,280.000000,0.000000
-15984.313605,-1593.768787,-3403.835404,-20299.966073,-3857.553465,-7835.895757,-9527.900461,-6091.967951,5479.373691,15693.651520,14494.011044,14948.556119,20854.937536,18034.639124,9145.238596,12182.907722,21.960001,-859.367981,-508.496002,1820.000000,280.000000,-280.000000
-15982.369004,-1590.773653,-3406.808186,-20270.439419,-3857.709927,-7838.063876,-9522.670153,-6086.849402,5468.175467,15666.516503,14464.551445,14926.584354,20822.773376,18004.486621,9123.177424,12169.429620,17.568001,-858.392029,-508.984009,1680.000000,280.000000,-420.000000
-15978.837428,-1588.538478,-3408.462215,-20228.507546,-3856.614692,-7839.896719,-9517.685713,-6084.122489,5447.924787,15628.250316,14424.944153,14893.056738,20780.796800,17962.085362,9088.465165,12146.228510,21.960001,-857.903992,-510.936005,1540.000000,420.000000,-560.000000
-15978.926835,-1587.666760,-3408.037532,-20194.979929,-3857.687576,-7839.494388,-9513.908269,-6083.787213,5431.943289,15597.539019,14393.607008,14865.832313,20748.565584,17929.608277,9060.167856,12124.010876,23.912001,-856.928040,-512.400024,1820.000000,560.000000,-560.000000
-15984.961806,-1591.243040,-3408.752788,-20188.609682,-3856.726451,-7838.153283,-9511.807205,-6083.675454,5422.130873,15588.419508,14384.331034,14856.176359,20740.943639,17923.975637,9054.110533,12117.774739,23.424000,-855.463989,-508.496002,1820.000000,700.000000,-700.000000
-15985.900579,-1592.338275,-3405.265916,-20213.531877,-3854.200703,-7834.152321,-9511.494280,-6082.490812,5429.752818,15610.055996,14409.454395,14873.811886,20765.977593,17951.133007,9072.416612,12130.962268,21.960001,-855.952026,-511.424011,1960.000000,560.000000,-560.000000
-15985.654710,-1590.639542,-3401.421416,-20253.206224,-3853.530151,-7832.319478,-9515.696408,-6087.274085,5449.936444,15649.193901,14450.179273,14908.188869,20807.440079,17992.729603,9103.060854,12152.486998,22.936001,-856.928040,-509.959991,1960.000000,420.000000,-560.000000
-15987.174629,-1593.254697,-3401.197899,-20288.723146,-3855.698270,-7831.939498,-9521.418455,-6088.816355,5466.879066,15684.017919,14485.562084,14939.280145,20844.812196,18027.039531,9130.665258,12173.832914,23.912001,-855.952026,-514.840027,2100.000000,140.000000,-560.000000
-15988.471030,-1594.059359,-3404.036570,-20299.340224,-3857.307596,-7834.241728,-9524.123016,-6084.904800,5474.009272,15694.366776,14493.564009,14948.824340,20855.764551,18035.354380,9137.147264,12182.058356,26.840000,-856.440002,-511.912018,2240.000000,140.000000,-420.000000
-15982.234893,-1586.571525,-3404.975343,-20274.708602,-3854.513628,-7836.767475,-9519.585612,-6081.932018,5466.722604,15674.227855,14469.938215,14933.513395,20829.590658,18011.058034,9119.914069,12169.876655,24.888000,-856.440002,-512.888000,2100.000000,-280.000000,-280.000000
-15985.386489,-1593.165290,-3410.451521,-20244.913726,-3860.235674,-7840.857844,-9521.373751,-6083.966027,5448.327118,15644.164758,14442.713790,14905.394900,20795.906579,17978.111563,9089.403938,12153.090495,25.375999,-854.976013,-511.424011,2380.000000,-140.000000,-280.000000
-15991.309701,-1605.123473,-3413.848986,-20219.924476,-3866.382404,-7843.361240,-9525.441769,-6088.481079,5434.044353,15618.996694,14419.892659,14879.377470,20769.308003,17950.507158,9060.838409,12137.623088,24.400000,-856.928040,-510.936005,2520.000000,-140.000000,-140.000000
-15995.265960,-1610.867871,-3413.983096,-20208.748604,-3866.181238,-7842.333060,-9523.877147,-6088.771652,5426.288298,15606.636179,14407.286275,14867.307528,20757.394523,17937.252574,9050.400144,12129.263536,27.816000,-856.440002,-508.496002,2380.000000,-560.000000,-140.000000
-15997.747004,-1614.757075,-3411.099721,-20225.288895,-3865.533038,-7839.606147,-9525.508824,-6090.068053,5430.535129,15622.997656,14421.278467,14878.796325,20773.376021,17954.843397,9062.917121,12136.952536,25.375999,-854.000000,-509.959991,2660.000000,-560.000000,0.000000
-15995.914161,-1613.214804,-3404.193032,-20261.051686,-3864.661320,-7836.186330,-9530.783836,-6093.644332,5447.701269,15662.180264,14459.410543,14908.166517,20811.172820,17994.026005,9086.632322,12155.102152,26.352001,-856.928040,-509.472015,2660.000000,-700.000000,0.000000
-15998.618722,-1613.304211,-3403.589535,-20297.417974,-3865.913018,-7836.722772,-9533.555452,-6095.007789,5462.162848,15694.187962,14495.039224,14935.525052,20848.209661,18029.922906,9116.069569,12176.224551,26.352001,-855.952026,-508.496002,2660.000000,-840.000000,-140.000000
-16001.412690,-1612.723066,-3407.054056,-20311.164297,-3865.041299,-7837.728600,-9529.330972,-6090.783309,5465.582665,15704.402710,14507.533849,14944.845729,20861.955984,18043.311601,9136.007325,12189.613246,29.768000,-858.880005,-510.936005,2940.000000,-840.000000,-140.000000
-15999.065757,-1610.622002,-3412.910213,-20297.306215,-3866.985901,-7840.120237,-9524.882975,-6087.922286,5462.073441,15690.790497,14494.011044,14935.636811,20845.214527,18026.324275,9130.151168,12185.254656,27.328001,-857.416016,-508.984009,2940.000000,-280.000000,-140.000000
-15993.678986,-1608.252717,-3416.285326,-20262.191625,-3869.131669,-7843.428295,-9521.016123,-6088.145803,5449.332946,15658.693392,14460.818703,14908.725310,20808.423556,17986.761688,9102.055025,12166.076859,30.743999,-856.928040,-508.496002,3080.000000,-420.000000,-140.000000
-15987.062870,-1601.748359,-3415.458311,-20217.532839,-3867.544695,-7844.948214,-9513.327123,-6085.575352,5433.016173,15620.382502,14417.903354,14874.884769,20764.323564,17942.996972,9070.248493,12141.199367,30.256001,-859.856018,-508.984009,3220.000000,-140.000000,-140.000000
-15984.850047,-1599.803758,-3412.306716,-20191.381298,-3864.996596,-7842.578929,-9510.309638,-6085.687111,5418.308725,15596.779060,14391.371833,14853.360039,20740.630715,17919.795861,9046.913272,12124.770835,29.280001,-858.392029,-506.056000,2940.000000,0.000000,-140.000000
-15981.273768,-1594.171118,-3405.668247,-20189.928435,-3856.681747,-7836.879234,-9504.542888,-6083.116660,5416.587641,15597.069633,14391.170668,14852.354211,20742.888241,17925.093225,9047.159141,12125.888422,27.328001,-859.367981,-504.592010,2800.000000,140.000000,-280.000000
-15980.871437,-1594.729912,-3402.293134,-20219.186869,-3852.099639,-7832.744161,-9504.878164,-6082.736681,5428.746990,15624.964610,14420.362046,14874.035403,20773.085448,17958.106751,9071.410784,12142.339306,27.328001,-861.320007,-506.056000,2660.000000,280.000000,-420.000000
-15986.548780,-1600.496662,-3403.634239,-20264.896186,-3854.401869,-7832.006554,-9510.890783,-6084.368358,5449.310595,15666.315337,14463.389154,14908.300627,20817.051329,18001.938522,9105.832470,12168.289681,28.792000,-859.367981,-501.175995,2380.000000,140.000000,-280.000000
-15984.179495,-1595.534574,-3400.415587,-20290.332471,-3851.473791,-7831.291298,-9510.510804,-6085.195373,5467.661377,15694.187962,14489.518343,14932.239346,20843.314629,18028.335932,9130.978183,12187.400423,30.256001,-860.343994,-505.567993,2100.000000,280.000000,-560.000000
-15977.831599,-1585.789214,-3397.666323,-20285.079811,-3846.645814,-7831.805388,-9506.688655,-6084.122489,5471.595284,15694.925570,14486.031471,14934.496872,20840.364199,18025.407854,9133.191005,12186.193429,31.232000,-861.320007,-505.080017,1960.000000,280.000000,-420.000000
-15978.680966,-1584.001074,-3402.091968,-20257.207186,-3847.159904,-7835.180501,-9505.258144,-6081.999073,5460.844095,15668.259939,14458.248253,14913.486232,20810.882248,17994.987130,9109.431101,12171.173057,30.256001,-858.880005,-500.688019,1680.000000,280.000000,-560.000000
-15980.714974,-1584.358702,-3407.568146,-20218.516316,-3850.244445,-7837.750952,-9504.788757,-6081.037948,5444.482618,15630.105511,14419.915011,14882.082031,20768.570396,17952.563519,9075.612912,12146.854359,30.743999,-858.880005,-507.520020,1540.000000,420.000000,-700.000000
-15978.904483,-1583.554039,-3407.434035,-20184.943996,-3850.512666,-7838.779132,-9502.218306,-6085.463594,5429.529301,15598.969531,14385.336862,14855.706973,20733.366398,17917.717149,9049.148446,12122.423902,31.232000,-859.367981,-504.592010,1400.000000,140.000000,-700.000000
-15979.977367,-1583.218763,-3403.477776,-20174.662194,-3847.182256,-7835.113446,-9500.027835,-6086.357663,5421.549728,15589.425336,14376.619682,14846.498054,20724.068072,17908.843506,9040.677135,12113.438501,29.280001,-858.392029,-503.615997,1400.000000,280.000000,-840.000000
-15986.749945,-1587.420891,-3400.057960,-20198.667967,-3847.495180,-7831.067780,-9503.715873,-6086.000036,5428.679935,15610.212458,14399.820793,14862.993641,20750.219613,17936.112635,9055.719859,12125.553146,30.743999,-859.856018,-508.496002,1540.000000,0.000000,-700.000000
-15992.471992,-1592.964124,-3397.576916,-20239.973991,-3850.244445,-7828.586737,-9510.868431,-6087.743472,5445.399039,15648.679811,14438.534014,14895.448374,20792.956149,17979.877350,9084.352444,12149.536568,31.232000,-857.903992,-508.496002,1540.000000,0.000000,-840.000000
-15994.885980,-1594.886374,-3396.235811,-20277.189645,-3850.020927,-7827.826777,-9517.395141,-6088.190506,5464.330967,15685.269616,14475.727317,14926.874927,20830.305914,18017.428281,9108.917011,12170.614263,31.232000,-855.463989,-508.496002,1960.000000,0.000000,-840.000000
-15994.707167,-1595.556926,-3396.615791,-20288.119648,-3848.992747,-7829.771379,-9517.462196,-6086.312960,5467.639025,15697.987759,14489.160715,14937.603764,20840.677123,18028.537098,9117.634191,12178.526780,29.280001,-856.440002,-514.840027,2100.000000,-280.000000,-700.000000
-15994.327187,-1598.641467,-3401.130843,-20270.819398,-3852.233750,-7833.973507,-9513.774158,-6082.624922,5460.799391,15682.855628,14473.916826,14924.349180,20822.169879,18008.554638,9106.681836,12170.815429,30.256001,-857.416016,-508.984009,2520.000000,-420.000000,-840.000000
-15993.589579,-1599.289668,-3406.607021,-20233.223764,-3855.877084,-7836.923937,-9507.739187,-6078.579256,5444.750839,15644.678848,14436.611764,14892.207371,20783.300195,17967.405077,9080.843220,12151.503521,27.816000,-856.928040,-509.959991,2660.000000,-420.000000,-840.000000
-15994.193076,-1596.965086,-3409.222175,-20191.001319,-3852.680785,-7836.588661,-9498.060882,-6072.924265,5421.057990,15602.814031,14393.964636,14854.879958,20739.513128,17925.383797,9051.405972,12125.933126,31.720001,-858.392029,-512.400024,3080.000000,-420.000000,-840.000000
-15997.791707,-1602.374208,-3410.116245,-20179.691336,-3857.441706,-7837.393324,-9500.184298,-6073.304245,5415.671219,15590.207647,14381.626473,14840.641897,20727.018503,17912.755062,9036.765580,12115.271344,30.256001,-859.856018,-512.400024,3780.000000,-420.000000,-560.000000
-15997.277617,-1605.145825,-3408.439864,-20199.584389,-3861.509724,-7837.348621,-9508.499147,-6081.194410,5431.071571,15607.932580,14401.899505,14851.594252,20747.313887,17930.010608,9048.410839,12121.261611,26.840000,-857.903992,-512.888000,3920.000000,-560.000000,-560.000000
-15999.512792,-1605.324639,-3406.584669,-20234.631924,-3859.945102,-7834.532301,-9512.991847,-6085.553001,5444.236749,15637.593345,14434.063665,14876.181170,20782.316718,17966.198083,9078.608045,12140.148835,26.840000,-858.392029,-510.447998,4480.000000,-420.000000,-420.000000
-15998.126983,-1604.072941,-3402.762521,-20270.551177,-3856.257064,-7831.961850,-9514.265897,-6086.223553,5459.905322,15671.769163,14469.133552,14907.339502,20821.253457,18005.313636,9111.599220,12163.975795,28.792000,-860.343994,-508.984009,4900.000000,-280.000000,-560.000000
-15993.567228,-1598.976743,-3400.750864,-20283.448134,-3850.356203,-7831.470112,-9509.482623,-6081.440280,5468.711909,15687.437735,14483.215151,14921.197584,20836.787920,18022.345665,9128.675953,12176.559827,26.352001,-859.856018,-509.472015,5320.000000,-140.000000,-420.000000
-15992.561399,-1595.221650,-3404.081274,-20271.780523,-3850.132686,-7835.426371,-9506.509841,-6077.618131,5465.180333,15676.530084,14470.720526,14912.927438,20822.974542,18008.107604,9121.098712,12171.262463,25.864000,-863.272034,-508.496002,5460.000000,-420.000000,-420.000000
-15989.722728,-1590.505432,-3408.573974,-20237.872927,-3852.010232,-7839.561443,-9504.162908,-6075.181791,5452.506894,15644.500034,14439.606898,14885.859476,20787.010585,17970.422562,9094.433080,12151.190597,27.816000,-860.832031,-506.056000,5740.000000,-140.000000,-420.000000
-15985.006509,-1585.900973,-3408.395160,-20195.471668,-3851.071459,-7841.237824,-9498.507917,-6074.175963,5438.425295,15607.172621,14400.334883,14853.538853,20744.452863,17928.311876,9062.715955,12124.457911,28.792000,-860.343994,-504.592010,5740.000000,-140.000000,-280.000000
-15981.094954,-1583.643446,-3404.595364,-20167.599042,-3848.031622,-7839.852016,-9494.641065,-6073.594817,5427.718810,15584.105621,14374.585673,14833.154062,20718.457784,17902.920294,9040.811246,12105.838907,30.256001,-859.856018,-509.472015,5740.000000,0.000000,-420.000000
-15980.513809,-1583.419929,-3399.901497,-20170.840045,-3845.885854,-7835.806350,-9496.250391,-6075.226495,5428.188196,15588.575970,14379.011319,14834.718685,20723.822203,17908.977617,9039.179568,12106.509460,28.792000,-858.392029,-506.056000,5880.000000,-140.000000,-420.000000
-15983.330129,-1583.844612,-3395.274686,-20201.551342,-3842.197817,-7829.704324,-9497.300923,-6074.913570,5436.704211,15614.280476,14406.392206,14855.841083,20754.511148,17945.232146,9065.196999,12127.520100,28.304001,-859.367981,-506.056000,6020.000000,-420.000000,-420.000000
-15986.034690,-1585.766862,-3392.637180,-20242.611497,-3840.297918,-7827.893833,-9498.642027,-6073.639521,5453.132743,15650.602061,14443.339639,14888.318168,20796.711242,17990.583836,9101.429177,12156.085629,27.816000,-857.903992,-508.007996,6160.000000,-560.000000,-280.000000
-15988.426326,-1588.493775,-3394.402968,-20271.333488,-3842.622500,-7830.240766,-9502.017141,-6074.131259,5466.588493,15676.373622,14469.334718,14912.592162,20824.337998,18018.702330,9124.496177,12173.318824,29.768000,-855.463989,-507.032013,6160.000000,-560.000000,-280.000000
-15988.783954,-1588.069092,-3398.918021,-20274.619195,-3844.656509,-7832.230071,-9501.123071,-6076.701710,5469.270703,15679.033480,14472.486314,14916.771938,20825.656751,18019.417586,9126.887813,12176.783344,30.743999,-856.440002,-508.496002,6300.000000,-980.000000,-420.000000
-15985.162972,-1583.755205,-3401.287306,-20248.937040,-3845.461171,-7834.822873,-9498.239696,-6076.612303,5461.536999,15656.771142,14451.386267,14897.594142,20799.505210,17990.203856,9105.251325,12163.729926,30.256001,-854.488037,-511.912018,6300.000000,-1260.000000,-560.000000
-15982.771335,-1580.536554,-3401.130843,-20207.251037,-3844.835322,-7836.521606,-9493.612885,-6074.801812,5445.913130,15620.293095,14414.818813,14864.848836,20758.132131,17948.897833,9071.097859,12139.522986,32.695999,-855.952026,-507.032013,6580.000000,-1400.000000,-420.000000
-15984.604178,-1584.939848,-3402.427244,-20178.730211,-3847.226959,-7836.789827,-9494.484603,-6075.561771,5428.523472,15593.493354,14388.130830,14840.105455,20729.410139,17920.377007,9043.493455,12120.524004,32.208000,-851.559998,-513.375977,6440.000000,-1960.000000,-700.000000
-15980.737326,-1584.448109,-3397.621619,-20172.874054,-3846.422296,-7834.353487,-9495.535135,-6079.205105,5425.573042,15590.989958,14384.308682,14836.573879,20726.057378,17916.107823,9034.329240,12112.946762,34.160000,-856.440002,-508.984009,6580.000000,-1960.000000,-700.000000
-15982.458411,-1586.973856,-3393.553602,-20197.572732,-3845.461171,-7831.000725,-9500.877202,-6084.703634,5433.776132,15614.258124,14407.174517,14855.997545,20753.125340,17942.773455,9048.164969,12124.457911,36.112000,-857.416016,-509.959991,6720.000000,-2240.000000,-840.000000
-15996.607065,-1602.217746,-3398.605096,-20248.266488,-3854.983014,-7832.632402,-9512.611868,-6089.106928,5450.204664,15654.088933,14449.151093,14888.273464,20800.175762,17988.281606,9079.993854,12152.598757,35.136002,-855.952026,-507.032013,7000.000000,-2380.000000,-980.000000
-16004.653693,-1613.393618,-3403.410721,-20291.830038,-3863.096698,-7834.755818,-9520.993772,-6090.693902,5469.091889,15689.270579,14489.540695,14917.867174,20842.107635,18027.263049,9111.152185,12176.939807,33.672001,-855.952026,-509.959991,6860.000000,-2520.000000,-980.000000
-15999.579847,-1612.276031,-3405.154157,-20304.794050,-3865.197762,-7836.789827,-9521.686676,-6092.549097,5483.151136,15703.285122,14506.058634,14932.038180,20855.116350,18037.857775,9125.077322,12183.868847,35.624001,-855.952026,-507.520020,6860.000000,-2660.000000,-980.000000
-15995.780050,-1609.392656,-3408.953954,-20286.331509,-3865.980073,-7840.299051,-9517.059865,-6089.665722,5481.698272,15688.152991,14489.116012,14919.521203,20836.139719,18016.422453,9117.544784,12173.698804,35.624001,-856.928040,-506.056000,7140.000000,-2520.000000,-1120.000000
-15992.226123,-1604.095293,-3411.636163,-20245.181947,-3864.214285,-7841.751914,-9510.130824,-6085.530649,5467.571970,15649.216252,14449.262851,14887.334691,20792.397355,17973.149475,9090.879153,12150.877673,36.600002,-858.392029,-508.496002,7140.000000,-2520.000000,-1120.000000
-15986.682890,-1594.171118,-3409.490396,-20199.070299,-3859.118087,-7841.818969,-9503.447652,-6083.831916,5451.545769,15610.257162,14407.576848,14853.337688,20747.403294,17931.239954,9057.038612,12121.596887,36.600002,-859.367981,-509.472015,7280.000000,-2520.000000,-1260.000000
-15992.047309,-1596.406292,-3410.004486,-20182.753525,-3858.894570,-7840.142589,-9500.340760,-6082.803736,5439.431124,15590.341758,14390.142487,14836.059789,20728.963104,17916.353693,9045.549815,12112.767948,36.112000,-861.320007,-508.984009,7280.000000,-2100.000000,-980.000000
-15997.232914,-1599.289668,-3408.797492,-20198.645615,-3857.844038,-7835.560481,-9499.781966,-6081.954370,5441.040449,15600.020063,14399.977255,14844.329935,20743.916421,17933.609239,9058.558531,12124.904945,36.600002,-859.856018,-508.496002,7280.000000,-1820.000000,-980.000000
-16001.144469,-1600.362551,-3406.182338,-20237.068264,-3856.771154,-7831.693629,-9504.207612,-6084.904800,5457.334871,15635.089950,14435.784749,14873.588368,20783.166085,17973.954138,9089.582752,12149.089533,32.695999,-863.272034,-504.592010,7140.000000,-1400.000000,-980.000000
-15998.752832,-1600.004923,-3404.327143,-20277.256701,-3856.279416,-7830.643097,-9507.560373,-6087.631713,5478.591380,15674.317261,14474.296805,14906.914819,20823.846260,18015.483679,9125.300840,12173.497638,32.695999,-862.783997,-503.615997,7280.000000,-1260.000000,-840.000000
-15991.935550,-1592.897069,-3401.667285,-20293.662881,-3852.501971,-7831.626574,-9504.788757,-6086.849402,5491.331874,15695.082032,14491.977035,14925.556174,20843.180519,18034.862642,9144.925671,12186.461650,32.208000,-863.272034,-506.544006,7000.000000,-700.000000,-700.000000
-15990.840315,-1589.968990,-3404.282439,-20283.850465,-3853.418392,-7833.302955,-9502.218306,-6085.217724,5485.878049,15686.767183,14482.321081,14920.035293,20832.898716,18022.792700,9139.896529,12182.795964,34.647999,-864.247986,-504.104004,6720.000000,-280.000000,-560.000000
-15987.800477,-1587.555002,-3406.539965,-20249.764055,-3855.988843,-7834.018211,-9498.530268,-6080.300341,5470.678862,15657.575805,14451.274508,14896.722424,20797.761774,17986.515818,9112.985028,12164.065202,31.232000,-864.247986,-503.127991,6440.000000,0.000000,-420.000000
-15986.772297,-1589.432548,-3409.356285,-20213.934209,-3859.833343,-7837.974469,-9499.692559,-6079.585085,5454.697365,15624.115243,14415.377607,14866.949900,20761.082561,17948.540205,9078.853915,12139.902966,27.816000,-863.760010,-505.080017,6440.000000,0.000000,-280.000000
-15985.788820,-1589.186679,-3406.852890,-20190.129601,-3857.620520,-7837.505083,-9498.418510,-6080.389748,5443.409734,15600.981188,14392.690586,14847.660345,20739.043741,17925.964943,9057.575054,12122.334495,29.280001,-863.760010,-502.152008,6160.000000,280.000000,-140.000000
-15987.912236,-1594.193470,-3405.020047,-20195.918703,-3856.458230,-7835.180501,-9499.580800,-6082.356701,5443.275624,15603.216362,14397.987950,14850.923699,20746.464520,17933.475129,9060.301967,12123.832062,29.768000,-861.320007,-505.567993,6020.000000,560.000000,0.000000
-15991.197943,-1600.653124,-3401.957858,-20230.899183,-3855.854732,-7832.587699,-9505.883992,-6085.977684,5457.893665,15635.805206,14429.973296,14877.119944,20784.507189,17969.416734,9086.162935,12140.998201,27.816000,-861.320007,-502.640015,5740.000000,420.000000,0.000000
-15995.221257,-1606.464577,-3401.957858,-20274.418029,-3858.380480,-7832.475940,-9514.869394,-6091.833841,5473.472830,15676.373622,14471.212264,14910.468746,20828.562478,18011.460365,9118.640020,12163.305242,28.792000,-858.880005,-505.567993,5600.000000,840.000000,280.000000
-15990.728556,-1602.105987,-3400.013256,-20300.569570,-3857.665224,-7831.984202,-9517.350437,-6093.823146,5487.934409,15704.827393,14501.498878,14936.642639,20857.284469,18038.438921,9142.757552,12179.376147,29.280001,-859.367981,-508.984009,5320.000000,700.000000,280.000000
-15990.728556,-1599.714351,-3402.516651,-20301.888323,-3859.609826,-7834.174673,-9516.635182,-6090.157460,5489.655493,15706.347311,14502.504707,14940.330677,20857.798559,18037.723665,9145.171540,12181.343100,29.280001,-860.832031,-505.567993,5180.000000,700.000000,420.000000
-15987.398146,-1592.919420,-3405.891765,-20270.595881,-3858.224017,-7838.019173,-9510.756673,-6085.307131,5478.792546,15677.938244,14472.285148,14917.956581,20823.645094,18003.972531,9125.166729,12164.445181,31.720001,-858.392029,-507.032013,4760.000000,560.000000,420.000000
-15988.627492,-1590.572487,-3409.825672,-20228.418139,-3857.240541,-7840.924900,-9504.878164,-6081.507335,5456.396098,15635.648744,14429.749778,14882.484362,20778.136942,17960.140760,9092.667293,12140.841739,29.280001,-854.976013,-507.520020,4760.000000,280.000000,420.000000
-15989.298044,-1591.645371,-3407.948125,-20194.175267,-3855.452401,-7838.823836,-9500.676036,-6079.808602,5438.581757,15603.618694,14398.300874,14852.376563,20745.503395,17928.848318,9066.314586,12121.216908,32.695999,-855.463989,-507.520020,5040.000000,0.000000,420.000000
-15992.717861,-1595.221650,-3405.087102,-20186.776839,-3854.401869,-7834.733466,-9498.798489,-6078.936884,5431.608013,15595.952045,14391.707109,14842.094760,20739.334314,17924.914411,9059.542007,12117.305352,31.232000,-854.000000,-510.447998,4900.000000,0.000000,420.000000
-15992.583751,-1594.886374,-3399.409759,-20208.927418,-3851.049107,-7830.464283,-9498.016178,-6078.869829,5440.436952,15616.627409,14412.158956,14858.679755,20764.748247,17950.261289,9077.177534,12131.185786,27.328001,-853.512024,-510.936005,4760.000000,-280.000000,280.000000
-15999.266922,-1606.598688,-3401.689637,-20255.866081,-3856.391174,-7832.297126,-9506.800414,-6082.446108,5455.122048,15655.966479,14454.604918,14889.905142,20810.546972,17993.355452,9110.168709,12155.526835,30.256001,-855.952026,-508.007996,4760.000000,-280.000000,280.000000
-15996.629417,-1608.990325,-3402.248431,-20296.054518,-3859.386308,-7835.247557,-9514.355304,-6084.658931,5480.290113,15695.797288,14494.480430,14922.650447,20849.237841,18029.498223,9141.639965,12180.158458,31.720001,-854.000000,-508.496002,4480.000000,-700.000000,140.000000
-15990.348576,-1600.653124,-3401.399064,-20303.810573,-3856.748802,-7836.007516,-9514.422359,-6082.110832,5493.231773,15707.889582,14502.728224,14933.781616,20855.272812,18035.823767,9152.257043,12186.148725,29.768000,-855.463989,-510.447998,4480.000000,-700.000000,0.000000
-15993.790745,-1604.967011,-3407.814015,-20288.387869,-3861.263855,-7839.986126,-9515.875222,-6080.546210,5485.185145,15691.103422,14486.836134,14922.002247,20835.737388,18017.405929,9136.521415,12179.398498,28.792000,-854.000000,-511.912018,4480.000000,-840.000000,-140.000000
-15991.980254,-1607.001019,-3412.910213,-20252.200395,-3864.773079,-7842.266004,-9514.400007,-6080.277989,5471.729394,15655.295927,14453.442628,14893.682586,20796.666538,17978.312728,9102.546764,12159.572501,26.352001,-855.952026,-508.984009,4340.000000,-1120.000000,-280.000000
-15987.331091,-1601.591897,-3411.502053,-20213.487174,-3863.275512,-7840.522568,-9509.482623,-6078.534553,5459.100659,15619.488432,14417.992761,14865.139409,20759.137959,17940.940611,9070.427307,12136.259632,28.792000,-861.320007,-508.007996,4620.000000,-840.000000,-140.000000
-15986.861704,-1599.736702,-3409.065713,-20194.041156,-3859.296901,-7839.114408,-9502.330065,-6078.601608,5448.640042,15599.036586,14397.406804,14848.174435,20739.960163,17924.176803,9060.637243,12124.279097,27.816000,-859.367981,-507.520020,4340.000000,-1120.000000,-420.000000
-15986.951111,-1599.960220,-3405.221213,-20203.473592,-3854.111296,-7833.705286,-9497.055053,-6076.031157,5450.271720,15605.429185,14404.089976,14853.784723,20750.376076,17938.705437,9072.997758,12130.850510,26.840000,-859.367981,-508.496002,4340.000000,-980.000000,-560.000000
-15989.119230,-1602.307153,-3402.404893,-20239.102273,-3853.507799,-7830.888966,-9499.960780,-6078.422794,5464.778002,15635.514633,14436.030619,14878.997490,20787.368213,17977.150437,9103.172613,12151.078838,25.864000,-860.832031,-509.472015,4340.000000,-560.000000,-560.000000
-15992.427289,-1603.737665,-3401.577878,-20279.894207,-3854.580683,-7831.604222,-9505.794585,-6082.021425,5483.061729,15672.640881,14474.565026,14911.184002,20828.115443,18017.405929,9135.225014,12173.542341,24.400000,-863.760010,-505.567993,4340.000000,-420.000000,-560.000000
-15990.058004,-1598.999095,-3401.913154,-20298.043823,-3855.430049,-7833.749990,-9507.247449,-6084.949504,5497.478604,15693.696224,14494.815707,14929.266564,20848.388475,18034.795586,9153.396982,12183.511219,26.840000,-862.296021,-504.592010,4480.000000,-140.000000,-840.000000
-15987.666367,-1592.494737,-3404.193032,-20287.851428,-3855.877084,-7836.767475,-9505.459309,-6086.514126,5498.685598,15688.331805,14489.652454,14925.399712,20838.799577,18022.703293,9150.223035,12178.370318,25.375999,-861.807983,-503.615997,4340.000000,0.000000,-840.000000
-15988.381623,-1590.840708,-3408.395160,-20255.016715,-3858.201666,-7840.701382,-9504.006446,-6085.083614,5485.989807,15657.821674,14457.555349,14899.985778,20803.260303,17986.918150,9122.372761,12159.080763,27.328001,-864.736023,-504.104004,4480.000000,280.000000,-1120.000000
-15987.688719,-1588.337313,-3410.183300,-20214.984741,-3859.051032,-7842.847150,-9499.849021,-6083.675454,5468.957778,15621.008351,14416.383435,14867.575749,20764.077695,17946.416789,9088.912200,12133.890347,29.768000,-861.807983,-502.152008,4480.000000,140.000000,-840.000000
-15986.504076,-1587.733816,-3407.277573,-20188.721441,-3856.301767,-7840.343754,-9493.590533,-6080.501506,5455.010290,15596.466136,14388.801383,14845.358115,20738.753168,17922.656885,9069.265016,12117.685332,29.280001,-864.736023,-504.592010,4200.000000,280.000000,-980.000000
-15988.158105,-1591.310095,-3405.444730,-20191.873037,-3854.759497,-7834.778170,-9492.897629,-6078.378091,5449.645871,15597.248447,14389.807211,14843.748789,20740.630715,17927.395454,9068.907388,12117.797091,28.304001,-862.783997,-501.664001,4340.000000,140.000000,-840.000000
-15986.995815,-1590.438377,-3400.706160,-20221.377340,-3852.121991,-7831.224243,-9494.842231,-6080.300341,5461.022909,15626.059845,14418.752720,14866.458162,20770.246776,17959.112580,9093.628418,12134.940879,30.256001,-861.320007,-504.592010,4340.000000,280.000000,-840.000000
-15990.572094,-1596.026313,-3399.677980,-20264.806779,-3855.966491,-7830.732504,-9501.145423,-6081.484983,5478.434918,15666.427096,14462.092753,14899.985778,20814.838507,18004.106641,9125.434950,12162.612338,30.743999,-860.343994,-505.080017,3920.000000,140.000000,-980.000000
-15995.847105,-1602.307153,-3402.069617,-20299.206114,-3861.867352,-7831.380705,-9509.527327,-6084.234248,5494.572877,15697.160744,14496.492087,14928.484253,20848.701399,18037.321334,9146.803218,12185.366414,30.743999,-856.928040,-503.615997,3780.000000,0.000000,-840.000000
-15994.595408,-1598.283839,-3404.304791,-20298.893189,-3862.336738,-7833.302955,-9508.476795,-6084.569524,5496.763348,15697.093689,14497.430861,14930.071226,20846.935612,18035.421435,9148.501950,12186.931036,33.184002,-855.952026,-503.615997,3780.000000,-140.000000,-840.000000
-15989.119230,-1589.678417,-3404.729474,-20267.645451,-3858.000500,-7833.727638,-9499.983132,-6077.685187,5486.570953,15670.495113,14470.988747,14908.658255,20817.230143,18005.291284,9129.324154,12171.664795,33.672001,-858.880005,-503.615997,3640.000000,-140.000000,-700.000000
-15985.945283,-1588.806699,-3406.428207,-20228.708712,-3858.514590,-7834.711115,-9495.378673,-6075.472364,5468.041357,15635.224060,14434.957735,14876.874075,20779.165122,17965.013440,9097.785842,12149.290699,33.672001,-854.976013,-507.520020,3500.000000,-840.000000,-560.000000
-15985.677062,-1591.332446,-3406.651724,-20195.337557,-3857.374651,-7835.024039,-9492.830574,-6078.892181,5450.785810,15603.194011,14402.748871,14848.465007,20745.682209,17932.245783,9071.835467,12127.207175,33.184002,-854.488037,-507.032013,3220.000000,-560.000000,-560.000000
-15985.319434,-1591.891240,-3402.874279,-20186.441563,-3852.725488,-7833.593528,-9493.478774,-6080.948541,5449.422353,15596.622598,14392.645883,14842.184167,20737.702636,17926.635495,9065.107592,12119.875803,33.672001,-854.976013,-505.567993,3080.000000,-980.000000,-420.000000
-15986.347614,-1595.176947,-3397.532212,-20209.642674,-3848.344546,-7829.860786,-9496.317446,-6083.116660,5458.363051,15619.913115,14413.477709,14860.445542,20765.284689,17952.407056,9081.200848,12133.465664,34.160000,-855.463989,-510.447998,2940.000000,-1400.000000,-140.000000
-15993.567228,-1605.078769,-3398.605096,-20256.894261,-3852.278453,-7830.061952,-9504.095853,-6088.346969,5473.115203,15660.012145,14460.528131,14893.213200,20812.111594,17996.797621,9112.694456,12158.432562,34.160000,-854.488037,-508.496002,2800.000000,-1260.000000,140.000000
-16000.585675,-1613.974764,-3401.443768,-20299.451983,-3857.106430,-7831.045429,-9511.807205,-6091.006826,5486.883877,15696.825468,14500.627160,14922.091654,20852.747065,18036.471967,9142.422276,12184.025310,34.160000,-855.463989,-509.959991,2940.000000,-1540.000000,280.000000
-16000.809193,-1616.053476,-3403.187204,-20314.494707,-3860.168619,-7834.241728,-9516.456368,-6092.683207,5494.237601,15712.091710,14516.496899,14933.580450,20867.812141,18047.714895,9152.726430,12194.195353,35.136002,-853.512024,-510.936005,3220.000000,-1540.000000,280.000000
-15995.668292,-1610.622002,-3405.489433,-20294.758117,-3861.241503,-7838.376801,-9516.501071,-6091.722082,5493.164717,15697.406614,14500.224829,14922.896316,20848.455530,18026.011351,9137.080209,12182.125411,35.136002,-855.463989,-510.447998,3080.000000,-1680.000000,420.000000
-15986.705242,-1602.888298,-3406.115282,-20252.110988,-3860.079212,-7841.930728,-9512.365998,-6088.637541,5484.849868,15662.001450,14461.668070,14893.548476,20806.076623,17983.252464,9104.066682,12154.588062,34.647999,-857.903992,-508.984009,3360.000000,-1680.000000,560.000000
-15979.396222,-1595.244002,-3406.204689,-20209.419156,-3858.179314,-7843.629461,-9506.845117,-6086.983512,5470.991787,15622.975304,14420.764377,14859.886749,20762.781294,17941.365295,9074.160048,12126.760140,34.160000,-858.880005,-510.936005,3360.000000,-1820.000000,700.000000
-15974.992928,-1588.918458,-3400.080311,-20183.692298,-3850.914997,-7840.030830,-9496.675074,-6084.413062,5456.641967,15601.718796,14395.462202,14839.144330,20739.960163,17920.309951,9063.565321,12110.197498,32.695999,-858.392029,-509.472015,3640.000000,-1820.000000,700.000000
-15969.494399,-1579.955409,-3389.865564,-20185.614548,-3838.778000,-7832.788865,-9487.332045,-6078.892181,5455.792601,15609.765424,14400.200772,14844.307583,20746.375113,17931.239954,9074.987063,12114.086701,32.695999,-859.367981,-508.496002,3780.000000,-1960.000000,840.000000
-15964.040573,-1570.590028,-3380.611942,-20212.101366,-3828.093866,-7826.530376,-9481.632350,-6072.253713,5468.756612,15637.481587,14429.012171,14869.341537,20775.700602,17965.281661,9103.709054,12132.370428,30.256001,-861.320007,-509.959991,3920.000000,-1540.000000,840.000000
-15961.693640,-1569.852420,-3376.409814,-20248.177081,-3824.428180,-7824.474016,-9480.984149,-6071.672567,5490.370749,15674.294910,14466.987785,14902.377415,20813.296236,18005.403042,9139.091866,12156.979699,30.256001,-861.807983,-507.032013,4060.000000,-1820.000000,700.000000
-15956.329221,-1564.756222,-3375.091061,-20266.706677,-3824.204662,-7825.032809,-9483.353434,-6068.945655,5510.733188,15697.630131,14489.697157,14922.426930,20833.636324,18025.296095,9156.705041,12169.966062,26.352001,-862.296021,-507.520020,4340.000000,-1820.000000,700.000000
-15945.488625,-1550.585216,-3373.258218,-20251.753360,-3821.768322,-7826.463321,-9479.553637,-6065.458782,5517.014029,15690.835201,14477.761326,14919.811776,20820.493498,18011.370958,9148.636061,12160.712440,28.792000,-861.807983,-503.127991,4200.000000,-1680.000000,840.000000
-15934.960954,-1535.140161,-3369.726642,-20205.619360,-3813.006438,-7826.552728,-9463.996823,-6057.143933,5503.848851,15652.680773,14435.829453,14891.894447,20775.812361,17969.886121,9124.295011,12137.511329,25.864000,-867.664001,-501.175995,4620.000000,-1820.000000,840.000000
-15929.440073,-1527.138236,-3367.714985,-20156.154949,-3805.339790,-7824.049333,-9449.222320,-6048.762029,5481.675921,15608.290208,14389.248418,14856.422228,20728.247849,17925.629667,9093.762528,12113.952591,27.816000,-865.223999,-500.200012,4760.000000,-1400.000000,700.000000
-15927.361360,-1525.841835,-3365.748032,-20127.879992,-3800.891793,-7821.031847,-9443.187349,-6049.030250,5466.655548,15580.976377,14360.392315,14833.668153,20699.838781,17900.305140,9070.203789,12095.490050,30.256001,-866.200012,-500.688019,4620.000000,-1540.000000,560.000000
-15928.948334,-1529.798094,-3363.736375,-20131.858603,-3800.958848,-7818.729617,-9444.617861,-6051.555997,5464.755650,15582.719813,14361.465199,14833.623449,20702.208066,17906.273056,9069.063851,12093.992483,24.400000,-865.712036,-502.152008,4480.000000,-1400.000000,420.000000
-15935.542099,-1538.358812,-3363.915189,-20168.113132,-3805.026866,-7817.343809,-9451.971585,-6056.853361,5472.467002,15614.101662,14393.539952,14856.690449,20738.015561,17942.728751,9091.057967,12113.058521,24.400000,-866.200012,-499.712006,4480.000000,-1260.000000,280.000000
-15944.348686,-1550.808734,-3366.776212,-20216.817584,-3812.872328,-7817.656734,-9462.454553,-6063.782402,5488.113223,15653.396029,14437.975220,14889.905142,20785.445963,17986.515818,9121.322229,12139.299469,24.888000,-865.223999,-501.175995,4200.000000,-1120.000000,420.000000
-15951.992983,-1560.308225,-3373.191163,-20254.748494,-3821.947136,-7821.858862,-9475.463268,-6068.208047,5501.099587,15683.056794,14473.112163,14915.631999,20819.487669,18016.735377,9141.975241,12160.064240,25.864000,-865.223999,-499.712006,3920.000000,-840.000000,140.000000
-15957.379753,-1565.627940,-3380.723701,-20263.488026,-3829.546729,-7828.184405,-9483.644007,-6069.236227,5501.948953,15688.018881,14481.225846,14922.359875,20825.120309,18019.238772,9142.824607,12164.333423,24.888000,-862.783997,-499.712006,3920.000000,-560.000000,140.000000
-15959.078486,-1567.237266,-3386.557506,-20240.644543,-3834.419410,-7832.542996,-9484.471021,-6069.102117,5489.610790,15664.840122,14458.985860,14904.433775,20801.561570,17990.427374,9119.891717,12149.894196,27.328001,-861.807983,-500.200012,3780.000000,-420.000000,0.000000
-15964.040573,-1571.037063,-3390.826689,-20202.713633,-3836.431067,-7834.688763,-9482.749937,-6069.303282,5466.923769,15625.948086,14419.467976,14872.448429,20761.931927,17949.523681,9085.090051,12125.642553,29.280001,-859.856018,-499.712006,3640.000000,-420.000000,0.000000
-15971.081373,-1578.569600,-3394.715893,-20173.276385,-3839.493256,-7836.074571,-9482.705233,-6073.483059,5444.124990,15593.336891,14386.946188,14842.430036,20728.270200,17918.030073,9056.390411,12106.375349,27.328001,-858.392029,-501.175995,3500.000000,-280.000000,140.000000
-15977.406916,-1591.712426,-3396.705198,-20172.382316,-3843.248349,-7835.895757,-9487.332045,-6078.914533,5431.898586,15588.285397,14385.023938,14833.154062,20727.845517,17915.504326,9047.784990,12103.357864,27.328001,-858.880005,-503.615997,3220.000000,-280.000000,-140.000000
-15988.694547,-1611.650182,-3401.220250,-20206.826354,-3850.400907,-7836.029868,-9497.367978,-6085.821222,5436.190121,15613.676979,14414.148261,14849.560243,20759.026201,17943.756931,9066.716917,12120.591059,29.768000,-860.832031,-505.567993,3360.000000,-560.000000,-140.000000
-15996.070623,-1621.082618,-3404.863585,-20254.636735,-3856.502933,-7837.013344,-9508.745016,-6090.045701,5458.161886,15654.223043,14457.912976,14879.310415,20803.617931,17985.353528,9097.696435,12146.161454,31.232000,-855.952026,-504.592010,3360.000000,-560.000000,-140.000000
-15990.817963,-1616.835787,-3403.097797,-20289.751326,-3855.117125,-7837.102751,-9514.422359,-6090.380977,5483.911095,15690.008186,14493.474602,14910.580505,20838.509004,18019.216421,9123.669162,12167.105039,34.647999,-858.880005,-506.056000,3360.000000,-840.000000,-140.000000
-15986.884056,-1609.884394,-3401.734340,-20299.139058,-3849.998575,-7836.678068,-9511.159004,-6086.648236,5493.947028,15702.860439,14504.203439,14924.393883,20848.835510,18030.772272,9136.342601,12178.817353,31.232000,-858.392029,-506.544006,3640.000000,-840.000000,-140.000000
-15984.358309,-1601.658952,-3403.142500,-20275.401506,-3846.131724,-7839.136760,-9503.760577,-6081.708501,5483.531115,15680.285177,14481.382308,14907.920648,20824.516812,18007.101775,9124.071494,12167.730888,32.695999,-858.880005,-502.152008,3780.000000,-1260.000000,0.000000
-15974.948224,-1590.416025,-3400.326180,-20227.948752,-3839.046221,-7838.510911,-9490.707158,-6076.925227,5466.968473,15640.387313,14440.791540,14875.242397,20781.109724,17964.074667,9094.813060,12142.227547,31.720001,-859.367981,-505.567993,3920.000000,-1540.000000,0.000000
-15973.495361,-1590.013694,-3402.606058,-20190.129601,-3840.744953,-7839.695554,-9487.510858,-6077.349910,5450.338775,15605.518592,14404.224086,14844.017010,20741.994171,17925.607315,9062.693603,12118.422940,33.184002,-859.856018,-501.175995,4060.000000,-1820.000000,140.000000
-15971.863684,-1589.186679,-3400.080311,-20172.337612,-3840.744953,-7836.990993,-9486.505030,-6077.640483,5438.514702,15588.643025,14386.566208,14828.795472,20725.297418,17911.682178,9048.209673,12107.157660,33.672001,-860.832031,-504.104004,4200.000000,-2100.000000,140.000000
-15978.837428,-1596.987438,-3398.582744,-20188.520275,-3844.701212,-7834.219376,-9491.355359,-6078.556905,5438.805275,15600.064766,14399.127889,14835.702161,20741.591840,17929.652981,9057.552702,12116.232469,31.232000,-862.296021,-501.664001,4200.000000,-2380.000000,420.000000
-15984.000681,-1601.413083,-3397.621619,-20227.367607,-3847.808104,-7832.095961,-9496.496260,-6080.546210,5452.439839,15635.224060,14433.884851,14862.479551,20780.260358,17968.768533,9085.671197,12138.092475,31.720001,-862.783997,-501.664001,4200.000000,-2520.000000,280.000000
-15982.391355,-1600.608420,-3394.693541,-20267.310174,-3847.003442,-7830.397228,-9499.804318,-6084.949504,5473.785755,15676.463029,14473.670956,14897.348272,20821.186402,18010.499240,9118.751778,12162.031193,30.743999,-862.783997,-500.688019,4480.000000,-2800.000000,280.000000
-15982.950149,-1600.295496,-3396.302866,-20288.879608,-3845.639985,-7831.961850,-9501.570106,-6086.178849,5486.213325,15696.467840,14492.736994,14915.162613,20840.677123,18031.532232,9139.136569,12177.543304,31.720001,-864.247986,-503.615997,4480.000000,-2940.000000,560.000000
-15985.408841,-1600.921345,-3401.399064,-20284.029279,-3847.942215,-7833.638231,-9503.268838,-6085.150669,5485.252200,15689.181172,14486.724375,14909.507621,20833.859841,18024.245563,9134.263889,12178.079746,29.280001,-863.760010,-500.200012,4480.000000,-3080.000000,560.000000
-15982.883094,-1595.512223,-3405.444730,-20249.607593,-3848.053974,-7839.337926,-9500.273705,-6085.508297,5473.606941,15656.480569,14454.180235,14882.394955,20795.012509,17986.292301,9107.441796,12157.270271,30.743999,-863.760010,-501.664001,4480.000000,-2660.000000,700.000000
-15980.647919,-1592.315923,-3405.377675,-20209.597970,-3849.506837,-7841.774266,-9495.535135,-6083.161364,5454.227978,15619.130804,14415.936400,14852.465970,20755.740494,17947.020286,9076.775202,12133.733885,30.256001,-863.272034,-499.712006,4480.000000,-2660.000000,700.000000
-15975.395259,-1589.678417,-3400.750864,-20183.669947,-3847.182256,-7839.673202,-9491.444766,-6081.887315,5442.068630,15598.500144,14392.467069,14835.724513,20732.673494,17923.930934,9056.546874,12117.081835,29.768000,-864.247986,-502.152008,4760.000000,-2240.000000,700.000000
-15977.675137,-1594.327580,-3397.442805,-20186.665080,-3847.584587,-7836.879234,-9493.434071,-6083.496640,5440.794580,15603.663397,14395.618665,14835.389237,20735.802738,17929.071835,9055.317528,12115.293695,29.768000,-861.807983,-503.615997,4620.000000,-1540.000000,700.000000
-15985.274730,-1599.401426,-3395.229983,-20217.689302,-3847.897511,-7833.526472,-9498.351455,-6086.357663,5447.030717,15626.462177,14422.932496,14854.924662,20765.508207,17960.699554,9078.138659,12132.661001,28.304001,-860.343994,-504.104004,4620.000000,-1260.000000,840.000000
-15986.571132,-1598.194432,-3393.978285,-20256.737799,-3846.198779,-7831.470112,-9502.218306,-6087.050568,5463.168676,15662.023802,14460.662241,14885.792421,20805.361367,18000.306845,9112.403883,12156.085629,29.280001,-860.832031,-504.104004,4760.000000,-700.000000,840.000000
-15987.621664,-1599.759054,-3396.258163,-20289.036070,-3848.389250,-7833.057086,-9507.359208,-6086.536477,5478.949008,15691.572808,14492.491125,14911.943962,20836.787920,18031.353418,9136.342601,12176.358661,30.256001,-860.343994,-507.032013,4340.000000,-140.000000,700.000000
-15992.427289,-1607.179833,-3403.723646,-20301.776564,-3857.307596,-7837.885062,-9514.556469,-6087.050568,5486.146270,15698.658311,14504.717529,14920.839956,20846.868556,18037.477796,9139.047162,12185.120545,30.743999,-860.832031,-501.175995,4480.000000,420.000000,700.000000
-15991.063832,-1606.330467,-3410.630335,-20281.280015,-3861.576779,-7843.472999,-9516.903402,-6087.654065,5483.061729,15677.804134,14484.846829,14903.785575,20824.159184,18009.493412,9118.461206,12174.123487,30.256001,-862.296021,-503.127991,4480.000000,560.000000,840.000000
-15986.526428,-1599.602592,-3409.088064,-20237.694113,-3857.732279,-7844.434124,-9508.297981,-6084.390710,5466.812011,15640.230851,14443.898433,14871.152028,20781.288538,17966.019269,9088.398109,12148.508388,28.792000,-859.856018,-507.520020,4620.000000,840.000000,840.000000
-15983.777163,-1598.350894,-3407.523442,-20202.646578,-3855.497105,-7844.210606,-9502.195955,-6082.982550,5450.204664,15610.458328,14412.807156,14842.944126,20746.732741,17933.162204,9062.693603,12125.597850,27.816000,-862.296021,-505.080017,4760.000000,980.000000,840.000000
-15981.430230,-1597.166252,-3403.477776,-20190.040194,-3851.920825,-7842.422467,-9498.306751,-6083.898972,5443.655603,15600.601208,14403.218258,14832.014123,20735.936849,17924.109748,9058.737345,12116.455986,28.792000,-858.392029,-503.127991,4620.000000,1260.000000,840.000000
-15981.318472,-1596.339237,-3398.448634,-20212.034310,-3851.831418,-7840.053182,-9502.777100,-6087.028216,5454.093868,15621.164813,14422.641924,14847.369772,20759.115608,17946.573251,9074.048290,12125.575498,32.208000,-861.807983,-505.567993,4760.000000,980.000000,840.000000
-15982.570169,-1595.311057,-3395.408797,-20251.641602,-3852.211398,-7837.125103,-9507.716835,-6087.810527,5471.036490,15657.888729,14459.723468,14880.919740,20800.958073,17988.214551,9103.284371,12147.904891,32.695999,-859.367981,-502.640015,4480.000000,700.000000,840.000000
-15985.028861,-1594.841670,-3395.162928,-20289.885436,-3851.294977,-7836.365144,-9511.315466,-6087.922286,5490.884839,15696.914875,14497.252047,14914.425005,20840.386550,18027.441863,9134.286241,12172.670623,28.792000,-858.880005,-506.056000,4620.000000,700.000000,700.000000
-15984.514771,-1592.338275,-3396.392273,-20302.692986,-3848.858636,-7836.946289,-9509.192051,-6083.966027,5499.244392,15710.795308,14507.198573,14930.585316,20853.439969,18042.261069,9149.753648,12184.740565,31.232000,-854.488037,-504.592010,4620.000000,0.000000,700.000000
-15986.012338,-1591.980647,-3402.181375,-20282.777582,-3851.026756,-7840.723734,-9507.135690,-6080.099175,5488.269685,15690.008186,14485.360919,14915.408482,20830.797652,18019.484641,9136.029677,12174.794039,31.720001,-854.976013,-504.104004,4480.000000,-420.000000,280.000000
-15978.748021,-1584.828089,-3401.466119,-20237.984686,-3847.249311,-7840.053182,-9496.742129,-6074.891219,5469.427165,15651.451427,14445.016020,14884.674833,20787.882303,17976.234016,9107.441796,12151.972908,32.208000,-854.488037,-505.080017,4060.000000,-560.000000,140.000000
-15972.578940,-1581.430624,-3399.096835,-20196.902179,-3844.835322,-7839.404981,-9491.131841,-6073.505410,5452.685708,15615.286304,14408.113290,14855.729324,20749.370247,17936.112635,9076.663444,12127.073065,31.232000,-853.023987,-507.032013,3640.000000,-840.000000,-140.000000
-15974.814114,-1582.592914,-3398.716855,-20181.211255,-3845.036488,-7839.114408,-9492.696463,-6077.908704,5443.633252,15601.450575,14393.204676,14840.999525,20733.880488,17920.801690,9060.570188,12113.371445,33.672001,-857.903992,-506.544006,3220.000000,-1120.000000,-420.000000
-15982.123134,-1587.398539,-3397.509861,-20197.304511,-3844.745916,-7835.649888,-9496.473908,-6081.082652,5444.952005,15612.514688,14404.045272,14848.733228,20749.102026,17937.811367,9068.907388,12121.887460,32.208000,-855.463989,-508.984009,2940.000000,-1400.000000,-560.000000
-15985.475896,-1589.633714,-3392.994808,-20234.184889,-3841.594320,-7829.391400,-9498.865545,-6081.842611,5459.994729,15646.243470,14438.511662,14879.221008,20786.116515,17979.340908,9099.417519,12145.893234,33.672001,-858.880005,-504.104004,2660.000000,-1400.000000,-980.000000
-15984.872399,-1591.913592,-3391.005503,-20277.256701,-3843.427163,-7829.771379,-9506.219269,-6084.770690,5480.983017,15687.817715,14482.164619,14914.961447,20828.495422,18020.825746,9131.894604,12171.284815,28.792000,-860.832031,-502.640015,2380.000000,-1680.000000,-1260.000000
-15986.794649,-1593.388807,-3395.140576,-20300.904846,-3849.573892,-7834.644059,-9511.851908,-6086.804698,5491.354226,15708.090747,14503.734053,14932.753436,20849.059027,18039.332991,9150.603014,12185.232304,31.720001,-863.272034,-501.175995,2240.000000,-1680.000000,-1400.000000
-15985.565303,-1590.639542,-3398.783910,-20292.075907,-3849.775058,-7837.058048,-9509.504975,-6086.312960,5489.521383,15697.808945,14492.781698,14927.925459,20837.704341,18030.213479,9146.266776,12182.505391,30.743999,-864.736023,-503.127991,2380.000000,-1960.000000,-1540.000000
-15983.665405,-1590.393673,-3400.706160,-20259.643526,-3850.669128,-7837.728600,-9508.208574,-6086.715291,5474.322197,15666.203578,14461.176331,14904.098499,20805.383719,17997.267008,9118.282392,12163.841684,31.720001,-865.223999,-500.688019,2660.000000,-2240.000000,-1400.000000
-15986.280559,-1594.864022,-3404.371846,-20222.606685,-3853.172523,-7840.231996,-9507.336856,-6085.553001,5451.434010,15627.423302,14425.458244,14869.252130,20768.995079,17956.206853,9086.967598,12140.372353,31.232000,-865.712036,-496.783997,3220.000000,-2240.000000,-1540.000000
-15987.129925,-1596.115720,-3405.154157,-20196.902179,-3853.306634,-7841.371935,-9504.699350,-6085.128317,5435.296051,15600.914133,14401.474822,14843.972307,20742.530613,17930.345885,9063.699432,12121.507480,31.232000,-867.664001,-499.712006,3640.000000,-2380.000000,-1260.000000
-15983.263073,-1592.628848,-3398.828614,-20192.811810,-3848.903340,-7837.438028,-9500.631332,-6084.278951,5434.916071,15600.377691,14400.044310,14840.798359,20740.206032,17931.485824,9061.374850,12116.858317,29.280001,-868.152039,-496.296021,3640.000000,-2380.000000,-980.000000
-15985.520600,-1597.702694,-3395.542907,-20223.836031,-3848.344546,-7832.811216,-9502.553582,-6083.340178,5444.907301,15629.099682,14429.034523,14861.183150,20770.716163,17965.460475,9083.883057,12135.991411,30.256001,-868.640015,-500.200012,4200.000000,-2660.000000,-840.000000
-15988.091050,-1602.664781,-3395.900535,-20266.483160,-3850.669128,-7832.073609,-9507.068635,-6083.384881,5462.855752,15665.868302,14467.166599,14890.888618,20811.753966,18006.967665,9118.304744,12162.902911,27.816000,-870.591980,-500.200012,4900.000000,-2800.000000,-420.000000
-15988.895713,-1602.620077,-3399.454462,-20299.116707,-3853.217227,-7836.141626,-9513.997676,-6085.463594,5481.720624,15695.752584,14496.134460,14916.749587,20841.571193,18034.862642,9143.830436,12180.449030,26.840000,-870.591980,-499.223999,5460.000000,-2660.000000,-140.000000
-15989.253341,-1602.798891,-3402.963686,-20306.135155,-3855.027718,-7839.673202,-9518.132748,-6086.759995,5486.638008,15702.636922,14501.990617,14926.562002,20847.025019,18038.662438,9146.669107,12182.371280,27.328001,-870.104004,-494.832001,5740.000000,-2380.000000,140.000000
-15987.822829,-1602.150691,-3407.791663,-20285.169218,-3858.268721,-7844.210606,-9519.473853,-6087.698768,5480.603037,15684.643767,14482.991634,14912.011017,20824.583867,18013.852002,9124.898508,12169.295510,26.352001,-869.127991,-499.712006,6300.000000,-2240.000000,700.000000
-15983.508943,-1599.557888,-3411.591460,-20247.014790,-3857.709927,-7847.272795,-9516.389312,-6085.821222,5465.537961,15650.847930,14445.686572,14883.378432,20784.060154,17972.568330,9093.896639,12147.614318,25.864000,-871.567993,-498.735992,6440.000000,-2100.000000,840.000000
-15980.960844,-1594.081711,-3409.088064,-20208.145107,-3851.160866,-7847.295147,-9508.074463,-6083.116660,5445.130819,15616.538002,14409.499098,14854.589385,20745.637506,17936.582021,9070.404955,12123.943820,24.888000,-871.567993,-495.320007,7000.000000,-2100.000000,1120.000000
-15981.340823,-1590.796005,-3405.489433,-20192.320072,-3845.639985,-7845.372897,-9504.006446,-6084.077786,5432.502083,15601.472926,14394.948112,14838.786702,20730.259506,17923.260382,9063.319452,12107.939971,25.864000,-874.007996,-496.296021,7140.000000,-1820.000000,1120.000000
-15978.904483,-1585.431586,-3398.225117,-20205.462897,-3841.773133,-7839.561443,-9504.229963,-6085.821222,5436.033659,15617.230906,14412.605990,14849.269670,20746.665686,17940.985315,9076.842258,12111.136271,24.888000,-870.104004,-496.783997,7560.000000,-1820.000000,1260.000000
-15982.503114,-1585.051606,-3394.917058,-20241.985648,-3843.047183,-7837.013344,-9508.633257,-6091.632675,5450.115258,15650.087971,14448.860520,14876.225874,20785.602425,17979.989109,9106.994761,12131.454007,26.840000,-870.104004,-501.175995,7980.000000,-1400.000000,1400.000000
-15983.777163,-1581.385920,-3393.978285,-20276.675555,-3842.488389,-7836.722772,-9509.884955,-6093.242001,5470.164772,15681.469820,14481.583474,14905.953694,20821.298161,18015.595438,9135.850863,12153.783399,32.208000,-866.200012,-499.223999,8260.000000,-1680.000000,1540.000000
-15986.146448,-1579.843650,-3397.286343,-20288.767849,-3845.148247,-7838.957946,-9509.974362,-6090.448033,5477.272627,15690.544628,14490.054785,14916.235497,20831.334094,18026.704255,9143.741029,12163.417001,22.936001,-862.783997,-503.615997,8260.000000,-1680.000000,1400.000000
-15986.571132,-1582.570563,-3401.913154,-20271.132323,-3849.439782,-7842.266004,-9507.895649,-6088.458727,5469.069537,15672.640881,14471.100506,14902.578581,20812.446870,18006.453574,9129.279450,12154.833931,33.672001,-866.200012,-495.320007,6300.000000,-1540.000000,1960.000000
-15978.837428,-1578.301379,-3403.678942,-20228.127566,-3847.383421,-7845.439952,-9500.005484,-6085.083614,5453.602130,15635.402874,14430.308572,14872.046098,20770.447942,17962.711211,9098.791671,12130.962268,29.280001,-860.343994,-499.223999,7280.000000,-2520.000000,1540.000000
-15971.751925,-1573.808679,-3401.600230,-20183.893464,-3843.024831,-7843.383592,-9492.763518,-6082.177887,5436.301879,15597.248447,14390.231894,14837.780874,20728.761939,17922.612181,9066.247531,12105.794204,29.280001,-856.928040,-498.735992,7560.000000,-2100.000000,1680.000000
-15976.691660,-1581.542382,-3401.488471,-20170.571824,-3848.076325,-7842.042487,-9497.077405,-6084.658931,5422.264984,15581.132839,14376.038537,14821.352341,20714.568581,17908.172954,9048.969632,12094.417166,29.280001,-853.512024,-501.664001,6860.000000,-2240.000000,1540.000000
-15981.117306,-1587.242077,-3400.706160,-20184.787534,-3849.618596,-7839.270871,-9500.318408,-6085.642408,5420.052161,15590.229999,14388.108479,14826.605001,20728.337256,17921.651056,9056.703336,12101.927352,27.328001,-851.072021,-505.567993,6020.000000,-2100.000000,1680.000000
-15983.486591,-1589.968990,-3398.381579,-20220.147994,-3848.076325,-7836.722772,-9502.598286,-6084.435413,5430.423371,15621.701255,14419.624438,14851.303679,20763.362439,17958.799655,9084.173630,12123.697951,25.375999,-850.096008,-508.496002,4900.000000,-2100.000000,1820.000000
-15985.654710,-1591.578316,-3396.213460,-20260.761113,-3848.545712,-7834.800522,-9506.912173,-6084.457765,5444.952005,15658.536930,14458.717639,14883.199618,20804.042614,18000.843287,9113.722636,12148.374277,27.816000,-849.119995,-506.544006,3920.000000,-1680.000000,1680.000000
-15978.725669,-1583.017598,-3393.821823,-20275.222692,-3842.622500,-7833.884100,-9502.464176,-6082.736681,5456.776077,15676.977119,14476.397869,14901.550400,20821.096995,18019.283476,9133.302764,12160.645385,25.864000,-848.632019,-507.032013,2940.000000,-980.000000,1820.000000
-15971.796628,-1572.422871,-3392.614829,-20260.604651,-3836.833398,-7835.985164,-9496.943295,-6078.847477,5456.351394,15667.365869,14465.736087,14896.051871,20808.177687,18005.425394,9129.279450,12154.386896,24.400000,-850.583984,-507.032013,2380.000000,-560.000000,2100.000000
-15969.114419,-1567.907818,-3395.453500,-20225.914744,-3836.989860,-7839.136760,-9494.708120,-6079.495678,5440.928691,15635.805206,14433.549575,14868.134542,20773.130151,17967.718001,9101.071549,12132.571594,23.424000,-847.656006,-509.959991,1400.000000,140.000000,1960.000000
-15977.675137,-1577.273199,-3404.304791,-20191.403650,-3843.628328,-7843.718868,-9495.825707,-6080.657969,5415.626516,15596.332025,14395.462202,14831.701199,20733.947543,17926.859012,9067.812153,12110.242201,23.424000,-849.119995,-511.912018,840.000000,840.000000,2240.000000
-15991.913198,-1592.248868,-3410.742093,-20174.393973,-3851.496142,-7844.322365,-9499.245524,-6079.585085,5393.051254,15573.019156,14375.010356,14807.047225,20716.468479,17905.937780,9045.326298,12100.183916,20.007999,-852.048035,-511.912018,0.000000,1120.000000,2100.000000
-15991.086184,-1596.450996,-3406.450558,-20179.132543,-3851.585549,-7841.684859,-9501.435995,-6083.608399,5396.940457,15579.925845,14381.738231,14810.198821,20722.838726,17911.928047,9044.186359,12102.374387,21.472000,-852.048035,-508.496002,-280.000000,1260.000000,2240.000000
-15987.554608,-1595.959258,-3401.175547,-20214.917685,-3851.965529,-7839.874368,-9510.175527,-6090.716254,5423.963717,15617.990865,14416.964581,14838.697295,20760.702581,17949.546033,9062.961824,12120.568707,18.544001,-856.928040,-510.447998,-420.000000,1120.000000,2100.000000
-15984.000681,-1591.578316,-3394.581782,-20257.497759,-3849.149209,-7837.438028,-9513.908269,-6089.822184,5454.406792,15663.141389,14461.891587,14875.354156,20806.568361,17994.785964,9095.215392,12148.396629,20.984001,-857.903992,-508.496002,-560.000000,1120.000000,1960.000000
-15987.062870,-1595.668685,-3395.699369,-20290.488933,-3849.663299,-7838.019173,-9515.674056,-6088.771652,5470.231828,15691.930436,14494.972169,14901.908028,20837.190251,18026.324275,9123.490348,12172.268292,20.496000,-860.343994,-504.104004,-420.000000,1120.000000,1820.000000
-15988.247512,-1596.830976,-3401.399064,-20292.746460,-3851.272625,-7842.936557,-9513.260068,-6089.330445,5471.103546,15690.499924,14496.603846,14903.718520,20836.854975,18024.603191,9133.526282,12174.123487,21.960001,-861.807983,-508.984009,280.000000,840.000000,1540.000000
-15982.860742,-1592.830013,-3404.751826,-20263.666840,-3850.378555,-7846.490484,-9510.019065,-6088.749300,5461.760516,15664.437790,14471.525189,14884.317205,20806.702472,17992.684900,9114.862575,12156.622071,20.496000,-864.736023,-503.615997,840.000000,0.000000,1260.000000
-15979.753849,-1587.622057,-3406.718779,-20222.494927,-3849.506837,-7849.038583,-9508.856774,-6087.721120,5446.762496,15626.797453,14431.269697,14853.784723,20764.524730,17949.478978,9081.200848,12129.375294,24.400000,-867.176025,-501.664001,1400.000000,-420.000000,980.000000
-15978.680966,-1582.928191,-3406.115282,-20184.161685,-3846.109372,-7850.156170,-9503.738225,-6085.418890,5427.361182,15592.040490,14391.349482,14822.827556,20725.498584,17912.308027,9054.222292,12104.877782,25.375999,-867.664001,-501.175995,1960.000000,-1260.000000,560.000000
-15976.065812,-1581.430624,-3401.913154,-20171.041211,-3840.834360,-7847.317499,-9496.675074,-6085.150669,5418.398132,15580.998728,14378.676042,14811.115242,20713.942732,17902.205038,9048.634356,12095.981788,24.888000,-867.664001,-497.272003,2660.000000,-2100.000000,280.000000
-15973.987099,-1582.503507,-3396.705198,-20190.755450,-3838.442724,-7841.059010,-9495.736300,-6085.754166,5426.891795,15601.204705,14400.245476,14825.420359,20737.456767,17926.724902,9065.688737,12108.230544,28.792000,-868.640015,-501.664001,3500.000000,-2660.000000,0.000000
-15972.645995,-1584.068130,-3391.854869,-20227.524069,-3836.766343,-7837.125103,-9496.071577,-6085.396538,5443.163865,15637.123959,14436.701171,14856.042249,20776.304099,17967.539187,9096.042406,12131.476358,29.280001,-873.031982,-498.735992,4200.000000,-3500.000000,-560.000000
-15973.808285,-1586.035083,-3391.676055,-20262.392791,-3839.470904,-7838.332097,-9499.692559,-6085.307131,5458.921845,15668.192884,14469.088849,14886.150049,20810.099937,18002.944351,9124.406770,12152.956385,32.208000,-869.127991,-497.272003,4900.000000,-3780.000000,-700.000000
-15972.243663,-1582.525859,-3392.368959,-20271.959337,-3841.191988,-7840.142589,-9500.877202,-6085.620056,5465.828534,15678.586445,14478.186009,14897.616493,20818.481841,18011.572124,9133.056895,12158.790190,35.624001,-870.591980,-499.223999,5320.000000,-3920.000000,-1120.000000
-15968.823846,-1575.440356,-3392.994808,-20253.653259,-3840.230863,-7840.746086,-9496.295094,-6081.261466,5462.743993,15664.907177,14462.338622,14888.519333,20798.275864,17993.891894,9122.059837,12151.011783,35.136002,-868.640015,-494.343994,5880.000000,-4620.000000,-1400.000000
-15966.901596,-1570.746490,-3396.705198,-20215.744700,-3840.946119,-7842.645984,-9490.908324,-6078.199277,5449.310595,15629.837290,14426.240555,14860.400839,20758.467407,17954.061085,9093.270790,12129.867033,37.576000,-865.712036,-496.783997,6160.000000,-4620.000000,-1680.000000
-15966.119285,-1568.690129,-3398.403930,-20177.545569,-3840.789657,-7842.400115,-9486.885010,-6076.478192,5432.613842,15593.940388,14387.460278,14829.108397,20720.178869,17915.280809,9062.671252,12107.247067,37.576000,-866.200012,-495.808014,6300.000000,-4620.000000,-1820.000000
-15971.550759,-1577.764938,-3400.862622,-20167.576691,-3846.824628,-7844.814103,-9493.948161,-6081.954370,5422.175577,15581.356356,14375.770316,14813.149251,20709.964122,17901.020396,9044.499283,12094.595980,38.552002,-864.736023,-498.735992,6160.000000,-4340.000000,-1960.000000
-15976.602254,-1584.828089,-3399.052131,-20182.999394,-3847.785753,-7841.908376,-9497.770309,-6086.290608,5423.717847,15591.839324,14390.008377,14820.324161,20727.018503,17916.241934,9052.635318,12099.602771,39.528000,-864.247986,-499.712006,5880.000000,-4340.000000,-2100.000000
-15978.546855,-1586.280952,-3393.508898,-20216.504659,-3842.689555,-7836.409847,-9498.910248,-6087.095271,5439.386420,15622.774139,14423.066607,14847.637993,20764.167102,17955.268080,9080.351481,12118.869974,41.968002,-862.296021,-501.175995,6020.000000,-3640.000000,-2100.000000
-15978.993890,-1583.419929,-3388.725625,-20254.346163,-3836.788694,-7832.811216,-9499.960780,-6086.178849,5459.592397,15659.363944,14462.673898,14879.779801,20803.953207,17998.138726,9112.403883,12143.613356,39.528000,-860.832031,-501.175995,5880.000000,-3500.000000,-2100.000000
-15977.585730,-1579.977760,-3388.077425,-20277.547273,-3835.201721,-7831.626574,-9501.927734,-6083.630751,5473.741051,15683.392070,14485.763250,14899.047005,20827.891925,18023.016217,9132.811026,12159.058411,40.504002,-858.392029,-502.152008,5600.000000,-3220.000000,-1540.000000
-15974.836466,-1574.278065,-3390.357302,-20271.109971,-3836.006383,-7834.129969,-9500.921905,-6080.076823,5474.165735,15678.608796,14480.443535,14898.510563,20820.515850,18016.757729,9129.122988,12156.197388,40.504002,-857.416016,-506.544006,5600.000000,-2800.000000,-1680.000000
-15971.550759,-1572.601685,-3395.051169,-20238.297610,-3837.615709,-7839.114408,-9499.714911,-6081.999073,5458.944197,15646.712857,14450.715715,14873.498961,20783.367250,17979.095039,9102.144432,12134.784417,35.624001,-854.976013,-503.127991,5460.000000,-2240.000000,-1400.000000
-15969.784971,-1573.026368,-3397.711026,-20196.723365,-3838.621538,-7839.919071,-9495.423376,-6080.277989,5437.061839,15608.737243,14413.053025,14839.412551,20741.882413,17936.671428,9068.080374,12108.230544,37.088001,-855.463989,-504.592010,5180.000000,-1820.000000,-840.000000
-15971.528408,-1574.814507,-3399.052131,-20174.282214,-3840.543788,-7838.242690,-9494.439899,-6079.383919,5423.673144,15587.123106,14391.058909,14818.044283,20719.910648,17914.006759,9046.108609,12093.500745,38.063999,-854.976013,-503.127991,5040.000000,-1540.000000,-560.000000
-15973.204788,-1575.529763,-3396.369922,-20176.785609,-3841.639023,-7836.789827,-9497.122109,-6082.200239,5423.404923,15589.805316,14391.885923,14817.641952,20723.710444,17917.314818,9044.365173,12091.198515,36.112000,-855.952026,-505.080017,4760.000000,-1120.000000,-280.000000
-15973.316547,-1575.261542,-3389.664398,-20204.591179,-3839.716773,-7832.990030,-9500.027835,-6084.524820,5435.005478,15616.694464,14417.232802,14840.686600,20752.924174,17946.997934,9063.833542,12105.347169,36.112000,-855.952026,-504.104004,4620.000000,-980.000000,0.000000
-15976.892826,-1581.140051,-3386.669265,-20247.439474,-3838.912110,-7829.793731,-9503.537059,-6082.624922,5449.847037,15656.771142,14458.695288,14875.398859,20798.588788,17992.684900,9097.003531,12134.918527,34.647999,-859.367981,-506.056000,4620.000000,-700.000000,560.000000
-15983.598350,-1588.918458,-3389.999675,-20283.694003,-3842.734259,-7831.045429,-9508.365036,-6084.658931,5462.296958,15686.811887,14491.284131,14902.109194,20833.837489,18026.413682,9127.893642,12160.600681,32.695999,-856.928040,-501.664001,4340.000000,-700.000000,840.000000
-15987.219332,-1593.209993,-3394.134747,-20293.215846,-3848.232788,-7833.928804,-9511.874260,-6086.961161,5467.169639,15693.115079,14500.425994,14910.468746,20842.442911,18031.353418,9134.912090,12169.027289,30.256001,-855.952026,-499.223999,4480.000000,-560.000000,1400.000000
-15982.078431,-1586.683284,-3396.369922,-20266.527863,-3848.322195,-7836.543958,-9509.147347,-6084.837745,5464.442726,15670.495113,14477.090773,14895.761299,20815.978446,18001.737356,9117.120101,12153.761048,32.695999,-858.880005,-498.735992,4060.000000,-280.000000,1820.000000
-15975.819942,-1577.183792,-3397.196936,-20221.287933,-3846.087020,-7839.181464,-9501.279533,-6081.864963,5453.222150,15630.396084,14434.823624,14862.345441,20769.084486,17956.385667,9087.057005,12124.390855,33.184002,-859.367981,-502.640015,4060.000000,-280.000000,1960.000000
-15974.143562,-1575.149784,-3397.174585,-20185.145162,-3846.355241,-7841.707211,-9494.372844,-6083.071957,5438.626461,15597.270798,14401.474822,14831.455330,20733.992247,17920.756986,9060.994871,12102.217925,31.720001,-860.832031,-502.152008,3920.000000,0.000000,2240.000000
-15970.120248,-1573.473403,-3393.263029,-20173.164627,-3841.795485,-7838.041525,-9488.606094,-6082.803736,5432.546786,15588.464211,14391.349482,14821.084120,20724.492755,17911.369254,9055.339879,12096.898210,29.280001,-858.880005,-504.592010,3920.000000,-420.000000,2660.000000
-15970.723745,-1573.473403,-3389.060901,-20192.543589,-3840.275567,-7833.012382,-9489.030777,-6083.340178,5437.710039,15607.753767,14411.577810,14835.948030,20744.363456,17933.720998,9071.544894,12107.269419,27.816000,-862.783997,-498.735992,3780.000000,-280.000000,2940.000000
-15971.751925,-1558.788307,-3385.663436,-20231.659142,-3839.739125,-7830.911318,-9492.070614,-6084.748338,5455.457324,15644.276517,14449.173444,14868.670984,20784.082506,17975.451705,9105.385435,12130.694047,26.352001,-862.783997,-500.688019,3220.000000,-560.000000,3220.000000
-15970.187303,-1534.201388,-3384.210573,-20265.007945,-3837.012212,-7830.464283,-9494.238734,-6082.021425,5471.125897,15675.188980,14480.354128,14896.677720,20817.543068,18010.789813,9136.476712,12151.905853,25.864000,-862.783997,-498.248016,3500.000000,-420.000000,3220.000000
-15967.929777,-1517.392876,-3384.791718,-20276.116762,-3836.766343,-7830.643097,-9493.948161,-6081.105003,5477.965531,15687.840067,14491.082965,14908.300627,20828.338960,18021.339836,9149.306613,12160.421867,23.912001,-863.760010,-500.688019,3500.000000,-280.000000,3220.000000
-15969.002660,-1510.776759,-3390.580820,-20263.823302,-3840.789657,-7834.331135,-9495.043396,-6083.295474,5473.450479,15675.144276,14476.554331,14900.924552,20812.826850,18005.335987,9139.471846,12153.783399,20.984001,-862.783997,-499.223999,3360.000000,-280.000000,3220.000000
-15965.582843,-1501.009047,-3393.195974,-20228.060511,-3841.527264,-7837.795655,-9491.310655,-6084.077786,5460.777040,15643.829482,14441.886776,14873.968348,20775.588843,17967.136856,9111.330999,12131.610469,21.960001,-865.712036,-499.712006,2940.000000,-420.000000,3080.000000
-15962.587710,-1492.984771,-3392.681884,-20185.748659,-3839.694421,-7837.460379,-9483.822821,-6081.328521,5442.180388,15607.865525,14405.319322,14841.983001,20734.841613,17926.791957,9078.049252,12106.665922,21.472000,-864.736023,-500.200012,2800.000000,0.000000,2800.000000
-15964.621718,-1491.286038,-3391.631352,-20167.800208,-3838.934462,-7835.985164,-9480.291245,-6080.233285,5432.546786,15587.950121,14387.840258,14824.928620,20716.937866,17910.296370,9060.771353,12096.786451,21.472000,-863.760010,-500.688019,2800.000000,0.000000,2800.000000
-15965.113457,-1488.022684,-3387.429224,-20178.618452,-3836.654584,-7831.760684,-9480.738280,-6080.792079,5437.419467,15597.516668,14399.284351,14831.835309,20729.320732,17923.483899,9067.141601,12100.653303,18.056000,-864.736023,-499.712006,2520.000000,0.000000,2240.000000
-15965.202864,-1486.033378,-3381.953047,-20214.291837,-3834.218244,-7828.743199,-9487.332045,-6082.870791,5454.473848,15632.273630,14437.550537,14859.618528,20765.597614,17961.280699,9092.734348,12119.048788,18.544001,-863.272034,-499.712006,2380.000000,140.000000,2100.000000
-15968.801495,-1486.189841,-3380.947218,-20255.575509,-3833.882968,-7829.056123,-9492.674111,-6083.474288,5471.014139,15669.355174,14475.973186,14890.553342,20806.903637,18002.720833,9124.831453,12145.133274,18.544001,-863.760010,-501.175995,2240.000000,420.000000,1820.000000
-15972.601291,-1484.200535,-3383.875297,-20279.402468,-3835.089962,-7831.738333,-9495.244562,-6081.105003,5482.257066,15690.611683,14498.280227,14907.808889,20830.574135,18024.133804,9143.696325,12162.545283,20.496000,-860.343994,-501.175995,1820.000000,280.000000,1400.000000
-15972.802457,-1479.774890,-3388.077425,-20271.601709,-3835.604052,-7834.599356,-9493.143498,-6076.992283,5480.535982,15682.006262,14488.624273,14901.304531,20821.968713,18013.449670,9141.103523,12160.980661,19.520000,-862.296021,-502.640015,1540.000000,560.000000,840.000000
-15972.355422,-1475.997445,-3391.631352,-20236.844747,-3837.794523,-7838.287394,-9489.902495,-6074.466535,5463.168676,15648.411590,14455.856616,14874.169513,20786.898826,17976.412830,9114.907278,12141.132312,21.960001,-859.367981,-503.615997,1540.000000,280.000000,560.000000
-15973.964748,-1475.930390,-3394.939410,-20197.684490,-3840.275567,-7841.081362,-9488.807260,-6075.897047,5444.124990,15610.771252,14417.568078,14841.603022,20747.872680,17934.123329,9078.183362,12116.500690,21.960001,-861.320007,-499.223999,1540.000000,420.000000,140.000000
-15974.434134,-1478.657303,-3394.335913,-20176.316223,-3840.499084,-7839.382629,-9487.734376,-6076.455841,5432.435028,15590.788792,14397.272694,14823.185184,20727.756110,17912.665655,9056.032784,12102.776718,23.912001,-855.463989,-504.104004,1400.000000,420.000000,0.000000
-15975.372908,-1484.155832,-3392.860698,-20182.842932,-3840.499084,-7836.409847,-9490.394234,-6078.400442,5432.725600,15595.907342,14401.519525,14828.393141,20735.288648,17920.399358,9056.770391,12105.905963,25.864000,-859.856018,-505.080017,1400.000000,280.000000,-420.000000
-15973.271844,-1485.094605,-3387.116300,-20213.956560,-3838.509779,-7831.961850,-9493.948161,-6081.306169,5445.577853,15628.987924,14429.861537,14853.158874,20770.045611,17954.575176,9079.591522,12124.413207,28.304001,-858.392029,-505.080017,1120.000000,140.000000,-700.000000
-15971.327242,-1481.831250,-3383.048282,-20252.692134,-3835.268776,-7830.732504,-9495.535135,-6084.614227,5463.615711,15670.338651,14469.133552,14885.233627,20811.843373,17996.819973,9116.449549,12149.402457,28.792000,-859.367981,-501.664001,980.000000,-140.000000,-980.000000
-15973.160085,-1481.294809,-3383.987055,-20283.112858,-3837.213378,-7832.721809,-9499.178469,-6087.207030,5479.217229,15699.462974,14498.883724,14909.462918,20843.024056,18026.637200,9145.283299,12168.602606,28.304001,-858.880005,-505.567993,840.000000,-140.000000,-1260.000000
-15969.829675,-1474.522230,-3386.535154,-20282.352898,-3837.571006,-7834.755818,-9496.406853,-6085.284780,5482.748804,15699.462974,14498.749614,14911.832203,20841.235917,18024.759653,9152.614671,12170.681318,26.840000,-859.367981,-505.080017,840.000000,-140.000000,-1120.000000
-15967.907425,-1469.113108,-3389.530288,-20253.832072,-3839.381497,-7837.728600,-9492.696463,-6083.139012,5472.534057,15672.685584,14472.173389,14891.447412,20809.563495,17993.556618,9132.498101,12154.856283,29.280001,-860.832031,-503.615997,1120.000000,-420.000000,-1260.000000
-15963.995870,-1462.787564,-3390.133785,-20209.642674,-3838.509779,-7839.807312,-9485.320388,-6079.763899,5454.093868,15633.413569,14429.839185,14858.523292,20765.508207,17949.635440,9099.126947,12129.017666,31.232000,-862.296021,-503.127991,1120.000000,-560.000000,-1120.000000
-15957.580919,-1454.204494,-3387.272762,-20165.497978,-3832.184235,-7838.175635,-9473.608073,-6074.466535,5438.134722,15596.287322,14388.957845,14826.001504,20721.698787,17909.961094,9070.784935,12102.888477,30.743999,-860.343994,-505.567993,1120.000000,-700.000000,-1120.000000
-15954.071695,-1452.550465,-3384.456442,-20151.461083,-3828.831473,-7836.566310,-9469.897684,-6074.980626,5434.267871,15584.262083,14375.435039,14815.585591,20708.086575,17898.069966,9062.157161,12093.500745,31.232000,-866.687988,-500.688019,1540.000000,-840.000000,-1120.000000
-15955.144579,-1454.986805,-3380.857811,-20174.483380,-3828.272680,-7834.331135,-9473.116335,-6079.607437,5443.812066,15607.396139,14396.020996,14831.902365,20733.165232,17923.618010,9078.630397,12107.291771,30.743999,-861.807983,-498.248016,1540.000000,-700.000000,-1120.000000
-15958.922024,-1459.770079,-3377.840326,-20215.297665,-3827.311555,-7831.470112,-9476.334986,-6081.641445,5459.614749,15644.120055,14434.331886,14862.926586,20776.639375,17967.002746,9111.800386,12133.800940,31.720001,-862.296021,-502.640015,1540.000000,-840.000000,-840.000000
-15964.375849,-1466.430898,-3378.734395,-20252.110988,-3829.524378,-7831.581871,-9482.369957,-6081.864963,5473.629293,15674.809000,14467.457171,14890.530990,20811.686911,18001.916170,9138.197796,12154.073972,30.743999,-863.760010,-501.664001,1680.000000,-1120.000000,-700.000000
-15967.058059,-1469.560143,-3383.405910,-20266.438456,-3832.787732,-7833.615879,-9486.393271,-6082.021425,5480.625389,15687.549494,14482.544599,14900.365758,20823.645094,18012.287380,9147.205549,12161.785324,31.232000,-862.783997,-502.640015,1960.000000,-1260.000000,-420.000000
-15964.755829,-1467.973169,-3387.853907,-20249.048799,-3832.452456,-7837.505083,-9485.454498,-6079.898009,5474.813935,15672.395011,14466.451343,14885.770069,20803.237951,17992.170810,9134.085075,12151.950556,30.743999,-862.783997,-500.200012,1960.000000,-1260.000000,-280.000000
-15962.744172,-1466.743823,-3390.692579,-20212.235476,-3832.877139,-7839.740257,-9484.336911,-6077.640483,5459.950025,15637.191014,14431.068531,14856.779856,20764.614137,17953.815216,9102.435005,12130.358771,28.304001,-863.272034,-500.200012,1960.000000,-980.000000,0.000000
-15957.826788,-1461.625273,-3389.306770,-20170.482417,-3830.440799,-7839.360278,-9480.850039,-6078.668663,5444.013231,15601.562333,14393.674063,14826.962629,20725.096253,17913.380911,9070.181438,12105.347169,31.232000,-865.712036,-498.735992,2100.000000,-980.000000,280.000000
-15953.892881,-1456.663186,-3384.031759,-20148.890632,-3826.484540,-7836.409847,-9477.631387,-6079.227457,5435.407810,15582.809220,14376.418516,14809.327103,20707.348967,17894.337224,9052.769429,12091.600846,29.768000,-863.760010,-503.127991,2380.000000,-1120.000000,420.000000
-15958.676154,-1461.938198,-3382.355378,-20164.089818,-3829.122046,-7833.101789,-9479.955969,-6081.641445,5439.453475,15594.677996,14391.572999,14817.373731,20724.112776,17909.894038,9060.234911,12099.580419,29.768000,-859.856018,-502.152008,2100.000000,-1260.000000,840.000000
-15963.012393,-1466.699119,-3381.796584,-20202.154839,-3830.217282,-7830.441932,-9484.135745,-6084.524820,5455.122048,15628.451482,14426.218203,14845.313411,20761.998983,17949.344867,9087.794612,12121.887460,30.743999,-862.783997,-500.200012,2100.000000,-1120.000000,980.000000
-15964.375849,-1464.754518,-3379.516706,-20241.270392,-3829.010287,-7830.263118,-9489.187239,-6087.028216,5473.673996,15665.264805,14462.115104,14877.477572,20800.689852,17988.303958,9118.125930,12143.792170,28.304001,-862.296021,-503.127991,2240.000000,-1120.000000,1120.000000
-15964.219387,-1461.111183,-3378.600285,-20259.844692,-3825.545767,-7829.056123,-9490.103661,-6085.463594,5482.681749,15685.068451,14481.091735,14897.996473,20821.074643,18009.493412,9136.677878,12158.074934,31.232000,-861.320007,-501.664001,1960.000000,-1120.000000,1260.000000
-15964.487608,-1457.020814,-3379.002616,-20250.166386,-3821.544805,-7828.676144,-9485.879181,-6084.457765,5475.775060,15675.859532,14471.994575,14895.560133,20813.363291,18002.743185,9133.570985,12156.085629,28.304001,-860.832031,-499.223999,2100.000000,-1120.000000,1400.000000
-15969.293233,-1462.586398,-3384.367035,-20225.355950,-3826.417485,-7832.319478,-9487.935542,-6083.831916,5458.608920,15649.305659,14445.775979,14874.773011,20787.524675,17975.027022,9106.391264,12143.076914,29.768000,-860.343994,-503.127991,1820.000000,-1260.000000,1680.000000
-15968.332108,-1465.469773,-3387.116300,-20188.587330,-3830.440799,-7834.241728,-9487.063824,-6080.725024,5442.940348,15613.788738,14410.303761,14843.994658,20748.073846,17936.850242,9072.058984,12120.524004,30.256001,-860.343994,-501.664001,1820.000000,-1120.000000,1820.000000
-15970.455524,-1472.957608,-3389.552640,-20165.497978,-3836.699287,-7835.113446,-9487.264989,-6080.903838,5429.462246,15590.475868,14387.504981,14819.608905,20723.352817,17908.977617,9049.528426,12104.453099,28.304001,-859.856018,-501.664001,1680.000000,-1260.000000,1680.000000
-15973.540065,-1477.986750,-3389.373826,-20169.789513,-3841.907244,-7835.895757,-9490.126013,-6083.206067,5429.641060,15592.375766,14390.254246,14818.245449,20726.303247,17909.469355,9052.680022,12104.162527,28.792000,-863.272034,-502.152008,1820.000000,-1820.000000,1680.000000
-15975.484666,-1476.690349,-3387.295113,-20196.410441,-3839.917939,-7832.252423,-9491.489469,-6082.401405,5441.040449,15615.822746,14413.678874,14836.864452,20752.901823,17938.370161,9079.122136,12118.333533,27.328001,-859.856018,-500.688019,2100.000000,-1680.000000,1680.000000
-15978.904483,-1477.204439,-3386.289285,-20236.062436,-3838.867407,-7830.888966,-9496.362149,-6083.630751,5458.988900,15650.691468,14448.257023,14864.424153,20791.458582,17978.156266,9110.369874,12140.506463,26.840000,-862.783997,-502.640015,2380.000000,-2240.000000,1680.000000
-15981.854913,-1479.506669,-3388.166832,-20267.153712,-3840.096753,-7831.291298,-9500.832498,-6084.971855,5471.707043,15677.960596,14477.984843,14888.653444,20820.649960,18006.967665,9134.554462,12160.175998,25.864000,-862.783997,-504.104004,2800.000000,-2660.000000,1540.000000
-15982.279597,-1475.840983,-3389.329122,-20268.919500,-3840.297918,-7831.090132,-9497.770309,-6080.725024,5470.611807,15680.128715,14481.784640,14894.800174,20821.298161,18009.314598,9141.170578,12165.361603,27.816000,-861.807983,-500.200012,2940.000000,-2660.000000,1540.000000
-15978.055117,-1468.599018,-3390.580820,-20238.856404,-3837.995689,-7833.951155,-9491.087138,-6076.567599,5458.653624,15653.194863,14453.286165,14875.734136,20790.519809,17980.346737,9123.445645,12150.140065,27.328001,-863.272034,-504.104004,3080.000000,-3220.000000,1260.000000
-15971.036669,-1462.944026,-3392.637180,-20197.505676,-3836.028735,-7837.058048,-9485.789774,-6074.108907,5445.533150,15616.560354,14414.282371,14845.715743,20747.649163,17937.811367,9089.806269,12123.988524,24.888000,-862.783997,-498.248016,3360.000000,-3500.000000,1260.000000
-15966.745134,-1460.977073,-3393.419491,-20163.665135,-3836.654584,-7838.935594,-9484.269856,-6075.964102,5435.944252,15586.430202,14381.760583,14819.385388,20712.668683,17901.579189,9058.022089,12099.401605,26.352001,-862.783997,-500.200012,3360.000000,-3640.000000,980.000000
-15964.733477,-1459.144230,-3388.725625,-20151.349324,-3831.021944,-7835.135798,-9480.335949,-6074.891219,5431.943289,15577.891836,14370.785877,14809.371806,20703.258598,17893.644320,9049.953109,12092.137288,28.792000,-863.760010,-499.712006,3360.000000,-3780.000000,840.000000
-15966.342803,-1464.374538,-3385.551677,-20173.768124,-3828.675011,-7830.397228,-9483.509896,-6075.114736,5437.240653,15598.187220,14391.751813,14823.632219,20727.309075,17918.030073,9065.822848,12104.609562,24.888000,-864.247986,-500.200012,3360.000000,-4060.000000,560.000000
-15974.098858,-1474.857506,-3385.864602,-20218.426909,-3832.117180,-7830.508987,-9492.316484,-6077.707538,5451.545769,15634.955840,14432.655505,14852.801246,20770.157369,17961.057181,9095.103633,12128.592983,24.400000,-862.783997,-502.152008,3360.000000,-4060.000000,420.000000
-15977.764544,-1477.092681,-3386.646913,-20254.793197,-3832.407753,-7830.330173,-9495.803356,-6075.785288,5467.750784,15668.014070,14466.250177,14881.210313,20805.942512,17997.691691,9125.300840,12151.414114,25.864000,-863.272034,-500.688019,3220.000000,-3920.000000,280.000000
-15977.965710,-1475.483355,-3389.843212,-20270.506474,-3834.352354,-7832.542996,-9497.055053,-6074.265370,5474.970397,15683.168552,14480.890570,14896.945941,20820.851126,18010.990979,9137.840168,12163.461705,25.375999,-863.760010,-497.760010,3220.000000,-3780.000000,0.000000
-15978.524504,-1475.885686,-3394.850003,-20262.281032,-3837.682764,-7835.851054,-9499.111414,-6073.483059,5473.115203,15675.636014,14472.508666,14891.894447,20811.664559,18000.150383,9128.653601,12160.108943,26.352001,-865.712036,-502.152008,2940.000000,-3360.000000,-280.000000
-15978.368041,-1474.321064,-3397.286343,-20228.351084,-3838.018040,-7839.002650,-9496.786832,-6072.209009,5459.838266,15642.756598,14439.092808,14865.474685,20776.192340,17964.521702,9101.362121,12138.919489,24.400000,-863.760010,-498.735992,3080.000000,-2940.000000,-280.000000
-15984.380661,-1479.171393,-3402.583707,-20196.209275,-3843.315404,-7842.914205,-9498.329103,-6074.734756,5443.745010,15610.704197,14408.135642,14835.992734,20742.664724,17927.842489,9071.522542,12117.819442,26.840000,-864.247986,-501.664001,3080.000000,-2940.000000,-280.000000
-15989.812134,-1482.010064,-3404.304791,-20181.278310,-3847.383421,-7842.802446,-9497.837364,-6077.528724,5432.457379,15593.985092,14392.243551,14820.681789,20726.906744,17912.419786,9058.223254,12107.984675,26.840000,-863.760010,-500.688019,2940.000000,-2660.000000,-420.000000
-15990.773259,-1480.691311,-3400.057960,-20191.001319,-3845.662337,-7838.779132,-9495.892763,-6077.841649,5435.206644,15603.350473,14401.139546,14826.895574,20738.507299,17925.272039,9068.192132,12114.444329,23.424000,-864.736023,-500.200012,2800.000000,-2520.000000,-420.000000
-15991.220294,-1480.937181,-3394.358265,-20224.506584,-3843.337756,-7834.197025,-9498.373806,-6077.796945,5449.601167,15638.085084,14435.069494,14853.270632,20775.588843,17962.510045,9097.785842,12136.416094,25.864000,-862.783997,-498.248016,2800.000000,-2100.000000,-280.000000
-15996.472954,-1483.664093,-3393.419491,-20263.018639,-3842.600148,-7832.073609,-9501.167774,-6077.573428,5465.314444,15672.752639,14470.586416,14884.205447,20814.994969,18004.017234,9133.347468,12162.724097,25.864000,-861.807983,-502.152008,2660.000000,-2380.000000,-140.000000
-15999.490440,-1484.826384,-3394.939410,-20285.839771,-3844.187122,-7834.845225,-9505.660475,-6077.014634,5474.791583,15690.410518,14491.664111,14904.187906,20835.491518,18025.094929,9148.814875,12177.453897,26.352001,-861.807983,-501.175995,2660.000000,-2100.000000,-140.000000
-16001.323283,-1486.078082,-3398.694503,-20282.241140,-3847.204607,-7839.695554,-9508.521498,-6076.142916,5473.048147,15686.074279,14487.819611,14904.053796,20829.635361,18017.629447,9140.276508,12175.486943,25.864000,-857.416016,-505.567993,2380.000000,-1960.000000,0.000000
-15999.468088,-1485.429881,-3401.823747,-20251.149863,-3847.383421,-7844.858807,-9507.068635,-6074.064204,5458.251292,15657.709915,14457.622404,14881.657348,20796.644187,17985.733507,9111.934496,12157.247920,26.840000,-859.367981,-501.175995,2520.000000,-2100.000000,280.000000
-15995.400071,-1481.205402,-3401.667285,-20209.240342,-3843.360107,-7845.261138,-9500.430167,-6070.018538,5441.822760,15620.047226,14417.545726,14849.694353,20755.382866,17945.455664,9080.172668,12132.705704,29.280001,-857.416016,-501.175995,2660.000000,-1960.000000,280.000000
-15995.578885,-1484.356998,-3400.840271,-20186.352156,-3844.902378,-7844.121199,-9500.631332,-6070.018538,5432.278565,15599.751842,14396.468031,14828.035513,20734.483985,17921.427539,9058.357365,12118.020608,25.864000,-856.928040,-504.592010,2380.000000,-1820.000000,420.000000
-16000.809193,-1496.583402,-3401.421416,-20194.778764,-3847.696346,-7843.562406,-9504.654646,-6073.170134,5431.116275,15604.602171,14401.251304,14827.163795,20741.323619,17927.283696,9060.637243,12122.937992,27.328001,-859.367981,-502.640015,2520.000000,-1960.000000,700.000000
-15997.277617,-1497.924506,-3396.504032,-20223.120776,-3842.980128,-7838.868539,-9504.453481,-6074.555942,5448.081249,15632.050113,14428.699246,14848.934394,20771.096143,17959.537263,9086.118232,12141.758161,30.256001,-857.903992,-505.080017,2240.000000,-1960.000000,700.000000
-15990.058004,-1486.458062,-3389.932619,-20256.246061,-3834.575872,-7834.889929,-9503.268838,-6075.584123,5469.225999,15667.008241,14463.210340,14880.584464,20806.389547,17997.803449,9119.087055,12161.762972,28.304001,-861.807983,-508.007996,2240.000000,-1820.000000,840.000000
-15987.867533,-1477.495012,-3388.166832,-20279.737744,-3831.200758,-7835.426371,-9502.978266,-6074.667701,5481.944142,15690.879904,14486.724375,14903.271485,20829.031864,18022.770348,9143.852787,12176.291606,27.816000,-859.367981,-506.056000,2380.000000,-1820.000000,840.000000
-15981.631396,-1465.894457,-3386.423395,-20276.586148,-3826.641002,-7834.666411,-9496.116280,-6070.778498,5485.989807,15690.656387,14484.690366,14906.423081,20827.087263,18021.496298,9151.944119,12176.805696,28.792000,-860.343994,-502.640015,1960.000000,-1820.000000,700.000000
-15982.234893,-1463.078137,-3392.011332,-20251.552195,-3830.731372,-7840.120237,-9495.512783,-6069.437393,5475.953874,15664.616604,14459.097619,14883.847819,20799.996948,17992.841362,9133.727447,12160.421867,30.743999,-863.760010,-508.496002,2240.000000,-1680.000000,560.000000
-15986.593483,-1467.503782,-3398.605096,-20217.689302,-3836.498122,-7843.025964,-9497.636199,-6068.096288,5458.430106,15629.434959,14425.212374,14851.594252,20764.301212,17955.737466,9100.065720,12139.590042,29.280001,-859.856018,-504.592010,1960.000000,-1400.000000,560.000000
-15987.778126,-1467.302617,-3399.119186,-20184.273444,-3837.660413,-7842.042487,-9494.931638,-6065.905817,5440.839284,15594.879162,14390.924798,14822.894612,20729.343084,17923.059216,9071.880170,12120.546355,32.208000,-862.783997,-507.520020,1820.000000,-1260.000000,420.000000
-15985.766469,-1464.307483,-3395.207631,-20171.465894,-3834.084133,-7838.712077,-9492.048263,-6065.950521,5433.954946,15581.311653,14377.334938,14810.869373,20717.139032,17911.928047,9062.693603,12111.695065,28.792000,-863.272034,-503.615997,1820.000000,-1120.000000,420.000000
-15985.095916,-1468.308445,-3390.670227,-20192.610644,-3832.832436,-7834.554653,-9493.612885,-6066.576370,5438.045316,15600.109470,14397.876191,14826.560298,20740.317791,17935.755007,9078.295121,12123.206213,29.280001,-862.783997,-506.544006,1540.000000,-980.000000,140.000000
-15987.688719,-1469.962474,-3388.010369,-20228.552249,-3832.005421,-7832.140664,-9495.781004,-6068.789192,5449.712926,15633.279459,14434.734217,14854.857606,20777.421686,17973.283586,9108.559383,12142.384010,28.792000,-861.320007,-503.127991,1400.000000,-840.000000,0.000000
-15989.186286,-1467.950817,-3386.602209,-20264.695020,-3832.519511,-7831.514815,-9499.245524,-6069.929131,5461.984034,15670.003375,14471.704003,14885.635958,20815.754928,18011.169793,9138.242500,12165.451010,31.232000,-859.856018,-507.032013,1400.000000,-700.000000,0.000000
-15990.974425,-1468.420204,-3388.189183,-20281.034145,-3835.894625,-7832.185368,-9502.978266,-6068.878599,5466.856714,15685.515485,14485.115049,14900.991607,20832.518736,18026.100758,9149.932462,12177.878580,30.256001,-860.832031,-518.744019,280.000000,-140.000000,-140.000000
-15989.745079,-1467.190858,-3390.983151,-20266.572567,-3838.040392,-7837.348621,-9503.157080,-6064.520009,5462.766345,15672.171494,14469.759401,14892.073261,20818.526544,18009.158136,9138.398962,12171.530684,28.792000,-862.296021,-512.400024,-1680.000000,700.000000,-280.000000
-15989.745079,-1468.599018,-3396.995771,-20233.603744,-3840.968471,-7843.383592,-9504.699350,-6063.670643,5447.969490,15640.655534,14437.796406,14863.641842,20782.450829,17970.154341,9109.967543,12151.883501,27.816000,-864.247986,-506.056000,-2800.000000,700.000000,-140.000000
-15986.302911,-1464.553352,-3398.001599,-20194.555246,-3839.493256,-7844.098847,-9502.263010,-6064.050622,5430.401019,15604.557467,14400.848973,14833.601097,20742.441206,17931.195251,9078.920970,12129.487053,30.743999,-864.736023,-498.735992,-700.000000,0.000000,140.000000
-15982.324300,-1462.273474,-3395.677018,-20175.891540,-3838.420372,-7841.953080,-9499.670207,-6065.905817,5424.723676,15586.653720,14384.062813,14819.385388,20724.045721,17913.380911,9062.760659,12116.187765,28.304001,-864.247986,-499.712006,2380.000000,-420.000000,280.000000
-15984.313605,-1464.709814,-3393.687712,-20187.559150,-3839.225035,-7839.472036,-9503.179431,-6071.225532,5425.617746,15594.923865,14394.903409,14825.442711,20735.400407,17925.674370,9068.750926,12119.138195,24.400000,-861.807983,-499.712006,2940.000000,-1260.000000,700.000000
-15989.119230,-1467.682596,-3390.893744,-20223.433700,-3840.364974,-7837.393324,-9509.639085,-6079.361567,5437.151246,15627.423302,14427.693418,14851.102513,20770.559701,17963.337059,9094.544839,12137.712495,23.424000,-861.807983,-498.735992,3220.000000,-1820.000000,840.000000
-15994.103669,-1473.874029,-3389.977323,-20266.706677,-3843.203645,-7836.789827,-9515.472891,-6083.496640,5453.602130,15668.304642,14468.753573,14883.199618,20814.570286,18006.095947,9126.977220,12164.378126,21.472000,-860.832031,-499.712006,2940.000000,-2380.000000,700.000000
-15995.712995,-1478.389082,-3391.318427,-20291.919445,-3844.209474,-7836.834530,-9515.897574,-6079.830954,5464.330967,15692.288064,14494.145154,14902.757395,20839.559536,18031.174604,9151.340622,12183.153592,25.864000,-860.832031,-499.223999,2520.000000,-2380.000000,700.000000
-15996.495306,-1482.412396,-3396.235811,-20289.840733,-3848.612767,-7839.472036,-9515.517594,-6077.238152,5464.107450,15690.164648,14491.574704,14900.499868,20835.536222,18026.771310,9152.279395,12182.572446,31.232000,-860.343994,-498.735992,2100.000000,-2380.000000,280.000000
-15989.678024,-1478.702006,-3399.186242,-20258.928270,-3851.272625,-7844.992917,-9513.617696,-6076.232323,5457.916016,15663.834293,14464.216168,14878.617511,20802.477992,17991.656720,9127.424255,12162.277062,31.232000,-860.343994,-496.783997,1680.000000,-2520.000000,0.000000
-15981.296120,-1474.052843,-3400.393236,-20216.839935,-3850.624424,-7846.289318,-9509.415568,-6072.901913,5443.230920,15627.020970,14426.374665,14846.833330,20760.344954,17948.406094,9093.404900,12135.410265,30.743999,-862.296021,-501.175995,1400.000000,-2660.000000,-140.000000
-15977.853951,-1474.566933,-3401.957858,-20189.526104,-3851.585549,-7846.781057,-9508.186222,-6074.265370,5430.222205,15602.054072,14401.206601,14821.687618,20733.142881,17918.566515,9067.700394,12116.076006,32.695999,-858.392029,-500.688019,1680.000000,-2940.000000,-140.000000
-15980.290291,-1479.216096,-3401.913154,-20192.901217,-3852.457267,-7846.535188,-9510.108472,-6080.367396,5430.378667,15605.406833,14402.190078,14820.055940,20734.908668,17921.002855,9065.398164,12116.411283,32.695999,-863.760010,-500.200012,1540.000000,-2940.000000,0.000000
-15983.933626,-1482.278285,-3399.387407,-20220.818546,-3850.646776,-7842.735391,-9511.248411,-6085.396538,5439.118199,15631.446616,14426.084092,14839.636068,20763.094218,17949.814254,9086.677025,12132.012800,33.184002,-864.247986,-503.127991,1820.000000,-3080.000000,0.000000
-15982.704280,-1477.606771,-3394.246506,-20257.967145,-3845.707041,-7839.047353,-9510.980190,-6085.150669,5456.306691,15667.477628,14460.438724,14872.962519,20801.986253,17990.896760,9120.741084,12154.744524,32.208000,-863.272034,-504.104004,1820.000000,-3360.000000,140.000000
-15985.453544,-1478.299675,-3394.157099,-20289.103125,-3846.332889,-7839.159112,-9512.947144,-6084.055434,5471.036490,15694.433832,14488.423108,14899.963427,20833.301047,18023.150328,9145.953851,12175.621054,31.232000,-861.320007,-504.592010,2100.000000,-3640.000000,0.000000
-15989.454507,-1480.423091,-3398.225117,-20295.696890,-3849.573892,-7841.036658,-9514.847042,-6082.736681,5471.885857,15696.959579,14494.838058,14906.043101,20838.464300,18027.844194,9149.172503,12182.438336,31.720001,-863.760010,-503.615997,1820.000000,-3640.000000,-280.000000
-15982.324300,-1468.531962,-3397.465157,-20262.370439,-3844.522398,-7842.154246,-9504.833460,-6078.959236,5459.279473,15669.154009,14464.730259,14886.440621,20804.981387,17996.261179,9129.793540,12166.568597,31.232000,-863.760010,-501.175995,1540.000000,-3640.000000,-560.000000
-15974.836466,-1458.987768,-3395.609962,-20215.722348,-3838.621538,-7840.991955,-9492.115318,-6072.566637,5443.074458,15629.703180,14422.261944,14853.360039,20759.629698,17953.323478,9098.769319,12141.735809,34.160000,-866.200012,-501.175995,980.000000,-3360.000000,-980.000000
-15971.908387,-1457.981939,-3394.559430,-20178.752563,-3835.559349,-7840.790789,-9485.700367,-6069.750317,5426.467112,15596.734356,14388.667272,14822.916963,20722.995189,17918.857088,9071.991929,12117.975905,35.136002,-870.591980,-498.735992,700.000000,-2800.000000,-1400.000000
-15975.104687,-1463.011082,-3394.604134,-20170.817694,-3838.286261,-7840.254347,-9488.159059,-6070.487925,5418.040504,15585.044394,14379.726574,14811.070539,20714.322712,17911.033977,9062.112458,12111.248030,33.672001,-869.616028,-495.320007,840.000000,-2240.000000,-1820.000000
-15979.709146,-1469.157811,-3393.151271,-20193.951749,-3841.840189,-7838.712077,-9494.283437,-6076.433489,5423.896661,15603.126955,14400.625455,14824.034551,20737.926154,17932.715170,9073.467144,12120.032265,32.208000,-868.640015,-492.880005,980.000000,-1820.000000,-1960.000000
-15979.619739,-1468.487259,-3387.563334,-20230.385093,-3838.375668,-7837.013344,-9497.457385,-6080.725024,5441.599243,15638.643877,14436.879985,14854.745848,20777.600500,17970.981356,9102.591467,12137.444274,31.720001,-871.567993,-494.832001,1260.000000,-1680.000000,-1960.000000
-15983.039556,-1471.907076,-3387.608038,-20271.177026,-3839.582663,-7836.365144,-9503.537059,-6080.926190,5460.218246,15676.865360,14477.180180,14889.078127,20819.554725,18011.169793,9133.995668,12163.282891,32.208000,-868.152039,-494.343994,1680.000000,-1820.000000,-1820.000000
-15983.441887,-1469.627198,-3390.178489,-20286.018584,-3840.208511,-7837.572138,-9504.453481,-6080.032120,5468.801316,15689.494096,14490.591227,14905.037273,20832.205812,18023.932639,9147.272604,12174.525818,33.184002,-863.272034,-495.320007,1540.000000,-2240.000000,-1400.000000
-15981.363175,-1462.832268,-3392.033683,-20267.243119,-3837.325136,-7838.645022,-9498.194992,-6073.840687,5461.782868,15673.467895,14473.134514,14894.487249,20812.446870,18005.470098,9138.242500,12167.015632,31.720001,-864.247986,-497.760010,1540.000000,-2520.000000,-1400.000000
-15984.872399,-1465.983864,-3397.174585,-20233.112005,-3840.409677,-7841.751914,-9495.848059,-6070.420870,5443.297975,15638.442712,14437.505834,14863.977118,20775.298271,17967.919167,9107.754720,12148.821312,29.768000,-862.296021,-499.712006,1120.000000,-3080.000000,-1260.000000
-15981.162009,-1462.184067,-3396.772253,-20188.855551,-3835.492293,-7843.204778,-9489.030777,-6069.303282,5422.712019,15598.902476,14393.875229,14829.667190,20730.795947,17925.741425,9073.891827,12123.720303,29.280001,-861.320007,-493.856018,980.000000,-3080.000000,-980.000000
-15980.737326,-1464.642759,-3394.425320,-20169.789513,-3833.882968,-7842.243653,-9487.667321,-6071.426698,5411.938478,15583.211551,14376.060888,14812.366940,20713.540401,17908.888210,9051.875359,12111.315085,24.400000,-858.880005,-499.712006,700.000000,-3080.000000,-420.000000
-15985.453544,-1471.549448,-3394.470023,-20183.111153,-3836.922805,-7840.790789,-9493.612885,-6076.925227,5414.486577,15595.393252,14390.634226,14819.161870,20728.024331,17920.421710,9053.484685,12115.047826,25.864000,-856.928040,-501.175995,420.000000,-2800.000000,-280.000000
-15992.807268,-1479.372559,-3394.917058,-20221.042063,-3841.348450,-7840.679030,-9502.978266,-6084.211896,5427.763513,15627.758578,14425.882927,14844.061714,20764.591785,17955.022210,9075.344691,12133.488015,27.328001,-857.903992,-502.152008,280.000000,-2520.000000,0.000000
-15996.472954,-1482.747672,-3395.542907,-20264.113875,-3844.723564,-7840.544920,-9508.856774,-6087.452899,5446.203702,15665.868302,14465.601977,14876.851723,20806.702472,17997.825801,9107.642961,12160.175998,25.375999,-860.832031,-501.175995,-420.000000,-1960.000000,420.000000
-15997.612893,-1482.166527,-3397.956896,-20287.560855,-3846.288186,-7842.534225,-9510.354341,-6087.005864,5457.558388,15686.923645,14484.511552,14897.415328,20827.735463,18019.775214,9128.407732,12176.090440,20.984001,-859.367981,-501.664001,-840.000000,-1400.000000,840.000000
-15999.333978,-1483.954666,-3402.471948,-20284.610425,-3848.232788,-7845.730525,-9509.326161,-6085.508297,5454.965586,15682.006262,14479.951797,14894.509601,20822.035768,18013.404967,9127.401904,12176.872751,21.960001,-859.856018,-502.152008,-1120.000000,-700.000000,1260.000000
-15998.953998,-1487.598000,-3407.992829,-20256.626041,-3851.876122,-7849.798542,-9510.063769,-6084.390710,5445.577853,15655.720610,14454.671974,14871.353194,20793.380832,17980.994938,9103.507889,12162.232359,18.544001,-858.880005,-502.152008,-1400.000000,-140.000000,1680.000000
-15990.996777,-1480.400739,-3408.462215,-20212.615456,-3848.009270,-7850.670260,-9502.419472,-6079.987416,5434.983127,15617.923810,14415.444662,14838.607888,20750.331372,17938.258402,9073.377737,12137.667792,17.080000,-863.272034,-503.127991,-1400.000000,420.000000,1960.000000
-15984.894751,-1472.398814,-3403.209556,-20178.551397,-3842.220168,-7848.300975,-9495.266914,-6078.780422,5425.461283,15590.520572,14384.599255,14813.216306,20719.374206,17908.128251,9052.747077,12117.126538,16.592001,-863.760010,-504.104004,-1260.000000,700.000000,2380.000000
-15987.219332,-1472.510573,-3398.761558,-20176.360926,-3840.700250,-7843.651813,-9494.194030,-6080.367396,5422.488501,15587.145458,14383.660481,14809.260048,20719.105985,17910.050501,9053.127057,12115.628972,14.640000,-863.272034,-504.104004,-980.000000,560.000000,2520.000000
-15988.985120,-1473.024663,-3393.352436,-20202.043081,-3836.855750,-7838.175635,-9494.708120,-6079.898009,5431.205682,15609.966589,14410.303761,14829.555432,20748.073846,17939.912431,9074.942359,12132.124559,12.688000,-862.296021,-505.567993,-420.000000,420.000000,2800.000000
-15993.835448,-1475.908038,-3392.234849,-20244.690209,-3837.727468,-7837.527435,-9501.301885,-6080.903838,5447.522455,15646.377581,14449.821645,14862.054868,20791.235064,17982.783077,9107.352389,12158.209045,14.640000,-861.807983,-499.223999,140.000000,140.000000,2940.000000
-15997.389376,-1477.249143,-3395.341741,-20276.899073,-3841.080229,-7838.913243,-9505.056978,-6081.596742,5462.162848,15675.010166,14478.007195,14886.306511,20819.957056,18011.840345,9133.079247,12178.750298,15.128000,-860.832031,-502.152008,420.000000,-420.000000,2800.000000
-15991.689681,-1470.431861,-3396.012294,-20275.647375,-3839.493256,-7840.053182,-9502.195955,-6078.333387,5469.337758,15676.910064,14477.694270,14889.525162,20818.481841,18010.812165,9136.677878,12179.376147,15.616000,-861.320007,-503.615997,700.000000,-1120.000000,2380.000000
-15986.325262,-1463.525172,-3397.800433,-20248.668820,-3838.509779,-7842.869501,-9498.060882,-6075.628826,5463.861580,15652.591366,14450.514549,14869.475647,20789.782201,17982.559560,9118.349447,12163.417001,17.568001,-863.272034,-499.712006,840.000000,-1540.000000,2100.000000
-15984.447716,-1459.948893,-3401.175547,-20206.871057,-3839.135628,-7846.065801,-9494.283437,-6073.773631,5446.449571,15613.095833,14410.259057,14834.830443,20745.972782,17938.392513,9087.302874,12138.919489,17.080000,-863.760010,-498.248016,980.000000,-2240.000000,1540.000000
-15981.519637,-1459.881837,-3401.309657,-20168.783685,-3838.710944,-7847.295147,-9491.288303,-6072.588989,5430.825702,15577.914188,14374.876246,14803.850925,20708.041872,17900.260437,9057.284481,12115.941896,18.544001,-863.760010,-498.248016,980.000000,-2660.000000,840.000000
-15983.486591,-1462.519343,-3400.415587,-20156.959612,-3838.554482,-7846.959871,-9490.863620,-6073.997149,5422.220280,15566.268929,14362.091048,14791.602169,20696.843648,17890.023338,9046.868568,12109.594001,21.472000,-865.223999,-496.296021,1120.000000,-3080.000000,420.000000
-15983.106611,-1462.474640,-3395.811128,-20172.784647,-3837.995689,-7844.702345,-9492.584704,-6074.712405,5427.338830,15585.022042,14377.938435,14804.365016,20714.970912,17906.943608,9058.759696,12116.724207,20.496000,-864.247986,-500.200012,980.000000,-3220.000000,0.000000
-15985.162972,-1465.872105,-3392.078387,-20212.369587,-3840.409677,-7844.635289,-9498.127937,-6078.199277,5444.616728,15623.221174,14416.495194,14836.931507,20754.600555,17946.729713,9089.403938,12139.411228,22.448000,-864.736023,-497.272003,980.000000,-3640.000000,-420.000000
-15986.034690,-1467.615541,-3391.296076,-20251.954526,-3841.013174,-7842.109542,-9499.960780,-6076.589951,5463.034566,15658.693392,14452.369744,14870.861455,20793.291425,17987.298129,9121.210470,12169.586083,25.864000,-864.247986,-493.368011,980.000000,-3500.000000,-840.000000
-15983.575998,-1465.246256,-3393.643009,-20267.488988,-3841.616671,-7842.713039,-9498.306751,-6073.594817,5473.115203,15673.780820,14465.601977,14887.446450,20808.423556,18002.139688,9136.253194,12185.724042,25.375999,-866.200012,-495.320007,1260.000000,-3640.000000,-1120.000000
-15982.637225,-1462.809916,-3398.046303,-20251.999229,-3843.583625,-7845.998746,-9494.797527,-6071.091422,5467.482563,15661.152084,14451.699192,14877.455220,20792.285596,17985.398231,9125.569061,12180.940769,26.840000,-865.712036,-496.783997,1260.000000,-3500.000000,-1260.000000
-15978.569207,-1458.451326,-3400.750864,-20211.050834,-3843.181293,-7848.971528,-9488.762556,-6068.811544,5449.779981,15623.601153,14413.097729,14844.978135,20749.929041,17944.271021,9095.617723,12160.086591,29.280001,-863.760010,-495.808014,1820.000000,-3360.000000,-1680.000000
-15978.837428,-1458.473677,-3402.963686,-20172.717592,-3844.477695,-7849.865597,-9485.968588,-6068.006881,5430.445722,15586.631368,14372.529313,14811.897553,20710.634674,17904.708434,9066.269882,12140.662925,26.352001,-864.736023,-496.296021,2100.000000,-2940.000000,-1680.000000
-15980.804381,-1462.854619,-3404.058922,-20157.116074,-3847.875160,-7848.569196,-9489.477812,-6069.035061,5421.706190,15570.761629,14356.100780,14794.776117,20695.100212,17888.793992,9049.304908,12131.677524,28.792000,-864.247986,-498.735992,2240.000000,-3080.000000,-1680.000000
-15978.457448,-1462.631102,-3398.001599,-20168.359002,-3846.019965,-7844.612938,-9491.847097,-6072.119602,5431.742124,15583.859752,14369.645938,14805.527306,20708.287741,17902.808535,9055.809266,12138.628917,29.280001,-864.736023,-499.712006,2660.000000,-2380.000000,-1820.000000
-15978.256283,-1463.189896,-3392.547773,-20203.875924,-3844.030660,-7842.064839,-9497.524440,-6076.925227,5449.221188,15619.041397,14406.325150,14835.523347,20747.068017,17941.432350,9082.899580,12158.410210,28.792000,-863.272034,-498.735992,2940.000000,-1960.000000,-1680.000000
-15985.073565,-1468.397852,-3392.190146,-20249.920517,-3842.689555,-7840.589624,-9502.732396,-6079.875658,5464.420374,15658.805151,14449.173444,14872.180208,20793.157314,17988.527475,9120.718732,12187.422775,29.768000,-863.760010,-497.760010,3080.000000,-1680.000000,-1820.000000
-15990.370928,-1473.628160,-3395.744073,-20282.934044,-3843.918901,-7842.042487,-9507.292152,-6082.066129,5477.049110,15686.029576,14480.577645,14898.711729,20823.689797,18020.043435,9146.624404,12211.249734,31.720001,-862.783997,-499.223999,3080.000000,-1400.000000,-1540.000000
-15994.058966,-1481.048939,-3402.226079,-20289.393698,-3849.015099,-7844.322365,-9506.956876,-6082.110832,5477.943179,15690.544628,14487.685500,14902.265656,20827.377835,18022.032740,9153.017003,12219.184604,32.208000,-860.343994,-497.760010,3640.000000,-980.000000,-1260.000000
-15991.689681,-1483.306466,-3407.791663,-20263.689192,-3854.513628,-7847.786885,-9502.218306,-6079.495678,5471.997615,15669.019898,14464.976128,14878.952787,20799.907541,17991.008519,9136.655526,12208.299304,28.792000,-860.832031,-498.735992,3780.000000,-840.000000,-980.000000
-15984.134791,-1476.712701,-3410.250355,-20225.445357,-3858.738108,-7852.704269,-9501.704216,-6082.356701,5470.544752,15638.152139,14428.922764,14849.604946,20760.300250,17948.316687,9101.987970,12184.829972,28.792000,-863.272034,-499.223999,3780.000000,-420.000000,-700.000000
-15979.172704,-1471.460041,-3407.434035,-20195.494019,-3856.614692,-7853.754801,-9499.469042,-6083.407233,5460.575874,15612.000598,14401.094842,14826.493243,20730.326561,17919.907620,9077.244589,12164.512237,29.768000,-861.320007,-501.175995,3780.000000,-280.000000,-280.000000
-15983.374832,-1477.472660,-3405.467082,-20194.734060,-3856.324119,-7849.530321,-9498.686731,-6082.759033,5450.048202,15609.363092,14399.798441,14822.626391,20730.907706,17921.472242,9077.088127,12162.433524,29.768000,-861.320007,-500.688019,3920.000000,-140.000000,140.000000
-15985.989986,-1481.160698,-3403.097797,-20217.532839,-3853.127820,-7845.439952,-9497.658550,-6082.870791,5452.506894,15628.384427,14419.087996,14838.116150,20754.533500,17948.629612,9100.266886,12175.688109,29.768000,-860.832031,-500.200012,3780.000000,-280.000000,560.000000
-15981.810210,-1476.578590,-3396.615791,-20250.054628,-3847.450477,-7841.483693,-9497.479737,-6083.518992,5469.382461,15663.610776,14451.900357,14867.374583,20790.072774,17986.113487,9130.933479,12194.932961,27.328001,-859.856018,-503.127991,3640.000000,140.000000,980.000000
-15979.463277,-1472.488221,-3394.604134,-20276.027355,-3845.774096,-7840.231996,-9500.139594,-6086.134146,5486.481546,15691.505753,14480.443535,14891.916799,20817.118384,18013.114394,9153.106410,12208.947505,28.304001,-864.247986,-499.712006,3640.000000,280.000000,1260.000000
-15979.463277,-1470.744785,-3398.001599,-20279.156599,-3847.539884,-7842.936557,-9501.324237,-6084.368358,5488.381444,15694.076204,14483.282206,14895.046043,20820.113518,18014.410795,9156.347413,12210.221554,26.840000,-862.296021,-501.175995,3080.000000,280.000000,1540.000000
-15981.407879,-1469.940122,-3404.461253,-20251.909822,-3849.842113,-7847.764533,-9498.731434,-6081.753204,5472.109374,15664.169570,14453.397924,14872.023746,20789.469277,17983.386574,9134.822683,12193.502449,25.375999,-861.320007,-501.664001,2660.000000,280.000000,1820.000000
-15982.816038,-1469.001349,-3408.261050,-20209.039177,-3851.406735,-7851.743144,-9495.244562,-6078.422794,5453.155095,15620.404854,14408.895601,14836.216251,20743.447035,17937.789016,9100.915086,12165.428658,27.328001,-862.296021,-504.592010,2240.000000,560.000000,1960.000000
-15978.859780,-1463.122840,-3406.718779,-20167.107304,-3845.751744,-7850.089115,-9486.236809,-6075.718233,5438.872330,15583.055089,14369.511827,14803.694463,20704.331482,17898.584056,9073.109516,12139.612393,24.888000,-862.783997,-501.664001,2100.000000,560.000000,2240.000000
-15976.356384,-1458.205457,-3402.650762,-20148.890632,-3841.795485,-7847.429257,-9480.827687,-6074.555942,5431.965641,15567.297109,14353.753847,14789.210533,20688.640557,17884.725974,9060.570188,12126.491919,24.400000,-859.856018,-504.104004,1540.000000,700.000000,2240.000000
-15977.071640,-1460.395927,-3398.046303,-20165.743848,-3842.287224,-7844.344717,-9483.711062,-6074.868867,5439.118199,15583.613882,14370.338842,14801.727510,20706.410194,17903.143812,9072.751888,12132.191614,22.936001,-861.807983,-505.567993,1400.000000,420.000000,2240.000000
-15979.731498,-1466.520305,-3395.520555,-20205.351139,-3842.197817,-7841.930728,-9489.075481,-6076.701710,5454.451496,15618.974342,14407.241572,14831.835309,20746.509224,17943.779283,9103.284371,12153.179902,21.472000,-857.416016,-502.152008,840.000000,700.000000,2240.000000
-15978.613911,-1464.687462,-3392.436015,-20238.677590,-3840.812008,-7841.081362,-9492.763518,-6078.199277,5469.538923,15652.501959,14439.808063,14860.803170,20781.735573,17979.564426,9131.738142,12171.933016,22.448000,-862.296021,-506.544006,700.000000,560.000000,2100.000000
-15979.485629,-1464.419241,-3395.006465,-20250.389904,-3842.846017,-7844.590586,-9495.848059,-6078.489849,5473.964569,15663.677831,14449.843997,14870.861455,20791.503285,17989.309786,9140.500026,12178.660891,21.472000,-858.392029,-505.567993,280.000000,700.000000,1960.000000
-15980.133829,-1462.228771,-3399.722683,-20232.709674,-3844.187122,-7847.518664,-9493.031739,-6074.846515,5465.225037,15647.204595,14433.393113,14856.355173,20771.721992,17969.260272,9130.821720,12170.726022,20.984001,-861.807983,-505.080017,280.000000,420.000000,1820.000000
-15979.083297,-1463.458116,-3403.276611,-20197.952711,-3846.623462,-7850.625557,-9489.678978,-6072.276064,5450.182313,15613.788738,14400.647807,14827.879051,20737.076788,17930.949382,9103.373778,12152.866978,22.936001,-859.367981,-503.127991,140.000000,700.000000,1540.000000
-15975.864646,-1461.446459,-3403.656590,-20157.630164,-3843.673032,-7853.263063,-9486.460326,-6074.086556,5433.127932,15575.187275,14361.040516,14797.212457,20697.022462,17890.738593,9069.287368,12130.045847,20.007999,-855.463989,-506.056000,-140.000000,420.000000,1400.000000
-15977.563379,-1464.754518,-3403.142500,-20139.413493,-3844.254177,-7853.061897,-9489.835440,-6078.400442,5423.270812,15555.473036,14342.421513,14780.292187,20678.291700,17872.611329,9044.253414,12115.025474,23.912001,-857.903992,-505.080017,-420.000000,140.000000,1120.000000
-15982.726631,-1472.421166,-3402.002561,-20153.517443,-3848.501009,-7851.989013,-9497.166812,-6082.446108,5428.970507,15567.475923,14355.989022,14786.014233,20693.312072,17886.290596,9046.287423,12120.591059,23.424000,-860.343994,-506.056000,-840.000000,-280.000000,560.000000
-15991.689681,-1481.719492,-3401.756692,-20193.437659,-3853.306634,-7850.647909,-9506.509841,-6086.759995,5441.398077,15601.383519,14392.355310,14811.562277,20732.852308,17924.377969,9074.674138,12144.194501,22.936001,-856.440002,-508.496002,-700.000000,-420.000000,560.000000
-16003.156126,-1489.967285,-3405.154157,-20238.297610,-3857.844038,-7850.469095,-9512.544812,-6089.397501,5450.674051,15638.800340,14432.789616,14839.948993,20776.527617,17965.728696,9110.906316,12172.558865,23.912001,-856.440002,-505.567993,-700.000000,-980.000000,280.000000
-16009.816946,-1495.912849,-3408.663381,-20264.136227,-3859.229846,-7851.273757,-9513.774158,-6089.688073,5460.262949,15661.017974,14457.085962,14856.802208,20802.276826,17988.348661,9134.353296,12192.496621,24.888000,-857.903992,-509.472015,-560.000000,-1400.000000,280.000000
-16002.373815,-1490.436672,-3410.116245,-20258.771808,-3858.827515,-7854.537112,-9514.087083,-6088.592838,5467.773136,15659.766276,14453.017944,14856.265766,20796.666538,17980.391440,9132.453398,12190.417908,23.912001,-858.392029,-508.007996,-280.000000,-1680.000000,0.000000
-15996.651768,-1484.401701,-3412.776102,-20225.266543,-3857.039375,-7857.040507,-9509.750844,-6087.654065,5458.988900,15631.737188,14421.412578,14834.830443,20763.004811,17945.746237,9110.682799,12173.609397,24.888000,-859.367981,-511.912018,-280.000000,-2100.000000,-140.000000
-15990.639149,-1477.159736,-3412.284364,-20178.417287,-3853.261930,-7856.437010,-9500.206649,-6086.536477,5441.420429,15590.140592,14376.642034,14801.727510,20716.915514,17900.595713,9079.949150,12149.871844,26.840000,-861.320007,-511.424011,140.000000,-2380.000000,-140.000000
-15985.274730,-1470.163640,-3409.736265,-20147.661286,-3852.345509,-7855.922920,-9495.557486,-6087.810527,5429.216376,15562.491484,14349.238795,14776.760611,20685.779534,17870.979651,9056.792743,12130.135254,29.768000,-861.320007,-509.472015,420.000000,-2940.000000,-140.000000
-15987.912236,-1471.951779,-3406.942297,-20145.940202,-3851.540846,-7852.838379,-9494.730472,-6088.414024,5423.024943,15558.535225,14346.713048,14773.519608,20683.656118,17871.963128,9056.099839,12129.129425,26.840000,-860.343994,-505.080017,560.000000,-3220.000000,-140.000000
-15991.153239,-1476.824460,-3403.343666,-20173.075220,-3849.328023,-7848.725659,-9494.909286,-6087.341140,5430.378667,15582.473944,14373.222217,14793.300902,20712.221648,17902.585018,9079.725633,12147.815484,27.816000,-862.296021,-509.472015,1120.000000,-3360.000000,0.000000
-15992.360233,-1480.221925,-3401.913154,-20212.928380,-3849.283320,-7848.122161,-9500.139594,-6087.810527,5447.500103,15619.086101,14409.432043,14824.347475,20752.745360,17943.041675,9109.811081,12172.402402,26.352001,-861.320007,-504.592010,1260.000000,-3360.000000,0.000000
