10.0571,12.2273,8.88515,9.25968,12.819,12.6456,11.4154,11.4168,13.2497,12.4021,9.41262,12.3147,8.09385,13.6827,8.49735,13.7423,38.552,-903.288,-424.072,2100,-140,-560
0.389868,-1.86039,-0.671049,-1.55303,0.253075,5.64768,1.33739,1.93445,-3.25014,-0.423856,-0.890095,0.0691941,-2.25072,0.451666,-0.938452,3.38008,39.04,-906.216,-423.096,2240,-420,-420
-11.3556,-16.5553,-12.3558,-10.2081,-13.3519,-0.349157,-10.8716,-9.29779,-15.0117,-12.6469,-11.9719,-13.8768,-13.4523,-11.1889,-11.122,-8.17232,40.016,-902.8,-425.048,2380,-280,-420
-1.84655,-0.776094,-4.48236,2.38527,-1.69922,3.10133,-3.38182,-4.24909,1.67608,-0.421182,-1.38447,0.943397,-5.67918,-3.54522,-2.19718,0.652512,39.04,-902.8,-426.512,2380,-420,-560
-15.1434,-20.5895,-16.3927,-10.8421,-19.7143,-8.3273,-16.815,-16.209,-19.1912,-16.2122,-15.5026,-17.4938,-15.4998,-15.8847,-17.0207,-13.5889,39.528,-901.336,-425.048,2380,-420,-420
1.4529,2.55498,0.675766,5.94937,1.1711,5.55539,-0.678545,-1.60149,5.72222,3.65693,0.328247,3.54909,-1.09424,0.12088,-1.84107,3.71933,38.552,-902.8,-424.072,2520,-420,-420
0.185839,-0.647955,0.979281,3.82069,-1.452,2.90719,1.98138,-0.375652,-1.37318,0.387294,-0.898097,-0.279105,-1.05247,0.457554,-1.72066,2.32497,40.504,-903.776,-424.56,2520,-560,-700
0.154832,-1.54399,0.983222,4.47937,0.88727,3.79544,3.191,0.29274,-0.813158,-0.250355,-0.653767,-1.79679,-0.524487,3.18336,0.355699,3.47526,37.576,-898.896,-427.488,2520,-700,-560
13.0151,15.9658,11.112,15.1293,16.7936,11.6879,11.7984,8.46749,17.4105,15.2369,14.0532,15.1011,10.0889,12.3957,10.1726,13.7978,38.552,-903.776,-423.096,2660,-560,-420
-2.61769,-6.78784,-1.33985,-3.9188,-2.43481,-0.266259,-1.24165,-2.96392,-8.1263,-4.46425,-1.06753,-5.18676,-0.483457,-1.97285,-4.22903,-4.52702,36.6,-901.336,-422.12,2520,-700,-560
15.1292,18.5233,12.7568,14.4363,19.898,9.64267,14.6982,10.7828,21.8493,15.3535,15.1466,17.0337,11.7101,12.1662,15.7832,10.6833,39.528,-899.872,-422.12,2380,-840,-700
6.79007,6.00282,3.93052,2.92582,6.16797,-2.92986,4.60134,1.93972,7.10021,6.11529,6.95913,5.73979,3.54957,0.958104,6.01809,-0.168835,40.992,-901.336,-422.608,3080,-980,-420
-2.38778,-7.28058,-1.48726,-6.70101,-6.24248,-7.33952,-4.00976,-3.91369,-8.01643,-4.40987,-3.83099,-6.09673,-2.28245,-7.34735,-4.13623,-9.31632,39.528,-901.336,-426.512,2940,-980,-560
6.58396,8.95045,7.21757,5.45141,6.09804,0.373132,4.16213,5.79947,6.89394,7.00364,4.80808,7.33978,6.97366,1.89734,5.16484,1.16712,40.504,-901.336,-424.072,2660,-980,-420
-11.9367,-13.9589,-10.6658,-13.1799,-16.6883,-14.1117,-13.6485,-9.68666,-17.6304,-13.1335,-12.3077,-13.9307,-7.86202,-13.2494,-13.1105,-15.7044,40.504,-900.36,-423.584,2940,-1120,-560
-0.529815,6.73552,1.64404,3.56916,3.43465,2.60474,0.571968,2.44966,5.95003,3.94804,1.27716,5.49202,3.19589,1.93775,2.45545,1.98685,41.968,-899.872,-424.56,2800,-980,-560
-4.54364,2.10173,0.479665,1.14749,0.899809,3.27667,1.11254,1.50649,-3.03206,-2.08462,-2.7839,-0.476971,1.06706,0.971401,3.31809,0.782898,38.064,-902.8,-425.048,2380,-700,-840
-4.52852,-1.89488,-3.2397,-1.42647,-3.05831,2.84006,-2.6458,-1.17126,-5.18225,-4.4196,-3.93465,-5.80964,-0.841088,-0.581321,-1.06103,-3.62706,37.576,-899.872,-422.12,2380,-980,-840
8.89234,14.0447,6.64534,9.65997,10.6693,6.72407,7.34477,5.87237,11.2403,9.19468,8.56542,9.85718,7.00812,8.3574,9.28657,8.1647,38.552,-902.8,-424.56,2380,-840,-700
-5.68078,-12.6955,-6.46633,-12.052,-12.387,-9.02257,-8.92655,-7.50734,-17.0414,-11.6601,-8.19079,-12.4766,-6.64027,-7.09771,-10.3255,-9.62866,41.48,-901.824,-424.56,2520,-560,-840
8.63628,7.36206,5.75214,1.43672,6.88454,-0.50222,2.71022,4.71896,9.22183,7.12395,6.78766,7.41098,6.14087,5.58101,2.35848,5.9975,39.528,-900.848,-424.072,2100,-700,-980
-2.7551,-4.92212,-1.44982,-5.42116,-2.66347,-9.35769,-1.34915,0.321265,-5.51477,-3.83833,-2.5818,-4.14129,-0.0815886,-2.13869,-2.09937,1.05507,38.064,-903.776,-423.584,2100,-700,-1120
-11.1601,-13.8307,-8.25439,-8.16039,-8.19448,-10.9678,-5.28681,-3.36239,-11.3602,-12.1271,-9.72082,-12.5318,-7.56967,-6.81937,-4.11846,-2.31956,39.528,-901.824,-427,2100,-560,-840
0.529319,4.38576,0.678097,4.22389,5.95717,-3.26164,2.51237,4.44062,6.70125,2.11276,1.45001,2.87917,1.12525,0.412492,4.57686,7.51487,37.576,-906.216,-421.144,2380,-420,-980
-14.3455,-19.7937,-13.4124,-15.9562,-18.4254,-16.6391,-13.5884,-10.6402,-18.3784,-15.8561,-14.8426,-17.9245,-11.1047,-15.46,-14.9945,-11.7054,41.48,-903.776,-423.584,2520,-560,-980
5.57572,6.52901,5.79217,4.18403,6.30992,0.381157,4.74897,3.93387,11.5741,7.57164,4.7218,6.3083,3.64814,3.04458,4.88742,6.29968,41.48,-901.336,-421.632,2660,-700,-840
1.00351,1.56,3.09762,-0.242179,1.21709,-2.03286,2.61293,0.0984019,2.9752,1.22421,2.14173,2.62547,1.86836,1.21161,1.85029,-0.60453,42.456,-902.8,-424.072,2660,-840,-980
-1.80761,-2.81276,-3.00484,-2.19398,-3.01418,-0.446688,0.787343,-2.04681,3.07088,-1.51249,0.69413,1.56289,-1.93799,-0.392679,0.288812,-4.70895,39.04,-902.312,-423.584,2380,-1120,-980
9.97227,16.1148,8.74842,13.9373,14.6563,13.6736,14.2402,9.62488,16.5616,12.2395,11.3105,17.0291,6.58046,11.2564,15.0755,8.67617,38.552,-900.36,-423.096,2520,-980,-840
-13.0889,-15.4699,-10.7059,-10.9462,-12.3716,-0.529851,-8.39073,-8.66444,-17.64,-13.8667,-9.79586,-11.4384,-10.6172,-6.62151,-9.80664,-11.5891,38.552,-899.872,-426.512,2660,-1260,-840
1.03749,2.46584,1.19229,0.829656,4.2204,12.1572,0.259508,1.3587,4.00648,3.18141,2.64757,5.0109,1.05105,5.91605,-2.38494,1.1085,41.48,-901.336,-426.024,2660,-1120,-840
0.199626,-2.34744,-0.6001,-3.15122,-3.40099,6.22147,-2.87409,-2.91359,-3.99545,-0.331103,-2.20484,-2.26968,-2.74212,-0.186353,-5.82345,-5.80058,40.504,-896.944,-424.56,2660,-1120,-840
4.76023,2.47799,2.029,2.21468,0.873017,10.8134,1.84506,2.31063,3.36789,4.63637,2.40045,-0.0218512,0.571067,4.17693,-0.299386,-0.0346734,40.016,-899.384,-424.072,2380,-1120,-700
15.0434,20.7016,12.3225,15.0051,18.5956,18.2808,15.239,13.7677,18.7578,16.4772,13.8476,16.3399,12.4585,16.2375,14.7154,15.267,39.528,-900.848,-424.56,2520,-1120,-700
-3.04444,-4.71633,-3.07432,-4.29626,-3.38717,3.68737,-1.56757,-1.69609,-9.67622,-3.92254,-3.55016,-6.01263,-0.680952,-0.542266,-1.84022,-1.21826,41.968,-900.848,-421.144,2660,-1260,-700
11.576,16.2881,9.35372,11.9709,14.3698,12.8524,8.68502,8.68726,15.109,15.3592,11.7853,12.8252,11.4534,11.257,12.0889,13.6025,39.528,-901.824,-425.048,2660,-1260,-700
0.304866,-0.532725,0.637965,0.296968,-0.752251,-2.8755,-3.96693,0.818487,-2.80569,3.42679,3.16135,-0.458291,3.6775,-0.546498,-1.06424,2.23574,41.48,-902.312,-425.048,2660,-1260,-700
-1.97189,-5.12947,-2.20705,-1.61289,-3.8922,-8.73529,-6.43719,-3.0079,-3.52487,-0.100963,-0.81183,-2.47803,-0.669012,-3.54577,-3.80421,-0.942247,37.576,-901.336,-423.584,2520,-980,-700
8.78142,11.2802,6.25535,9.49894,7.86698,-5.88069,3.94268,1.3959,12.4987,11.0091,8.34877,11.5874,4.20071,3.57876,5.10264,7.22566,39.04,-902.8,-424.56,2660,-980,-700
-10.4693,-14.0823,-10.0135,-8.38406,-15.27,-18.9188,-9.51559,-12.8524,-16.6516,-12.4338,-10.3902,-11.9238,-11.5257,-11.4137,-11.0873,-10.3667,38.552,-901.336,-425.536,2660,-840,-700
-4.0864,0.355361,-2.68286,1.74885,-0.771267,-10.1146,0.239587,-2.89347,-0.159647,-3.31885,-2.74579,0.33385,-4.31296,-1.8125,0.184439,1.53754,40.016,-903.776,-426.512,2380,-700,-840
-10.3948,-7.45728,-7.58443,-4.14002,-8.77801,-15.6298,-4.84295,-7.18335,-10.5218,-11.3111,-10.0489,-8.52506,-9.67391,-10.4421,-4.16128,-6.69512,38.064,-900.848,-424.56,2380,-700,-840
-9.03817,-10.3325,-9.34586,-3.59296,-12.3179,-13.2242,-7.19202,-10.5922,-9.28554,-11.0587,-10.5363,-12.0762,-11.3499,-14.3054,-3.75706,-12.1685,41.48,-901.824,-423.096,2520,-700,-700
0.202818,0.93331,-0.543451,2.25618,-2.10038,-5.77661,-3.89591,-6.07444,2.13341,-0.14705,-0.18572,-0.263607,-2.57523,-6.79625,-0.511048,-5.12725,40.504,-901.336,-424.56,2240,-560,-700
-11.6309,-21.3753,-11.4375,-16.1407,-22.1043,-12.5693,-17.8061,-16.2371,-19.5773,-18.8215,-16.1371,-20.5303,-12.1787,-17.4363,-18.1046,-19.5473,38.552,-904.752,-427,2100,-560,-980
6.16704,3.24664,2.99007,1.28716,0.82155,6.96308,-1.82617,2.18744,10.8301,1.33802,0.534097,0.583396,2.58907,0.41928,-2.75132,0.501671,35.136,-902.312,-424.56,2380,-700,-840
0.303192,-6.2308,-0.930321,-5.89942,-5.09661,3.32711,-4.08942,1.21177,-4.01318,-6.46172,-4.28719,-6.49169,0.0601619,-1.97462,-6.4145,-3.34383,38.552,-904.264,-422.12,2380,-560,-980
1.96343,-5.56507,2.75794,-4.14335,0.314208,10.5394,2.15233,6.44924,-3.97072,-3.35607,-1.32709,-3.19853,2.80363,2.8237,-0.78831,3.89281,39.04,-899.872,-423.096,2520,-980,-1120
16.7116,16.5342,17.2872,10.6719,21.0554,23.6163,17.5487,19.8021,17.5509,15.4627,16.104,18.1787,15.7161,16.1034,15.9692,20.7262,40.504,-902.8,-421.632,2520,-1120,-1120
1.83941,-4.3488,2.35678,-5.66938,0.608934,11.8205,2.77409,5.27769,-4.76725,-1.13794,2.56137,-1.35695,2.64381,2.54072,0.440138,2.13073,38.552,-900.36,-423.096,2520,-1260,-980
11.3023,14.9539,9.45527,9.32895,16.157,15.661,11.9907,10.9448,18.0014,13.789,12.9156,16.5912,9.99937,13.0948,13.0141,11.9235,40.504,-902.312,-424.56,2520,-1120,-1260
0.844376,3.67735,2.5187,2.31117,6.75242,5.46243,6.13217,3.57469,2.24077,2.97366,1.92253,5.51119,3.10194,4.99418,6.56484,3.51996,41.48,-898.896,-421.632,2240,-1120,-980
-6.5606,-1.3993,-2.52447,-0.937472,3.69785,5.97574,2.57236,0.744826,-3.6561,-2.68934,-3.65069,-1.14396,-0.462626,2.18654,2.23198,0.521342,40.504,-900.36,-426.024,2240,-980,-1260
1.50465,10.6224,3.98447,4.39671,10.7537,8.30915,6.85275,5.3148,8.26779,8.04844,6.37773,8.25947,6.85613,7.35641,6.16925,5.96056,42.944,-901.824,-425.048,2380,-1120,-1120
-13.0952,-11.6602,-8.18244,-10.5023,-9.91272,-2.637,-6.09446,-6.61616,-15.2955,-8.89982,-7.33285,-12.1046,-5.93943,-6.15974,-8.44846,-9.10119,42.456,-901.336,-427.488,2240,-1120,-1120
5.38304,14.4912,8.60288,11.3591,13.8704,10.812,10.7067,8.92774,13.437,11.884,9.1442,12.213,8.3564,11.1774,12.2033,9.9515,41.968,-902.8,-425.536,2520,-840,-980
-1.09732,2.66903,1.03035,0.470632,0.426496,-3.4468,0.455553,0.963752,-0.75987,2.97825,0.586637,1.7951,1.32097,2.25761,-0.221434,-0.341149,42.456,-899.872,-427,2380,-840,-980
-0.112609,2.13402,0.211377,2.8537,0.169711,-8.4126,0.615391,-0.781695,0.675742,3.26068,1.06563,1.48273,-0.662917,3.43302,0.901521,-0.0298316,42.944,-899.384,-420.168,2240,-560,-700
12.5845,20.5512,11.2541,15.4599,13.8534,-4.29808,10.3319,6.89459,17.9406,16.5215,14.0525,16.9832,9.0287,12.5273,11.5815,10.328,37.088,-899.384,-426.512,2100,-420,-840
-5.64971,-7.10897,-6.0036,-4.65076,-11.9078,-20.1847,-7.2793,-7.18029,-10.2521,-7.42181,-5.19386,-8.64593,-5.25812,-5.71027,-9.26707,-10.5286,41.48,-899.872,-425.048,2100,-420,-700
2.74921,6.24241,0.364923,6.07858,2.95495,-12.2064,1.42066,1.90292,6.78641,3.81241,3.91542,4.04494,1.03644,1.46111,0.946233,0.310372,44.896,-899.872,-426.024,2240,-280,-560
-11.554,-13.3942,-11.526,-7.94197,-14.2739,-21.2898,-11.5408,-9.52653,-17.252,-13.1493,-9.26445,-13.4178,-10.7687,-13.5284,-12.2297,-12.5516,40.504,-897.92,-426.024,2240,-280,-420
-10.742,-17.1547,-13.773,-10.2805,-17.3273,-17.1808,-13.4929,-11.5772,-15.5981,-15.1302,-13.1222,-17.0813,-13.1596,-14.7276,-12.9383,-12.2559,43.432,-901.824,-424.56,2240,140,-420
0.23211,-1.90945,-5.43191,-1.98649,-3.15704,-8.03577,-4.10324,-2.27369,0.881197,-0.992357,-2.61719,-2.99339,-3.76565,-5.14036,-2.58786,-0.237343,40.992,-901.336,-426.024,1960,-140,-420
-11.4011,-20.6131,-15.1125,-15.5087,-17.9965,-12.4438,-13.6788,-12.8445,-19.4932,-16.4061,-15.1598,-19.3896,-12.7234,-14.7059,-12.4339,-12.0234,42.456,-902.8,-422.608,2100,140,-280
7.75456,5.51097,1.67322,4.59808,5.17173,5.70682,2.31667,-1.85255,9.88511,3.31651,0.894148,6.07185,0.413404,1.02051,5.32651,4.56031,40.016,-902.312,-424.56,2100,0,-140
2.15209,-2.14336,-1.33012,-0.743302,-1.76648,3.56116,-2.42362,-4.10701,-1.78392,-2.90403,-3.45445,1.39049,-2.29311,-4.31762,-0.195808,-1.35614,38.552,-901.336,-424.072,2100,280,-140
-1.17752,-4.64562,-1.78657,-3.87765,-3.42223,9.65012,-2.58493,-1.9144,-1.31547,-3.28834,-4.0931,0.677005,-2.36176,-3.15057,-3.16807,-0.808864,42.944,-903.776,-425.536,2100,280,-140
10.3689,12.8065,10.8005,7.65158,10.4471,20.9746,7.49916,9.73039,16.231,13.2766,10.9009,16.7973,9.85046,8.37569,5.75127,10.7196,39.04,-901.824,-425.536,1820,280,-140
-7.61084,-14.1568,-3.98196,-12.2685,-13.441,5.1182,-8.4784,-4.95301,-14.5888,-8.42168,-5.99999,-8.92702,-3.37857,-7.46381,-10.3029,-8.09311,39.04,-901.824,-424.56,1820,560,-140
7.88448,10.5858,11.0784,7.33705,12.1799,15.7692,9.40534,9.91964,10.9046,10.2386,9.6789,11.5219,10.206,10.3905,10.3281,11.6882,39.528,-899.872,-424.56,1820,420,-280
5.71959,4.63332,9.90451,4.68298,8.58902,7.98702,6.43749,6.7976,2.68519,5.56501,6.59436,4.30419,7.14823,7.73165,5.76435,5.28208,38.064,-901.336,-426.512,1820,420,-140
6.51562,4.28007,7.62737,6.20734,7.71816,0.40512,4.59054,2.36025,7.75724,5.90978,4.27089,2.79028,4.08352,5.15404,5.85077,0.892898,40.016,-900.36,-423.584,1960,560,-140
14.2489,18.3045,12.6886,15.0215,17.9384,-1.69148,12.2791,9.06644,20.7982,16.2223,13.2108,15.0564,11.0454,9.19397,16.5208,9.16839,40.016,-899.872,-424.072,1680,560,-140
-7.40649,-12.1206,-7.64094,-10.0568,-9.3085,-14.9203,-5.24814,-6.32774,-11.6575,-9.58674,-6.87767,-13.0169,-6.51232,-9.13187,-5.5181,-9.09535,39.528,-902.312,-424.072,1820,420,-280
1.80513,5.26835,0.57042,1.96996,5.93196,3.15376,2.11479,2.83456,8.25577,3.5813,3.7582,1.42302,1.81333,3.61112,1.98016,4.6566,41.968,-901.824,-427.976,1680,560,-280
-6.44084,-5.33484,-4.32021,-5.63819,-6.14397,1.1926,-7.75765,-4.85312,-6.84814,-5.6064,-4.15188,-6.60758,-3.26815,-3.34155,-7.76972,-5.06215,40.016,-899.872,-426.512,1820,280,-280
-6.13943,-6.38481,-5.77364,-4.74109,-7.26933,4.90803,-5.86917,-4.96242,-4.73136,-6.021,-5.47654,-6.85822,-4.29653,-2.05759,-6.56444,-4.9197,40.016,-900.848,-425.536,1680,420,-560
1.9089,7.49651,3.35067,5.69822,4.5078,12.7681,6.0913,5.2743,6.00613,3.62253,5.09604,6.08675,4.29068,8.33833,4.39119,6.89768,38.064,-901.336,-424.072,1820,140,-280
-15.9693,-14.1012,-10.6302,-10.6949,-15.6254,-0.419953,-7.05879,-8.47528,-19.5891,-16.6411,-12.8442,-13.9415,-9.83668,-6.99128,-9.61919,-10.2907,40.016,-901.336,-425.048,1680,-140,-280
2.81361,11.3371,4.8789,8.49452,6.65251,8.86083,7.37585,3.31333,8.79915,5.31716,5.22835,9.77539,3.28862,6.26193,7.00398,5.42806,40.504,-901.824,-427.488,1820,0,-560
-6.08965,-6.25831,-4.59095,-6.11588,-7.47518,-3.51321,-4.07338,-5.01314,-10.9951,-4.59134,-1.70057,-4.73957,-4.64551,-5.63684,-6.80717,-5.13675,38.064,-900.848,-422.12,1540,-140,-560
-3.57011,-5.65285,-3.48959,-4.7114,-5.23019,0.0213821,-3.22271,-3.28658,-8.27569,-3.53808,-3.36223,-5.391,-3.80325,-4.34576,-5.613,-4.40149,42.944,-903.288,-423.584,1820,140,-420
13.4443,17.1694,10.9049,12.3284,14.1254,9.28277,10.8288,8.91674,16.6938,13.9224,9.49557,14.9361,7.42375,8.33097,12.0093,11.5438,37.576,-901.824,-423.096,1960,140,-560
-5.24726,-10.8295,-8.87871,-8.02335,-9.30116,-9.68602,-7.14228,-5.69328,-11.546,-9.2236,-9.01862,-11.7631,-9.41502,-9.01378,-5.74527,-6.1016,40.016,-901.336,-424.56,1820,-140,-700
12.4582,15.5216,8.21148,13.7401,15.1162,4.9533,9.04066,10.8972,16.7625,12.702,10.2905,10.6837,7.51112,9.08596,11.9754,12.874,38.552,-902.8,-420.656,1680,-140,-700
1.53525,2.34502,1.5918,3.4702,2.36284,-2.19479,2.55262,5.26409,-1.13624,1.54971,0.76069,-2.76408,2.7253,0.766919,2.68848,2.57838,39.528,-902.312,-424.56,1680,0,-840
-3.91467,-5.62006,-4.92746,-2.54515,-3.48111,-8.23965,-1.75003,-0.217326,-5.97306,-4.36298,-5.01414,-8.89996,-1.79048,-3.15859,-1.17354,-3.81501,42.456,-901.336,-424.56,1400,-140,-560
2.40481,2.55268,-0.00793026,1.86739,4.35638,-7.43506,2.18978,0.965635,4.35031,3.82441,2.77033,3.33441,3.48285,1.1574,2.3278,0.0860497,39.04,-903.776,-422.12,1540,-140,-700
-12.0531,-19.7221,-11.555,-15.3217,-15.1812,-16.6706,-11.3178,-10.5818,-18.4352,-13.218,-11.5803,-14.1116,-8.28309,-10.8959,-14.0822,-13.1405,39.528,-897.432,-422.12,1400,-140,-700
6.3124,7.40878,7.04028,5.77037,9.47551,3.11188,7.08151,8.4811,11.4426,9.47827,7.40629,10.0634,7.80598,7.89377,5.09318,9.27626,41.48,-900.36,-422.12,1540,0,-700
-4.36053,-5.34252,-0.940371,-4.19081,-1.9692,-6.74077,-1.19402,1.52169,-5.58031,-1.91568,-1.52773,-1.00296,1.48057,-0.591343,-2.89784,-0.8151,41.48,-901.336,-423.096,1680,-140,-560
-0.98194,-1.9296,1.03956,2.4389,2.11587,-5.71096,2.52834,2.62113,-0.467995,0.161225,-1.82439,1.87099,1.24396,2.95867,3.41766,0.433118,41.48,-900.36,-423.096,1400,140,-700
11.199,16.3003,12.5831,16.5669,16.1182,3.99913,14.1135,11.1971,17.1966,11.608,9.0787,18.0595,9.51307,13.1888,16.064,13.3811,40.504,-901.336,-422.608,1400,-140,-560
-9.89219,-13.5587,-4.94734,-10.0646,-14.1022,-10.35,-9.28404,-9.57241,-13.3092,-14.3688,-13.2891,-9.45795,-8.70219,-8.24199,-10.316,-10.0327,37.576,-901.824,-425.048,1260,280,-560
8.6414,13.0585,11.1913,9.07796,9.71886,6.65756,5.00367,3.51059,16.3825,8.95107,4.37761,14.6198,4.88838,7.88045,5.24086,7.2785,42.456,-902.8,-427.488,1260,280,-420
-3.71465,-4.15715,-2.51872,-6.35506,-6.24979,-6.60091,-7.22426,-6.2571,-4.50701,-2.96771,-1.87946,-1.14991,-4.08018,-4.59861,-5.55588,-3.93363,39.04,-899.384,-424.56,1400,420,-420
-4.30383,-8.3426,-4.73312,-8.59861,-8.84051,-4.82017,-8.62013,-6.65489,-7.59257,-6.48611,-3.84358,-7.54918,-4.43389,-7.11691,-7.07553,-8.36282,38.064,-898.896,-425.048,1400,0,-420
4.08661,6.9366,2.31844,0.48899,2.51179,3.80459,-1.9696,-0.860862,6.78091,4.4574,7.11015,6.13511,4.35073,-0.747597,1.37528,-0.932775,40.016,-900.36,-424.56,1260,560,-420
-16.4652,-21.6195,-16.0455,-21.2591,-23.095,-6.90384,-21.2895,-16.066,-21.5342,-16.8412,-9.46017,-18.6458,-12.1694,-18.296,-19.932,-18.1385,42.456,-901.336,-420.656,1540,560,-420
-0.144526,1.99235,-2.09248,-0.762776,1.28041,9.78515,-3.21891,-0.243192,3.68396,1.56959,3.69395,1.04715,-0.859932,-1.34734,-3.14831,2.6143,40.992,-900.848,-423.096,1400,560,-560
-6.95541,-10.3814,-10.9689,-9.59371,-10.515,-1.52067,-8.30692,-8.14527,-11.5724,-9.5481,-6.66335,-12.2454,-9.24836,-9.9882,-10.5155,-6.73547,40.992,-902.8,-425.048,1400,560,-420
-2.7042,-8.55583,-9.1282,-4.63159,-5.92329,2.99241,-3.94948,-4.64751,-6.38383,-5.49474,-5.72143,-10.2782,-7.62606,-4.69558,-4.64205,-3.2574,40.504,-902.8,-423.096,1540,420,-420
5.32655,4.52846,-0.274149,4.20038,5.75345,8.81124,3.18953,3.07945,3.99814,5.57129,4.26076,2.54065,1.87716,5.16908,3.82788,4.60579,41.48,-901.824,-426.512,1540,700,-420
-9.1925,-14.8122,-12.0813,-12.2254,-14.9767,-2.798,-11.9037,-10.8415,-17.7593,-13.0343,-11.5483,-17.0979,-10.7679,-9.19387,-13.4351,-13.7435,38.552,-905.728,-421.632,1540,280,-560
6.93818,12.9667,4.86199,10.2302,10.7274,12.8716,6.53819,4.47317,11.0489,7.55367,6.75962,6.99691,4.38066,6.37712,6.68053,5.36516,40.504,-901.824,-423.584,1540,420,-700
-0.0534908,2.83161,2.91997,3.93115,3.02598,6.79799,5.92038,2.86755,-0.66278,0.0966862,3.28614,0.358117,2.04104,2.59971,5.14214,0.999821,41.968,-901.336,-424.56,1540,140,-700
7.93137,10.2907,10.6703,11.2479,10.8706,11.5701,13.9867,9.28445,10.0823,6.97601,6.41845,9.11581,7.99021,10.2397,13.2619,9.93971,40.992,-903.288,-424.072,1680,140,-840
22.0321,30.6077,25.1926,26.7324,29.1276,19.6592,25.9013,20.0026,29.6537,24.3927,21.312,29.8877,20.9642,22.0857,27.712,23.4484,40.992,-901.824,-425.536,1820,-140,-980
5.15708,6.30727,10.7757,9.51106,7.91891,6.17306,12.3131,7.55745,2.68342,6.9068,7.23716,8.44604,8.58256,7.28963,14.4137,6.8629,42.944,-901.336,-426.512,1820,-420,-1120
17.3968,24.9406,16.3317,20.1081,23.0065,10.1027,18.2932,13.6796,26.7263,22.7753,15.5817,22.1547,13.2543,15.1793,21.5574,16.7679,43.432,-901.824,-427.976,1960,-700,-1120
9.69394,10.9181,4.95488,5.14998,6.49549,-5.79495,4.37071,1.00678,11.2782,9.04055,4.12277,8.37736,1.63099,1.62754,4.69062,1.99053,42.456,-901.824,-426.512,2240,-840,-1260
10.6364,9.55884,5.22167,6.7882,5.84733,-6.96866,5.43876,0.499165,11.7409,7.35676,2.25975,8.02324,1.71778,3.21677,4.15536,2.17859,41.968,-903.776,-422.608,2100,-1260,-1260
18.7722,19.728,11.8811,12.7278,13.7283,-0.958353,11.4158,7.52367,23.5257,17.2676,11.0143,17.7386,8.91303,10.8969,11.3254,9.44059,45.872,-904.264,-423.584,2100,-1260,-1260
-3.99555,-11.9298,-7.74224,-12.014,-13.6166,-14.5613,-6.90282,-7.03577,-9.1535,-9.27738,-10.0959,-11.1785,-8.38123,-7.34929,-8.82985,-9.66018,42.456,-904.752,-426.024,2240,-1540,-1260
6.69816,5.62029,2.60724,2.13424,5.09823,-3.31152,4.39225,2.13067,11.1709,5.07496,2.05834,4.81597,1.07314,3.99689,4.13175,3.37412,43.432,-903.776,-424.072,2100,-1540,-1120
0.634562,-4.23726,-0.974851,-1.02573,-1.88987,-4.59977,1.61264,-0.858089,-2.16438,-2.67611,-2.58233,-4.09294,0.5593,-0.317096,1.18363,-0.60082,44.408,-900.848,-425.536,2380,-1680,-980
-3.57701,-8.13979,-2.09084,0.83044,-3.33312,-0.0262489,0.726767,0.220689,-3.60189,-4.80727,-4.73213,-8.32912,0.932858,-0.0647662,-0.242883,1.8931,44.408,-900.36,-424.56,2660,-1820,-840
-1.02097,1.38476,3.15898,7.01273,3.86113,3.48775,3.82669,5.94655,0.0887079,0.503244,0.723025,1.30759,6.0762,5.30741,2.85371,9.06184,40.016,-903.776,-424.072,2380,-1820,-560
-23.8335,-26.4732,-17.8096,-14.6626,-21.6857,-16.26,-16.5858,-11.1118,-33.0846,-26.4504,-21.3839,-24.2198,-11.8487,-14.0995,-18.2156,-12.8776,41.968,-903.288,-427.976,2800,-1820,-560
-9.9441,-7.19254,-6.87848,-3.08442,-4.60792,-6.5522,-7.11377,-0.836164,-9.02386,-7.78531,-5.0703,-5.49634,-2.48244,-5.16049,-6.98964,-0.70065,42.944,-902.312,-424.072,2520,-1400,-420
-32.0453,-31.5813,-20.8302,-24.2781,-26.6949,-19.3509,-22.4352,-11.2251,-40.1628,-27.9444,-21.2604,-26.3239,-17.355,-20.7312,-23.7455,-16.2743,41.968,-903.288,-426.512,2380,-1400,-420
-36.8738,-34.7255,-22.7887,-28.4218,-28.2833,-16.2327,-26.4906,-11.4998,-41.7526,-29.8852,-23.7079,-28.5616,-18.9235,-21.7833,-27.4341,-17.792,40.504,-901.824,-424.072,2520,-1540,-420
-25.6413,-20.482,-12.8919,-20.8487,-15.6646,-5.45089,-20.3043,-5.09971,-25.6922,-15.5786,-11.4457,-13.8534,-9.30187,-12.8266,-21.4545,-10.7033,40.016,-900.848,-426.512,2520,-1260,-140
-38.0566,-42.8941,-24.5009,-37.7842,-33.9445,-14.1783,-33.1208,-16.9077,-46.4779,-32.2002,-23.8877,-33.6583,-19.8966,-23.8807,-37.1696,-28.839,40.992,-900.36,-419.192,2660,-1260,0
-20.5912,-18.3555,-11.546,-22.6177,-13.398,-3.40268,-19.1426,-6.34347,-15.1989,-10.6751,-6.9834,-12.5398,-7.8271,-9.14521,-23.3689,-15.2416,37.576,-898.896,-424.072,2520,-1120,0
-22.8834,-23.2276,-16.0206,-29.0578,-21.1899,-8.44055,-22.1607,-13.3678,-23.147,-15.3866,-9.8087,-19.8599,-11.7891,-16.0063,-27.5788,-23.0414,37.576,-899.872,-424.072,2520,-840,140
-8.57812,-8.20951,-6.23325,-12.5631,-7.8577,4.94919,-8.81128,-6.62878,-5.31063,-3.35485,-0.623642,-8.8938,-5.28249,-6.45278,-10.8723,-12.4461,39.528,-900.848,-427,2520,-700,0
10.2916,15.8644,9.30145,9.2647,12.1303,15.9083,7.98267,4.69399,16.3865,15.6831,15.3342,11.3908,6.33067,7.7127,9.40123,3.87359,41.48,-899.872,-426.512,2520,-840,0
7.77407,3.99725,2.96145,1.14048,0.441751,5.56587,0.201483,-5.81801,5.29607,5.25199,5.10429,-0.130545,-0.579708,-1.0405,2.43147,-5.34699,38.064,-901.336,-422.12,2520,-700,0
38.7417,40.8532,24.7853,31.1293,31.869,20.7683,24.5332,9.6309,46.9932,34.5312,27.8859,33.026,18.7461,20.3654,29.9248,20.0877,37.576,-901.824,-425.048,2520,-560,0
40.0066,37.0021,23.719,31.707,27.7086,16.4534,26.5523,8.01829,39.2555,29.3103,24.5822,30.1001,19.1125,19.2157,31.432,20.4423,38.552,-901.824,-426.512,2660,-280,-140
39.0879,37.099,22.0473,33.667,27.4489,14.6198,27.7017,7.91885,41.3151,26.1193,20.6929,30.043,17.0153,19.7405,33.3272,21.8759,39.04,-902.8,-426.024,2520,-280,0
46.9016,50.1859,29.3044,41.795,39.0299,18.4853,35.2074,17.4338,53.6277,35.6618,28.0589,42.9539,22.4253,27.346,42.4574,30.9702,39.04,-901.336,-427.488,2520,-280,-280
24.316,18.8968,8.88325,17.3843,12.319,1.82557,15.1319,3.3551,22.0171,10.9715,6.08635,15.9254,4.69449,9.31161,20.7124,9.98374,42.456,-903.288,-425.048,2800,-420,-280
35.4711,37.3327,21.2571,32.8385,30.0517,12.6173,28.8519,16.6583,41.2522,27.9658,19.705,32.0631,15.7399,23.116,34.3059,24.8583,41.968,-898.896,-423.584,2800,-420,-280
16.4432,14.1554,8.90258,15.5496,10.1515,0.728906,15.8087,5.48412,11.8254,8.71556,3.95621,10.3009,3.92688,9.01108,18.7306,10.9527,38.552,-901.824,-426.024,3080,-420,-420
4.10991,0.522696,-0.699629,5.72747,0.479266,-1.24836,6.61402,1.1171,1.30684,-2.04299,-4.74009,-0.8101,-3.13965,1.0602,7.32957,3.92772,38.552,-903.288,-425.048,3080,-560,-560
2.23899,3.77551,2.47368,8.62198,7.63407,5.99402,10.9261,11.119,1.22338,1.78906,0.814871,5.31382,3.39475,7.21365,7.84098,12.8525,40.016,-900.848,-426.512,3080,-700,-700
-18.4895,-21.7832,-13.5159,-10.7723,-12.7485,-6.03593,-5.53896,-0.875102,-25.9367,-19.7528,-16.8296,-17.1926,-10.7123,-6.89499,-11.2238,-2.13216,40.504,-901.824,-422.12,3360,-560,-840
-0.588754,1.75059,0.443842,5.94319,7.4752,5.63121,5.76792,11.6751,5.32781,2.66604,0.43945,4.51959,2.065,7.05611,3.69648,12.8068,39.528,-904.264,-422.608,3360,-700,-840
-14.2927,-18.0358,-10.4919,-11.8101,-12.5654,-5.15084,-9.25426,-0.384709,-16.8015,-11.5661,-8.66913,-13.7597,-5.61166,-7.2434,-12.3955,-3.20773,40.992,-904.752,-426.024,3220,-980,-840
-16.0698,-19.254,-7.59197,-14.2004,-14.4386,-2.50136,-13.2156,-3.10042,-18.7122,-12.6014,-10.3726,-15.1709,-4.00318,-9.81145,-16.6511,-8.41734,41.968,-904.264,-423.096,3220,-1120,-840
-6.63848,-2.14003,5.00077,-4.03744,-0.087554,3.35344,-6.27206,3.2218,-6.63452,-1.71566,-0.682506,0.486524,5.33801,-2.75042,-9.12592,-2.18611,42.944,-901.336,-424.072,3080,-980,-840
-30.1601,-32.7892,-15.7726,-28.2111,-27.3005,-19.5139,-25.5541,-15.0446,-38.4342,-26.705,-20.4452,-26.8177,-12.7949,-21.4779,-29.6074,-24.4187,41.48,-902.8,-422.12,2940,-1120,-840
-16.4795,-11.59,-3.51782,-12.1512,-7.17015,-9.50255,-11.4441,-0.612887,-12.6943,-5.69026,-1.2006,-6.27636,1.01439,-6.15429,-14.3605,-7.35585,40.504,-902.312,-425.048,3080,-980,-840
-26.8988,-26.2005,-13.3208,-25.3887,-21.3744,-17.9793,-23.0375,-10.2668,-30.4463,-17.7497,-10.7684,-20.664,-7.18417,-16.5052,-26.4875,-20.6216,38.064,-903.776,-423.096,2800,-1120,-700
-18.1085,-16.1402,-8.32398,-16.773,-13.2616,-11.3325,-18.2563,-7.44096,-15.5754,-10.2281,-5.94626,-11.4868,-3.09438,-8.9067,-20.3186,-18.1468,44.408,-901.824,-423.584,2660,-980,-700
0.016316,6.92892,4.66555,1.21895,5.42457,-1.48233,-2.46303,2.41585,9.22563,6.67011,7.8996,8.77966,6.91777,3.666,-2.21426,-4.75672,42.456,-904.264,-426.024,2940,-840,-560
-11.4576,-14.131,-8.33582,-12.4818,-12.5739,-10.0368,-10.4094,-8.21602,-13.264,-9.38309,-8.27045,-11.396,-7.56274,-8.7083,-10.7798,-16.4157,40.992,-902.8,-425.536,2940,-840,-420
1.61637,3.68133,-0.940163,1.42594,4.99891,0.856754,2.96261,1.03454,6.25357,6.18857,3.11673,4.28728,-2.21154,2.54432,3.83739,-0.86055,40.504,-904.752,-425.536,2800,-980,-280
-8.06421,-10.1079,-11.7542,-8.28403,-9.89352,-10.5146,-6.5778,-11.3217,-13.0043,-7.77186,-7.91314,-10.4257,-12.7198,-8.9868,-5.73539,-12.2243,40.992,-905.24,-423.096,3080,-840,-280
-0.512876,-0.769042,-6.35824,-2.08869,-3.33715,-4.05665,-2.70231,-9.47868,0.408391,-2.42208,-4.22102,-5.25625,-8.65399,-4.27445,-0.399085,-5.75696,43.432,-902.8,-426.024,3080,-1260,-280
7.36379,10.3374,1.1598,2.78646,4.69147,3.21585,3.24497,-3.8494,10.0121,6.2924,2.64185,2.91437,-2.36802,0.901596,6.9655,3.85108,40.504,-905.24,-429.44,3080,-1120,-420
-3.09259,-6.97335,-6.7548,-8.82214,-10.7365,-0.184984,-4.96087,-10.6465,-9.3927,-8.34049,-7.62221,-13.3152,-10.0078,-7.57329,-3.7695,-6.06607,43.92,-903.288,-427,3500,-1260,-420
12.9513,15.829,7.56315,9.44979,10.0271,15.0234,9.67786,3.37283,16.5828,9.38127,8.9226,8.17501,3.21623,7.10254,12.2651,12.2315,40.992,-901.824,-425.536,3500,-1400,-420
3.88739,3.86529,1.4563,2.96109,-0.410873,8.17847,3.73475,-1.70962,1.19111,-1.55768,1.74841,-2.28307,-1.60473,2.14388,6.77328,6.97794,44.408,-903.288,-427,3640,-1540,-560
7.16548,8.1305,3.81154,8.62861,5.49541,5.83507,8.10853,1.3539,9.53053,2.7891,3.71938,1.78539,0.112976,6.69949,11.9845,11.747,43.92,-902.312,-423.584,3500,-1540,-420
16.5001,20.9338,13.3159,18.2837,18.4312,9.13112,16.4106,12.3369,21.6004,14.079,13.1612,16.4587,9.49771,15.0192,20.3058,20.6243,41.968,-907.68,-421.632,3780,-1540,-420
-1.20126,-4.4694,-1.30099,-2.4003,-3.70144,-3.05964,1.41806,3.43434,-4.10813,-4.87592,-3.91513,-5.51914,-2.19515,2.21599,2.07361,5.11091,42.944,-906.704,-423.096,3920,-1540,-420
12.0117,14.9604,9.84956,10.2867,12.8192,6.44283,9.90446,12.7021,18.8735,13.0433,9.39401,13.1498,9.5048,12.9947,11.0595,17.8693,41.48,-907.192,-422.12,4200,-1400,-420
-1.71087,-5.63661,-2.3575,-5.25196,-6.08829,-5.13102,-6.55886,-2.58688,-6.18349,-3.36315,-3.67314,-4.00644,-1.39429,-3.47308,-8.36488,-2.71406,41.48,-907.68,-420.168,4200,-1120,-280
-5.79199,-8.76342,-5.26427,-5.80519,-6.14461,-0.769717,-6.52478,-4.24684,-8.09599,-6.25233,-6.81009,-6.79702,-2.88657,-5.06031,-9.14802,-5.55509,40.504,-906.704,-418.704,4200,-1260,-280
0.125243,2.47368,2.26408,3.33839,4.95988,6.41773,2.80004,2.48165,1.8149,2.20869,0.0938882,4.74309,5.46233,2.39005,-0.182572,2.387,41.968,-909.144,-419.192,4480,-840,-280
-10.0645,-15.3226,-6.34123,-7.94197,-11.2711,-3.88263,-8.63681,-8.15113,-15.621,-9.74401,-11.4896,-10.0974,-2.83298,-9.39342,-13.9334,-12.9979,40.504,-905.728,-419.68,4200,-700,-280
10.3156,12.7996,9.9825,16.2021,14.7151,10.1928,9.51273,8.38932,15.2457,13.6475,8.8299,17.2365,12.7214,7.61859,7.74228,5.38002,39.04,-904.264,-420.656,4340,-560,-280
0.655685,-1.61544,2.33602,6.14804,1.81171,-3.01206,3.83078,2.42236,-4.10955,0.0585505,-0.948535,5.1394,4.11957,-1.59095,0.650891,-3.74716,35.624,-903.288,-421.144,4340,0,-280
2.42807,0.762975,2.6214,6.83538,2.75631,-4.02285,3.86495,2.04765,1.10964,1.28715,-0.0629705,5.77131,4.38437,0.0610274,2.38096,-3.59529,36.6,-898.896,-425.536,4340,-140,-280
11.1191,14.6161,10.4895,14.7172,15.3374,4.81272,12.5326,12.5552,13.8486,13.2546,11.9733,17.7713,13.2914,8.89491,11.3082,5.98167,38.064,-900.848,-423.096,4060,140,-420
-8.61629,-12.6387,-6.14643,-7.48459,-7.92829,-4.62994,-3.54518,1.03044,-14.6386,-9.39472,-6.26958,-7.37442,-1.5284,-6.65177,-7.1834,-10.1906,34.648,-899.872,-421.144,4200,-140,-420
9.73056,10.8498,6.99908,7.65582,11.0041,8.46125,9.41957,13.3072,13.6709,10.4683,11.3159,13.8817,10.2468,8.01221,7.74585,6.55101,38.552,-897.432,-425.048,3920,-420,-420
1.98626,-4.52091,-0.938531,-6.06302,-4.94961,-1.29328,-0.58642,3.90596,-2.31747,-0.78988,3.47667,-1.23081,1.49948,-1.80462,-3.70352,-4.44065,38.064,-897.92,-427.976,4060,-560,-420
0.0986279,-5.39349,-4.27617,-7.57131,-6.28814,-4.63382,-3.65947,-1.90163,-1.48453,-2.05181,0.179833,-4.47168,-4.61842,-4.56126,-3.84053,-6.38936,37.088,-899.872,-424.56,4060,-840,-560
11.9289,14.977,7.90892,7.39747,11.5774,5.34974,9.3229,5.02778,14.8483,11.8514,10.347,12.3406,3.57016,6.91563,10.2748,6.81455,40.992,-901.336,-421.632,3640,-1400,-700
-1.84135,-2.65542,-3.28008,-7.44003,-6.23851,-0.931666,-4.55738,-6.88514,-4.6545,-0.78975,-0.824612,-4.84436,-6.43784,-3.87502,-4.14803,-3.76965,41.968,-900.848,-424.072,3920,-1540,-840
9.16522,16.5897,8.30599,8.82054,11.5245,10.3452,6.45294,3.41964,15.7281,16.0304,13.3497,12.9163,3.2158,9.88091,11.2866,14.2413,41.48,-902.8,-424.072,3500,-1680,-980
-5.45162,-1.92903,-3.75004,-1.85509,-4.20163,-0.636825,-4.80313,-8.89861,-7.52977,-5.77218,-4.98298,-4.93205,-9.56267,-1.56554,1.68527,2.29108,43.92,-901.336,-420.656,3500,-1820,-980
-4.34253,-1.95968,-4.05007,-1.7216,-3.29846,0.911659,-6.50161,-8.20274,-2.64458,-8.17832,-6.59036,-4.56392,-9.22543,-1.53834,0.677312,2.96694,43.432,-902.312,-425.536,3500,-1960,-980
-0.480927,3.15288,0.214546,0.198699,1.1332,2.64508,-2.72602,-1.71306,3.51165,-2.98863,-1.24172,-0.333154,-3.65832,-0.493408,3.89096,7.35353,40.016,-901.824,-424.56,3360,-1820,-840
-17.405,-21.3874,-13.4876,-18.8631,-20.7456,-10.2648,-18.0983,-15.9262,-21.7384,-21.864,-18.4416,-23.237,-15.8069,-16.5982,-14.3495,-11.0123,41.968,-903.776,-424.56,3500,-1960,-700
0.222086,1.58616,0.967793,-3.98115,0.324105,1.40341,-4.40449,-3.32859,4.99071,1.42416,-0.350091,-0.846602,-0.337291,-1.80015,-2.7027,2.07982,40.992,-905.24,-424.072,3780,-1820,-700
-9.68845,-13.943,-9.27269,-17.2679,-13.7183,-11.3857,-14.4197,-11.5937,-12.6597,-9.4523,-9.71424,-15.3639,-7.28259,-12.1506,-17.1141,-12.9283,39.528,-901.824,-418.216,3920,-1540,-420
-6.66856,-6.28684,-5.83433,-5.38985,-4.0845,-7.27451,-5.85883,-6.48773,-4.33617,-5.54828,-7.67315,-9.58031,-3.47878,-4.15286,-6.31532,-6.66958,42.944,-908.656,-417.728,3780,-1260,-420
9.39121,14.9032,8.10388,15.0839,16.7834,3.96218,12.0293,7.67508,14.3968,11.8567,9.10019,10.7212,10.4431,12.4311,12.6517,10.4117,40.016,-903.776,-420.656,3640,-980,-140
-5.10107,-9.23784,-3.76005,0.732198,-2.77484,-6.84546,-0.284566,-2.88244,-11.85,-6.09169,-4.57087,-8.79886,0.847497,-0.0467245,-1.24042,-4.18624,40.504,-904.264,-421.144,4060,-560,0
7.16837,10.0454,7.41335,15.4975,13.3137,4.52648,11.6834,9.39093,9.07,11.4185,9.78736,10.684,12.3587,12.865,11.5067,9.07605,39.528,-904.264,-419.192,3920,-560,280
-4.73191,-7.52122,-3.38605,1.10817,-4.79728,-6.77654,0.984299,0.807097,-12.1808,-5.10319,-1.78821,-3.13403,2.07391,2.26248,-1.86002,-4.7716,38.064,-904.264,-416.752,3920,0,700
-3.25178,-6.6843,-4.48012,-0.547609,-6.17106,-6.15649,-2.52539,1.21484,-3.93035,-4.33404,-1.37373,-3.41042,0.32661,0.848733,-3.36554,-5.26911,37.576,-901.824,-417.728,3920,560,700
2.6103,5.46921,1.82293,5.53192,2.57893,-1.63303,2.7676,5.24334,7.54744,3.19553,4.42342,4.59622,2.39601,3.55511,2.1254,1.13022,40.504,-904.752,-414.8,3780,700,980
-9.26483,-11.9365,-7.37923,-11.1846,-14.4936,-9.22993,-8.93385,-5.64097,-10.9271,-12.0388,-8.93369,-12.4776,-10.0303,-11.1319,-12.0262,-12.7115,38.552,-908.656,-416.264,3920,420,980
8.79959,15.513,11.3687,8.00351,12.1973,7.61998,9.61728,11.5359,18.8626,11.9503,12.1574,13.5265,6.87741,6.80353,6.4484,8.90573,39.528,-906.704,-413.824,3920,280,980
-6.60363,-1.4268,-0.89954,-5.04825,-4.09727,-4.12053,-3.42168,-1.68248,-3.26704,-4.19216,-2.42219,-3.41783,-4.52307,-8.1206,-6.37739,-4.7669,39.528,-908.168,-414.312,3780,0,980
-6.23679,-2.56268,-1.64424,-8.59435,-5.97658,-2.04408,-9.59813,-4.26193,-1.37396,-3.09225,-2.38032,-4.14602,-5.18217,-9.00164,-13.3928,-7.12283,40.504,-907.68,-418.216,3920,140,840
-8.27585,-9.36391,-1.98903,-13.344,-4.38881,0.375814,-5.23394,1.94649,-10.2787,-1.76152,0.573018,-5.75183,-2.78182,-5.44889,-11.0227,-0.444545,40.504,-907.68,-418.216,3920,-280,700
-22.3804,-35.8297,-18.074,-26.8986,-23.5007,-7.97776,-11.3965,-10.2854,-37.1786,-22.1809,-17.7585,-29.1096,-15.8466,-17.0316,-14.9854,-14.7973,40.504,-912.56,-418.704,4340,-700,700
10.5218,13.9967,8.52409,15.5764,17.548,14.1335,16.5535,9.41689,10.6783,10.8258,3.89737,13.2589,6.02029,10.799,19.4862,12.117,40.016,-913.536,-420.168,4340,-980,280
14.569,14.6305,8.67404,13.1537,11.2255,12.0009,10.0073,7.71438,10.6994,10.455,1.28063,13.6256,6.39879,8.7967,12.001,8.37377,43.432,-912.56,-424.072,5320,-1540,140
18.9064,19.6099,11.4461,16.4188,13.0849,16.3792,12.2699,11.0993,20.8432,14.196,6.04971,16.6483,9.60628,12.7638,11.6325,12.0875,44.896,-916.464,-420.656,5320,-1680,-140
15.8431,18.4301,11.5548,14.3259,13.3543,14.1209,12.3204,12.5352,17.7211,14.0705,10.7254,14.8959,10.8587,12.8837,11.1759,12.6301,44.408,-915.488,-421.632,6580,-2100,-140
-6.26578,-14.4624,-6.71331,-10.784,-13.6052,-3.61996,-7.05606,-4.76535,-13.6783,-9.68283,-6.1554,-13.2606,-4.35993,-4.6629,-8.50406,-7.77784,43.432,-915.488,-423.096,7420,-2520,-420
7.15417,5.00921,3.42627,-0.298883,3.51291,1.05501,1.10685,0.845832,10.851,8.02019,6.93255,5.75476,5.8044,5.53254,2.7726,4.24771,47.336,-913.536,-423.096,7420,-2660,-560
-2.26937,-11.4553,-6.89917,-15.3565,-12.6344,-9.86988,-11.5561,-10.7341,-8.62754,-6.41566,-4.44029,-7.51806,-4.86776,-8.64889,-10.9729,-10.8745,46.36,-912.072,-423.096,8120,-2940,-280
4.46232,-0.955654,-1.20414,-3.25062,-3.17531,-2.97417,-4.99217,-7.11574,3.88026,-0.519201,-1.59311,1.98194,-1.82121,-4.23757,-2.05153,-5.48701,48.312,-912.56,-419.192,8540,-3080,-420
9.2679,11.5294,5.52706,9.9903,9.34403,3.69436,5.70744,0.580133,12.1421,6.06492,4.8766,14.2545,5.20083,3.35505,9.43925,5.70312,47.336,-910.608,-424.072,8400,-2940,-140
-9.79355,-10.5801,-8.61242,-3.51338,-7.66041,-7.52284,-5.82318,-8.78237,-13.5611,-12.8868,-11.5977,-5.42373,-7.11572,-9.66419,-4.78794,-7.45365,46.36,-910.12,-422.608,8540,-2660,0
1.22179,10.3387,4.27254,11.6865,11.6345,3.13596,7.73595,4.34281,7.8368,5.09518,2.96236,12.4255,5.38138,5.11597,10.235,7.00472,47.336,-903.288,-422.12,8540,-2240,140
-13.1582,-9.53822,-6.91533,-4.30897,-7.33515,-6.58307,-4.55264,-7.49833,-15.4897,-10.7875,-7.74822,-6.87217,-4.92893,-5.69246,-3.7973,-6.70236,44.896,-904.752,-425.048,8120,-1820,280
-4.90054,-2.44285,-2.92885,2.0784,-1.39465,-1.77866,-1.46629,-5.45112,-0.979711,-2.57196,-0.251738,-1.89958,-1.2267,-1.17192,1.38441,-2.3878,47.336,-900.848,-423.584,7840,-1260,420
8.20119,16.3685,9.82485,15.132,14.7493,8.55345,10.9373,7.14822,16.6876,12.9764,14.3559,13.4178,9.53182,10.2387,13.9924,11.0527,41.48,-897.432,-425.536,7560,-980,700
-3.85135,-0.487736,-0.273114,3.99798,-0.106246,-0.519179,3.19433,-1.31068,-3.32577,-3.43442,0.315064,-3.31884,-0.522364,1.42658,7.03217,-0.441801,39.528,-897.432,-426.024,7140,-420,1120
13.444,27.9155,14.226,23.9414,23.1573,10.1035,16.7481,9.90497,27.6716,17.8233,16.3864,21.1095,11.2879,16.746,23.2402,15.2527,40.504,-898.896,-425.536,7000,420,1400
0.817021,5.53243,3.49936,1.92373,1.35071,-0.920379,-2.81258,-2.54826,3.64811,3.68003,5.00251,2.99427,1.03319,1.72987,-2.0275,-2.698,36.6,-894.992,-427.976,5600,1680,1820
-4.25045,-6.2775,-1.4157,-10.3126,-5.89985,-2.59017,-9.3938,-2.23229,-5.58939,-0.226629,2.46866,-5.13409,-1.67535,-1.7597,-13.4521,-3.01797,37.576,-896.456,-425.536,4900,3080,2240
-0.624644,-6.96742,1.12606,-12.438,-1.28504,-0.527168,-2.6628,7.47776,-6.27367,4.89534,7.4893,-3.67955,3.2798,3.55903,-9.01815,7.85269,37.088,-893.528,-423.584,4480,4200,2660
-18.0874,-32.4515,-15.8912,-27.4735,-22.4225,-14.2318,-13.6693,-4.85802,-32.8254,-17.7359,-14.7257,-28.3674,-11.5888,-13.0272,-19.2751,-7.83152,35.136,-896.456,-423.096,4900,4900,2940
-0.0580541,-4.47429,-2.94221,-6.27602,-0.388406,-3.02185,-1.22108,4.86892,-2.68353,1.95466,-2.48238,-4.78858,0.485983,-1.09262,-2.9299,4.97638,34.648,-894.992,-427.488,5320,4760,3360
-8.20049,-16.5212,-13.2441,-14.3286,-14.3745,-14.5906,-13.3909,-6.51902,-16.5819,-11.9113,-15.8534,-17.514,-9.44454,-13.4133,-12.5858,-9.14439,32.696,-896.456,-424.072,5180,5180,3920
-1.30659,-4.4533,-7.61069,-0.050887,-6.19813,-9.40471,-8.32483,-7.49316,-1.81617,-4.45145,-12.5367,-8.90531,-7.4105,-8.77544,-4.72275,-6.77525,34.648,-900.36,-427,4900,5320,3920
17.8394,22.4932,10.1658,22.5962,15.6797,6.33556,9.19313,3.95186,23.044,14.9652,4.61485,15.1855,5.93147,6.05753,13.4927,7.27787,34.16,-900.36,-427,4620,5460,4060
1.02772,-1.00145,-3.70834,6.90849,-3.71356,-2.11419,-1.74553,-7.3685,-1.65714,-6.55027,-11.3356,-5.78163,-8.53734,-5.78863,-0.64172,-7.38328,35.624,-904.264,-425.048,4340,6160,4200
10.9251,14.8703,8.64232,17.5469,15.1293,12.1206,13.554,8.72241,17.1898,7.42125,5.18232,11.1929,3.63365,9.92943,13.4094,9.53779,33.184,-904.264,-423.096,4060,6300,4340
-10.6092,-8.48112,-5.33186,-2.61819,-5.76495,-0.100868,-0.82572,-3.54649,-13.5244,-14.843,-7.76054,-9.94288,-9.03213,-5.46781,-2.69917,-5.991,36.6,-906.704,-418.216,3920,6300,4340
-4.18383,-0.64592,-1.92765,1.44721,-1.25332,5.24043,1.494,-1.19897,-1.36542,-7.22161,0.518711,-2.93759,-4.76481,-1.30763,1.25677,-1.72481,37.088,-907.192,-421.632,3920,6160,4200
3.5911,10.4066,3.4692,3.99225,6.2499,5.52724,4.58875,1.78238,10.285,2.95267,10.9124,8.28695,1.83546,1.87267,4.71167,0.699731,41.48,-910.12,-421.144,3780,5460,3780
-4.65249,-5.89911,-0.484381,-8.22136,-7.26758,1.54189,-3.99733,-3.11825,-8.19932,-7.40679,3.18416,-4.31606,-1.36986,-4.91904,-7.55034,-12.4089,41.48,-909.632,-422.12,4060,4480,3500
15.349,16.5743,16.2308,7.24012,13.1624,19.0365,8.90857,13.6753,21.4746,15.4109,20.6802,17.5211,14.8771,11.7906,6.43141,4.87599,43.92,-911.096,-423.096,3640,3780,3360
-13.0465,-22.1724,-8.57402,-24.4865,-19.4564,-0.634955,-14.8454,-2.73553,-18.6162,-10.6644,-4.12807,-15.8805,-4.4751,-9.36411,-20.1919,-13.8849,46.848,-906.704,-419.68,3500,2940,3080
-17.4137,-30.8594,-12.1991,-32.4262,-21.8602,-0.57482,-14.2119,1.35211,-22.9359,-10.3602,-5.92312,-21.4826,-4.23433,-9.10792,-24.3345,-7.57711,46.848,-910.12,-420.168,2940,2520,2800
-7.94249,-14.4528,-4.85239,-19.8079,-10.8436,-4.01371,-4.52976,2.81832,-11.7447,-1.89156,-0.43331,-8.97001,0.654548,-4.19858,-13.1729,-0.842419,47.336,-908.168,-423.096,3220,2100,2520
-4.96115,-9.7796,-7.42354,-12.1187,-15.3384,-13.6576,-7.20559,-8.06765,-8.9182,-9.54316,-11.131,-9.76753,-7.26082,-7.79689,-11.9178,-9.63452,50.752,-908.168,-422.608,3220,980,2240
23.9422,32.0814,17.0936,23.8443,19.3609,2.45278,17.0488,7.82188,32.9825,19.938,12.5363,27.9483,12.884,16.3348,15.8885,15.2838,51.728,-910.608,-423.584,3360,840,2240
6.01753,11.8116,7.54071,13.1518,6.3707,-6.20003,8.58392,0.505184,4.49235,4.37356,2.15488,12.1667,4.8287,8.00712,8.39668,7.15476,53.68,-905.24,-426.024,3640,420,2240
-3.71163,1.29619,0.156695,5.90357,1.83771,-6.74436,2.52809,-2.57315,-1.11298,-0.454031,-1.72111,3.87416,0.283618,3.88938,5.92457,4.83789,50.752,-907.68,-428.952,3780,420,2100
5.00694,13.4915,4.67996,12.6033,11.9815,-1.99575,6.71349,1.44356,11.6468,9.69076,8.28186,14.4629,6.206,7.59462,10.2289,11.0538,50.752,-904.264,-430.416,3920,420,2240
-6.00132,-2.64421,-5.96876,3.38864,-0.0472471,-7.57784,-1.53539,-9.26859,-6.88622,-4.43272,-4.1077,-0.476933,-4.12383,-2.31484,3.71503,-1.88104,47.336,-907.192,-431.392,4200,560,2520
10.6026,20.5622,10.3965,22.107,23.0611,8.94074,13.8574,6.25115,16.301,15.4228,10.9418,20.484,9.29434,13.6675,23.244,14.9381,49.288,-907.68,-433.344,4340,840,2380
-2.29438,-3.80406,-0.767395,-3.47585,0.61354,0.692552,-5.98622,-3.37134,-7.78321,-1.04074,-0.265686,-0.466628,-0.00909417,-2.33405,0.234064,-4.26671,50.752,-908.168,-439.2,4060,1680,2660
-0.92587,-0.844833,1.31582,-0.0961439,6.14967,6.73206,-1.0583,3.14072,-0.597031,2.38737,1.16594,1.58326,2.45603,1.96219,7.07178,2.99489,46.848,-906.704,-435.784,3360,2800,2380
4.7212,10.8575,3.33384,9.19663,12.733,5.18491,3.89825,5.03478,8.99837,7.80883,2.66415,9.28157,3.0441,5.68194,13.3151,8.03108,43.92,-906.216,-438.712,3640,4200,2660
-8.29748,-11.984,-9.50773,-8.61027,-8.5327,-7.16464,-9.54584,-9.32937,-13.2273,-9.20825,-13.6724,-12.2016,-8.53299,-7.2449,-5.9795,-9.10976,43.432,-908.656,-430.904,3920,4760,2800
9.61908,9.50896,6.22128,6.51864,11.9791,8.93258,9.14064,3.39555,14.0607,10.2309,0.673779,7.62247,5.23815,8.80583,9.7047,9.14793,40.504,-908.656,-426.512,5040,4900,2800
-5.43656,-14.3919,-6.46426,-10.7203,-8.45781,-2.9925,-3.52911,-8.13651,-13.5456,-6.84395,-13.1815,-13.2396,-5.41752,-5.86472,-4.747,-6.00772,42.456,-909.632,-427.488,5880,5600,2940
-5.94933,-15.9147,-4.82387,-9.62916,-8.11202,0.28006,-4.0775,-1.99136,-11.7573,-5.19059,-11.2731,-12.707,-2.14566,-5.22994,-6.37077,-1.9775,40.504,-909.632,-427.976,5880,6020,3080
6.1697,-0.856573,2.69198,-1.26307,-2.34258,-1.44974,-1.73783,5.16842,6.755,5.66742,-2.28833,-0.636892,3.99877,-4.15429,-2.85596,1.94992,37.088,-907.192,-428.952,6020,6580,3220
-5.04238,-14.6362,-7.93088,-9.79589,-18.547,-14.605,-11.5156,-6.62196,-9.45648,-11.6402,-17.3504,-18.357,-9.33622,-15.9773,-11.928,-12.4753,36.6,-911.096,-425.536,6440,6440,3360
11.2883,14.888,8.42085,14.5588,7.94657,4.14476,8.78335,7.3738,18.6077,8.0198,1.96178,6.4469,4.09361,2.29137,8.61418,6.14912,37.088,-908.168,-431.392,7280,6440,3500
-3.92842,4.20681,-2.05627,9.29078,-2.5671,-2.88457,4.77609,-7.99788,-1.22856,-12.8171,-10.6566,-6.01828,-6.78596,-6.76109,4.58263,-9.86992,38.064,-909.144,-430.416,7840,6160,3640
-1.34201,19.0754,3.2235,24.1689,8.61361,1.68144,10.2436,-11.3567,11.4895,-8.19609,-4.83307,6.33337,-2.65139,0.630945,20.2222,-9.61498,37.088,-909.144,-427.488,8260,6020,3640
10.13,24.4027,14.9764,23.2803,17.4963,11.4928,7.56632,6.58792,14.2258,13.6326,16.253,20.2326,10.7439,10.6942,13.7031,5.85668,37.088,-907.192,-431.88,8540,5600,3500
-5.62652,-12.1184,1.68774,-9.17846,-8.08507,9.64823,-12.3043,7.71032,-19.5699,-0.0324572,8.6313,-3.63732,1.24446,0.824501,-21.8359,0.127502,40.504,-910.12,-428.952,8820,5740,3220
14.2245,9.69671,12.0157,4.07808,10.3543,25.0097,6.39003,23.7284,16.2836,18.2506,25.5786,15.7957,11.7202,16.2215,-6.4674,20.1968,39.04,-908.656,-434.32,9100,5320,3220
-0.426542,-8.87804,-7.25455,-14.0024,-12.9789,8.96642,-6.35116,6.66821,-0.372488,-9.2418,4.92096,-8.13201,-4.75686,-3.12821,-18.4546,-0.230996,41.968,-906.216,-442.128,9520,5740,2940
-9.33427,-12.8707,-11.5697,-16.4807,-13.6526,3.38433,-8.79274,2.38142,-5.06712,-10.908,6.38659,-13.0889,-4.79886,-5.64254,-16.2162,-5.18537,45.872,-910.608,-445.056,9380,5880,2940
-9.68816,-7.96719,-6.69358,-9.35767,-2.78658,-4.47896,0.442753,0.997113,-11.7371,-1.8881,14.3106,-4.6788,0.133553,-1.2265,-3.49192,-1.61682,44.896,-908.168,-434.808,8960,6720,2940
-16.9417,-30.1905,-15.1793,-29.1296,-23.5176,-22.3386,-15.8267,-15.3183,-30.9461,-10.3023,5.87112,-22.044,-8.86049,-17.2219,-20.7136,-19.9152,41.968,-912.072,-434.808,8820,7000,2800
5.91726,-11.0665,0.981847,-18.7254,-3.2137,-6.3329,-1.70207,2.40247,-3.09389,14.0983,22.4275,-1.63389,5.45066,-1.78889,-7.36085,1.07631,48.312,-913.048,-428.464,8260,7280,2800
1.56931,-15.9663,-2.81763,-17.3864,-7.96022,-7.47231,-2.49196,0.0730933,-17.4674,-0.0119126,5.55999,-9.17943,-2.05852,-3.14028,-6.87566,-2.9497,45.384,-911.096,-427,8540,6860,2660
9.58371,3.94832,0.836405,-0.203624,1.93298,-3.83308,1.65632,-3.56354,4.22861,0.715665,-4.23255,3.46696,-2.78717,3.19869,3.97575,-1.41286,47.336,-915.976,-425.536,8260,6020,2380
11.2412,25.5778,-1.43253,14.9762,13.8494,-2.52543,7.36241,-1.52919,23.8898,-6.95953,-22.9875,15.3234,-7.19233,6.48049,13.7655,6.59726,51.24,-915.976,-425.536,7700,5460,2380
-10.6754,1.52195,-17.5874,-2.19267,-6.81233,-10.7648,-7.89318,-10.6613,-1.90435,-26.1257,-37.6493,-6.0182,-20.3589,-7.0167,-5.20374,-3.47501,48.8,-917.44,-422.608,7700,5180,2240
-4.25019,11.7363,-2.85155,7.2955,7.63528,-1.28579,3.97591,-0.458583,9.12056,0.780081,-9.48379,9.01211,-4.30595,4.68336,4.46602,8.84137,48.312,-911.584,-420.656,7560,4480,2380
-18.189,-10.7678,-9.55642,-9.09763,-11.303,-16.6371,-6.22913,-7.65002,-13.6328,-9.47484,-17.2296,-11.5659,-10.3273,-8.02635,-7.35099,-7.30652,47.336,-914.512,-422.12,7000,4480,2380
-1.468,6.04286,5.20297,7.70174,1.46275,-14.155,2.60158,-4.77099,6.54903,6.16327,-3.26279,2.12946,2.96301,1.03254,7.68993,-5.25884,47.824,-910.12,-418.216,6860,3640,2520
3.61486,11.8425,12.6643,15.1627,8.69213,-12.6321,4.10871,-5.06813,7.53601,13.5893,6.79542,10.3815,11.5791,3.02104,15.3393,-5.34887,44.408,-906.216,-422.608,6860,3780,2520
-11.675,-13.0363,-2.58654,-2.00748,-9.93007,-16.1944,-9.748,-9.41266,-16.4711,-6.73921,-10.0241,-8.94073,-1.34584,-10.2024,-0.747361,-10.0229,46.848,-908.168,-422.12,6720,3640,2660
8.68026,18.5437,13.0776,20.2251,21.6322,11.7987,14.5843,13.1144,16.3098,13.2728,6.68853,18.7769,13.2459,11.836,17.8866,21.451,41.48,-907.192,-424.072,5880,4480,3220
-5.46735,-5.7089,1.2572,-4.10113,3.8926,13.0946,2.36373,3.73673,-9.38154,-1.26177,-1.60532,-0.652254,4.94668,1.00523,0.985974,7.85195,41.48,-904.752,-419.68,4900,5460,3500
-0.183982,-3.85642,6.05812,-1.89798,6.08865,16.6788,3.78743,2.21656,0.30552,6.63296,7.20917,1.04356,8.99773,2.92589,6.87671,2.52057,39.528,-905.728,-417.728,4480,6440,3780
11.2194,11.6181,14.6926,13.0766,14.863,16.5229,7.63414,0.482303,14.6778,17.8464,17.5718,14.151,15.2304,7.39044,16.8784,0.254928,39.04,-904.752,-419.192,4340,7560,4340
1.94573,-3.93463,3.25748,5.97821,-1.81435,7.94265,-4.51743,-7.15264,-1.04272,1.37588,1.62842,-0.0618733,2.3158,-1.80741,1.10722,-8.79851,40.992,-905.728,-418.216,4340,8540,4760
15.6161,15.5094,13.5422,16.257,15.6253,22.555,10.3292,13.2104,25.4491,18.0904,14.0757,17.9151,11.9046,14.1497,7.57617,15.9678,37.576,-903.776,-414.8,3080,9240,5320
-2.26672,-9.99339,-1.43778,-5.50009,-4.9004,10.9667,0.286089,4.77275,-2.02735,-2.73816,-2.91974,-5.99932,-1.37385,1.4073,-10.1448,4.26289,39.04,-905.728,-414.312,2800,9520,5600
-3.71001,-2.5489,1.52736,4.86615,4.37501,14.188,10.9091,8.44904,0.217835,-3.81754,-1.56657,-3.50671,0.54118,6.17279,3.02785,9.49017,34.16,-902.312,-413.824,2940,9660,5880
6.6341,13.4091,7.10456,16.1649,12.8206,12.2411,15.0636,7.87084,9.54496,2.8897,4.01077,6.77691,5.22725,10.4595,11.3596,9.27211,35.136,-902.312,-415.776,3500,9940,5880
-5.28084,-9.0572,-8.02568,-1.24602,-9.75971,-5.36481,-2.48033,-6.5953,-16.6025,-15.4652,-12.6682,-14.3893,-8.71942,-5.24532,-8.20811,-11.579,38.552,-909.632,-416.752,3500,10220,6160
10.7718,8.68595,4.42797,5.59638,6.03355,1.90671,2.91605,6.06416,4.74503,4.74281,6.61364,4.37888,4.39024,6.37525,-2.54409,1.61494,38.552,-911.096,-420.168,4060,9520,6160
1.89989,-13.3841,-6.73655,-16.7815,-12.5398,-8.51044,-11.8051,-2.85036,-13.634,-9.15812,-3.64469,-12.2628,-7.00071,-5.72413,-22.723,-11.2485,37.576,-910.12,-418.216,4480,9520,6020
7.21405,-3.53414,-4.38959,-8.10826,-6.01348,-2.519,-4.75486,2.39454,-0.0651624,-4.45259,1.52374,-4.29993,-7.17063,-1.29235,-12.4943,-4.04029,38.064,-913.048,-417.24,4900,9520,6020
4.00096,-1.73004,-5.45415,-8.25962,-8.19373,-5.66231,-5.28434,0.646868,-1.23351,-2.63159,6.31841,-2.6694,-6.90018,-4.52057,-6.00586,-4.12309,38.064,-912.56,-423.096,5880,9100,6300
-12.193,-21.6842,-17.7416,-22.1916,-26.3168,-16.2734,-17.6874,-10.5605,-22.925,-16.8278,-5.42323,-21.0402,-16.0783,-16.8663,-12.1669,-14.2492,36.6,-913.048,-412.848,6020,8820,6440
3.92722,4.33149,-2.6267,-4.55939,-4.61095,-6.09912,-6.41749,0.270095,2.93532,4.98446,11.6351,2.98667,-0.954304,-2.11792,8.01765,4.57551,40.016,-914.512,-413.824,6160,8120,6580
-8.12415,-15.6614,-11.9498,-23.4408,-20.4706,-16.3366,-18.9857,-8.11431,-18.3276,-6.66748,-0.669855,-12.8565,-7.80782,-15.6963,-6.64609,-8.67861,43.432,-914.512,-414.8,6720,8120,6300
4.69766,5.00993,-0.269283,-3.17399,0.332112,-5.09133,-2.85103,2.29611,6.48377,7.58557,5.1163,4.02651,2.36301,-4.24933,7.58999,2.6348,47.336,-914.512,-414.312,6580,8120,6440
15.7087,26.6452,13.5958,16.2946,19.0356,-0.17352,8.5157,5.98044,24.7217,21.3419,13.3786,22.2163,12.1901,6.35805,14.6962,9.99055,41.968,-915,-413.336,6160,7840,6160
-6.36324,0.600143,-0.110607,-4.57909,-0.997983,-10.0937,-6.35515,-5.70464,-1.42487,-0.655209,-6.37408,-1.31614,-1.54032,-6.27322,-11.5905,-5.35891,42.944,-911.584,-410.408,6160,8120,6440
4.96279,19.5503,11.502,11.3192,18.4373,0.727265,10.2626,10.084,21.8599,11.5163,2.91828,14.6039,8.87371,8.34178,9.11782,14.8907,46.848,-907.68,-407.48,5880,8120,6440
-5.82883,4.27963,0.275499,7.16911,3.24576,-11.6998,4.00815,-3.65423,2.28489,-5.70944,-12.8879,-2.40072,-2.07292,-1.53404,11.0445,5.00243,43.92,-903.288,-409.92,5460,7560,6580
-2.14226,5.05153,1.2386,10.7892,2.70444,-4.80502,0.892886,-5.4608,6.11246,-2.12717,-10.574,-0.00899021,-0.87413,1.41128,9.56004,6.38274,49.288,-906.216,-404.552,5040,7000,6440
3.56061,9.64817,6.73613,15.0625,6.27829,4.90581,3.32827,0.322948,9.18928,3.02404,-2.35834,7.4244,4.97511,5.80917,9.37344,8.58898,50.752,-908.656,-409.432,6020,6720,6160
-8.76405,-14.9497,-5.92701,-7.71277,-13.1409,-1.71401,-10.3985,-14.0894,-13.3932,-10.9181,-12.9369,-9.32409,-6.5845,-5.70242,-13.2868,-10.1843,47.824,-907.192,-406.992,6020,6300,5880
-1.19048,-2.87205,1.04019,-2.59529,2.97421,8.56318,3.06167,-3.06709,2.78414,3.19509,4.39853,5.7626,1.91452,5.58159,-0.858984,4.44673,46.848,-905.728,-415.776,6580,5880,5740
-21.6735,-22.7855,-12.8067,-15.8444,-11.5093,2.61619,-1.26042,-4.69829,-23.4751,-18.9845,-7.43761,-14.3336,-8.51199,-5.64708,-8.978,-8.17653,44.408,-903.776,-414.312,6860,5740,5880
-8.71751,-5.29784,-3.40806,3.16433,5.18266,11.2172,10.6235,5.7433,-11.4676,-7.4361,-2.60476,-0.728634,-3.16605,5.90383,1.58165,-3.16837,45.872,-908.656,-412.848,7000,5880,5880
-1.9643,3.30525,1.48041,11.9049,14.375,12.771,18.4461,9.91431,-8.34106,0.881161,0.64284,7.64207,1.16217,11.1749,5.01297,0.791528,40.016,-911.096,-411.872,7140,6160,6020
-10.2191,-25.4886,-11.2644,-20.1028,-16.9272,-3.26063,-10.4797,-8.39947,-21.2753,-11.4883,-10.6806,-16.2161,-9.18523,-9.43463,-29.4287,-23.8485,39.04,-909.632,-413.824,7560,5880,6300
8.11134,0.393564,1.89453,-2.93055,1.90944,5.51456,0.97647,3.37638,12.0302,8.12125,4.59659,5.81212,4.06285,1.66987,-10.3702,-6.95196,34.16,-909.632,-415.776,7700,5600,6720
-6.81785,-10.8849,-9.77807,-6.54116,-7.76651,-5.54946,1.58518,-1.38496,-6.99548,-10.7298,-9.43907,-9.11256,-5.74809,-7.55483,-4.27931,-9.80468,37.088,-914.024,-413.824,7840,5180,6860
-0.511994,-0.0648512,-3.85181,2.47094,2.0127,0.626437,8.36221,2.94406,7.37369,-2.87417,-2.40101,-0.130391,0.082533,-2.18881,7.45903,-0.202747,37.088,-913.048,-415.288,7560,5040,6860
5.30148,10.0236,6.10911,7.27206,8.19212,8.03277,6.80053,6.32955,12.4603,8.65613,9.67542,9.48554,10.8266,3.42519,7.67843,4.70493,34.16,-915.976,-415.776,6720,5460,6860
-4.95806,-2.609,-2.72541,-5.97403,-10.0507,-4.57689,-13.7571,-8.65116,-4.89706,-2.24515,0.0397641,-5.65893,-0.33691,-9.01376,-13.797,-10.9042,38.552,-917.44,-418.704,6720,4900,6860
14.0854,28.3778,15.6334,22.2723,20.1593,11.7361,9.8167,11.8511,21.1313,17.359,15.985,20.2115,12.9093,12.8936,12.3022,14.2741,34.648,-919.392,-412.848,6160,4760,6720
1.43777,7.03603,6.10165,11.5981,2.99513,2.26884,4.22611,4.72299,-5.24824,0.936083,4.21339,2.10862,2.97984,3.75312,13.3854,6.60016,30.744,-920.368,-412.36,7420,3920,6440
8.60808,12.1765,10.0084,14.0669,6.86014,5.10264,3.21147,5.22929,10.5282,11.3673,12.7643,9.25696,7.03725,7.83202,16.7909,12.0035,31.72,-924.272,-415.776,7980,3640,6300
9.90333,9.81878,10.5365,10.0007,8.02433,7.83371,4.18037,7.65583,10.4309,12.356,16.3798,8.18536,8.54188,10.5759,16.2689,15.5849,32.208,-917.928,-417.728,8260,3780,6020
-11.8064,-21.4987,-10.3724,-19.8527,-21.4181,-8.41376,-17.9276,-13.2712,-18.759,-11.691,-3.70033,-21.2208,-9.61209,-10.4139,-7.7915,-5.84187,28.304,-911.584,-415.776,7700,4200,5740
5.00261,3.45182,1.3543,-6.78648,-2.21333,0.411694,-7.25661,-2.35151,8.37451,7.10427,8.5445,-0.513702,1.03251,2.73615,0.607502,6.80203,32.208,-908.656,-413.336,6580,4760,5740
-9.84167,-19.4613,-10.9401,-22.9265,-19.0581,-15.5424,-18.1925,-14.8302,-21.1525,-11.8672,-10.4917,-20.1648,-12.9615,-10.6089,-14.9712,-11.6935,35.136,-907.68,-408.944,6160,5180,5180
-7.99934,-18.1672,-7.2396,-17.953,-11.5778,-14.9154,-8.83893,-8.68392,-18.2146,-6.18501,-6.85224,-17.2814,-9.9401,-6.51719,-9.28452,-6.6086,34.16,-908.656,-406.992,5740,5460,4900
10.1404,8.29043,3.50143,1.17935,3.57142,-10.9066,2.28633,1.77392,9.59243,9.86567,2.56853,-0.445888,-1.14984,0.829896,0.33347,2.57283,34.16,-909.144,-404.064,4760,5600,4900
2.97942,-2.78089,-3.70044,-5.85801,-8.05539,-13.9552,-8.69474,-1.99542,-1.01395,-1.18444,-10.9234,-11.4228,-8.79086,-7.50984,-14.1309,-8.83033,35.136,-906.704,-403.088,4340,5180,4900
16.7879,15.018,11.9835,7.226,13.9456,8.46936,10.3358,18.5322,19.4266,17.3863,4.79204,10.5578,8.20498,9.68886,-0.0564631,9.56232,37.576,-906.216,-400.648,4760,4200,4900
2.24173,-4.93118,1.28909,-7.34221,-1.01729,2.06754,7.82555,9.94062,-6.57244,-2.5096,-12.1428,-5.31581,-0.57238,-1.15942,-7.35155,-1.5527,36.112,-900.848,-401.136,5180,2240,5180
7.04019,13.1592,9.46675,14.1693,16.7197,8.52101,15.1115,12.3716,5.52081,3.09574,-10.6968,10.53,4.79596,6.94504,10.0301,5.1114,35.136,-905.728,-393.328,6020,840,5180
18.0397,35.2209,22.8878,32.4717,31.5111,13.188,14.0495,10.5262,25.5536,15.5561,1.61171,31.3168,15.7154,13.1864,17.7609,7.04443,38.552,-902.8,-396.256,7140,-1400,5320
-4.9171,3.39496,4.23311,9.47066,8.60388,0.809065,-4.76105,-5.27953,-6.96805,-4.19853,-7.02227,10.996,3.57232,-1.52881,-0.576016,-4.50057,36.6,-898.408,-413.824,7420,-3080,5460
5.44466,14.3883,9.54903,12.9835,19.9331,6.70316,8.3291,4.39228,15.6784,10.5629,13.7627,25.4307,13.6104,7.5211,14.3945,14.1314,38.552,-895.968,-423.584,7980,-3220,5740
-7.01615,-9.89155,-5.74819,-8.04527,-2.53652,-0.992187,4.3576,-1.64637,-3.98292,-10.9649,3.83796,1.53025,1.77575,-3.91715,8.38409,7.68552,40.016,-895.968,-433.344,8400,-2520,5880
-4.35152,-1.10528,-7.57405,4.02686,3.79035,5.28847,8.6268,0.0978247,4.17768,-9.53422,8.86566,4.87673,1.99035,1.50041,18.9236,14.084,40.016,-895.48,-431.88,9660,-2100,6160
8.93751,13.2941,-0.218629,13.8346,11.1961,5.86102,6.4541,-3.35468,15.7296,3.03876,18.4538,18.5602,9.51682,6.73972,13.2395,12.5781,38.552,-895.968,-437.248,10640,-1960,6300
-7.64767,-19.0335,-17.8735,-12.9611,-19.9157,-6.60225,-14.7048,-17.7438,-10.7543,-15.2756,0.395643,-10.856,-5.53381,-12.4041,-12.4846,-8.25661,38.064,-897.92,-433.344,10640,-1540,6440
11.4119,-0.323666,-7.76286,-1.80817,-10.0047,4.06048,-4.44997,-2.928,21.2312,7.04709,14.221,2.55285,0.599241,-4.01134,1.24037,2.83424,41.48,-902.8,-430.416,10500,-980,6440
-0.540355,-14.0473,-13.7591,-10.8704,-22.9789,-1.87324,-18.755,-6.54246,-2.23364,-5.05779,2.10752,-13.7395,-11.5021,-11.8497,-15.1156,-12.1072,44.408,-899.384,-424.072,10360,840,6580
-6.49384,-12.4211,-11.5805,-8.43102,-15.5114,3.36869,-11.7474,1.37008,-7.02106,-5.68159,-1.96021,-14.5165,-11.9729,-6.14958,-12.2824,-8.1126,46.848,-900.848,-423.584,9800,3500,6860
-1.9497,-3.75621,-5.72549,-2.83555,-5.82911,4.03309,2.8014,3.96335,-5.15947,-2.31846,-4.51255,-8.71108,-7.99665,0.285604,-2.46562,-3.02884,43.432,-907.192,-419.68,9240,6580,7000
-12.8288,-20.7392,-12.8102,-16.6226,-20.504,-11.9663,-9.31747,-14.8741,-24.6339,-17.8896,-21.9449,-23.8287,-17.1467,-8.50419,-15.277,-18.3355,40.016,-915.488,-416.752,9520,7700,7140
-7.75951,4.77294,1.58128,6.31413,2.58106,-4.95052,4.84429,-6.94289,-5.30927,-5.83155,-9.84179,-2.84276,-3.86395,6.36093,2.93852,-2.99444,38.064,-923.296,-412.36,9800,9100,7420
-35.3578,-13.1116,-6.53576,-7.89073,-12.9835,-15.1636,-8.13108,-19.0831,-37.0042,-28.3446,-26.2352,-19.2461,-12.9412,-6.49567,-12.47,-20.9771,35.624,-920.856,-412.848,9380,9660,7280
-25.1539,-17.46,0.703608,-14.1229,-8.1406,-5.09113,-9.32876,-13.7413,-32.9508,-13.693,-21.7769,-11.2238,-7.91237,-1.02614,-15.5635,-17.451,33.672,-921.344,-411.872,8120,9800,7280
-21.0546,-29.6636,-0.363754,-26.1366,-13.4053,-3.24792,-15.0969,-9.59126,-33.7694,-4.43346,-13.1366,-14.188,-4.87085,-5.29073,-19.6361,-17.4307,35.136,-922.808,-410.896,7700,8260,7280
-20.7138,-36.0031,-4.75874,-32.8546,-20.1583,-6.23936,-21.7007,-10.3078,-30.5954,-9.3983,-17.0775,-19.7058,-6.30129,-9.40852,-29.4882,-23.9497,33.672,-923.296,-411.384,7840,6580,7140
2.01279,7.79875,9.7362,6.78481,18.8604,12.5717,10.4209,16.7076,5.49629,14.4263,4.74955,13.5066,10.8112,13.4578,3.08047,4.28769,34.16,-920.856,-418.216,7280,4900,7000
-8.10594,3.6999,-5.38925,7.04284,5.46991,-2.40733,11.8,13.5058,-6.25124,-1.59325,-5.25581,-0.877235,-1.96435,-1.7145,6.11088,-3.23599,40.504,-921.344,-419.68,7280,3080,6440
15.8045,36.2723,5.84312,34.3161,20.3229,5.22063,25.4102,25.758,34.1265,12.7798,6.56503,16.7149,5.07493,6.81507,26.1472,14.605,38.552,-922.32,-419.192,6580,2240,6440
26.4003,42.5366,17.0573,38.2097,25.6197,4.67038,22.4758,22.7575,37.5479,27.1122,21.062,24.9815,12.1713,11.3689,23.7674,20.5525,39.04,-924.76,-416.752,6020,700,6020
26.7174,16.107,16.4746,9.52863,5.70132,-1.07251,2.35048,3.74446,25.095,24.9633,19.956,8.46001,11.1469,1.84944,-5.18995,6.42812,37.576,-924.272,-418.704,6580,-1400,5880
45.4438,36.6282,26.065,19.0094,22.8513,14.065,18.7489,16.0934,56.5375,41.4193,36.9085,24.5132,24.413,12.5346,15.8454,29.0953,39.04,-925.248,-417.24,6580,-3780,5320
30.9979,16.9774,11.8454,10.4132,7.10511,7.73883,16.3891,8.31764,32.0452,20.1929,23.1067,6.20838,12.5917,0.678442,19.08,21.4453,36.6,-929.152,-420.656,6860,-5600,4480
22.8972,7.12866,8.66993,3.61659,4.82329,10.7895,11.2217,11.5776,20.5609,16.8478,21.4404,4.13054,10.9768,1.16355,11.9003,20.3477,40.016,-927.688,-424.072,7280,-6300,4060
10.7965,0.752054,-3.73842,-6.24874,-8.16733,-6.62223,-1.47129,3.73858,7.56024,4.94788,13.2291,-6.28378,0.958903,-9.55704,0.0992998,9.15828,38.064,-925.736,-427.488,7840,-7560,3640
0.0208796,-5.07603,-15.3748,-10.8026,-19.2853,-21.3906,-15.3142,-15.0742,-0.402461,-20.1905,-10.6209,-17.6051,-15.4766,-18.2883,-13.1084,-8.99006,40.992,-921.832,-425.048,7280,-7840,3220
5.96689,19.7489,0.13643,9.82875,10.4135,-2.97891,3.69481,-1.48832,20.3144,-10.0954,-4.85711,9.17986,-2.79816,5.84944,11.5811,12.3284,36.6,-920.856,-420.168,6860,-7280,2660
-12.0048,-2.71453,1.2608,0.147122,3.12251,-2.0874,0.000683161,-9.95562,-18.4846,-22.1449,-16.1283,1.77473,-2.43371,6.31687,8.47981,-2.04093,39.04,-913.536,-421.144,6580,-6720,2380
-15.9542,-10.1539,7.07959,-4.61435,8.98146,5.76922,-0.887311,-5.11567,-29.2552,-14.4211,-8.11034,4.84627,4.75006,12.5158,3.17393,-2.22066,40.504,-925.248,-418.704,6580,-6020,2100
-15.7076,-16.2783,-0.202845,-19.359,1.94838,2.88762,-8.57849,-1.80189,-20.4891,-9.86024,-1.80011,-2.99531,3.60331,6.21515,-4.32041,-1.93522,32.696,-924.272,-422.608,7560,-5320,1820
-35.0135,-32.3756,-12.1001,-31.5287,-6.44259,-4.58718,-19.8897,-13.8196,-43.5625,-24.7897,-18.1087,-17.6183,-7.53071,-1.92764,-13.5594,-12.5879,34.16,-925.248,-423.096,7560,-4620,1820
-29.2822,-10.7814,-8.66771,-12.5766,16.7989,5.97245,-2.21685,2.40244,-26.7589,-7.42363,-6.47178,2.64068,1.19941,10.4585,3.55115,3.49701,29.28,-933.056,-422.608,7980,-4620,1820
-24.6109,-34.8687,-25.2163,-26.4393,-5.80728,-1.514,-9.11857,2.94697,-37.2311,-11.9132,-18.0542,-14.5966,-13.7277,-2.84046,-10.8455,-10.1221,26.352,-926.712,-416.752,7700,-4480,2100
2.57626,-22.0747,-15.1681,-11.4126,-8.2328,2.3008,-6.72799,2.17619,-2.15754,13.0333,-1.54743,-4.81988,-7.58909,-3.39044,-8.31305,-11.7715,25.864,-924.76,-421.632,8540,-3780,1960
21.3107,4.14695,2.73771,12.1897,-5.53033,0.192483,-10.2709,-2.75363,25.0211,26.0075,13.9368,11.8482,5.00734,-1.29529,-5.54197,-13.4295,23.424,-922.32,-423.096,8540,-3360,1960
3.4461,-0.37891,-0.653165,10.5254,-16.2281,-6.35951,-18.5699,-10.4846,7.51662,4.76863,2.23,2.50906,-2.96051,-9.28452,-9.85298,-14.5973,26.352,-906.216,-423.096,8540,-3220,1960
1.02186,11.0269,6.47621,17.9734,-4.00019,2.00502,-5.13659,1.04185,16.0425,10.2377,12.2775,13.2736,5.45958,-1.60434,6.80963,7.17116,13.176,-912.56,-420.168,8680,-2240,2100
-10.3672,-8.26958,-0.572893,5.50294,-14.6149,-1.69375,-2.17604,-2.51711,-9.17811,-8.59339,-2.16044,-4.84857,-2.12504,-7.93953,2.21436,1.31544,16.104,-908.656,-422.608,9380,-2240,2520
-2.92686,12.4838,4.38469,23.913,2.6812,6.11793,10.8279,1.25045,7.58789,-4.28036,-3.07214,4.52825,-0.470578,0.373494,11.4713,7.21355,17.08,-910.608,-425.048,9520,-1960,3220
16.5942,40.9066,10.4187,34.8222,11.4476,4.08773,4.31692,-10.6005,32.9698,4.57046,-3.35827,18.3718,-0.554403,1.27096,1.58673,-4.9612,12.688,-914.024,-421.144,9240,-840,3500
5.54481,23.3346,-1.48823,20.4341,-2.03014,-11.2613,-6.17226,-38.0748,0.660923,-10.1342,-19.7474,3.78988,-12.6876,-13.7669,-5.52354,-31.0374,12.2,-915.488,-424.56,9800,-560,3780
1.49339,1.38806,-0.474102,2.91942,-0.720249,-2.36319,2.14342,-17.513,-11.7383,-1.40508,-4.40232,1.04645,-1.71916,-6.2776,2.67548,-8.01763,4.88,-916.952,-425.536,10500,-140,4060
0.174164,-25.1868,-10.6755,-30.2049,-25.3,-5.33008,-8.68679,-9.76151,-8.86781,-10.48,-3.43242,-19.4179,-5.80436,-15.243,-22.3338,-8.01997,9.272,-917.44,-430.904,10780,140,4340
7.46809,-1.60764,1.42529,-5.90212,1.00344,8.74149,14.6536,10.8973,7.67373,-6.36768,4.3819,-2.24552,3.11503,4.25524,-9.81681,14.0781,12.2,-913.536,-431.88,11340,560,4480
14.9603,11.7667,14.3797,-1.31914,15.2124,14.2711,21.3657,21.7506,14.7984,3.00982,14.5348,12.7512,13.9306,14.9646,-15.8558,21.4389,11.712,-916.952,-427.976,11480,1680,4620
-5.87173,-22.5295,-2.79054,-30.9279,-16.0134,-3.31975,-0.400288,6.80064,-12.9154,-13.661,-0.468132,-14.543,0.779853,-4.41218,-28.9633,-2.37074,13.664,-917.928,-425.536,11480,2380,4900
-6.59951,-11.0709,2.04232,-7.97634,3.59548,2.32783,22.4572,18.6896,-9.35793,-2.24814,7.431,-4.03907,3.49438,6.97175,17.293,15.697,10.248,-919.88,-426.512,11060,3500,5180
-12.5134,-14.861,-4.27907,-6.52495,-1.11315,-10.1105,20.4002,12.5066,-26.0011,-10.3947,-6.43912,-12.8106,-6.54307,1.87661,20.1497,8.17172,11.712,-921.832,-418.216,9940,3500,5460
-5.97492,-0.805348,-0.430951,-1.03014,8.04543,-5.18981,17.6217,21.0692,-5.84656,2.17035,-3.23257,-6.45978,-2.32624,7.82671,19.1794,12.7454,20.496,-924.272,-408.944,9660,3360,5180
-5.24657,9.60467,0.365453,7.42513,14.5671,-2.28584,18.4974,24.623,5.07855,4.1515,-7.07225,-3.93051,-0.756406,9.99582,28.5088,13.4399,20.496,-922.32,-410.408,8260,3080,4760
-6.55986,1.80733,-3.14655,2.96112,3.14537,-4.23492,7.49953,13.6738,-4.58891,-1.52741,-15.3788,-11.5196,-4.70615,2.42869,22.2214,-0.382477,22.448,-922.808,-411.872,7280,3220,4620
31.0146,44.0299,19.9094,26.379,24.8599,8.36241,5.48114,6.17694,46.3372,34.1058,15.26,25.0776,13.8049,12.189,22.3904,1.11592,23.912,-919.88,-406.504,7000,2380,4480
19.524,17.7869,0.805073,-7.74303,-7.84713,-5.46743,-32.6163,-14.7346,27.8031,10.7816,0.609077,1.27377,-1.87067,-11.0424,-25.736,-22.5098,23.912,-921.344,-406.992,6720,1680,3920
12.1858,8.47662,-1.47971,-7.75997,-4.03646,5.61378,-28.1793,-0.0280951,19.3501,7.73207,4.61903,-1.22932,0.989863,-3.75465,-12.1683,-6.0736,27.816,-909.144,-411.384,6300,0,3780
2.17255,-4.51396,0.0931952,-8.80925,-0.138766,9.63533,-20.4066,9.55741,-5.18785,7.4014,8.54359,-0.955063,5.78866,3.92737,-6.59866,6.90172,28.792,-904.264,-401.624,4620,-1120,3360
-12.9643,-26.304,-13.2117,-17.8473,-14.2515,-3.61532,-26.2924,-5.2287,-28.679,-6.86715,-3.07221,-17.748,-7.17294,-8.35415,-19.6644,-4.33999,31.232,-904.264,-399.184,4200,-1540,3080
11.0339,21.274,7.75939,31.4673,23.6265,7.51754,3.38212,0.480001,9.36084,21.2079,17.9287,19.0167,7.74557,11.1537,16.7461,12.7149,34.16,-909.632,-396.744,2940,-2800,2800
-12.5476,-12.1854,-3.4665,3.42477,-1.52413,-0.954833,-9.64827,-16.3689,-25.5299,1.31723,5.01678,-4.54776,-3.35427,-4.58994,-5.06577,-6.94969,34.16,-904.752,-400.648,2800,-3360,2520
7.37152,-1.37685,6.72507,3.0964,3.55143,9.13089,-5.13718,-12.9476,9.64406,12.4295,12.2998,6.31861,3.98236,1.23627,2.61708,-0.376985,34.16,-897.92,-405.528,2240,-3080,2100
5.00147,0.275121,8.8098,9.91274,10.8023,7.924,6.34,-8.84562,-0.145569,7.71122,9.0866,9.9284,6.84737,6.70712,12.3516,10.2108,35.624,-903.776,-406.016,1680,-3080,2100
-12.2215,-33.3043,-9.3155,-26.7098,-21.9349,-9.00217,-16.6275,-30.2339,-20.9928,-13.5485,-3.9557,-17.8433,-3.69103,-14.1612,-26.758,-19.6404,35.624,-900.848,-406.504,560,-2380,2240
5.46441,-7.10076,-0.454224,-20.8335,-14.6184,-7.95407,-11.3234,-24.0946,19.6725,-1.51808,9.58729,1.18828,5.70619,-10.5839,-21.0218,-21.7787,33.184,-897.432,-408.944,140,-1960,2520
-22.4087,-18.4069,-15.4917,-13.9107,-27.97,-22.6726,-9.79236,-17.9975,-11.3078,-34.3713,-15.6549,-18.2461,-10.6272,-20.7988,-11.6288,-26.3879,32.208,-890.6,-408.944,-280,-1820,2940
-4.47304,16.3967,4.29902,22.67,7.13611,-2.76344,16.4149,10.0645,10.7715,-12.081,-11.2933,13.8811,0.624132,6.55614,10.2666,9.08491,29.28,-884.256,-408.456,-700,-1120,3360
-18.7954,-4.30491,2.16274,16.5204,15.2068,9.75259,37.8735,33.5011,-23.122,-10.8827,-12.3228,8.23635,1.34662,18.5256,28.7016,37.9801,28.792,-890.112,-408.456,-2380,700,3920
-24.059,-36.0032,-14.9479,-11.3315,-15.8299,-0.610262,10.0794,13.6956,-39.2735,-18.7215,-16.7877,-19.279,-10.7738,-1.9888,6.26637,9.30722,27.816,-883.28,-412.848,-3360,1680,4200
23.1952,23.4726,9.61783,24.0451,13.7907,7.15802,10.3295,1.52928,29.8712,20.8322,12.6693,21.8801,7.34635,8.79561,15.7735,0.905106,30.744,-884.744,-413.824,-3920,2940,4620
5.78461,-4.02019,-6.34312,-15.1452,-14.8435,-7.87499,-22.0434,-14.5584,6.62859,0.815872,-1.06841,-5.24824,-6.10085,-12.0596,-28.0659,-24.394,27.816,-881.328,-409.92,-5740,4760,4620
2.48483,9.58467,2.61179,2.29471,8.12171,1.58451,-5.30914,1.57686,2.19635,3.48604,0.818573,7.66513,-2.32265,4.05308,-12.2042,1.56784,27.328,-887.672,-414.8,-7700,7000,4900
-7.22044,18.0805,12.2868,23.8206,35.3392,12.9853,25.3913,24.2097,-10.0587,1.07969,-1.24066,20.4739,3.45208,24.4064,18.891,35.5956,29.28,-894.016,-417.24,-9800,9100,5040
-32.6628,-23.5668,-7.74505,-13.1423,2.62822,2.04274,12.6046,14.3761,-36.705,-19.219,-15.1495,-12.0824,-10.0219,4.06542,7.76005,19.7459,28.304,-899.384,-427.488,-10500,10360,5320
5.61957,28.1701,8.52271,25.649,22.129,7.69934,26.1878,11.4561,29.7413,11.9505,7.26789,18.0473,4.26045,10.989,35.7655,20.9179,31.232,-902.8,-433.344,-10780,11900,5880
17.1804,19.3546,-0.767711,-4.5057,-11.8589,-10.4018,-14.1717,-13.9861,36.4755,8.93337,-4.19303,5.0579,-4.85067,-12.3934,-22.2152,-15.3663,38.552,-895.48,-439.688,-10780,12880,6160
17.1262,12.1614,-3.07539,-11.9524,-16.8458,-8.90851,-12.2861,-19.9467,38.084,13.6796,0.194545,2.52714,-0.86631,-17.5248,-10.9672,-28.8888,35.136,-892.552,-440.664,-10780,13580,6440
16.4558,17.8604,1.71965,12.4381,-3.69679,-8.11363,7.62112,-24.1167,27.5186,13.0954,3.97604,10.8474,6.1744,-11.7957,27.3103,-29.4439,36.112,-894.992,-436.76,-12180,15680,6580
16.7087,10.5964,-0.131844,5.11132,-10.6069,-13.6216,-2.88092,-29.8298,9.2283,3.78109,0.893469,8.30542,3.01014,-14.595,-1.27678,-35.732,39.528,-898.896,-438.712,-14140,17640,6580
14.4603,7.57248,6.8589,2.53887,5.9591,2.36533,17.7949,2.63527,2.20825,6.57419,13.566,15.3449,12.9542,3.3059,0.900079,4.1864,42.456,-901.824,-439.688,-17640,20160,6580
-27.2177,-41.351,-14.3044,-31.5144,-15.4434,-2.44045,5.8512,14.0464,-58.6618,-33.1216,-14.5644,-24.268,-2.94509,-2.32614,-28.6844,14.1244,42.456,-899.872,-442.128,-19600,21980,6580
-6.05366,-17.3514,-3.67141,-26.0038,-10.2278,4.25817,-16.6537,15.1323,-17.2421,-13.5715,-3.11348,-12.1684,2.7646,-0.479327,-43.1563,7.94487,46.36,-896.944,-444.08,-21420,24780,6860
3.65939,5.70657,6.96893,-8.77457,1.30642,9.76992,-22.6156,14.0487,3.70381,-1.14654,2.9331,0.761026,6.68915,5.03594,-33.4434,5.85683,43.92,-894.016,-444.08,-23100,27440,6440
-40.1411,-20.305,-11.1686,-8.48944,-7.79539,3.92832,-13.6686,8.31201,-45.2062,-31.3514,-17.7025,-28.5911,-8.80508,-1.79143,-8.10436,0.473236,38.064,-909.144,-448.96,-24920,28840,6440
-25.9997,0.305305,3.534,33.2208,28.7708,16.825,31.3878,26.4883,-37.7858,-8.61965,-2.39553,-6.97108,2.54712,20.2565,60.9953,29.7216,52.704,-896.456,-532.896,-25760,29820,7000
-16.0196,-26.3337,-6.05427,-10.1703,-6.52612,-5.75297,-17.8343,-4.35835,-46.2531,-8.05847,-5.79921,-24,-9.08536,-4.14718,-2.48849,-10.5965,53.192,-894.992,-495.808,-23380,28980,7420
9.43782,-21.0512,-3.633,-40.5999,-27.5097,-14.376,-61.417,-15.1586,-8.66799,8.62415,6.77411,-21.973,-8.36571,-20.5326,-58.9132,-34.266,53.192,-903.288,-471.408,-23660,29960,8120
33.117,20.4519,12.4293,-6.78847,5.50016,-2.48439,-28.1411,2.48974,29.2408,15.5146,7.93648,4.90616,-2.98328,1.22156,-38.5654,-0.96933,50.264,-900.848,-452.864,-23240,31500,8120
19.5952,1.20867,-4.06146,-13.1251,-10.2163,-7.94639,-14.1929,-0.561441,23.3113,-5.29441,-3.43578,-17.5783,-14.0103,-8.12834,-4.48469,-3.79424,43.92,-904.752,-442.616,-23380,32900,7980
18.8831,10.2189,1.73385,8.4538,-1.24469,-1.39748,-4.96977,-5.84247,29.9875,6.99871,12.9747,-8.60685,-2.16167,-3.23826,41.6152,-6.15299,44.408,-907.68,-437.736,-26320,34020,7840
12.9808,10.9372,-1.55216,9.64302,-12.8105,-12.9147,-16.2986,-28.1467,20.889,0.0213178,3.94919,-10.6117,-8.47677,-11.4399,14.0291,-22.0397,48.312,-914.024,-437.248,-27720,33880,7560
18.4097,16.1724,15.8672,17.8797,14.0553,7.02956,15.4008,-1.51253,20.9166,18.1819,9.95883,12.1499,3.72432,13.0801,16.681,11.4223,51.24,-923.296,-440.176,-29960,34440,7700
30.132,23.257,29.0282,17.9297,26.4912,18.2413,28.886,12.4618,31.0797,38.7815,18.9651,29.1315,15.1912,26.3573,8.35876,27.5574,50.752,-923.296,-441.64,-30520,34580,8400
23.1046,14.5233,20.8086,32.2561,29.1817,22.8654,64.6803,25.1587,20.3639,33.7759,13.5616,22.8477,12.6263,31.8901,53.9676,43.9322,55.632,-921.832,-456.28,-29400,35140,9240
18.7451,28.1804,21.944,63.8895,55.3544,38.0595,110.002,48.7878,26.1802,36.4759,17.6538,38.9119,18.9973,48.6617,111.188,77.8493,51.728,-915.976,-461.648,-28560,37660,10220
-15.9002,-18.2816,-14.9263,16.7624,4.66607,12.8556,62.7773,23.4647,-7.49211,-1.51901,-5.26998,-2.59617,-1.2343,10.9953,65.0906,36.9651,48.312,-914.024,-463.112,-27720,40740,11340
-16.5192,-23.4936,-20.1907,-14.0018,-15.9923,2.11774,3.33021,-1.83808,3.55138,-0.801547,2.73704,-2.99812,3.92604,-7.501,5.01829,-7.8451,48.312,-914.512,-458.232,-27160,45360,13020
6.19835,19.4738,-10.0639,2.35177,-10.1641,-8.65751,-41.9957,-25.9603,37.2338,9.50715,4.03172,20.6039,8.17573,-15.8616,-30.7288,-51.2292,45.384,-915,-457.256,-26880,49140,14420
-12.983,6.83531,-10.7727,-2.50439,-7.95871,-10.4209,-54.8685,-34.1793,-7.17232,-5.44084,-11.7433,13.7636,1.24385,-14.4513,-59.8736,-53.3378,44.896,-915.976,-458.232,-25200,50260,15260
-1.8974,34.425,4.35527,0.783007,1.36233,-6.4467,-54.7242,-29.8282,26.5669,12.1013,18.047,29.5495,15.4285,-9.13197,-68.3938,-43.7148,45.872,-912.56,-457.256,-25060,49980,16380
-41.638,11.9055,-18.6595,6.61054,-2.77564,-19.2015,-25.6383,-30.3763,-13.558,-37.1395,-12.0546,-1.99614,-7.29805,-17.8477,-25.6706,-29.57,40.016,-906.216,-457.256,-24780,49140,16940
-57.8814,-21.4178,-26.1036,-1.04622,11.886,-3.18354,26.2338,20.7654,-51.9592,-54.8129,-36.8214,-17.0838,-15.8382,-0.878596,10.6546,38.2848,40.992,-905.728,-468.48,-24080,48300,18200
-56.3151,-75.6162,-35.08,-57.7683,-23.7837,-2.50493,32.3036,43.5027,-76.3486,-46.3551,-30.3743,-53.4329,-18.2586,-8.31818,7.73692,60.3863,39.04,-899.872,-463.112,-26040,47880,18760
-33.9452,-79.982,-27.9537,-66.1053,-46.9363,-11.0994,7.67891,15.0268,-65.9704,-24.1366,-12.8113,-60.9504,-12.8574,-20.7459,4.31974,23.7615,33.184,-901.824,-463.112,-28280,47600,19460
25.9053,-0.338152,12.5579,-24.8444,-20.4705,-5.66216,-25.4759,-10.7378,25.9654,27.7538,27.4306,-4.59438,15.9072,-13.0591,-11.178,-17.317,36.112,-906.216,-462.624,-31360,46340,19880
16.0726,-0.561231,16.739,-17.7982,-15.3556,-14.1935,-33.1168,-27.7024,5.23355,5.24071,1.81214,-1.56408,5.33031,-13.0601,-33.0773,-30.7698,37.576,-913.048,-459.208,-33320,44380,20300
16.2568,19.3913,26.2897,12.4173,15.3372,-4.34002,4.3923,1.4512,11.3591,1.45874,-13.9593,15.6943,4.02489,8.98452,-6.70571,8.15047,44.408,-922.32,-458.72,-35420,40040,21280
-5.88994,6.0443,15.2337,-1.70025,1.40388,-7.95508,-25.7716,-6.15527,-18.6636,-10.4426,-28.9793,6.97846,-2.77649,1.33637,-24.8711,-17.7689,46.848,-928.176,-456.768,-37520,35560,21420
-57.0538,-43.6961,-11.6564,-34.6089,-48.0673,-35.3027,-123.986,-71.0795,-94.0164,-38.1181,-39.1196,-23.4753,-17.8078,-44.5631,-81.2062,-125.554,43.92,-920.856,-460.184,-39480,33460,21700
-9.12636,-0.0888225,8.09738,-11.6034,-26.4256,-28.3873,-110.987,-72.629,-18.672,6.92714,3.28901,15.6399,0.603541,-35.0931,-87.205,-112.521,43.92,-925.736,-463.112,-42700,31640,22680
56.3544,41.2693,19.1451,15.9937,1.85928,-10.1939,-27.4267,-18.8643,63.1513,29.0477,12.3074,41.5376,3.55029,-3.4558,-52.0133,-19.5426,42.456,-923.784,-466.528,-44660,30660,23520
33.6001,20.8716,11.1655,24.2663,28.0867,21.7742,59.9789,43.2017,31.4103,8.87599,4.53268,31.1442,2.9959,29.1571,20.2713,67.7431,44.408,-929.64,-465.064,-48020,29400,24220
-17.5315,-21.6075,-9.18293,27.3919,39.8414,34.7654,122.331,71.4801,-39.1049,-33.0718,-17.4875,1.55716,-9.55644,40.4529,90.9438,108.559,48.8,-936.96,-478.24,-50820,28700,24780
-5.30097,-17.1148,-17.4284,40.6914,32.3247,24.0018,112.954,50.144,-21.6104,-31.1569,-15.1855,-5.82035,-20.1194,26.2732,105.677,85.5521,52.704,-939.4,-466.04,-53200,28420,24360
53.3396,36.5133,14.5237,63.0972,59.8977,35.0907,106.296,53.7923,49.9807,28.2043,29.8377,37.3229,2.19553,42.5188,102.775,85.7612,54.168,-942.328,-459.696,-58520,27160,22960
54.49,32.8869,4.98506,45.449,35.0523,20.9575,72.1583,37.9533,60.4843,21.8864,29.4544,21.9812,-6.59753,23.5639,85.3375,46.5356,65.88,-939.4,-450.912,-61180,27020,22400
63.993,54.3708,3.3995,43.5498,20.397,14.701,37.0817,19.0475,94.1744,28.903,32.3102,19.4652,-5.45115,8.68234,63.2751,12.5123,66.368,-910.12,-429.44,-60620,26880,20720
42.929,27.5067,-4.35658,-4.21348,-19.5144,-5.13153,-28.4003,-12.1838,58.1348,20.5491,24.9582,-8.23503,-6.45081,-17.1005,-15.928,-32.1909,73.688,-967.704,-522.16,-62020,24500,19880
11.6967,-18.8954,-13.1294,-68.6341,-68.4026,-28.4244,-103.283,-60.2399,7.36013,10.3323,14.2148,-36.6788,-10.9618,-44.4912,-115,-88.9223,47.824,-878.888,-454.328,-57820,26460,16520
73.2459,56.1509,39.068,-8.81767,9.46549,2.56048,-39.6609,-36.9725,83.6756,66.6779,48.5754,41.1086,30.9066,6.31366,-62.5255,-37.8628,40.992,-884.744,-399.672,-62860,22680,12040
39.4447,25.6462,28.7204,-8.46478,-4.82969,-1.06461,-48.7396,-37.5321,26.9866,46.986,45.3156,13.8015,33.132,-1.99041,-40.6443,-48.4031,47.824,-939.4,-382.592,-71680,17220,10640
-23.8274,-36.8001,4.8388,-56.5754,-45.381,-2.75058,-91.3913,-25.5167,-49.8027,20.7778,44.77,-38.5479,27.9959,-23.0855,-66.7936,-61.5637,43.92,-933.056,-360.144,-71540,17640,6580
-51.7809,-35.1611,-8.03615,-29.4172,-15.1799,1.01337,-20.9186,8.39026,-64.1367,-10.5513,13.0235,-49.9374,16.0284,-8.9427,5.56388,-3.61691,38.064,-913.048,-353.312,-73780,13300,2240
-78.9165,-21.1229,-20.6634,10.4454,7.40915,-3.24039,41.3271,24.7792,-70.4351,-55.1431,-40.6743,-62.1016,-6.3926,9.59823,63.2968,40.4089,44.408,-922.808,-329.4,-77700,1960,-2660
-29.3777,19.0241,15.2592,34.0149,48.098,27.1695,97.3645,63.5607,-2.81456,-16.5347,-22.7331,-19.0526,16.5037,51.7905,92.0609,97.6495,46.36,-927.688,-336.72,-80360,-3640,-6860
-41.172,-35.3748,-5.86658,-23.8168,-18.3204,3.245,29.8916,39.3637,-30.4793,-20.5102,-12.6061,-50.2676,3.62172,7.40964,32.8508,45.2959,45.872,-923.784,-348.432,-81480,-7140,-10360
-53.5822,-27.8825,-10.9364,-20.5086,-27.9921,-11.2961,-25.835,3.72246,-30.0203,-25.651,-10.7621,-27.8427,1.17783,-10.6555,-3.74499,-14.7839,45.384,-918.904,-350.872,-83020,-15400,-14840
-87.9817,-22.2592,-26.685,-22.3296,-24.0715,-29.2932,-51.8992,-36.5452,-54.6985,-57.6268,-39.0572,-14.9496,-13.4057,-24.9465,-62.7096,-46.8902,50.264,-915.976,-349.896,-83300,-21840,-17920
-136.678,-47.9228,-61.0213,-37.2128,-35.8859,-38.3622,-63.3645,-43.6156,-104.758,-103.048,-93.933,-32.5158,-45.342,-40.3265,-94.562,-50.8268,48.8,-908.656,-345.016,-81340,-28700,-21700
-90.3715,6.72614,-29.729,36.5174,44.0975,-4.96591,7.14265,-6.00903,-57.621,-70.0742,-120.303,38.1346,-36.9796,10.0193,-1.45535,0.345676,37.088,-892.552,-334.768,-80780,-34020,-24920
-39.0658,3.30125,-23.1923,18.8341,31.1664,-9.25879,7.51533,-11.0754,-7.24442,-28.7117,-98.3761,38.3557,-35.9588,5.58224,-8.57701,-6.39023,33.184,-888.648,-327.448,-82320,-37240,-27020
40.5869,20.9847,10.6923,23.1105,38.1909,12.0151,23.1703,13.1328,57.5828,58.9566,4.14994,55.9212,0.527398,22.7433,11.5065,20.318,19.032,-871.568,-323.544,-84840,-40460,-29120
68.0507,21.1257,31.1919,27.4401,27.2088,19.554,15.629,11.1341,47.0441,93.5267,64.3054,56.8005,23.7818,23.7794,17.7933,20.8557,8.784,-874.008,-327.448,-85960,-43820,-30240
76.0585,7.52185,25.2838,14.0935,15.2101,20.4529,46.978,5.76162,47.473,82.7434,68.5347,34.985,20.1945,16.9342,33.5474,33.5793,13.176,-882.304,-336.232,-87080,-49000,-29960
104.316,34.7423,41.0773,27.1678,39.8139,33.4708,85.2565,23.6778,85.5863,91.0403,79.233,49.6497,30.7787,32.2172,66.2372,66.3239,3.904,-886.696,-342.088,-89040,-51240,-28700
43.8886,-11.2697,17.093,2.36586,5.27183,16.1988,52.2903,7.59616,4.98104,26.4916,37.2658,-3.83971,8.85915,8.85182,52.3549,36.4912,-3.904,-899.872,-344.04,-90580,-50540,-26880
30.0965,-12.8513,15.5313,13.3975,16.8107,18.3719,54.5687,15.1832,-6.38405,1.97029,18.1227,-7.59956,5.12605,19.0227,55.7932,46.3488,-17.568,-900.848,-350.872,-90300,-49000,-25060
40.1869,-0.124893,12.1441,11.6112,1.16792,6.94174,29.7197,20.9608,18.4071,-1.5341,11.6365,-9.65333,0.662587,8.90942,34.8328,36.2801,-28.304,-896.944,-373.32,-90580,-46620,-23240
25.7677,-25.6896,-13.8226,-44.275,-96.4414,-22.0723,-112.954,-16.4783,0.11168,-21.4413,-1.81306,-51.2654,-17.7787,-57.3167,-71.7074,-73.813,-36.112,-927.688,-378.2,-91980,-42560,-19600
39.8468,3.67752,-5.29319,-51.2299,-126.315,-29.2836,-189.497,-89.972,16.9393,-4.11355,7.3929,-23.4685,-10.6282,-91.7184,-139.557,-161.22,-39.04,-922.808,-407.968,-88900,-38080,-16800
46.4851,6.43691,-20.1944,-52.237,-72.4491,-50.0718,-116.839,-94.5284,29.9434,-23.5479,-12.5325,-12.1122,-31.5024,-90.694,-110.24,-116.236,-38.552,-903.776,-416.752,-85260,-33740,-14840
50.3991,17.6379,-12.8586,-13.2131,-2.54332,-42.1826,-14.1551,-2.91821,47.2748,-15.7957,-0.227636,10.2121,-23.2104,-26.3073,-12.8681,-10.3504,-41.968,-887.672,-391.376,-82880,-29260,-12880
7.60139,-17.7241,-6.67367,-18.5246,-4.56504,-34.2262,-2.26598,5.57029,-16.1563,-14.3736,18.7295,-1.68632,-3.2965,-2.23271,-6.71268,-4.32783,-30.256,-887.184,-389.912,-84140,-26320,-11620
-41.9988,-39.3682,-3.37803,-21.9592,9.16712,-19.4019,-10.7177,-14.0845,-75.9632,-31.2768,11.4886,-11.4283,9.0191,-0.870121,-32.9691,-20.2637,-15.128,-894.504,-379.176,-84560,-21000,-9660
-50.9366,15.2427,12.7601,41.3566,64.1564,6.42162,36.9563,23.013,-35.9261,-35.1836,-9.4932,23.5082,17.1687,35.8043,27.3904,18.6106,-7.808,-897.432,-377.712,-80920,-19740,-7980
-50.1113,14.6988,-12.0192,24.7673,27.0548,0.717526,0.622914,25.4637,-13.2826,-60.1647,-54.6402,0.454342,-5.52375,17.8173,1.29184,2.38883,5.856,-888.16,-396.744,-77140,-20580,-6720
-45.2336,1.10851,-5.52211,41.9318,46.4546,36.2779,43.7099,47.0319,-34.9592,-30.7994,-39.1883,9.93039,11.8615,42.4323,44.6386,44.7348,19.52,-886.696,-414.8,-74060,-21980,-5180
-9.52782,-8.7089,-1.73965,15.9147,37.7518,38.8139,68.5586,42.043,-2.21658,14.391,-1.51443,17.3059,20.385,38.7361,48.8184,55.8686,33.672,-873.032,-427,-70840,-22680,-4760
-4.08356,-20.3718,-13.676,-15.5765,-3.66841,12.3569,42.0501,1.91602,10.3816,17.6445,-1.12974,-6.33317,3.44445,5.04702,32.8914,15.0034,40.992,-858.392,-436.272,-65100,-22960,-3920
1.52754,-0.640575,9.70856,4.87995,14.8317,22.6594,49.8405,-1.23371,10.2055,42.445,28.9405,7.64897,23.496,19.8164,42.9209,24.6808,43.432,-856.44,-455.304,-59360,-22960,-3500
-10.8845,5.41287,16.4959,8.28999,16.5099,27.1149,51.0751,18.4103,-0.0304348,26.2565,26.1824,2.47649,25.7073,26.792,29.4814,38.4795,49.288,-844.728,-467.992,-55440,-22960,-3220
-31.7797,13.9646,6.55322,3.08886,6.56947,20.7091,17.5086,28.2416,7.77387,-1.83742,3.8356,-6.11509,14.7971,16.0997,1.94641,23.4053,52.216,-840.824,-482.632,-49420,-22260,-3220
-53.348,0.668866,-12.415,-16.1094,-28.209,-3.42369,-47.2471,6.0352,-19.0475,-33.1109,-29.5657,-31.7155,-7.45495,-15.9999,-43.6379,-24.4482,49.776,-830.576,-483.608,-45220,-21280,-3080
-73.8282,-13.6021,-25.717,-6.72339,-25.0337,-7.99379,-18.7931,0.583978,-46.3027,-58.6318,-61.4559,-53.1594,-30.3075,-17.9493,-16.6513,-19.4021,40.016,-825.208,-468.48,-39760,-20160,-2940
7.77312,49.7983,11.2687,40.4231,31.5929,16.0766,61.3015,23.1093,44.1701,8.4977,-18.8085,3.05738,-10.7141,24.8915,57.4869,44.8407,39.04,-828.136,-470.432,-35140,-19040,-2940
42.9295,59.0771,30.3359,51.3571,42.8478,21.5097,47.0151,38.2636,46.3637,39.0713,10.9717,23.4959,-4.40996,37.644,61.1083,54.8095,34.648,-829.6,-470.432,-31920,-17780,-2800
52.8988,65.9002,45.1618,52.7962,38.6684,24.9978,-1.78033,17.1105,49.5788,67.1355,63.464,35.9922,21.4195,33.535,20.125,13.013,30.744,-828.136,-477.264,-26460,-16520,-2380
38.6451,25.1736,24.615,-0.302759,-12.6134,-2.10154,-61.3927,-29.8925,30.4772,66.7153,87.1294,10.0022,18.995,-9.25518,-47.3039,-47.2407,20.984,-828.136,-476.288,-22680,-15540,-1820
29.2477,-5.00372,-2.17483,-26.7363,-38.5772,-20.5848,-74.4583,-53.1571,19.157,37.7926,52.3998,-7.62838,-6.31861,-36.2454,-66.6862,-64.4456,9.76,-836.432,-469.944,-19040,-15680,-1120
60.5825,37.6819,20.999,29.5491,35.9543,7.55487,30.9134,-9.06623,63.5391,44.8144,36.3631,44.741,6.33079,15.6797,29.8905,26.8914,2.928,-846.68,-463.112,-15820,-14980,-280
16.2175,-15.6825,-1.08589,11.8674,18.5626,0.504198,48.1403,9.12739,-8.98313,3.71914,4.17727,14.5484,-5.69206,13.1766,56.7194,46.344,-3.416,-853.024,-475.312,-13020,-13300,280
19.2357,-28.6209,-1.30048,-23.621,-12.0445,-11.5973,-18.9561,-19.559,-9.05834,10.8767,17.8232,15.5291,4.59447,-8.14889,-14.0306,-4.40447,-3.416,-849.608,-482.632,-7280,-8820,1400
21.41,-22.1569,-5.79769,-41.8363,-38.2923,-34.2747,-72.1351,-43.7185,1.40975,8.70463,19.8501,15.5154,3.632,-35.0283,-65.2429,-49.027,-11.712,-849.12,-486.048,-2800,-5880,2660
-56.2365,-90.0031,-50.5715,-79.0581,-75.211,-54.4165,-65.1873,-52.2213,-85.6258,-54.9262,-25.2577,-48.5894,-25.0323,-62.903,-66.5569,-59.9423,-10.248,-833.992,-490.928,2100,-1680,4340
-85.0723,-116.079,-67.1267,-98.7811,-74.9183,-51.6565,-39.0005,-36.5495,-103.247,-78.0161,-43.4215,-71.5216,-32.0256,-59.8205,-50.9686,-34.6965,-11.712,-833.016,-497.272,5040,700,5740
-78.4448,-103.233,-57.4681,-71.106,-56.254,-38.8355,-6.33263,-19.145,-107.704,-85.2716,-60.5408,-64.5732,-33.5641,-38.3558,-15.1684,-6.65623,-8.784,-841.8,-493.856,6860,2380,6580
-39.6137,-43.6167,-17.1813,-19.4242,-5.59764,0.538131,20.7867,-0.0652734,-58.6136,-45.4462,-42.4917,-15.351,-7.0005,3.86761,8.06436,21.1665,-8.296,-838.872,-482.632,8960,4480,7140
18.8336,40.3241,16.1162,47.3015,39.9279,21.502,51.483,19.1531,33.3611,-8.38215,-26.7679,33.7618,9.94359,28.3121,53.4561,39.6696,-9.272,-828.136,-463.112,8960,5600,7280
34.7795,46.9548,20.5016,52.4153,35.6159,28.9938,44.9602,40.8782,55.9953,4.45949,-18.6188,28.4543,9.55711,29.5079,55.7651,40.205,-6.344,-844.728,-411.872,4760,5880,6300
52.1396,66.9335,42.3423,56.9283,44.23,36.7727,5.58423,44.9449,63.2061,42.5142,11.8105,45.7322,24.601,32.4411,23.5643,21.2262,-1.952,-892.064,-370.392,-4760,6860,4480
39.8541,45.4728,32.6709,23.1608,21.5001,17.5002,-18.9398,8.7145,42.8584,37.4211,4.24315,19.325,12.4514,9.8603,-30.8395,-22.5623,28.792,-990.64,-413.336,-9520,5180,1960
55.2142,49.4576,26.0176,20.471,20.4746,13.7194,3.65685,15.5719,75.1133,47.9652,2.31879,8.44373,6.37372,8.02139,-11.9647,-9.40579,60.024,-973.072,-490.44,-140,-4200,420
40.0089,38.3261,26.279,25.6024,17.8497,15.7094,19.0841,25.9389,34.9015,34.9263,-19.9683,6.18921,4.46717,14.6701,10.321,-0.294202,87.352,-886.208,-577.304,11340,-10920,840
-13.4503,-21.4151,-3.98312,-20.6079,-38.4179,11.4084,-34.2185,9.30274,-43.4728,-14.3328,-60.6183,-38.9627,-9.82252,-17.4613,-41.1792,-36.9635,85.888,-816.912,-619.272,19600,-15540,1120
-32.1548,-16.8953,-16.882,-35.1535,-27.9825,3.16665,-47.4638,1.20359,-30.1699,-32.0193,-59.1565,-39.6173,-13.2715,-35.086,-53.5703,-37.904,61.976,-768.6,-567.056,22960,-17920,1400
-62.5667,-33.1606,-31.1001,-31.9727,-9.42698,-29.732,3.03848,-15.7609,-57.6108,-58.1215,-60.0969,-52.1107,-31.6682,-23.5933,-7.24294,-9.89169,45.384,-788.608,-543.144,22120,-18900,2240
-14.605,9.0411,1.60288,15.1612,33.4827,-17.7832,41.0168,-0.134569,-10.3276,-6.15182,-3.71887,-6.095,-13.8118,20.3551,42.403,31.9227,34.648,-819.352,-507.52,24640,-16520,1120
21.3282,33.1767,21.5416,34.238,46.5537,4.76665,40.8266,3.30254,23.154,26.331,37.9165,21.7953,-2.48701,34.0046,51.4686,31.0931,64.904,-994.056,-501.176,24220,-18480,0
15.5759,27.9689,8.98984,34.6565,27.6699,3.92491,-6.46016,-11.6995,26.7454,17.1129,44.4135,20.6002,-9.66559,17.2782,29.2375,-3.78852,49.776,-1006.74,-638.792,43680,-18060,-560
5.48483,28.5606,-4.87518,24.1081,6.33002,-4.3478,-34.8972,-20.9131,37.983,16.6437,52.8904,36.3872,-3.59821,3.15369,4.01085,-26.8364,17.568,-1007.72,-675.392,74480,-11900,3780
-31.9759,-32.5341,-31.3534,-4.40357,0.61861,-8.90998,33.7257,-9.49889,-26.8295,-29.9525,9.64193,21.104,-7.46772,12.9055,17.688,14.0635,-14.152,-1202.43,-366.488,72940,-3920,6580
-31.6314,-34.5235,-30.3114,9.80549,17.9302,8.65656,74.783,32.934,-19.185,-40.3389,-10.3031,36.9717,10.6411,34.3271,46.9742,62.8299,33.184,-967.216,-298.168,56700,9660,6860
-7.50857,-3.72611,-21.4922,22.633,12.0156,3.51188,43.6311,20.1236,8.09508,-38.0137,-21.4217,56.5722,28.5949,24.0663,29.9756,32.655,99.064,-759.816,-1044.32,92680,-840,1680
-6.17809,-27.5902,-21.6603,-22.2237,-35.0972,-11.6921,-38.9241,-22.8614,-18.5133,-41.7873,-22.8164,16.2923,32.2211,-18.6732,-46.4221,-28.8221,10.736,-675.392,-726.144,84140,-27720,-1400
4.01925,1.58823,-1.29814,-13.2824,-31.4037,1.23758,-32.3445,-10.0567,6.10993,-27.0809,-11.8182,-1.03225,30.6002,-17.8889,-30.0336,-12.329,128.344,-1080.92,-504.592,56140,-17500,-2520
-18.3291,0.778494,-11.9416,-18.6969,-46.6112,-14.4375,-24.4838,-10.7571,8.68547,-32.2603,-3.32507,-33.6503,5.79488,-32.7409,-21.4934,-10.1527,24.4,-770.552,-202.032,78540,33180,-2520
-20.1454,-26.4224,-2.58568,-52.8949,-63.7714,-22.2601,-73.4932,-12.7701,-10.4751,22.1283,59.1644,-45.1223,13.9773,-44.0312,-62.429,-32.9272,60.512,-561.688,-311.344,73360,-4060,-4480
14.4233,-3.02632,40.9523,-39.5953,-26.9629,-16.5926,-56.2805,-35.8396,-2.93836,82.9765,119.691,-21.1336,32.9118,-24.5309,-66.3784,-47.7147,106.872,-780.312,-503.616,46900,-50260,-10640
14.6938,19.5769,40.4868,-5.74392,-23.3084,-5.684,-30.7899,-42.4375,14.6575,74.3933,122.365,-38.1314,22.3922,-26.0055,-23.7367,-39.8788,54.656,-662.704,-219.6,39480,-52220,-7000
3.76224,14.2428,32.7325,5.48905,1.31152,18.023,-11.9648,-12.7174,-0.683191,66.3387,110.059,-26.5247,12.5046,-9.2423,2.59433,-12.4601,67.344,-936.472,-498.736,18620,-36960,-1540
-0.289849,1.02512,17.6612,16.4811,20.965,10.0906,24.6941,-5.15053,-14.8374,44.5779,50.5808,-10.8806,-24.1541,2.59972,27.0047,1.29919,3.904,-802.76,-461.648,27300,-14700,1400
18.9115,8.21619,21.0612,32.1055,52.9353,24.0105,79.381,30.5109,6.48695,39.598,-3.32384,17.8173,-38.1726,32.0701,75.628,46.1698,-24.888,-803.248,-483.12,20300,-26740,6580
-0.093672,-18.7861,-7.22917,-3.0531,24.5533,21.0108,32.5923,36.442,-20.0589,-10.316,-40.0717,-1.93438,-50.0644,16.6354,29.0091,27.7471,-55.144,-929.152,-455.792,7700,-18060,9520
4.85674,-2.96679,-18.2883,-11.701,5.9402,10.8311,-29.9555,6.97675,-9.37854,-33.8781,-50.0708,-2.441,-40.9513,2.66319,-43.0427,-14.6702,-52.704,-935.008,-501.664,11760,2800,8820
29.2534,47.5848,5.75241,36.2681,45.1631,28.5588,15.3297,30.8029,33.6263,-0.388304,-38.7863,29.8617,-9.42214,31.6406,4.40029,32.2533,-30.256,-921.344,-534.848,16380,9940,3780
3.41409,-17.444,-15.5437,-2.12031,-1.93375,16.5648,-8.13988,34.0073,-18.2186,-16.3767,-62.7219,-13.9887,-17.2366,7.12531,4.91343,22.9297,-27.816,-900.848,-447.984,19460,4480,1260
27.595,-14.1842,-1.22697,2.30257,8.37493,10.226,16.0687,4.88022,0.962305,12.0623,-36.8003,9.09141,1.18182,9.43704,25.6962,8.91616,-10.736,-923.784,-413.336,11620,-5880,-1680
51.7377,46.8754,18.066,58.24,55.373,13.6743,90.9329,17.9482,55.757,19.5152,-35.6563,46.9373,14.737,38.1947,90.9706,55.4686,26.84,-916.464,-442.128,13300,-7700,-5040
22.4924,11.5843,-0.445397,16.9099,23.8838,4.473,68.0633,31.7303,29.0125,-8.3824,-55.6,10.0408,8.08898,25.1954,62.5742,54.6093,41.48,-887.672,-460.184,20020,-11200,-8120
16.5364,3.44013,1.61613,-15.527,-9.89572,-4.56297,-16.1529,16.6822,21.1341,0.91572,-33.1359,3.55536,21.3079,3.41406,-14.7116,8.62056,53.68,-860.832,-455.792,23520,-16660,-8820
2.37175,-8.7485,-5.4222,-32.7165,-35.5019,-25.1987,-55.3404,-22.6315,-7.05527,-20.3268,-36.1247,-7.19635,15.07,-22.7261,-67.0045,-40.5696,51.24,-845.216,-440.176,24080,-22260,-8680
-5.03285,-18.7915,-7.1099,-41.7535,-32.3249,-20.3851,-43.094,-24.3584,-1.65488,-22.9122,-29.2889,-9.17909,13.6776,-23.0246,-58.9725,-30.0021,51.24,-844.728,-445.544,22540,-24500,-8960
-7.91069,-24.7416,-13.3952,-55.5198,-51.504,-31.9272,-80.4392,-36.4195,-6.16365,-28.9886,-32.6954,-16.7,2.19666,-39.1179,-84.431,-54.1589,45.872,-852.048,-460.184,21980,-24780,-8680
-36.8649,-29.9861,-17.2507,-19.6459,-24.0846,-24.2173,-10.9429,-28.314,-40.9249,-50.5945,-41.4518,-24.0922,-7.25938,-21.0355,-5.98586,-23.2688,38.064,-850.096,-467.992,22260,-22260,-7840
-61.1216,-15.6242,-5.04673,20.8567,12.4211,0.933796,10.2906,10.6862,-64.8081,-41.8626,-20.2521,-8.70998,4.35095,7.81906,32.2486,15.2737,27.816,-857.904,-473.848,19880,-20720,-7420
-79.0394,-20.8145,-22.0465,14.7438,-7.66851,-19.8541,-22.4704,-10.608,-75.9555,-50.8566,-20.4917,-23.8049,-13.5617,-13.6428,0.97102,-22.231,22.936,-873.52,-467.016,17780,-19040,-7000
-16.4784,42.5527,5.41205,64.3418,47.3568,-0.669296,74.5413,-2.97893,24.5754,-6.0139,14.7984,26.7415,1.78713,21.7772,79.9014,28.2274,20.008,-874.984,-464.576,16380,-17500,-7000
8.44174,31.153,6.95097,46.6403,39.4577,10.7022,82.381,23.832,30.1979,8.67647,31.114,27.2437,4.19855,28.2167,71.3538,53.0533,16.104,-876.936,-471.896,16100,-17780,-6860
-10.5163,-21.8582,-18.2298,-20.4854,-20.4481,-4.42461,-13.4159,0.291007,-4.38049,-5.24203,29.713,-8.79718,-9.64426,-9.0308,-28.4964,-9.09433,20.496,-882.792,-475.8,15260,-18200,-6860
29.4754,34.2785,4.91529,10.1037,-1.78975,-1.3083,-37.4026,-11.0356,57.7773,27.9058,53.6377,32.0281,7.83992,-4.4474,-37.0253,-30.7927,23.424,-879.376,-465.064,14700,-18200,-7000
17.4784,17.3544,1.20747,4.92504,-11.55,-9.81317,-37.4533,-19.802,27.4908,15.5017,39.9389,15.3144,0.961194,-10.2873,-35.2239,-40.7046,30.256,-885.72,-477.264,14420,-18060,-7280
13.9764,0.875991,7.94326,-11.7784,-2.32918,1.75445,-10.964,-6.74976,11.0067,25.7772,47.708,15.1563,9.25474,1.59686,-28.3633,-16.9696,25.376,-876.936,-480.68,15680,-16800,-7000
-12.278,-24.1251,4.42062,-22.2081,6.90743,5.81835,22.8573,2.95517,-30.1289,11.6788,33.212,2.74429,7.62278,8.85566,-7.08486,3.41964,26.84,-873.52,-480.68,15680,-15680,-6580
-13.3905,-15.4095,-10.3345,-16.268,-12.1764,-4.08022,-3.00362,-2.37621,-3.45422,-4.21292,10.4073,-13.1407,-7.5839,-8.32946,-3.59072,-10.6959,27.816,-863.76,-478.728,15120,-13440,-6020
-19.5526,-36.6661,-16.5636,-49.8101,-43.5784,-6.55394,-67.9745,-5.36182,-15.1491,3.17037,16.5408,-30.6954,-5.52963,-28.2321,-50.8743,-35.8411,28.304,-863.272,-481.656,14980,-12460,-5740
-18.3025,-42.87,-13.1254,-54.404,-47.0472,-9.84217,-61.481,-24.5623,-32.1087,-0.305737,11.8902,-37.282,-8.12091,-29.9273,-62.6263,-41.7792,32.696,-871.568,-473.36,14280,-11200,-5320
17.062,15.5197,19.4007,19.6434,23.3729,22.8153,29.1383,9.77481,10.9015,24.7187,18.965,11.318,9.80683,20.9834,31.7483,28.5456,34.16,-871.568,-470.92,14140,-9520,-4760
13.4304,19.6473,17.0585,38.5963,33.9908,29.882,60.286,28.6158,5.07294,16.6973,0.38371,12.2355,5.31416,27.676,70.7992,50.318,36.6,-868.64,-472.384,14140,-9520,-4340
21.6195,20.2506,8.2963,35.2859,20.5022,21.6026,53.9062,17.0614,22.5822,12.8468,-8.75467,4.29761,-3.30545,15.0512,67.0306,40.13,37.088,-869.616,-470.432,13580,-9380,-4200
25.4862,28.0358,16.8259,28.364,21.4955,21.061,24.6442,12.3219,24.9023,26.6679,8.19102,13.0195,7.61382,13.0827,38.3419,28.5178,38.552,-873.52,-468.48,13020,-9380,-3920
23.289,24.9713,10.0138,8.79474,-1.44484,8.39902,-6.80191,-1.24628,24.7108,11.6444,-11.0578,4.19347,-2.00371,0.449766,-4.1321,6.55632,39.04,-884.256,-469.944,12040,-8540,-3640
33.6093,34.5194,15.6226,23.8261,14.4344,12.6876,0.802566,11.5057,39.6992,20.0055,-10.8498,15.5943,2.88949,5.34261,17.3863,14.7555,37.088,-885.232,-469.944,13020,-7140,-3220
21.8983,-0.0110736,2.49486,-2.96025,-1.18255,-4.5039,-23.0948,3.43211,5.0985,12.6473,-15.299,-3.21499,-4.29577,-14.0582,-3.60613,-8.21287,37.088,-885.72,-474.824,13860,-6300,-3080
-12.4608,-57.7206,-19.5836,-67.0501,-45.0795,-30.8433,-75.0048,-30.9869,-53.6554,-15.0937,-33.5823,-41.1535,-19.1037,-38.0198,-79.6533,-52.3048,38.064,-886.696,-478.24,14560,-6580,-3220
-3.81778,-3.70491,-2.30041,-4.77876,4.59256,-8.20585,6.28288,-4.0832,-10.6416,-12.3852,-24.5355,-9.84263,-4.98503,2.72615,-1.92292,4.5244,41.968,-887.672,-479.704,15540,-6720,-3080
-18.022,-9.77774,-10.7193,-5.12861,-5.2901,-7.09217,15.6494,5.30964,-21.9402,-26.3874,-26.0166,-22.9506,-10.4837,5.17702,0.605186,14.8685,40.992,-888.648,-485.072,16660,-7420,-3640
-34.7843,-21.9773,-9.38545,-16.7558,-13.9463,-8.11051,-20.8659,2.44379,-45.9072,-19.3324,-9.7168,-21.9599,-3.02085,-3.84393,-25.9971,-8.14463,39.528,-892.552,-480.68,17780,-7140,-3920
-35.0733,-27.9123,-3.52237,-5.18593,-0.0888406,-5.82332,10.69,-4.40468,-53.5803,-25.351,-14.153,-13.7018,0.643531,2.70959,5.9904,-4.77828,38.552,-892.064,-481.168,18340,-6580,-4200
8.14866,15.2514,10.2679,26.149,19.396,-2.604,36.4987,-6.15531,10.491,-9.01849,-10.7961,13.7028,2.86914,15.7058,22.1142,9.58268,39.528,-889.136,-478.24,18760,-5600,-4480
6.43892,6.16345,15.7324,10.6316,24.75,9.24527,37.8837,14.6708,6.0556,7.60739,10.4608,19.1382,14.5221,25.1076,11.26,28.4928,36.6,-894.992,-477.264,18480,-4480,-4620
20.3154,5.91292,6.3799,-20.146,-7.06926,-5.04459,-11.6058,1.22966,37.4577,2.39921,0.666676,11.5824,3.24048,1.05639,-31.8917,-7.41646,37.576,-899.384,-471.408,18200,-3080,-5040
23.6007,46.8513,15.1317,40.0856,24.0423,9.0114,0.431067,15.671,51.9763,10.7957,7.54564,33.2624,9.71156,11.0015,25.3408,1.06807,36.6,-899.872,-467.016,18060,-2380,-5180
-12.0404,21.736,-4.26543,33.9803,11.5187,-1.43098,0.93078,4.34239,4.57263,-12.298,-1.1588,8.48694,0.0902029,-4.00292,30.8858,-12.6254,37.576,-902.8,-466.528,17920,-2660,-5040
-6.43189,14.0879,-5.88903,27.823,16.2863,-3.17813,33.0777,-10.6012,7.47688,-15.2962,-6.36724,9.52615,-2.74725,3.37386,36.8385,-0.442658,42.456,-898.896,-465.552,17920,-2520,-5180
10.0929,16.9864,7.54112,18.1098,23.0055,6.67858,23.4959,3.85113,13.9697,9.54839,16.4062,27.1666,11.6856,14.9454,12.2758,17.3042,41.48,-896.944,-461.16,17920,-2660,-5040
4.86264,-8.76486,-5.26054,-17.5082,-5.99851,-6.61858,4.39805,-0.734152,4.23744,-1.02294,5.13344,4.79625,-1.20178,-0.745131,-19.8805,5.52534,40.992,-891.576,-455.792,17780,-3080,-4900
-4.38001,-17.4764,-16.1966,-25.0276,-26.9618,-4.26541,-11.2997,13.0599,13.4984,-2.7171,11.7465,-12.1628,-3.72016,-13.5809,-5.13612,5.12845,42.456,-888.648,-451.4,16800,-3640,-4620
-0.0272716,-25.4583,-22.8493,-51.0741,-57.9798,-17.1031,-60.0481,-10.098,21.6126,1.34581,22.1321,-24.747,-7.41681,-39.5997,-46.1704,-34.2312,37.576,-894.992,-443.592,15120,-4620,-4620
-14.926,-44.2387,-14.2191,-47.1527,-35.7096,-13.4282,-30.9781,-29.1353,-34.175,3.92281,23.9069,-23.0187,-4.32613,-26.7394,-41.1606,-33.46,42.944,-903.288,-455.792,13300,-5880,-4480
5.93202,5.015,12.1506,2.76631,16.3225,9.47946,8.68147,-0.00297693,0.0267496,26.4343,30.5128,18.6978,10.1589,9.52572,-3.96177,9.53642,39.04,-894.016,-469.944,15120,-6440,-4060
-10.76,-16.1667,-1.64299,-9.61252,0.393755,-0.9871,-9.72552,-1.64227,-27.5092,-3.09491,-9.05527,-1.53794,-7.90128,0.958989,-14.7891,1.08712,37.576,-881.328,-450.912,15260,-6440,-3920
-3.27936,8.67953,-4.47874,4.538,-4.02081,-2.08802,-29.7602,1.979,3.54329,-1.79443,-10.1338,3.22398,-6.3606,-5.37419,-9.07349,-8.7097,37.576,-886.208,-442.128,13440,-7000,-3920
17.7562,29.8041,0.351252,9.92014,-0.125784,-3.89426,-23.5273,-2.96793,35.4248,4.31136,0.955111,12.7473,-1.58868,-5.14851,-11.2398,-14.1025,36.112,-888.648,-444.08,11620,-7140,-3920
2.67316,13.6186,-1.48671,11.5262,2.10525,-3.92518,-6.36287,-14.128,-2.40435,-2.08569,4.98211,-0.116982,-2.79588,-2.64748,-4.41578,-13.6417,38.552,-885.72,-448.472,11900,-8400,-3640
-22.9469,-0.270959,-2.80221,11.8454,9.15193,3.74211,16.4835,-2.98662,-29.9201,-6.78259,8.16102,-8.0216,2.69529,6.80949,23.4636,7.49736,39.04,-886.696,-446.032,10920,-9520,-3640
-27.4164,-17.4842,-15.6114,14.5693,1.25233,-3.60893,36.3651,-6.36402,-38.9476,-34.6271,-25.4539,-20.9879,-11.2413,0.315458,56.2079,7.17424,39.04,-888.648,-455.792,9800,-10500,-3500
5.44608,19.5959,7.46831,36.7919,33.2468,17.8223,41.3993,7.08173,7.55345,-8.6887,-18.3153,15.0481,2.92816,24.3542,37.481,29.5737,36.6,-886.696,-451.888,9520,-10220,-3640
-2.52538,-0.916069,11.5648,7.09281,22.2371,18.0075,27.9435,13.1665,-20.201,8.4801,-1.80459,2.11818,9.82384,23.4365,5.41632,32.1336,36.112,-892.064,-446.52,8680,-10500,-3360
-22.4614,-34.4094,-4.26994,-9.04613,-3.58871,10.3025,30.9008,9.39899,-43.9401,1.42923,0.84285,-28.7179,1.90118,8.93266,25.6482,23.644,37.088,-895.48,-450.912,8120,-11060,-2940
2.69057,-5.45121,7.07239,0.717284,11.2757,21.1149,28.7911,24.7483,4.32761,12.3831,6.44758,-0.86352,7.51205,17.626,26.8336,32.7482,33.672,-896.944,-455.304,8120,-11200,-2660
-27.1261,-63.4915,-10.2753,-51.7845,-36.9729,0.780483,-60.7088,2.62438,-69.4065,-13.1834,-18.113,-33.6902,-10.6884,-17.5216,-58.174,-23.8579,35.624,-896.944,-470.432,7560,-12460,-2520
1.04993,-23.2567,-3.57659,-51.5063,-49.5205,-3.69487,-121.481,-8.46419,-3.25205,5.26416,-4.95599,-14.2307,-2.75877,-32.6482,-102.483,-61.8717,27.816,-884.744,-460.672,8540,-13020,-2520
28.0342,33.4023,10.009,9.43915,-4.1898,-4.18382,-27.696,-20.2586,52.2209,10.6851,-2.31411,15.736,3.49654,-11.1681,-12.7837,-36.4945,25.864,-889.624,-438.712,7280,-14000,-2520
33.8269,32.8435,18.6091,24.8875,23.7802,0.690084,33.6679,-14.6987,40.3814,15.8628,-4.66035,24.1975,5.8357,9.83911,14.2764,3.58133,30.256,-896.944,-443.104,6020,-15120,-2660
42.4358,35.4351,30.1818,22.8002,40.3103,19.5555,59.8432,23.1448,47.8564,36.7517,6.98884,35.6803,19.1218,26.5765,37.7575,43.5979,32.208,-894.016,-444.08,6440,-16100,-2660
13.4941,18.9913,5.091,20.464,12.26,-1.18243,48.1894,10.1738,30.474,0.984739,-24.5542,3.68543,-3.98837,3.18836,45.0232,23.3232,35.136,-897.432,-453.84,7420,-16660,-2520
37.9844,72.3664,16.0441,45.3549,19.0017,-9.2997,15.5328,-3.8312,87.9878,17.9022,-1.96436,30.6599,6.03753,1.34448,21.8667,0.829757,31.72,-884.256,-463.6,8680,-16520,-2660
-1.87384,13.8245,1.33827,2.73968,-8.15676,-16.0619,-20.9129,-4.08205,8.07948,1.03001,1.97116,-0.802046,4.09632,-11.5826,-13.9724,-19.733,29.28,-883.28,-449.936,8680,-16520,-2660
-30.0076,-29.0949,-15.0723,-15.019,-26.0464,-19.3304,-16.4387,-9.10195,-39.1109,-16.5558,-11.0963,-28.7888,-7.42853,-20.6751,-6.44828,-29.6586,28.792,-887.184,-453.84,8260,-17640,-3080
-24.2501,-14.5656,-5.39017,8.05859,9.01082,0.0766244,44.8999,10.3733,-23.4166,-10.4316,-16.9079,-7.81294,-0.689255,8.09563,47.1915,16.8534,30.256,-881.816,-458.232,10080,-18480,-3360
-30.6971,-53.0301,-24.4026,-28.1162,-17.0762,-7.35178,23.2631,12.7896,-50.2901,-34.2707,-35.1279,-27.6912,-17.9875,-1.17708,7.94179,18.5067,26.84,-871.568,-464.088,11760,-19460,-3500
-21.3644,-37.621,-23.2339,-36.7098,-27.529,-7.75391,-45.7897,2.35609,-34.2555,-18.8799,-0.0393261,-15.7176,-10.2576,-12.4079,-56.8848,-14.5714,29.28,-861.32,-473.848,12180,-19320,-3640
-19.6599,3.95947,-16.0331,-3.23187,-14.2415,-13.2624,-49.4767,-10.451,-6.23911,-14.7749,9.88385,-3.03177,-4.84225,-12.1462,-49.891,-25.0839,30.256,-854.976,-469.456,12320,-17920,-3500
-0.310369,7.26145,-1.39762,-3.61761,-2.88225,-11.6092,-14.9744,-14.5103,12.0739,0.350341,15.6993,4.07299,1.20287,-1.29821,-26.3032,-12.5812,28.304,-849.608,-471.896,13440,-16660,-3360
20.9732,10.9431,16.9528,4.88652,21.6858,6.99208,11.287,13.2448,22.1502,22.3196,27.3227,24.404,13.5837,18.0441,9.64018,19.9559,23.912,-851.072,-466.04,12880,-16240,-2940
-4.56059,-34.0821,-0.818926,-27.3288,-11.4893,-7.75797,-24.1339,-2.64655,-34.3995,0.208228,14.6269,-6.64438,-2.49378,-4.66977,-22.3841,-8.02136,22.448,-854.488,-462.136,11620,-15680,-2660
22.5428,15.5796,11.3731,0.655695,7.05314,1.22696,-13.5813,-6.16822,25.1463,18.2484,32.0353,19.6208,5.79965,0.9953,-9.15498,-6.01112,22.448,-858.88,-456.28,10920,-15400,-2240
9.73125,22.3453,3.77872,20.4478,13.1018,2.52072,6.23342,-7.2888,16.7249,0.552277,19.7997,12.0503,-1.2654,1.46692,16.5825,3.21701,21.472,-862.784,-460.184,10780,-14840,-1820
-2.92569,-1.51678,-6.85939,-0.0884673,-5.26998,1.79537,-15.7845,-8.16317,-7.5612,-8.51134,10.8353,-6.05436,-8.88532,-6.26836,-8.44023,-6.31726,21.472,-864.248,-458.232,9800,-14000,-1680
27.4294,24.787,17.0562,25.7009,24.7168,14.1565,25.5701,-1.91265,23.7345,23.5904,34.9371,21.8817,10.6349,15.0039,31.0054,14.0404,19.52,-870.592,-454.816,9520,-14140,-1540
30.4407,21.791,12.8587,23.5031,19.4881,6.31486,37.7508,0.349646,22.5118,11.2918,15.4993,15.4425,3.29123,11.657,39.4614,20.6206,20.984,-872.544,-454.816,9940,-14140,-980
29.8071,40.2711,15.0525,43.0649,32.7577,15.1549,44.7025,14.2204,36.3893,14.9285,13.2341,25.2152,7.81423,18.6532,58.8768,30.6877,21.472,-872.544,-453.352,10080,-14280,-700
-2.67869,5.61182,-2.37949,11.721,5.74475,5.25011,20.5261,2.5669,-3.49046,-0.954292,6.37962,-4.50168,1.02505,2.90445,29.5074,12.5233,20.008,-874.984,-454.816,9520,-14280,-700
-37.495,-22.8859,-13.2628,-2.58059,-3.00482,6.60788,25.9681,9.63226,-46.5282,-20.4946,-11.7888,-26.6019,-7.93124,3.01649,21.0681,21.345,20.008,-879.864,-448.96,8960,-14280,-840
-29.0186,-7.21374,-3.84772,-4.05653,-1.99075,12.526,-7.78075,14.7218,-22.6485,-9.59877,-4.54391,-8.22561,2.21051,5.14601,-8.17918,10.1317,21.96,-882.304,-447.496,8540,-14140,-980
-3.99221,-13.4847,-14.0307,-32.8142,-36.4615,-9.28368,-56.3778,-11.2974,5.50883,-15.9221,-18.3948,-16.934,-8.08415,-23.2225,-57.6645,-35.5133,24.4,-879.376,-449.936,8540,-14000,-1260
15.559,6.54599,2.95686,-10.8557,-3.26659,1.07611,-7.81515,-9.97059,24.3356,7.17114,-3.09429,6.04404,3.61071,-4.08813,-18.2398,-15.1185,25.376,-878.888,-455.304,8400,-14000,-1260
19.9914,16.7481,10.4487,1.14745,7.08586,2.02742,8.02593,-2.92827,22.8392,11.0988,-7.05146,14.6745,5.37563,2.87967,-3.5958,-1.81454,27.816,-875.472,-450.424,7980,-13580,-1540
-26.5023,-25.1257,-5.63252,-14.8298,-6.17642,0.811324,3.2219,2.5452,-40.1348,-17.5437,-30.1126,-16.8406,-5.48584,-0.740206,-7.38133,-1.95534,27.816,-874.984,-451.888,7420,-12320,-1400
-31.6692,-18.2112,-3.1782,-4.90574,0.355478,7.25815,3.35388,12.1717,-33.9734,-9.84537,-14.3484,-11.8576,2.70051,3.15929,6.34211,3.95605,22.936,-874.984,-443.592,6720,-11620,-1400
-42.9723,-46.9953,-16.0531,-24.6256,-20.4771,-5.40909,-11.7544,-1.69421,-61.3624,-27.8101,-26.5209,-31.7587,-10.2993,-10.8521,-14.1297,-11.9476,23.424,-878.888,-443.592,5460,-10920,-840
-5.1139,-1.31363,3.43942,9.40456,8.16607,8.12811,13.6518,6.15672,1.10183,2.96941,-5.43165,1.78064,3.27114,6.66771,18.3011,5.71052,19.032,-879.864,-439.688,4620,-10360,-840
15.7549,6.26618,2.37548,7.31707,-1.05037,1.25229,11.6349,0.956143,24.7892,9.38896,-4.96934,1.65033,2.05125,0.142982,19.2804,1.97325,19.032,-884.256,-430.416,3360,-10220,-280
-14.6914,-41.7449,-12.5671,-38.4052,-27.6902,-6.73726,-25.0747,-9.04479,-36.7516,-10.5958,-24.1795,-26.6166,-9.25286,-11.3124,-39.3796,-14.6145,22.936,-885.72,-435.296,2800,-9800,140
-1.147,-20.1357,-0.489087,-27.9664,-18.9477,-1.59389,-26.4983,-7.0121,-18.4205,7.84698,-9.93416,-7.23874,0.273157,-5.6041,-38.9929,-13.0308,21.96,-886.696,-436.272,2520,-9520,420
-3.43758,-13.109,-14.2889,-15.1478,-27.9827,-12.7707,-10.8899,-10.4362,-5.50545,-12.2306,-29.9555,-18.3342,-16.338,-18.5402,-7.38716,-13.5292,20.984,-884.256,-432.368,2100,-8820,840
-3.94617,-5.66568,-10.3713,-4.68566,-8.95206,-4.22111,-2.33974,5.18526,-2.73499,-4.25699,-15.6416,-9.68882,-8.21279,-11.1346,10.1358,-0.497449,20.496,-883.28,-428.464,1540,-8400,1120
-8.51561,-11.4488,-16.0379,-25.47,-27.1103,-22.3371,-61.5198,-11.9154,-5.85943,-6.76002,-8.16113,-15.1527,-9.32432,-24.5465,-50.2438,-32.2064,22.448,-883.768,-428.464,1260,-8400,1260
1.01132,12.8154,-14.4657,-18.9463,-31.0151,-33.254,-95.8341,-25.3759,23.7367,-9.61525,-17.0595,-6.34616,-13.9141,-28.0215,-86.3264,-51.157,21.472,-882.792,-433.344,1540,-8960,1540
30.8125,52.8187,15.3896,30.5552,29.3964,-5.36311,-5.55647,-7.83026,58.6774,15.9018,1.07504,36.4984,7.45201,13.1413,-4.15015,-4.62639,18.056,-876.936,-438.712,2240,-9380,1540
11.6663,17.2186,12.05,30.366,31.7601,-3.12871,50.0516,-10.673,8.10101,10.6764,8.16801,16.1338,7.65266,17.5789,43.7703,16.095,21.472,-866.2,-449.448,2940,-9940,1540
7.52274,18.1462,18.3829,35.4614,35.9038,12.2057,58.5775,12.5667,6.40788,23.8327,28.492,16.8819,20.0997,25.7787,62.0983,38.2789,21.472,-869.616,-448.96,3080,-9940,1260
8.6045,18.7531,15.5858,29.8139,25.9347,9.7226,43.03,11.4642,9.07182,15.1521,26.2551,16.8019,18.2133,18.6121,49.7103,28.2648,23.912,-866.2,-447.984,3780,-9800,1260
12.0808,4.4395,12.1736,11.4712,9.58981,5.36907,14.4981,3.61634,3.34839,9.87932,23.7849,12.5098,14.3795,8.03257,18.8444,7.11103,22.936,-865.224,-451.888,4060,-9800,1540
54.6332,50.578,35.305,36.8727,36.3063,18.4651,28.7613,14.0124,71.6839,42.2077,46.4474,49.497,30.1049,23.393,35.4825,18.4874,20.984,-865.224,-449.936,4340,-10080,1400
53.523,45.0525,29.0059,27.9582,29.1549,9.45132,30.6461,2.28498,67.0168,29.6599,30.7632,40.7664,17.8566,17.5962,23.5154,14.6581,20.008,-868.152,-452.376,4760,-9800,1540
39.0721,43.9101,31.2013,40.8106,48.6369,24.1709,58.029,21.6109,41.6326,29.4779,34.9873,41.5941,24.3098,34.3008,46.568,45.6943,25.376,-861.808,-457.256,5180,-9800,1400
-16.7192,-9.45843,-3.73899,1.82821,9.57856,10.0455,22.8388,21.8654,-28.7377,-10.4073,15.9741,-5.85323,6.80395,9.65835,9.30836,27.0284,21.96,-860.832,-455.304,6020,-9240,1680
-36.4347,-29.7956,-30.9568,-17.6165,-20.7224,-4.63987,-10.9095,8.82732,-37.4261,-40.7488,-13.4445,-29.2857,-19.5948,-14.3284,-23.3244,-3.77665,20.496,-860.344,-454.328,6020,-8260,1820
-6.94829,5.48342,-14.963,7.92929,2.95345,2.6803,9.57198,10.1485,12.6752,-16.257,-3.92449,1.8884,-18.1327,-2.06346,1.31867,6.58856,19.52,-861.32,-449.448,5740,-7420,2100
-12.4526,-22.612,-23.5749,-18.717,-27.4918,-14.3037,-8.41887,-6.93537,-4.44642,-25.2739,-14.9626,-19.6182,-33.3788,-21.7611,-12.4804,-12.7783,18.056,-859.856,-452.376,5600,-6020,2380
-12.2516,-23.6132,-9.71976,-17.9963,-19.1898,-2.54575,-12.2951,1.47139,-11.7271,-4.80472,4.76778,-11.295,-15.2181,-13.0898,-12.0121,-7.15706,18.544,-858.392,-450.912,5600,-4340,2520
-33.4141,-42.1917,-14.1019,-38.2034,-36.1287,-9.28021,-50.9878,-11.4356,-48.6254,-8.99679,6.97878,-23.7775,-11.0567,-23.5255,-54.4468,-29.4935,18.544,-854.488,-452.376,5880,-2520,2800
-56.1496,-58.6381,-25.3289,-42.704,-48.014,-16.7308,-63.5671,-18.7243,-82.0033,-25.2545,-2.89647,-42.2293,-17.5575,-33.2533,-62.3337,-41.782,15.128,-855.464,-453.84,6160,-1260,3080
-36.4809,-24.3789,-5.40357,-3.37337,-3.66054,2.53065,-9.6954,1.06466,-53.928,-7.31364,9.25266,-11.2741,-2.99647,-3.53468,-4.26809,-6.82239,15.128,-852.048,-455.304,6860,-140,3220
-26.2505,-30.3031,-12.6032,-11.535,-12.3495,-2.98959,-2.47806,-9.72434,-43.4614,-19.8272,-11.3498,-17.8291,-14.4559,-8.22828,0.590882,-11.8292,13.664,-850.584,-455.792,8260,1540,3360
3.98471,-5.38126,1.0411,-4.20077,1.80384,11.4707,5.65831,4.23309,3.42621,3.29379,-3.48068,3.71458,-3.92857,5.81061,7.91272,4.29739,12.688,-845.216,-455.304,8820,2800,3640
25.5348,11.6889,8.22156,-9.98152,-4.34364,2.75445,-12.5962,-8.00148,30.7132,16.8575,4.38954,12.3555,-0.753072,0.500633,-9.51413,-11.131,15.616,-844.728,-452.376,9660,4480,3920
6.03173,2.41608,-3.7604,-12.7312,-14.8136,-11.3607,-22.543,-20.0473,11.257,2.42386,-5.37474,-3.11592,-9.91851,-10.6842,-12.2672,-22.7377,17.08,-842.288,-449.936,10080,6860,4480
-6.17098,12.8796,0.357512,3.93632,3.72183,-4.84697,-3.17762,-5.71485,6.70603,1.99196,-3.02036,4.15067,-2.12699,0.113671,12.8969,-3.3686,13.176,-841.312,-445.544,10080,8260,5040
-14.6591,-4.17072,-8.4598,-7.69251,-8.14051,-9.4545,-7.39829,-8.58544,-9.54494,-21.3379,-29.1024,-14.1256,-8.78612,-5.96674,6.08372,-9.01366,9.76,-842.288,-442.128,10500,9800,5740
2.89001,16.3398,5.81666,6.34289,11.6555,5.99958,8.96326,8.11443,17.2647,-7.84069,-25.6528,2.96291,6.13414,12.36,19.2761,12.7048,8.784,-843.264,-443.104,10640,10920,6580
-4.88793,1.69581,-5.09188,-9.73005,-4.36867,-2.91462,0.410811,2.17416,3.77789,-16.1193,-36.0035,-11.1658,1.32386,1.68355,7.81408,4.15927,7.32,-845.704,-441.64,10640,11760,7280
-0.896803,-3.21341,-1.83685,-5.88037,-1.48144,1.36238,3.37512,1.12955,-7.53077,-7.66964,-33.4217,-13.2832,5.17798,4.63803,8.63212,5.77874,6.344,-848.144,-437.736,11340,11760,7980
43.057,46.4498,33.414,35.0326,40.6374,21.9164,27.6247,13.697,40.3786,37.6095,4.82704,29.4681,35.1828,34.4747,31.1847,27.5938,8.784,-852.536,-439.688,11900,11480,8540
45.5708,34.6057,25.1684,25.1401,23.7552,8.95376,9.73689,-2.87767,34.3768,25.6281,-8.48975,13.5639,25.9093,20.114,7.56779,7.57589,5.856,-855.952,-436.272,12600,11480,9380
43.978,40.3561,28.4808,33.2698,32.724,17.9623,22.3394,8.03267,39.9198,31.1627,-1.49719,19.164,31.7421,23.5197,19.3664,19.9642,4.88,-853.512,-437.736,13160,10920,10080
31.4379,26.0034,18.2004,21.2198,19.8842,10.7709,24.9064,7.3863,27.0231,20.63,-3.12704,9.14179,24.4314,12.9097,17.7711,19.3517,11.224,-855.952,-436.76,13300,9800,10780
5.70441,-5.48476,0.0481587,-3.30618,-1.85323,1.53144,11.0938,3.89027,-3.40002,-1.1006,-13.7663,-13.1535,7.84346,-1.8311,0.265056,8.37078,13.176,-858.88,-434.808,13160,9240,10920
-3.41959,-3.33106,-0.0755983,0.212954,3.47166,5.96113,10.3808,16.0402,-8.81663,0.884398,-1.90909,-7.80029,9.51889,-0.228179,0.667943,11.5536,6.832,-864.248,-432.368,14140,8260,11480
-10.8173,-13.8024,-6.01114,-6.06577,-7.16296,-1.42801,5.60707,7.50739,-22.4219,-11.4997,-9.79261,-15.7479,-0.95536,-8.4735,-7.7933,-0.885948,14.152,-861.808,-439.688,15680,6580,12320
12.0809,11.4525,10.3468,12.5274,15.9996,12.4257,19.8824,16.526,14.9463,11.1835,9.39914,13.4424,6.99039,7.338,6.3472,15.7382,13.176,-862.784,-438.712,15820,5180,12600
1.02848,-10.3649,-2.65488,-11.584,-6.322,-4.03871,-8.21808,0.25046,-1.84707,5.42922,8.68961,1.38783,-6.35427,-10.1636,-23.4391,-3.19087,13.176,-861.808,-446.52,16520,3360,12740
-9.78538,-23.6157,-15.1901,-26.0697,-27.5956,-21.079,-38.3181,-20.1233,-9.94059,-3.30229,3.84031,-9.06546,-20.9218,-26.9144,-47.9295,-29.4558,18.544,-861.808,-447.984,16940,2380,12600
-4.73518,-1.44774,-4.53955,-10.6893,-11.6972,-13.0502,-33.786,-11.7226,8.91192,9.07672,23.0749,10.7858,-11.7376,-14.4855,-40.1873,-22.5656,17.08,-869.616,-444.08,17360,1400,12740
-31.0388,-26.3157,-21.1838,-18.3521,-24.4067,-22.4329,-16.8239,-21.2074,-25.9962,-20.1099,6.70205,-12.0605,-24.8858,-19.8583,-27.1661,-25.3758,21.96,-868.64,-447.008,18200,140,12740
-9.87293,-1.83231,-5.1742,9.6866,3.94078,-3.11101,20.4425,2.30731,2.86064,-3.26206,19.816,12.559,-8.82161,5.48583,14.2158,10.9465,21.96,-869.128,-447.496,19180,0,13020
-29.6195,-9.95655,-13.4768,5.72833,-4.45604,-4.81874,17.4355,5.28756,-14.8088,-25.755,4.23538,0.866411,-13.9196,2.78156,14.2515,11.9266,25.864,-870.104,-449.448,19040,-980,13580
-32.6061,-22.1837,-21.4624,-6.95334,-21.1154,-12.9863,-3.20762,-9.87513,-21.804,-26.7907,0.880423,-12.0354,-23.5429,-11.9893,-0.837568,-6.06848,22.448,-868.152,-445.544,20160,-2100,13720
-14.7811,-11.2708,-8.08647,-0.289149,-6.09682,-6.16238,0.699425,-7.64323,-12.5587,4.34869,31.9922,2.41017,-12.4912,-5.73098,7.43301,-1.3864,25.864,-867.176,-444.08,21280,-3920,14140
-32.2067,-33.6145,-24.1804,-19.0643,-24.3646,-22.4437,-15.3098,-27.9632,-39.6963,-21.963,12.8372,-19.8159,-26.9864,-21.8076,-8.07519,-22.9935,26.352,-867.176,-442.616,22260,-6300,14560
-9.32129,-2.53465,-9.05893,0.407956,1.10511,-9.76629,-3.35191,-13.2375,-0.632685,-10.5579,16.0297,5.50497,-11.9884,-4.65737,8.79371,-3.8396,21.472,-875.96,-447.496,23660,-7980,14840
-18.8442,-13.6406,-12.7418,-7.01909,-7.1025,-11.5496,-9.45894,-9.4163,-20.7655,-22.5085,5.40817,-3.01963,-10.6475,-7.28291,5.55142,-4.88317,13.176,-869.616,-445.544,24640,-10640,14980
6.44294,-9.35878,-3.99418,-7.23648,-10.4453,-6.73896,-16.6416,-11.105,-6.22617,-4.47207,10.311,4.88245,-3.43838,-6.24325,-2.0968,-14.6174,16.592,-871.568,-445.056,25340,-12320,14980
18.9297,7.74657,7.13437,2.90699,6.83911,5.80738,-4.53493,5.47506,13.5377,11.7574,22.0414,18.2568,9.99965,4.1898,4.57958,-6.02393,17.08,-872.544,-440.176,24640,-12880,15120
-4.74951,-19.2536,-12.2559,-17.7178,-15.652,-8.04569,-21.8688,-3.3772,-15.4929,-11.6303,-1.60333,-11.3565,-5.53338,-12.7199,-13.1576,-24.8633,12.2,-874.008,-438.712,24360,-12880,15260
16.5129,8.22358,5.00357,0.70973,6.26741,7.44049,-11.4711,8.40994,17.4882,15.0433,14.4739,11.8662,8.45139,3.16178,0.256879,-9.37758,4.88,-881.816,-428.952,23800,-13160,15120
12.8609,6.02141,8.48022,2.70383,9.20729,15.3259,-3.57503,21.4689,7.509,13.236,11.4871,7.20684,12.7471,9.48734,6.80216,-0.385651,7.32,-883.28,-428.464,23380,-13300,14980
13.6518,6.99225,14.3858,7.34957,13.1916,22.6506,2.35053,31.2588,9.67028,19.1304,6.83074,4.73981,17.0277,17.309,10.9639,9.14752,5.368,-882.304,-424.56,23100,-13720,15260
28.7527,37.49,35.3784,27.8692,37.4679,39.0092,12.7521,44.6423,39.1014,44.0872,21.0349,26.617,33.8212,33.1114,22.4836,28.8149,2.44,-884.744,-425.536,22680,-15120,15540
15.8649,23.1047,24.945,17.2685,19.3679,26.3028,4.43323,25.6555,21.3345,25.6571,2.2792,6.44469,22.059,18.1264,12.5207,15.5991,-1.464,-886.208,-423.584,22540,-16520,15820
23.1057,41.92,34.3037,33.8965,38.8137,34.3232,24.7815,33.5432,37.6696,33.2895,8.57235,18.9514,31.0445,29.7156,30.1748,35.6468,1.952,-893.04,-417.24,22820,-18200,15960
18.6939,36.7588,27.8782,27.2391,29.816,23.0536,19.4943,25.3238,28.9242,13.5742,-7.87234,8.06128,24.9676,21.6933,20.5176,28.2438,-4.392,-892.552,-418.216,23380,-20300,16520
10.9555,21.2291,19.4532,18.2952,20.6367,15.7473,19.0157,15.5138,12.3512,-2.07689,-21.913,-4.00217,19.2463,17.6994,14.2505,24.4326,-1.952,-897.92,-425.048,23940,-22400,16520
24.7784,34.3934,28.0854,26.7205,32.5262,17.5895,35.8011,11.9448,20.3859,15.6921,-8.34564,15.014,28.1828,28.1636,23.662,35.0368,-11.712,-904.752,-431.88,24640,-25060,16520
3.53285,-2.08483,-4.65963,-13.8318,-14.7411,-19.9071,9.04687,-30.656,-9.64381,-12.8141,-37.9741,-16.2026,-3.28801,-4.45626,-8.59675,-0.328898,-2.928,-910.12,-429.44,25760,-27720,16520
5.38334,3.24126,-7.7075,-15.111,-14.338,-19.8157,4.18186,-28.7715,4.53411,-7.26062,-34.9535,-10.9671,-6.35983,-6.39528,-8.94171,1.74466,-5.856,-906.704,-436.76,27300,-29260,15960
-2.00953,-6.01356,-10.8213,-22.2539,-23.1737,-20.7586,-8.96208,-29.8421,-9.22286,-12.6399,-37.8538,-16.8245,-12.0395,-15.2346,-21.1316,-8.40841,-0.976,-904.264,-440.664,29120,-31220,15540
0.31335,-9.1002,-11.6023,-23.8853,-27.442,-19.2363,-22.0819,-37.3423,-11.4731,-15.4256,-43.2002,-17.8298,-19.207,-20.8307,-33.4225,-22.1886,4.88,-911.584,-438.224,30380,-32900,15120
13.9565,9.44698,-1.18264,-5.48995,-4.61621,-6.22453,3.25589,-23.9606,10.5268,-1.01833,-30.2085,0.951492,-11.8429,-9.46942,-10.2216,-5.08493,5.856,-918.416,-436.272,32760,-34160,14420
-19.8398,-31.7129,-27.4442,-21.3257,-27.3852,-17.3871,9.15552,-29.1934,-37.616,-33.6546,-50.9033,-32.084,-32.0628,-24.7844,-6.40699,-12.9529,2.44,-921.344,-430.416,34440,-34860,13860
-22.8534,-25.9626,-24.156,-8.57787,-18.7271,-9.11221,9.15604,-18.816,-35.3499,-26.2698,-34.9643,-19.2265,-27.1374,-18.3486,-0.185819,-11.6647,0.488,-920.856,-422.12,35280,-35420,13300
-30.0492,-36.624,-31.6472,-17.1079,-28.1343,-18.2887,-1.063,-23.5734,-37.5726,-29.6401,-25.4641,-20.2407,-32.7028,-26.9023,-11.2156,-26.4696,-0.976,-923.784,-412.848,37100,-36260,12460
-27.0171,-42.9725,-37.1099,-29.1821,-37.8243,-25.3479,-17.4291,-24.8471,-19.4116,-25.1341,-13.2402,-20.635,-34.0807,-31.9646,-26.7024,-33.3412,-0.488,-928.664,-419.68,37800,-37100,11900
-11.8344,-21.4731,-19.8943,-15.4196,-15.5171,-13.0877,-13.2029,-3.38584,7.90933,0.394354,16.3086,4.93898,-14.1356,-14.0376,-16.2691,-13.775,-3.904,-924.272,-412.36,37520,-37660,10920
-29.3681,-32.9533,-24.6878,-14.782,-17.2687,-18.2572,-22.6016,-6.08712,-23.4994,-13.5144,10.1803,-6.70552,-16.7046,-15.0334,-19.6493,-20.3604,-2.44,-933.544,-409.92,38220,-36960,9800
-54.0585,-25.3413,-18.2828,6.02764,9.11675,-0.368851,-7.43179,15.5897,-45.3109,-7.88179,28.1321,-3.96961,-0.756709,2.57667,2.95492,2.23216,-6.344,-915,-420.168,39480,-34860,8960
-55.9168,-26.63,-14.3233,8.61812,12.3543,4.67245,-6.13116,21.9479,-52.3274,-13.4253,33.4508,-5.45763,6.75659,5.36977,3.67871,6.10371,-8.296,-921.832,-413.824,38780,-31640,8400
-12.3859,-4.39468,-1.65274,24.5153,24.5289,7.48136,-1.90873,19.2648,-6.11313,-6.4114,29.3176,15.3383,9.66709,12.8545,14.3678,10.0457,-3.416,-924.272,-437.736,35840,-27300,7700
18.0437,17.5602,13.0831,27.0539,30.3517,10.0995,-1.24745,17.2814,29.9194,14.2395,43.1324,32.0721,20.1663,17.8059,15.411,13.732,1.464,-915,-454.328,36120,-14000,6300
22.6771,7.19464,7.02099,-8.04005,-10.0806,-8.92711,-33.89,-6.41509,32.4096,5.11366,31.3628,10.667,11.4637,-6.1275,-27.463,-19.4139,2.44,-917.44,-455.792,35420,4060,5460
39.4154,30.162,24.7017,8.25708,5.82288,8.19569,-8.39309,12.0794,52.0689,24.4514,40.8413,24.6152,24.6472,9.50081,-8.28787,0.458573,-13.664,-903.288,-417.728,37940,7560,6300
17.9415,11.4254,18.2788,-6.32686,-7.93971,5.89235,-0.0173754,9.67902,17.322,10.4588,27.6925,4.12667,16.778,3.95083,-7.0865,0.391212,-12.688,-906.704,-401.136,31500,5740,6300
4.43932,6.75537,12.4327,-10.9182,-12.4252,-0.277915,-1.25391,2.77513,3.0252,2.66637,10.9897,-7.83134,4.89592,-0.689217,-2.68244,-1.78274,-16.104,-916.952,-382.104,24220,9380,6720
23.7387,39.9594,32.9171,15.6764,19.6799,13.216,14.6726,16.9637,29.5545,27.2213,19.8954,16.1448,14.9579,18.4024,19.8349,16.6257,-30.744,-918.904,-371.368,16380,16100,7000
12.8669,19.3931,20.2899,-0.281772,5.65908,5.02652,-3.16255,9.64711,7.85989,15.1433,1.14743,-6.306,2.65552,6.4491,6.23488,1.33781,-37.576,-903.776,-366.976,8960,23520,6440
22.1534,30.894,27.5413,12.6279,21.7129,17.8315,8.56408,21.0627,21.9393,33.6044,13.094,4.85431,11.7373,17.3643,23.4774,16.4083,-46.36,-942.816,-317.688,3220,28840,5880
15.3962,18.615,22.407,5.88648,15.1353,16.2905,14.4627,18.9211,6.86492,25.9344,9.42872,-2.18697,7.41018,12.4569,17.8855,12.6979,-47.824,-961.36,-334.28,-3780,31780,5460
14.4888,8.71234,14.7633,3.16236,12.339,12.9763,20.5274,18.4382,0.668257,16.5908,-0.975644,-6.65016,0.43843,8.34532,17.2966,12.0968,-49.776,-955.992,-332.816,-4760,32900,4760
28.2257,26.79,24.764,19.3004,30.7954,21.2638,31.269,27.4336,20.6093,25.2475,6.0202,16.9967,12.2936,19.8551,31.7238,26.1753,-56.12,-962.336,-330.864,-8960,29120,3780
16.8174,7.95277,10.9748,12.5972,16.2733,11.4892,19.86,10.0081,0.293339,3.96308,-12.5642,5.53663,2.90281,8.6371,21.9722,11.6614,-40.504,-970.144,-347.944,-12320,25340,2240
