4.547581842221903,4.479693437907517,4.357585313334435,5.298821469287178,3.976438885295054,,4.134911956956858,,4.128651331924012,3.939858836849116,4.039855561069462,4.456445311775681,4.082889898166865,4.695054883652809,4.3530996900317795,3.3052080154570573,101.015999,-695.888,-709.552002,5880.0,-140.0,-1540.0
4.3519993034246545,4.375094672929294,4.289043407966611,5.18865508420153,3.858421338707135,,4.085653807077053,,3.9459261920899515,3.834970945097588,3.900128945239536,4.34695101186775,3.9669910427328787,4.447065010015869,4.245028699277514,3.303342732062468,102.480003,-698.328003,-707.600037,5740.0,140.0,-1120.0
4.276784410308125,4.308045227882295,4.213629279735313,5.08699123520405,3.8100242375669007,,4.114885392268811,,3.8326268751445554,3.7603171266310778,3.7808173946118124,4.313966540721109,3.917699630373453,4.243103236224029,4.227934852809966,3.324497941243465,100.528,-698.328003,-706.624023,5740.0,560.0,-700.0
4.1475256620654,4.1835130604529995,4.032240190765688,4.944515606215562,3.700635323684224,,4.164750797062097,,3.6715947162847704,3.603375612264792,3.677937709021974,4.285444558094129,3.8016646400559493,4.002823825575708,4.219700430655242,3.269543154745831,103.456001,-699.791992,-709.552002,5740.0,840.0,-140.0
4.138201395229463,4.188929377823732,4.040727861208246,4.967751043917487,3.7134483147671964,,4.147857038050492,,3.7392830466150344,3.6866057055653387,3.6820567236134596,4.27935987724818,3.861322933022127,4.0383415648816,4.193025714305813,3.2771801379292653,101.503998,-698.328003,-705.160034,5460.0,840.0,140.0
4.193106835256528,4.286907436407614,4.186762695751075,5.016167164322118,3.788644895639466,,4.246158700430843,,3.7915681914878876,3.7566224537561568,3.862686701103703,4.335517986641227,3.923830652500099,4.086001800095854,4.3311571867871415,3.3609923271034674,99.552002,-697.840027,-704.671997,5600.0,1120.0,840.0
4.240129011945169,4.448413235879084,4.413881120283859,5.202186154086954,3.850738287548078,,4.290221253088901,,3.9357490948840153,3.936111701994783,4.063109575209625,4.407682743209299,4.057902651526566,4.117768806144554,4.465517947979535,3.4076580489759505,101.503998,-696.864014,-706.135986,5600.0,1400.0,840.0
4.242811294079951,4.412774470564021,4.48306375904596,5.223355109901757,3.8113951801492347,,4.256292074772939,,3.8360864658905003,3.9151381710000464,4.097771226320385,4.313879994923794,4.0506775765560485,4.100421962639861,4.38375066009064,3.3908157672218247,100.528,-696.864014,-708.088013,5740.0,1540.0,1400.0
4.156337346316264,4.404611407818491,4.482893492414565,5.196530609622723,3.8115784600265705,,4.252340562327283,,3.851070276131174,3.911432755041456,4.098028546931731,4.300225165347246,4.05026816530655,4.12704152918712,4.375825891206786,3.3862698246577168,95.160004,-698.815979,-706.135986,5600.0,1400.0,1540.0
4.122702657780438,4.523250740294582,4.493688777283485,5.224942955946674,3.8839800548982115,,4.2530353891104795,,3.9742432176412175,3.9864185076667287,4.145551426932771,4.299129336931591,4.1664550035309755,4.306538110987452,4.559950929794655,3.490093801841953,99.552002,-694.424011,-707.600037,5460.0,1400.0,1680.0
4.100516096847371,4.547321149943673,4.5161397333619995,5.227306623125336,3.8778906657022,,4.244418697983247,,3.9598119349716385,3.981515446444419,4.146086580433277,4.306032373624021,4.158285679406273,4.340519245458445,4.599620497812331,3.503093934082537,97.112,-695.400024,-706.624023,5040.0,1260.0,1820.0
4.039442973511557,4.682983358066539,4.527687530096973,5.314633169714017,3.950169635760449,,4.297787517026024,,4.0203121550775895,4.004160152906471,4.217125517899408,4.3332131521348005,4.3091728151124,4.418394781343508,4.742236765417416,3.619151577639749,96.624001,-694.424011,-705.160034,5040.0,1400.0,1820.0
3.949171870278285,4.69870812630843,4.513584600921786,5.33624136139916,3.9551669803823533,,4.310773112889892,,3.9782919849697578,3.9953663859885693,4.220795827848315,4.360063421306904,4.333618530827864,4.366966728724446,4.780441401785141,3.6477027474518953,96.624001,-696.864014,-709.552002,4900.0,1260.0,2100.0
3.98354431737472,4.741001153457788,4.559118508874955,5.368786404698632,4.0198059626820815,,4.335458010601492,,4.097291796883188,4.095777647438706,4.247617472151417,4.3198214763616445,4.322422996811942,4.468126616170504,4.771708213875438,3.6730446179161467,96.136002,-694.424011,-708.088013,4480.0,1120.0,1960.0
3.8602876701691606,4.6281898772995875,4.490087048215659,5.357671692172237,3.9603132132841212,,4.247538414818992,,4.073272478778729,4.101253091514857,4.161899932242055,4.319050448168016,4.297082289846676,4.387807810018775,4.759553373994962,3.5512493442811985,91.256004,-695.400024,-709.064026,4060.0,560.0,1960.0
3.8021765967336414,4.547615182138295,4.447504199926967,5.323916436948687,3.9635173402174133,,4.227422102485509,,4.081909134324416,4.115169347085414,4.093406464319846,4.341584159544109,4.2839746850274985,4.37900586544064,4.761395565393014,3.541400787001611,92.720001,-697.35199,-705.160034,3780.0,700.0,1680.0
3.794276838185344,4.53385842797286,4.449648955670495,5.323761426901071,3.9640411704707934,,4.227374874849059,,4.078747088293837,4.111142797432639,4.0775812868206005,4.343468791016285,4.306417810093272,4.428779229360082,4.75800176178768,3.5488639946373195,93.208,-693.936035,-709.064026,3360.0,280.0,1540.0
3.7932160289481094,4.527610417716846,4.418157348812726,5.296103228853472,3.9562872049355216,,4.217015114015848,,4.106780658795276,4.093750730891307,4.073912611171156,4.348039482347989,4.437401449417421,4.603847472914237,4.725162111649295,3.5695829789120395,92.232002,-695.400024,-705.160034,3080.0,140.0,1400.0
3.765912712265388,4.431225781625616,4.377376942546294,5.2021418535937345,3.897519694880804,,4.104793840264863,,4.099747502685168,4.04584294009642,4.032373061569323,4.3482603897821095,4.4780674792899475,4.679306434311166,4.627623272760486,3.5373493786053345,91.744003,-697.840027,-708.088013,2800.0,-280.0,1120.0
3.7590348222851313,4.438277153948011,4.433858983485154,5.242026077900178,3.8813312768928165,,4.106397602532004,,4.0997882087599695,4.049008392802885,4.033053155588252,4.238327973243181,4.43636305186919,4.651247607948139,4.645160273578345,3.5376949301227807,88.81600199999998,-696.864014,-704.184021,2520.0,-420.0,840.0
3.8101943700429004,4.494012557704666,4.465420759187468,5.303032604449344,3.9560303421701355,,4.144613888395015,,4.1915149311544075,4.064584279432678,4.070308425931828,4.1888264313863255,4.512776082539541,4.695427033072513,4.672386967710578,3.561645844364892,91.744003,-698.815979,-711.015991,3080.0,-420.0,700.0
3.8164904733606777,4.520626758286029,4.45927477260142,5.402184260907098,3.9581881142091,,4.144951721411267,,4.24169985575115,4.02705345013414,4.026868577191774,4.212155197161829,4.5265623744231,4.69653727769361,4.678178479088256,3.5615928097834217,89.792,-699.304016,-706.624023,2800.0,-420.0,420.0
3.786707205817741,4.489239777776184,4.440657401314423,5.413160630258408,3.964460064074883,,4.132678230895478,,4.238197138877113,3.990786503803255,3.980121992330223,4.355512705247067,4.52306719938763,4.715124961221506,4.676760555137638,3.562934750787881,88.32800299999998,-698.815979,-710.039978,2800.0,-700.0,0.0
3.659803403959119,4.405939234829058,4.460939832320211,5.292980680528257,3.823905882654354,,4.040086267223855,,4.1989969588992055,3.9598084087674015,4.008603523958733,4.266010872640427,4.492029023115015,4.642172638038199,4.692832813626526,3.5076349529725226,87.35199699999998,-698.328003,-707.112,2940.0,-980.0,-280.0
3.707395589703277,4.380416764184899,4.479492578220346,5.28760860979011,3.8689500420237386,,4.045327361480715,,4.248700789679335,4.039827454964905,4.026831144824513,4.646329385402614,4.574648452842,4.767900529287283,4.677478708722195,3.5522579343099476,90.767998,-696.864014,-710.039978,2940.0,-560.0,-700.0
3.7019473917560988,4.357653250108698,4.471976541606737,5.292059308131284,3.863847734095267,,3.979379325271758,,4.247115879403967,4.048861660182289,4.015850121629282,4.635423672012865,4.593343525349168,4.799017464326323,4.67008848389309,3.5536101465978964,88.81600199999998,-699.304016,-709.552002,3080.0,-700.0,-980.0
3.717985172644654,4.317203980382693,4.4645170002389944,5.212123328737137,3.8413789739483364,,3.9816712322402203,,4.245980802276297,4.043638488924106,4.004560432536823,4.634355500422903,4.559576529798443,4.775233713393226,4.540558257307398,3.525483688751293,89.304001,-696.864014,-710.528015,3220.0,-840.0,-1120.0
3.7031210374531836,4.231951266426111,4.451600107828282,5.078972354056966,3.784812645469137,,3.99480040903757,,4.2437182778353195,4.050785586088374,4.003425752416335,4.6221869810108,4.554919414475664,4.736607191041142,4.361512870988728,3.4834740920910914,88.81600199999998,-694.911987,-709.064026,3500.0,-840.0,-1260.0
3.7018469331198505,4.2481248213219915,4.4250109918038225,5.06815991559547,3.7843438342488436,,4.008011890044651,,4.218016751364141,3.9706514884544584,3.957316657824416,4.667993016452518,4.463904651540105,4.709259492323256,4.39242723894742,3.4563102452225083,90.767998,-697.840027,-708.088013,3360.0,-840.0,-1400.0
3.7038757919388154,4.229789826369677,4.425062722101418,5.0461767691305015,3.7589666052871964,,3.992583168231566,,4.236233900147647,3.973897565406425,3.9247271409676965,4.737814080867596,4.463636883865665,4.720901940845519,4.352670263938829,3.456151196421355,90.767998,-698.328003,-706.624023,3500.0,-980.0,-1540.0
3.7573875937497028,4.289442274098969,4.415245396386986,5.0662369267235166,3.9732350420476235,,4.1796925658831015,,4.201879051296591,4.004748349063032,3.7851153593164013,4.99605781970841,4.505918747552026,4.853369803431581,4.455196734404137,3.577400926686473,91.256004,-699.791992,-706.624023,3500.0,-700.0,-1400.0
3.7979388019439866,4.30988546064758,4.509700337868745,5.1449443467372395,3.9406646028225008,,4.154945336605041,,4.4925342227766825,4.137968434405954,3.907487763097033,4.946777621854626,4.661544360050121,4.861418448184369,4.539055228995622,3.611154206466895,90.279999,-698.815979,-708.088013,3640.0,-840.0,-1400.0
3.8909250257050463,4.292519704173503,4.514566601034314,5.10716787797446,3.8520574769422757,,4.112542120639863,,4.641473523476201,4.222321771264273,3.9983240829829314,4.949490225416762,4.8435937161127365,4.911591643047257,4.6706559074320335,3.660664283318107,92.232002,-699.304016,-708.575989,3640.0,-560.0,-1400.0
3.883784115959545,4.339458545001814,4.528053444495079,5.160540250697455,3.8852374988774674,,4.202199946176368,,4.643321931517669,4.229447997155103,3.9483674138397094,4.984580601284588,4.8452464817509515,4.912103907188344,4.6360206586605335,3.6687616134484164,91.744003,-699.304016,-707.600037,3500.0,-560.0,-1260.0
3.9032210752994394,4.321200276166706,4.510048469961052,5.121049306247016,3.9013332324582186,,4.169579611665696,,4.617881965544544,4.215813510781072,3.9689880904674264,5.000997199521675,4.826062268081341,4.924673423547722,4.662033299651762,3.682216247824953,93.695999,-697.35199,-706.624023,3500.0,-560.0,-1120.0
3.906127670504654,4.325233005729344,4.517671446744859,5.121319404488971,3.910622034693581,,4.1933558309777315,,4.66609456160445,4.246898502425077,3.958916154354558,5.080231779176655,4.836831050885697,4.905779260762886,4.64618898707294,3.6820447382393753,95.648003,-696.864014,-704.184021,3220.0,-420.0,-980.0
3.8974067796187764,4.314812902804417,4.534525786101234,5.200105891243463,3.9260315501619436,,4.195498893519,,4.671805484651815,4.2470674681737135,3.9598285584225907,5.058838876928974,4.852421981959855,4.967692191035058,4.676883066182687,3.695333660801769,97.599998,-700.280029,-705.64801,3080.0,-140.0,-840.0
3.900127597498393,4.33164207320934,4.50793411466826,5.053399773552223,3.9017643012098744,,4.182300383972401,,4.615502195911353,4.226748291613601,3.9293740899953233,5.051944671762782,4.803874373967838,4.889557754501114,4.65664326962736,3.6785340745184287,94.672005,-699.304016,-704.184021,2660.0,-140.0,-840.0
3.940280404863187,4.325593258150583,4.465850160158077,4.912664710477753,3.8620565685797152,,4.115975923264492,,4.618826462414367,4.263283230927023,3.935944182179622,5.0456944788197235,4.788336729548583,4.870139367108757,4.641722318990802,3.658236105872289,94.672005,-698.815979,-710.528015,2520.0,-140.0,-700.0
3.891088111921339,4.33690070181384,4.467113530330233,4.92594460920828,3.881728887544745,,4.144309411207768,,4.568886523991054,4.1420790099098,3.799314681681135,4.912956816131536,4.724512434145737,4.800357454168708,4.616346960836869,3.6161679166648137,97.599998,-698.815979,-707.600037,2520.0,-140.0,-700.0
3.8843768048899463,4.175932973299402,4.347308286238394,4.79784350701541,3.7271870991912284,,4.019675578588706,,4.605431553765088,4.161295956376547,3.824034380768719,4.891338970785326,4.779991106774608,4.810696696210642,4.535409604275457,3.5909070773759564,97.599998,-697.840027,-705.64801,2520.0,140.0,-420.0
3.7827577034901734,4.075720087486323,4.285681974411069,4.743254211681751,3.598636700632528,,3.9353626075592087,,4.5738129194525055,4.103526200395191,3.8341376847786135,4.859526980249774,4.704821582378005,4.759164481249454,4.433877098425169,3.5321423511834538,99.064003,-699.791992,-707.112,2520.0,280.0,-280.0
3.777091176790674,4.074532887519968,4.255170868635136,4.7388302340247215,3.6427090779646734,,3.980988568967422,,4.562796811227097,4.0869363275292185,3.7056673955519654,4.944852873228505,4.701601789405788,4.751855523260377,4.431948603678277,3.5163110806690194,98.087997,-701.255981,-706.135986,2660.0,420.0,0.0
3.778971578273985,4.0746190343702535,4.293124037764017,4.764909163519147,3.6476238540866253,,3.984095187657385,,4.66262574685284,4.1191447753763155,3.724379513483243,4.993202222888687,4.807927142595821,4.791713595990514,4.467975086071637,3.5193217527413876,97.599998,-700.280029,-707.600037,2940.0,420.0,0.0
3.782361708437673,4.097999549758104,4.365963752834694,4.794879688285821,3.635479914835259,,3.9805842895162376,,4.726932650814015,4.098283897376085,3.779244366276927,4.942025884483482,4.84125853200473,4.774237351775878,4.502876485058857,3.523115734692482,98.576004,-700.768005,-710.039978,2940.0,420.0,140.0
3.7892650310245726,4.149054985091009,4.444576615013374,4.843271171840939,3.6300538423300885,,4.002373716625486,,4.730418955103256,4.101642086697464,3.874333644368632,4.914922866638559,4.835220035583793,4.765837191080555,4.623510651482791,3.577198780927347,97.599998,-698.328003,-708.088013,2940.0,280.0,420.0
3.768078444874688,4.141006364868075,4.435031435227166,4.83014871524171,3.6255241253879364,,3.941717573723786,,4.817273127150835,4.185845669795298,3.8630384986764694,4.9491925053502515,5.003584206618023,4.794594287731356,4.601841204051123,3.545466946833406,97.112,-699.304016,-703.208008,3220.0,420.0,560.0
3.716260904637937,4.136380522716207,4.414228754322972,4.822728216640961,3.622230169421584,,3.949101124214479,,4.971348286143914,4.311623168378448,3.855960378485184,4.957745891698377,5.263010489049566,4.8138650699942716,4.589600151098963,3.517512345544818,97.112,-697.35199,-705.160034,3360.0,140.0,700.0
3.5467800427443,4.132065652698903,4.347480258532698,4.680702048285299,3.6687420128594326,,4.000493296573971,,4.923880380332022,4.27124264786094,3.786599115856184,4.902176271264333,5.205744894290457,4.7542329894125634,4.485492344560574,3.5352083090232735,98.576004,-701.255981,-707.112,3500.0,140.0,840.0
3.0266441268334408,3.783011819132021,3.7704300424562436,4.1037973930518605,3.280142453993436,,3.61502032589819,,4.586371735978584,3.9127190715465985,3.4987624902640913,4.6183931139120595,4.864678557483041,4.296529466992902,4.186842491453064,3.27614261402956,99.064003,-701.744019,-704.184021,3640.0,0.0,840.0
3.0090006764364152,3.805943301017663,3.731592306746866,4.0663811446496725,3.331230517213884,,3.6540159326302817,,4.585730513923476,3.882960224806484,3.5107497112910737,4.60744008168969,4.89677852733291,4.2711940759661475,4.199432013716414,3.295051897232715,98.576004,-699.791992,-708.088013,3780.0,0.0,980.0
3.0008356577702724,3.781921098546093,3.743225600811754,4.068625614971249,3.3244508865979587,,3.615121320777283,,4.582905138980986,3.886831149218167,3.5456319408974397,4.610738706993611,4.894648603613611,4.273583292376632,4.225251005010017,3.2602748779900086,98.576004,-702.231995,-704.671997,3920.0,-140.0,980.0
3.007466737070584,3.777908321642675,3.77146257884903,4.0704766447995855,3.3198652950840684,,3.5889849720510614,,4.592062898990719,3.9055920236203,3.547963138423524,4.614040643810403,4.898334957969202,4.268546476359521,4.232686281985162,3.2489372754508903,96.136002,-699.304016,-706.135986,3920.0,140.0,840.0
2.9959760463469527,3.748761835843866,3.760717809711573,4.0716628608242855,3.3237846722216458,,3.4653225370618044,,4.582524884041358,3.905398068946689,3.5309433845756084,4.650596984407605,4.883625577077481,4.269636781677476,4.183831804234221,3.231811297507682,94.672005,-698.328003,-708.575989,4060.0,0.0,980.0
3.0890030151814685,3.8415553843215857,3.800445001028385,4.08113231723278,3.3891092453409692,,3.6272353996703126,,4.655188180422854,3.946712247056069,3.540169801020118,4.651591573461285,4.918164098202611,4.276009347953011,4.2065750608175225,3.445497371101444,94.672005,-701.744019,-705.160034,4060.0,0.0,840.0
3.0539413373066226,3.7226857367931525,3.6431763121833365,4.019432363594746,3.3229446073429787,,3.5717745692703855,,4.6122135542215394,3.874997976328064,3.342480195956465,4.598791082164011,4.865475975532039,4.227324303801566,4.04556771853953,3.4376028809306147,94.183998,-698.815979,-705.160034,3780.0,-280.0,980.0
2.97827831498545,3.599223975932048,3.523325770216456,3.8426280305466323,3.275987581892913,,3.5208290842727994,,4.548623013431018,3.8028002626647526,3.117850647596163,4.550725037553699,4.820534020392088,4.214870499252969,3.9296138928227826,3.3728238632828313,96.624001,-698.328003,-704.184021,4060.0,-280.0,840.0
2.9130202976276838,3.5858819714367103,3.476287186572253,3.7755088233988885,3.274778384707551,,3.5142893371337287,,4.546851985116508,3.7909920640156813,3.057176671913137,4.526020631637231,4.798483435959322,4.214764319118468,3.9141529789256393,3.4074576321406536,93.208,-696.864014,-703.695984,3920.0,-280.0,700.0
2.886325588853485,3.578525538734179,3.532253606198432,3.7736496337046015,3.277949384558457,,3.505752615375716,,4.5248556517901,3.82178605788455,3.058163638312391,4.48734734395183,4.83582933512089,4.19948507587349,3.9534411124988242,3.4248751693358237,91.744003,-699.791992,-704.671997,3920.0,-560.0,700.0
2.9239301263696285,3.4613559153856133,3.5307139685169404,3.7854710091232455,3.2457794950847143,,3.5507557247846346,,4.435506235363761,3.76000047311452,2.9910227042112605,4.618593220541349,4.735307324787162,4.041106183236149,3.7403068786375613,3.3074457018558316,94.183998,-698.815979,-705.64801,3220.0,-420.0,560.0
2.947443763617702,3.4301363274587175,3.5072893974729813,3.7879840068628,3.25295596979357,,3.5728030475001127,,4.435549102141111,3.761127923085558,2.981925020321438,4.667560731323367,4.732304607177905,4.009838676957364,3.6883499615426025,3.282712813485318,92.720001,-699.304016,-704.671997,3080.0,-980.0,560.0
2.9548912834584944,3.237523493575384,3.6267545189704684,3.6607067646947073,3.2266965125514737,,3.5825182519780725,,4.398501209043076,3.784990769069144,2.8657899734224643,4.752723882680044,4.661390902415779,3.9813986826069687,3.5130627627281266,3.1662788830532675,96.624001,-700.280029,-704.184021,2940.0,-1120.0,560.0
2.979483556931329,3.1714755372915677,3.719693079095226,3.5928841187798914,3.275556271688004,,3.6396382101302973,,4.389476321040555,3.8059659483123736,2.8115518152467365,4.7541304633218635,4.664582115600611,4.034081952768604,3.4597708596309826,3.115022798438973,93.695999,-700.768005,-701.744019,2940.0,-980.0,560.0
2.9187202781606727,3.1117932538036834,3.6582474731691024,3.5605724754661896,3.187223323096393,,3.6093712148056327,,4.279868168022397,3.624912087287178,2.8124443493635636,4.733924449748995,4.600072297839704,3.921888551577305,3.446683063082885,3.127402261320642,94.183998,-699.791992,-704.671997,2800.0,-1260.0,560.0
2.922118598223221,3.114041379041296,3.689086589495774,3.5561855712366754,3.187001826373831,,3.6027428040924896,,4.26814360987374,3.604145995984584,2.818425880805583,4.737999432235632,4.614387575227408,3.9076554277653064,3.45789608088912,3.1479789927167716,96.136002,-699.791992,-704.184021,2380.0,-1120.0,420.0
3.159872220405606,3.3455144663908967,3.9182609252274965,3.8713650920048477,3.439083133193247,,3.9566945408846528,,4.529711804289915,3.809499660398803,3.1771997285202627,5.05266220400065,4.799345995768419,4.0266345825451575,3.809175932298115,3.510831155311294,94.183998,-700.280029,-707.112,2660.0,-700.0,420.0
3.1773700559387463,3.3461632029298385,3.934424730674204,3.8751946666998447,3.4442715273353266,,4.003992928953329,,4.543930605286025,3.811868008188352,3.1877286218185974,5.132344482496027,4.7883067320930115,3.964756640757775,3.800835994688619,3.530430218120456,91.256004,-702.231995,-705.160034,2240.0,-420.0,560.0
3.177244960771689,3.376061793568128,3.9387231581823845,3.922024836017763,3.450697085987409,,4.002379027201347,,4.524680577716935,3.817087804260695,3.2329068476550558,5.140607008085342,4.6909451349207245,3.8360213841312594,3.856008223955521,3.543437972526958,93.695999,-699.304016,-701.744019,2100.0,-420.0,420.0
3.206446309695408,3.3654633638305,3.9391630611190127,3.9209120059068145,3.4463830035236915,,4.027738695977117,,4.540094373179921,3.8373355867746413,3.211042119747161,5.191889000957531,4.661457585449357,3.7229183362214293,3.8590172964964595,3.51624693624821,94.672005,-699.791992,-706.135986,2100.0,-420.0,560.0
3.241551864852317,3.3601072074626064,3.843744036948459,3.8731378627026674,3.443193953792846,,4.032826335023032,,4.522246505346914,3.7884766452016976,3.2063453209498807,5.158979181936433,4.7337794515183305,3.8003516296382944,3.837882801232941,3.5203444702732485,92.720001,-697.840027,-705.64801,1960.0,-420.0,560.0
3.2536905006366283,3.2595206341822998,3.8039380065653616,3.807231325103249,3.3568449531246283,,4.0166944420822945,,4.437286161563545,3.765180457101661,3.1585071404061447,5.163614731173995,4.6850177789081355,3.7955783881969793,3.7787880370424256,3.5153279063126877,94.672005,-697.35199,-706.135986,1540.0,-560.0,560.0
3.2589280871140502,3.2128015034213706,3.8364458231160095,3.718778777497137,3.3648762695509227,,4.017078462988655,,4.503661848343774,3.838133009103709,3.2378854934575823,5.121944100306717,4.7436875387313515,3.8256699346122924,3.878042162634809,3.5290407189293007,92.232002,-698.328003,-702.720032,1400.0,-840.0,700.0
3.2543169924450126,3.2221990038356796,3.972702253704014,3.8430964199446285,3.3581174687513666,,4.014180330669557,,4.700792230556732,3.993412745852216,3.405472957511195,5.0042222321498375,4.872014446518332,3.8661812381926417,4.0241730501712905,3.579257322396177,92.232002,-697.35199,-703.695984,1120.0,-1120.0,560.0
3.2542021272745663,3.0551214205383124,3.916621946388882,3.891011954611713,3.3164958228038866,,3.9379511223120938,,4.689679112712218,3.990114518514164,3.4261621583059974,4.915986429307162,4.870579439108777,3.8660141941865644,3.982528682815949,3.5418200171195044,93.695999,-696.376038,-700.280029,840.0,-1120.0,560.0
3.1883826612062243,3.1481637528999706,4.006873801323469,3.924493432926113,3.2943522354225516,,3.9032953125977556,,4.724335508133048,3.9830251947988136,3.398239006345623,4.495330887883007,4.805290000008525,3.7477137385082373,3.9754970503249,3.4998889553731605,92.720001,-695.400024,-704.671997,420.0,-1260.0,420.0
3.210487844690049,3.4773960326755358,4.273969088160822,4.051822926526894,3.463136060628477,,3.940757122307569,,4.869516241925052,4.203291908713154,3.5063182223774683,4.380734326335297,4.858203055673649,3.775204231426917,3.999422849979274,3.508917103222079,90.767998,-696.864014,-705.160034,0.0,-1540.0,140.0
3.185116778230081,3.4883621263051894,4.281468928178923,4.051241622610297,3.4615328357383808,,3.929145050012858,,4.856678958959017,4.213817391346501,3.50929633503183,4.389546075612311,4.849703402120434,3.7619857181986696,3.996812498050706,3.5095565413939855,90.767998,-696.376038,-704.184021,-420.0,-1540.0,0.0
3.1837302266337266,3.4791863333464645,4.291418983728477,4.1316091344817005,3.4985423822330297,,3.8759455176486757,,4.874752026839445,4.204118308097855,3.524863402771766,4.464979524134055,4.886272559051632,3.827648214298553,4.081445147094862,3.51678416081907,92.232002,-696.864014,-705.160034,-700.0,-1820.0,-140.0
3.180925952141123,3.4683967251828784,4.286957516981293,4.130955280985277,3.5007245161632707,,3.859980817337525,,4.8784796521132625,4.203956675037456,3.530530228566993,4.4843180199996935,4.906361461260198,3.8350727845908588,4.062379984549581,3.5235996148671505,93.695999,-695.888,-704.184021,-560.0,-1680.0,-280.0
3.2090817102552074,3.5631884396875715,4.312703672548873,4.130706196536339,3.5596490496043094,,3.9116222598854393,,4.910772323298243,4.279513036351878,3.5741343486680157,4.616579115703097,5.008662536068476,3.861899415907132,4.092239513270657,3.6080800321485587,93.695999,-697.840027,-702.720032,-980.0,-1820.0,-420.0
3.1265287671187085,3.512258498296415,4.246815965611369,4.104387022701608,3.3394655967637537,,3.7188705950983683,,4.9112145819488084,4.248045122503189,3.507369024610692,4.502150569877808,4.943205952781356,3.695841524500672,3.9849897459991355,3.4703591800902607,92.232002,-695.888,-704.184021,-980.0,-1960.0,-560.0
3.163338475165855,3.515755579902321,4.152464629447419,3.97968442754981,3.401356946495441,,3.778419155006268,,4.6430434450399565,4.136634656729837,3.3569533477312437,4.878731986178186,4.792652836838199,3.6316652745983387,3.8725015542045007,3.474660405184808,92.720001,-697.35199,-699.304016,-1260.0,-1960.0,-840.0
3.054379227406501,3.509744462627181,4.096160463842427,3.9214766278907174,3.4051147227737895,,3.7814668441671073,,4.4534475384005825,4.043667508062894,3.248315434180329,4.992904145654775,4.591554158733572,3.525290539286548,3.711868906438282,3.417164360503083,95.160004,-698.328003,-704.671997,-1680.0,-1820.0,-1120.0
3.15124516131714,3.4535735625374953,4.1015318745924745,3.875994109135225,3.4369609932921668,,3.7454830197848086,,4.46148422723191,4.043932251982592,3.331366004468302,5.021147189746096,4.663986905715379,3.636921317810845,3.8138935745252938,3.4669079014477937,94.672005,-699.304016,-704.184021,-1820.0,-1820.0,-1120.0
3.1148493998565945,3.4666254594685815,4.110429992138345,3.9014064848480867,3.376258483117984,,3.7059870272180393,,4.478887312880506,4.0546653001640625,3.2980946306932877,5.098200488146785,4.663901256468466,3.6172432555985083,3.7969358206002943,3.4163857894364438,92.720001,-698.328003,-705.64801,-1960.0,-1680.0,-1400.0
3.113946289349312,3.4630478204487467,4.102621962326263,3.9208741536967087,3.364544123574933,,3.7005183948460987,,4.430764421773356,4.012608939974746,3.2896781132914317,5.0586639722260776,4.661570599329477,3.6452695505239383,3.854585471017876,3.41616164624768,94.672005,-699.791992,-704.671997,-1960.0,-2100.0,-1540.0
3.111813631076801,3.4425294969445166,4.093551316806746,3.8312746128317094,3.330934605539458,,3.7441931559217574,,4.439551618764335,4.013128593149568,3.323322109803901,5.061197260570678,4.660911662680495,3.596592208263582,3.879098482936209,3.4025288293357763,92.232002,-696.376038,-704.671997,-2240.0,-1960.0,-1400.0
3.10305175796446,3.4714046511514565,4.086506745891767,3.7872472804693267,3.3880009099976025,,3.743769458547281,,4.452003029051558,4.01388955411366,3.408725415574204,5.148400049184281,4.659436475744884,3.6124925947188418,3.9530115710673033,3.403631531902204,93.208,-699.304016,-707.112,-2520.0,-2240.0,-1680.0
3.0783058785651063,3.5690107213321487,4.096703135104876,3.8209757553347776,3.4614335285293834,,3.777394100967877,,4.469078009140417,3.9907974878380186,3.448714751437507,5.3224285967957545,4.648443367856108,3.6133295044087475,4.040344652442697,3.4085589262701252,94.672005,-698.815979,-705.160034,-2660.0,-2380.0,-1540.0
3.176985894011467,3.5468378201524247,4.148790041068429,3.863727408198235,3.5371173107406664,,3.8654591607224424,,4.569035263644744,4.048581377988173,3.5396734975921973,5.321500491857424,4.874462944811108,3.814464036992762,4.067058131869581,3.474908600976011,93.695999,-698.815979,-706.135986,-3080.0,-2380.0,-1960.0
3.27350764368934,3.719493702015976,4.435782458017741,4.526621881200578,3.598168521227635,,3.8384784523232085,,4.984537533866725,4.139801198179292,3.7503453993627156,5.303719372382307,5.010034046783228,4.021141164975826,4.090720733753463,3.4297919033523145,93.208,-701.255981,-705.64801,-3220.0,-2380.0,-1960.0
3.4457767399782493,3.8731398720433496,4.654521543677852,4.866105087559652,3.6197318986871685,,3.8400618873188743,,5.436467641274835,4.456180636439465,4.107869671008317,5.292375174398545,5.19817052434256,4.3264630854522235,4.2443166678212965,3.47546322079547,91.744003,-701.255981,-707.112,-3360.0,-2100.0,-1960.0
3.4463945456317444,3.8801679429114655,4.753763080113579,4.995774879822413,3.6242954671193433,,3.842774303454273,,5.421354150133883,4.452241149930812,4.112477325575837,5.2065355366583095,5.1949063194070675,4.354238813220317,4.295138386169237,3.47175923775734,93.208,-701.255981,-710.528015,-3500.0,-2100.0,-2100.0
3.5892902754387888,4.293254349524573,5.4972041249987775,5.872358625267914,3.768654885614531,,3.956531799730462,,5.894962954579898,4.831982837830545,4.3200647419919616,5.225039542370485,5.525467979668799,4.420631791299688,4.255494827836564,3.488308409841091,91.744003,-701.744019,-705.160034,-3640.0,-1960.0,-1820.0
3.701754632623919,4.433523281526529,5.706194552187814,6.129592482337635,3.7977154379765916,,3.9817481109961648,,6.0669021549611255,4.988030505202949,4.4167793627779695,5.269763256015313,5.622403132335826,4.402196780546502,4.154421797586872,3.4732616573310504,93.208,-702.231995,-706.135986,-3920.0,-1820.0,-1960.0
3.9154493270640858,4.56953262209684,5.8256608920529,6.208953953534941,3.9064452769401035,,4.097971763144729,,6.171507720524982,5.105393643248836,4.508177471946781,5.435451571351524,5.717782015080639,4.434418632403238,4.038699487460162,3.5251554387103923,93.208,-701.744019,-706.135986,-3780.0,-1680.0,-1820.0
3.9095242375897077,4.577084127314563,5.84106619949517,6.231005817847473,3.9001129988513497,,4.096794853942464,,6.118760170936319,5.0520789372351445,4.539082138799626,5.404059780826585,5.586557561283549,4.435272146350352,4.035458132719329,3.543115452667501,95.648003,-698.815979,-704.184021,-4060.0,-1400.0,-1680.0
3.9076652750918117,4.595555209138907,5.856302511354896,6.2221048284579235,3.8932788593149987,,4.040993717652374,,5.987953689432939,4.947085714726861,4.538138978674799,5.460082208316459,5.3171028400996265,4.423287686616583,3.9979691071479184,3.5519764516197285,94.672005,-697.840027,-706.135986,-4060.0,-1120.0,-1540.0
3.87807603544291,4.561070513299342,5.850199659838973,6.233448507466071,3.7723597393057493,,3.932729225848352,,5.993774327919531,4.943394339577637,4.538769611162992,5.473521842300231,5.346245124770133,4.4852410025366165,4.012203420273223,3.550671905753447,92.232002,-701.744019,-707.112,-4340.0,-840.0,-1680.0
3.9134582369500084,4.625459753927312,5.912070466673587,6.395433601743289,3.8159283150187213,,3.930748503375662,,6.004111477508928,4.926593248913722,4.523164414088876,5.517377355692337,5.348562920747875,4.48917071859616,3.9947000574776745,3.5520663791182816,94.183998,-701.255981,-705.64801,-4620.0,-560.0,-1540.0
3.9121140768335336,4.610688241273271,5.924422402357822,6.482105165817329,3.775314188766071,,3.9056843572365145,,6.001087383675589,4.932301640383854,4.504341201345929,5.57649598811,5.312791265413948,4.470796286442662,3.973545461525438,3.5400838912213914,93.208,-698.328003,-704.671997,-4900.0,-560.0,-1400.0
3.92570802549253,4.610086942540304,5.919914748261645,6.483624724420865,3.7769612387635076,,3.934360111890695,,5.9989012393799115,4.930604818294474,4.483554599013841,5.641497506234652,5.321749504231429,4.469499534411293,3.945705150991999,3.547119956437932,93.695999,-700.280029,-708.088013,-5040.0,-560.0,-1400.0
3.929574418199664,4.600089255284171,5.920549227870604,6.524672019418925,3.798858708634364,,3.9518894149304997,,6.033816116769645,4.935745550328039,4.4758371909320696,5.684415055314232,5.377744620378072,4.471604673090223,3.9118962537945836,3.544677580899775,93.695999,-698.328003,-704.184021,-5180.0,-420.0,-1260.0
3.930372333239746,4.5997424346849485,5.926456066659984,6.53828870401869,3.8014925236802672,,3.9702376941638624,,6.040454189179435,4.939904593729812,4.456116653124108,5.6434185792858225,5.385885159741707,4.501316089033529,3.9296697948555166,3.5906054602198236,93.695999,-700.280029,-707.600037,-5460.0,-420.0,-1120.0
3.887988311014972,4.542939574818724,5.903915030025232,6.517252826298243,3.7630478846667414,,3.9272906121499744,,5.948182690273967,4.844996702253791,4.462954328645368,5.7120860119427155,5.353469164775728,4.480468179864625,3.9105059886938007,3.3906689168299193,95.160004,-700.280029,-704.184021,-5600.0,-420.0,-1260.0
3.8685883431632004,4.548735569067954,5.8931998838901265,6.533526064574898,3.746098665087365,,3.9153218081310897,,5.972085318244212,4.852356394046068,4.469647997081175,5.731207806543567,5.37522934129328,4.4823511553537765,3.908840719284428,3.364621492936377,94.183998,-701.255981,-708.088013,-5880.0,-560.0,-1260.0
3.853685813241591,4.513364421806549,5.7684555707124865,6.492765363681666,3.722334736577706,,3.9398815892075607,,5.9499287201323305,4.783760412148393,4.497824126168287,5.715562705942577,5.439408789095932,4.614471005314664,3.9219291193926007,3.475233624934888,95.160004,-700.768005,-704.671997,-5600.0,-560.0,-1120.0
3.9063783749227694,4.575491957492291,5.744229013263999,6.503438272830996,3.8198818036192033,,4.197045865203312,,5.974401008750493,4.787277956099479,4.568110322629413,5.711813704975029,5.605746994645581,4.826187772332481,3.9836215759195146,3.584348377261584,95.648003,-698.815979,-707.112,-5460.0,-700.0,-1260.0
3.924754423683853,4.582487674564742,5.709262464086054,6.520931686611025,3.831172840892145,,4.297763908963371,,5.9765977318562395,4.763063715104762,4.577270125660116,5.750795125772278,5.633735537246426,4.878024181076861,3.9398452691715957,3.5927287504972067,97.599998,-699.304016,-708.088013,-5320.0,-560.0,-1120.0
3.898414371079903,4.585420172967403,5.7196741712267265,6.573071274649022,3.8036652744588095,,4.348525795019807,,6.001324155535227,4.765626432166874,4.57190232568213,5.670838921659011,5.7288511753975575,4.8947708111321,3.941966156426082,3.601957584457192,95.160004,-699.304016,-710.528015,-5180.0,-700.0,-980.0
3.879396702236608,4.613430375088876,5.724468579921154,6.689364971274862,3.8241088178743676,,4.375936458160427,,6.020556695347804,4.7685156092571646,4.570571104079068,5.711735936174759,5.732052490381724,4.8925954414646675,3.9813574908944016,3.619424533188532,98.576004,-697.35199,-706.624023,-5040.0,-700.0,-980.0
3.860685745477559,4.783147582379664,5.877358031786509,6.99254804059269,4.098665002532836,,4.593423475495262,,6.085635861266864,4.821749072426283,4.616973102474893,5.618950075517981,5.669311270718389,4.823958232754506,3.969508693826846,3.5995272587772305,96.624001,-696.376038,-708.575989,-5040.0,-1260.0,-1120.0
3.854967073746178,4.844173837879372,5.919726664877655,7.053412130170679,4.283909372061067,,4.706966047480232,,6.093379950270301,4.850787568972758,4.648329102473518,5.629332926741755,5.721957051962777,4.769725667380772,3.9695821669542575,3.631389261021734,94.183998,-698.328003,-708.088013,-5040.0,-1260.0,-980.0
3.871336662190593,4.861819606184739,5.917967461250296,7.052611589156409,4.290054965048807,,4.7433414772407,,6.075816161950262,4.843047927595958,4.652485541310735,5.613220793443244,5.812483840257405,4.7981018038842045,3.966749137154187,3.6296527424723948,91.256004,-696.864014,-710.039978,-5040.0,-1120.0,-1120.0
3.863926695005898,4.860052963170592,5.929231770844252,7.0487911984227445,4.291515251108393,,4.816002632531932,,6.185907651369055,4.932871071555425,4.651477158275692,5.641440798006656,5.948319834251983,4.859185861285088,3.974898319899904,3.609525705433947,93.208,-697.840027,-710.039978,-4620.0,-1400.0,-980.0
3.8280365171945614,5.086554841598244,6.066407192628987,7.316774650692113,4.578571256752463,,5.091298983887017,,6.008882913212181,4.772730988537661,4.5411446568102125,5.424908501763273,5.85509314687118,4.69099158526406,3.634769493506577,3.235930290334175,95.648003,-697.840027,-709.064026,-4620.0,-1260.0,-1120.0
4.049853988054682,5.424965397436337,6.313573447431093,7.546626910355658,5.104654217473308,,5.633118078759251,,6.010778589171399,4.779538227871895,4.672861746017051,5.461966041581119,6.01073016933978,4.708013841128222,3.628620625012872,3.263563442283117,92.720001,-700.280029,-707.600037,-4480.0,-1540.0,-1260.0
4.049502324586467,5.406794112863416,6.323191570705828,7.551492996155964,5.200846753596505,,5.839396696887786,,6.23016734051699,4.982436545210426,4.652461194387189,5.451961007595917,6.38511236143691,4.914734400533227,3.791441438740888,3.244614891460739,95.648003,-697.35199,-711.015991,-4060.0,-1680.0,-1260.0
4.036491142057395,5.415296739819243,6.328419170873458,7.5738583236175625,5.220767492310435,,5.85004926359211,,6.229407469781081,4.961358498755157,4.657115807776713,5.402414619238278,6.482442831620638,4.956804723914031,3.7905805649109094,3.244520890697835,93.208,-696.864014,-709.552002,-3780.0,-1820.0,-1260.0
4.021306555858329,5.429900968829711,6.409927366407473,7.733713556912287,5.242898276426685,,5.848160186270356,,6.805885129951573,5.1492470093932345,4.721156354418185,5.391526150866458,7.455007529589386,5.514919816701912,3.930480183372164,3.3135787215295327,95.160004,-697.840027,-711.992004,-3780.0,-1820.0,-1400.0
3.9638077972893386,5.4850051946650495,6.6079902390770675,7.916092865720943,5.255110697112137,,5.828363403494931,,7.450626540078962,5.543493101003753,4.8110163914121475,5.387709592822192,8.143265423363198,5.994538081188907,4.052612443313072,3.3274283816303685,94.672005,-695.888,-707.600037,-3780.0,-2100.0,-1400.0
3.9518752598632405,5.490566512159815,6.658521510953973,8.017963675898343,5.314333924041968,,5.887857205368105,,7.598731728633148,5.679800265467953,4.766253974599242,5.397861212609297,8.132281208552563,6.007325797130081,3.957375654242744,3.366223307177129,92.232002,-695.888,-709.064026,-3220.0,-2380.0,-1400.0
3.9614793635276513,5.513976116673171,6.6311407959310475,8.021910085211859,5.314793230967476,,5.9003955805091906,,7.493025990416606,5.649986766499635,4.656137723060167,5.397474262520671,8.137445930138398,5.994263801735195,3.9328216400268015,3.389117686787859,91.744003,-699.791992,-712.47998,-2800.0,-2100.0,-1400.0
3.9575070518852513,5.525947995889331,6.6889199837509645,8.180097918995486,5.328446216371126,,5.9025434904146845,,7.591982257994697,5.645095229900374,4.657045538643584,5.392922018367327,8.174671579041814,6.001764244523756,4.06905172449211,3.388941529076349,93.695999,-700.280029,-709.552002,-2660.0,-1960.0,-1400.0
3.98752965574297,5.515533811342375,6.672411162537017,8.26980144165791,5.417965003898241,,5.921997559618992,,7.5451590874856365,5.604280663273915,4.686728640227569,5.408172294048556,8.374940416269816,6.072872219613509,4.087993963770341,3.3948238386246503,93.208,-698.815979,-713.455994,-1960.0,-1820.0,-1260.0
3.947207316039815,5.322895679720905,6.529271765722315,8.206113441101282,5.325566384279518,,5.8897198494615575,,7.57508627373577,5.56054870510146,4.650665928480175,5.429755534815252,8.536538073293595,6.158083475169467,4.08661215896137,3.378854901600553,92.720001,-699.791992,-715.40802,-1680.0,-1680.0,-1400.0
3.9659295719842853,5.46472816140078,6.874911225257772,8.660877894276783,5.362391791820381,,5.889803936509543,,8.220321591716184,6.058074120793154,4.8145529237740785,5.478692020025105,9.323302697612737,6.627692826479414,4.301645374385544,3.5068428887075878,91.744003,-700.768005,-715.895996,-840.0,-1260.0,-1260.0
3.9338340068698296,5.450358875678372,6.932186982682711,8.642375403254094,5.347538628348162,,5.879874887206794,,8.908435541107442,6.696673832421583,4.984155733745756,5.475258696548764,10.7258953689704,7.5195866352235115,4.621409119067329,3.882724144119807,93.208,-699.304016,-711.992004,-420.0,-1120.0,-1260.0
4.1874110692097,5.820665636018819,7.272986270774195,9.156991564526033,5.720689621237527,,6.032832697683847,,8.90575543049099,6.702927621083551,5.096587091163456,5.506353671731411,10.935458012443926,7.600477830180404,4.621518200560374,3.8753651951922756,92.232002,-699.791992,-714.919983,0.0,-700.0,-1260.0
4.289964367228437,5.8246105432801665,7.266066572645726,9.174002860569011,5.89926192506281,,6.134013874255948,,9.01501429535816,6.680712829217877,5.197594866601807,5.381241474919729,11.105029940769313,7.60754847931172,4.684142533513443,3.8759343959613437,91.744003,-695.888,-712.968018,420.0,-420.0,-980.0
4.528703511831803,6.100046036375237,7.4747807635494485,9.436198726857851,6.600988852880506,,6.549837605566376,,9.029564168309705,6.683880161560563,5.539873344778261,5.371274375630782,11.14825156038928,7.614251559828314,4.947190582870315,4.109417996044612,92.720001,-697.35199,-714.432007,1120.0,-280.0,-840.0
4.558323873677321,6.209709561966464,7.641486688666154,9.655920965057842,6.8024601986200794,,6.628308483371874,,9.195657431593192,6.912651646932046,5.778738224973818,5.103826413752374,11.591149861934522,7.957808142025373,5.529137258663348,4.382864533888307,92.720001,-699.304016,-716.872009,1680.0,-140.0,-840.0
4.762680530535318,6.3485379088130545,7.707387145741559,9.727142322929767,6.9441649592882415,,6.772658363203704,,9.537895314148571,7.184621322163415,5.80249354919378,4.991187424126518,13.657556252543147,8.957907076077346,6.319088210458313,4.729576288643893,94.183998,-694.424011,-712.968018,2380.0,140.0,-560.0
4.99715776716936,6.4561554104449055,7.707956424130307,9.719745559104009,7.3473734634729855,,7.201740693778468,,10.945884623153992,8.218828809669157,5.888316405862954,4.86291400919992,16.921912782620268,10.701663823748925,7.457336707834339,5.257463110858287,95.648003,-698.328003,-711.015991,2940.0,140.0,-420.0
5.3017293986275265,6.726023065713151,7.845881651845598,9.777221682043969,7.823442504010222,,7.70792055801045,,11.442591108945003,8.517348121535662,5.891946216703885,4.765942433298814,17.89853693944906,11.121978179802639,7.712473599095509,5.422913724186902,93.695999,-698.815979,-712.968018,3080.0,420.0,-420.0
5.391834942615433,6.947463352976843,8.211360758769398,9.932996210456833,7.82340738504862,,7.706383220583274,,11.816470144022313,8.88391218198532,6.348304178072019,4.712154437198641,18.403442866264054,11.630820542555556,7.923404535317283,5.471040451500551,96.624001,-696.864014,-709.064026,3360.0,560.0,-280.0
5.414805438617545,7.073874750114762,8.490009979770326,9.975812947681362,7.897452059924215,,7.676324685762132,,13.293337182231783,10.115232370012498,7.477104659777212,4.765584096943647,20.89483041410928,13.642923843272689,9.066800544874615,6.285606176984215,93.695999,-697.35199,-711.992004,4060.0,560.0,0.0
5.411269770068116,7.051050071830592,8.489606477504385,10.0303399438895,7.92499082071093,,7.717732845262217,,13.525014617669225,10.380788664981457,8.020748876022445,4.686386664484719,21.733080711382293,14.530807450780376,9.607510263567788,6.8161408235860925,95.648003,-694.911987,-712.47998,4060.0,840.0,0.0
5.488751459809198,7.180414174692074,8.539858365195055,10.102519833913506,7.952126565480681,,7.922119887543,,13.518381428892903,10.37211740125162,8.368191929754198,4.487332171783373,21.796802785244203,14.531602455042476,9.57140026525765,6.810725110027511,95.648003,-696.864014,-715.40802,4340.0,840.0,140.0
5.837128160694668,7.895413781489493,8.826571505279617,10.706891202598433,8.416751933700157,,8.518726370221424,,13.481580392006684,10.363707191976912,8.746335225082644,4.618902818082847,21.98388057545567,14.510311969280473,9.557309324440594,6.784992272584517,98.576004,-693.447998,-716.872009,4760.0,420.0,420.0
5.721961638036696,7.8245812063482685,8.76960254679815,10.444602590757702,8.381558007986714,,8.545887244177546,,13.32990300477635,10.299817396250393,8.639406005489397,4.692944552023927,21.92555579081367,14.438666757063555,9.609012130053287,6.797212694993687,100.040001,-698.328003,-718.335999,5180.0,700.0,560.0
5.753629028049195,7.842309823295556,8.948515648782221,10.302821760559324,8.53240106690589,,8.563306551205326,,13.220115394357931,10.208463103344194,8.47152714366707,4.832468899154185,22.718540935923784,14.85626236597327,10.193543102932995,7.022368322176657,99.064003,-700.280029,-724.6799929999999,6160.0,840.0,840.0
5.904998499589047,7.9042953439706585,8.937837171076055,10.364287755086512,8.648128514562694,,8.599925747015552,,13.40317739825173,10.29001220570599,8.512563598093191,4.8312162859203625,23.216442547267505,15.090873904346793,10.434104017092164,7.058076814686456,102.480003,-700.280029,-722.728027,7560.0,1120.0,1400.0
5.986987936110392,7.781826684873213,8.496624716341877,10.142895226753247,8.58622907546277,,8.547617563398397,,13.20826874086693,10.254479752960622,8.474696534427766,5.123675431976645,23.212229179174788,15.240868165116607,10.522514637380413,7.159950458906934,101.503998,-700.768005,-727.608032,8820.0,1260.0,1540.0
5.905617205890724,7.719362808592234,8.562566591802346,10.737713599287124,8.67564183895118,,8.582743433133562,,13.09448362421131,10.172465392582888,8.467375067877143,5.109878841662536,23.323952289632903,15.48579624529104,10.614482019413726,7.210531360299472,99.064003,-702.720032,-727.119995,10360.0,1960.0,1820.0
5.851271538338197,7.650254036020329,8.430411184376736,10.652367471677954,8.627219317022757,,8.550948153415195,,13.136074732181582,10.179927518868547,8.921213182121079,5.035838125081734,23.639215468886174,16.01419753800409,10.949714196664296,7.404789081404854,98.087997,-703.208008,-728.096008,12180.0,2100.0,2240.0
5.882042347027646,7.824183371301482,8.561401475047486,10.872956742940948,8.633754755500108,,8.564036784808758,,13.620525949409389,10.399354481251763,9.604195556000601,5.177753032768639,24.200153069504935,16.840106792815057,11.512910239311708,7.628511960117408,96.624001,-703.695984,-726.143982,14420.0,2800.0,2940.0
5.885458453107047,7.96696193662585,8.669154156711325,10.992827970558377,8.742842184960239,,8.564059319340398,,14.128801324026107,10.542374293852774,10.065913932028083,5.147355518692788,24.62984910123208,17.39552419889483,11.893088867855237,7.659385020013081,97.599998,-699.791992,-731.512024,16380.0,3220.0,3500.0
5.8977598913050056,8.251212506581595,8.774739715266945,11.095621037966843,8.749194889388102,,8.785640313849727,,14.146485731713012,10.55987395261942,10.194585465483424,5.141077165701061,24.651471898846765,17.379395983889513,11.90483223058241,7.638940202377974,98.087997,-699.791992,-729.5599979999998,17920.0,3640.0,3780.0
5.87424617790266,8.25667907608053,8.764867126590396,11.013813351313397,8.726861457814085,,9.35356943207522,,15.045045325509875,11.93628036633185,10.320654550300288,5.388103340458561,26.413594970953266,18.474036382246382,12.429670832835294,7.993449789222708,97.599998,-701.255981,-730.536011,20020.0,4480.0,4200.0
5.87821393046644,8.280807064017845,8.75642973669343,11.218001573045003,8.754984324546017,,9.75324973437038,,15.607800521205277,12.924272298467079,10.539562120314885,6.166797636046214,27.690821285789543,19.410396390227447,13.050743700549354,8.430738475493941,97.112,-700.280029,-735.416016,21560.0,4620.0,4480.0
5.885628259964094,8.28738281670483,8.794169091849328,11.435493761020021,9.038018018723138,,9.970123900193123,,15.680567981629311,13.101202267896834,10.641025737068155,6.817277840630071,27.765099652494385,19.49803905752483,13.12522615795196,8.484208442596252,96.624001,-694.424011,-733.952026,23380.0,5040.0,5040.0
5.938524780474709,8.33457307340497,8.828205967503852,12.015524551385896,9.257192566290044,,10.232557063087059,,15.959545507297026,13.299248322108895,10.727683446244168,6.880000139249572,28.162017333242588,19.733380494854966,13.28774291385754,8.567030283595203,99.552002,-693.936035,-736.880005,25060.0,5320.0,5320.0
6.073022542187804,8.337665111526317,8.841115737251453,12.01833035372567,9.365900457425314,,10.404932779923586,,16.13094865674993,13.629798175648155,10.93300542212686,6.881650962403579,28.615841985166945,20.05336469444054,13.529400384710081,8.775642075142535,99.064003,-696.376038,-738.3439939999998,26880.0,5320.0,5600.0
6.164823532938126,8.38799184878128,9.075865097517395,12.05467988721357,9.367428671824399,,10.398440961313947,,16.178044887634776,13.632799524355583,10.950836812583004,6.865088775418263,28.611620083096337,20.05437080429598,13.532062257171638,8.765975682372344,99.064003,-701.744019,-740.296021,29260.0,5320.0,6020.0
7.210908569857399,8.694382968554391,9.674551333883485,13.009041298869963,10.11566521098496,,10.566121060265976,,16.455806456940497,14.168191955342044,11.369441233529066,7.087255922304571,28.661758139941227,20.062212817337382,13.556284261394831,8.79400546240131,100.528,-698.815979,-742.736023,31360.0,5740.0,6440.0
8.288687129854265,9.197757935925921,11.17735472947938,14.274870182636809,11.793199755921245,,10.573830463583084,,17.693246625630778,15.77872055452472,12.090908594103189,7.902617533464932,29.357131976603462,20.382879020513126,13.942044894316787,9.16038510805969,99.064003,-703.208008,-746.1520389999998,34160.0,6300.0,7000.0
8.28566497697815,9.220426973480427,11.237275101321947,14.28933011079349,12.834554440301773,,10.739633553116398,,17.835890995426364,16.175260982087647,12.090894274171617,8.313612453507846,29.731795739821766,20.507055358326618,14.130357040870056,9.404948536674974,102.480003,-705.64801,-746.1520389999998,37380.0,7000.0,7700.0
8.533294715817235,9.650584005482981,11.291466814008547,14.564758174518781,13.71688686960091,,11.166036119281685,,17.85250597018623,16.184720173415574,12.243138710026315,8.56492502889036,29.814902007071268,20.51474936443668,14.13078472390405,9.54224958086392,103.456001,-704.184021,-749.080017,40040.0,7700.0,8120.0
9.421401122566596,10.03832927234337,11.38155236797799,14.665335481468798,13.975184432998894,,11.774997855309115,,18.14591634267749,16.286127056880666,12.747370238271598,8.564856855018,29.85966746958192,20.59554509682371,14.473098567457411,9.55722404971054,100.040001,-703.695984,-749.567993,43540.0,9100.0,8680.0
10.762418264282752,10.295499720209781,11.526770201722268,14.791370882383635,13.977944115928462,,12.39325972614175,,18.576642765953743,16.491590659192,13.322002141340057,8.512631742518387,30.097417133419334,20.863181692370798,15.167099698646682,9.750492225373524,101.503998,-703.208008,-749.567993,46060.0,9800.0,9100.0
12.301656919617871,10.538410303782387,11.807815362931452,14.961806140456018,14.678229022234259,,13.19206899904731,,18.700798255398407,16.601699030101884,13.731700776438462,8.609071430806708,30.162069206400044,20.982857570081713,15.610081825234145,10.111133874009381,101.503998,-705.64801,-748.59198,49280.0,10220.0,9520.0
13.218545598689309,10.660946306232844,12.12518350421759,15.326860030074423,15.730490029304374,,13.681986635126146,,18.843733731792685,16.719716549961554,13.972118991228804,8.745344375795085,30.330540835054283,21.19159157501074,15.87655629225897,10.57031154128782,101.992004,-698.328003,-749.567993,51100.0,11340.0,9660.0
13.491752344789393,10.738534708532447,12.771922801117658,16.40505229230182,16.276476401819664,,13.694232930333282,,19.467568620549354,17.12550693848912,14.137036288894853,8.808875364076101,30.73820833914916,21.53991198904314,15.916732006634213,10.676177253578993,101.015999,-699.304016,-746.6400149999998,51660.0,11900.0,9800.0
13.597436324586111,10.902826371722597,13.4680982701282,17.387135503010654,16.521791875477398,,13.686131240667512,,20.670613841763654,18.060182157178556,14.457390912764772,8.955260686715866,31.529633591238905,22.171879479145243,15.956755948039941,10.861929863586727,104.431999,-698.815979,-748.59198,54880.0,10500.0,9520.0
13.563965486256283,10.788333539988033,13.45330224575003,17.290180394690758,16.40079557756409,,13.589171811719888,,20.664078513023323,18.06709326005127,14.417754864979896,8.914137737031574,31.57308722346557,22.220549181264364,16.054095454590822,10.890458374810134,102.480003,-697.35199,-746.1520389999998,57400.0,10920.0,9800.0
13.698129681621449,10.851349818237264,13.821407271011115,17.381675249971078,16.24389114242026,,13.479774717755955,,21.15213339429811,18.32089691587794,14.507574933287366,8.870529558314331,31.717307056457013,22.372222618789728,16.69228191614952,10.918545013772835,101.992004,-698.815979,-740.296021,59220.0,11620.0,9660.0
14.263190662299005,11.007133547451904,14.194960462220825,17.401021098990103,16.228308428436165,,13.56138927963315,,21.424598320680794,18.444206867052728,14.595853632781024,9.003789021149936,31.748485611176015,22.499293302243426,17.150034464445287,10.97741753168797,98.087997,-696.376038,-734.440002,60340.0,12460.0,9240.0
15.048403349917052,11.075793846177891,14.474318747932777,17.429608592500085,16.271676438306333,,13.614211584830372,,21.6212243520062,18.50027551132513,14.63629835883683,9.086517045646653,31.768774428766935,22.656308005814864,17.30489708872476,10.985992246191907,97.112,-698.815979,-729.0720209999998,60340.0,12320.0,8960.0
15.674020883086742,11.10037626488637,14.611437832746047,17.441485411927836,16.308355292884695,,13.619386620253183,,21.528590948196896,18.449278188946078,14.638873780194688,9.08654298427379,31.541902514717613,22.579359736472377,17.273702076162834,10.965193809649923,98.087997,-699.791992,-727.119995,60060.0,12180.0,8540.0
16.175428337114308,11.212209389288782,14.698916299699524,17.401256733565617,16.42924276160705,,13.715431349112233,,21.46780125987454,18.39201165032916,14.786050138481475,9.13216928322941,31.433762380528222,22.63530863842078,17.251128675230344,11.051962393807692,99.064003,-699.791992,-719.799988,60060.0,12320.0,8260.0
16.304484427258,11.225399528430263,14.662999616644827,17.342660484986787,16.455287367717666,,13.770409885925956,,21.417573066406902,18.3375127388463,14.893719125143788,9.129439636276375,31.532618187475844,22.740847390916898,17.248376234922215,11.18564228087175,98.087997,-708.575989,-710.528015,59360.0,12600.0,8120.0
16.30387627667528,11.212016723135523,14.757754290295255,17.309540607687214,16.454967177096368,,13.767670336923013,,21.413064115373295,18.33090158956971,14.9035610441158,9.154046403987662,31.54447215471083,22.740878722881646,17.282499620722234,11.195300695088935,95.160004,-709.552002,-707.600037,58660.0,13020.0,7980.0
16.31648945463751,11.203702916296765,14.877544775317828,17.231023373327353,16.469002911511943,,13.766589704273056,,21.385166178398638,18.3471505768854,14.890862761828691,9.152737839179329,31.54272682817267,22.738686538428777,17.316527165240686,11.206389618830435,94.672005,-711.504028,-701.255981,56980.0,13020.0,7840.0
16.343938216848255,11.20472497670513,15.171260564214638,17.176098382895635,16.507533689602454,,13.774916984572721,,21.435979054643703,18.384244103910408,14.898304625308388,9.145009301256138,31.486223891962346,22.714411730208383,17.347480085238118,11.205430795003545,95.648003,-708.088013,-700.280029,54880.0,13160.0,7980.0
16.35015948382784,11.202308987883612,15.21497906216646,17.217500635132442,16.50203181608577,,13.775131985172376,,21.394093956918297,18.34444471710063,14.888019319399168,9.193485642334636,31.432242901578785,22.681176180572365,17.3413431357887,11.20950972037851,92.232002,-706.135986,-693.447998,52920.0,12460.0,7700.0
16.36045294667568,11.310858392196455,15.214907475417133,17.663967254903284,16.562229339462014,,13.815682201208416,,21.36818476967692,18.34128477258508,15.030306522320627,9.233686732768152,31.320781584744566,22.611648813056757,17.402956509299052,11.219678925277702,90.279999,-707.600037,-689.05603,48440.0,12180.0,7140.0
16.393465674934344,11.616416492737653,15.556361487535131,18.201923458271867,16.797611993971756,,13.968108673163584,,21.307694224133115,18.395524382969533,15.305532176356838,9.258580138169267,30.958569435896102,22.357215197269028,17.574163653623295,11.21793953932947,88.81600199999998,-710.528015,-686.127991,44940.0,11340.0,6440.0
16.333215658366502,11.519741501669715,15.5534859436428,18.051009718208384,16.866754186953226,,13.983417629516694,,21.381928622653398,18.567883982292706,15.370560121305616,9.19876790783416,30.98929641316639,22.344620039570195,17.752272386203803,11.324379763073386,88.32800299999998,-718.824036,-684.176025,40880.0,10640.0,6160.0
16.50632021687548,11.511256939968815,15.559602650357686,18.042662241978565,16.792978809932755,,13.960458370932905,,21.327239922709822,18.57184214549338,15.370532296174362,9.439622722859067,30.925661448529212,22.350561385146985,17.727984692449496,11.349928648295958,88.81600199999998,-709.552002,-680.76001,36960.0,9660.0,5740.0
16.60544461347782,11.402878569153499,15.459409867928501,17.936346760922838,16.521685633948344,,13.77766798371617,,21.418537160891677,18.59836533473329,15.410499185528394,9.591662276103685,31.10775056383912,22.555213955432016,17.808490221284515,11.443653378725559,90.279999,-711.504028,-678.320007,34580.0,8680.0,5320.0
16.715573690374814,11.4708013011556,15.435149955115085,18.011190081156965,16.474392959568135,,13.739861750509142,,21.53310816199135,18.61145308629032,15.459832928874775,9.692695653330954,31.182086638947048,22.587577037819536,17.88195327348184,11.414434989322597,89.304001,-710.528015,-678.320007,33600.0,8540.0,5320.0
16.783732520529675,11.618156828081156,15.514844798886283,18.269252227993153,16.66801905409239,,13.73706206989725,,21.522635796417322,18.626518901206644,15.553314256987644,9.791853825975831,30.50498452442634,22.262535731039254,17.886542164507762,11.33525965887255,87.84000399999998,-713.455994,-674.903992,32060.0,9800.0,5460.0
16.785733267011103,11.774395069989735,15.612386000916857,18.539733221013705,16.84935332193995,,13.597291172884141,,20.964895431112563,18.332514506222516,15.583925166031882,9.847911268510298,28.99197409654986,21.49444223212847,17.67667247641697,11.153796337871364,88.81600199999998,-718.335999,-677.343994,30800.0,9800.0,5460.0
16.79812267493417,11.9672883199496,15.822535805383962,19.078795462463013,17.05154938999036,,13.488490933714138,,20.925811312816762,18.46655543858277,15.724981618639674,9.927145282503872,28.59267845620222,21.330151052000367,17.81786124628999,11.194025750693866,90.767998,-718.824036,-677.343994,30800.0,9100.0,6300.0
16.81257989947983,11.99930801617916,15.818644386961608,19.540451153661223,17.165165972359787,,13.522473115025184,,20.8099809045793,18.43355689255256,15.643490052082212,9.945574917005565,28.289819503348973,21.055572953839757,17.74652868963895,11.192700704837485,90.767998,-716.384033,-678.807983,30940.0,9520.0,6580.0
16.805361508393037,11.924848126319501,15.669040945766529,19.535268894827514,17.131639155480016,,13.523410140921655,,19.895160409354805,17.819987711238525,15.166791339761621,9.933152801287935,26.50050843434937,19.81807734995639,17.179910947532473,10.79327699360129,91.744003,-713.455994,-674.903992,30940.0,10080.0,7140.0
16.88315032980937,12.082637187830919,15.8233500826739,19.630580905770696,17.251179358197465,,13.545359853927462,,19.80615475426928,17.689619853089845,14.87467631776645,9.948745889989505,25.820356816471833,19.188350243569896,17.0097306115782,10.46155713105276,92.720001,-713.455994,-676.856018,30660.0,9940.0,7560.0
16.933224995646693,12.13345121637845,15.830099418981364,19.591862216508,17.43860445624208,,13.517440688899693,,19.82683589502801,17.722187645208727,14.688523583229843,10.087870512340238,25.782110485382642,19.19112254944027,17.317871226649483,10.538239205196012,94.183998,-722.23999,-676.367981,30240.0,9520.0,7420.0
16.80350570375455,11.667385768146103,15.67265619450912,19.274333129080752,17.22201239410518,,13.127286586849088,,19.828961145174624,17.71155509358568,14.453681787841878,10.076374561877321,25.581210539333394,19.182996061274032,17.40976996607011,10.532671882357832,97.599998,-720.7760009999998,-681.736023,30100.0,9800.0,7560.0
16.839097824274543,11.668363936618384,15.627876028370931,19.273958357039024,17.26337686397147,,13.111811301049583,,19.811215425146173,17.728279642462645,14.458611783369797,10.20328130982694,25.609136901775468,19.19649012644796,17.44349499012815,10.527988481033216,94.672005,-719.312012,-678.320007,29680.0,10080.0,7420.0
16.80931574423201,11.602910516253825,15.487363460626334,19.26576329622182,17.20212397309444,,13.103127729707534,,19.763616603201264,17.70676401417279,14.475044820495276,10.213954981457178,24.895319644349694,18.863831735705645,17.07544650937609,10.368971218336805,97.112,-722.23999,-671.976013,29680.0,9660.0,7560.0
16.77275837766747,11.552624345220979,15.46670529414511,19.265983137285833,17.15558078560134,,13.061909430138721,,19.639572191441474,17.666452429621454,14.50614024465942,10.22190702206225,24.45261056486969,18.735298988235343,16.93752231410078,10.34325953970559,94.672005,-716.384033,-667.096008,29680.0,9940.0,7560.0
16.802060069757573,11.620375211501017,15.731997396885099,19.61628218030599,17.231568023158843,,13.095280353042908,,19.847559618883817,17.83097929019175,14.766402702755661,10.132056437332189,24.670083733874485,18.89981165879933,16.879175577899588,10.358330444350964,92.720001,-710.039978,-669.536011,28840.0,10080.0,7560.0
16.844560238176523,11.676755539075671,15.90734809665648,19.672959704111904,17.24290999976004,,13.098612627558289,,19.98644571960481,17.974789233291514,14.901556616163141,10.132513829248122,24.641686465579173,18.76797342898091,16.871763269669096,10.356315862737736,95.648003,-715.895996,-671.0,27300.0,10220.0,7420.0
16.832291562459915,11.669625409911047,16.02465114188703,19.74017048204866,17.290155143487457,,13.169119774795584,,19.916461640358943,17.952133345003485,14.630182886028757,10.073684947697188,24.318370021055102,18.305756735009854,16.68568849033693,10.274277131735225,99.552002,-714.919983,-671.976013,26740.0,10360.0,7280.0
16.82039477212398,11.567255341011546,15.96407197538135,19.705419658480693,17.303473059401057,,13.164088372675808,,19.61194600427612,17.822045919612624,14.185024604788923,10.00331985828748,23.753441569746798,17.553339320479473,16.30164316208312,10.214171522216999,99.064003,-713.944031,-671.0,25340.0,10080.0,7000.0
16.83771519328021,11.470555644262193,15.945612092859164,19.805889901735036,17.283372156621578,,13.16424313441393,,19.281856268110147,17.73721897769489,13.871628524987857,9.979422382089801,23.322043683418922,17.011773348740217,16.050833938190348,10.240751436968058,97.112,-713.455994,-672.463989,24080.0,10500.0,6720.0
16.848590177492646,11.265510302335471,15.888308006148025,19.744978799960826,17.30203640661704,,13.015076976627816,,19.288124054515226,17.728845103572382,13.78173120164554,10.009252958903042,23.352238227764666,17.018001101808327,16.08041741545818,10.251539408828775,100.528,-708.575989,-675.392029,22400.0,10220.0,6440.0
16.862347006434486,11.280008149025374,15.935023416697017,20.007212152746387,17.314216524780925,,12.62600120547367,,18.631948239908525,16.841637578245102,13.682233684192004,9.908783047090802,21.33852243756398,15.825971763476456,15.861744364117813,10.051529730800153,99.552002,-710.039978,-673.927979,21420.0,9100.0,6300.0
16.892708572165994,11.48666181296688,16.220144842085833,20.173676477696134,17.30766836295713,,12.376359015842153,,18.562405831285716,16.409933197080374,13.59404202090732,9.409108505551316,19.89856190941828,14.78362206609259,16.18648256322577,9.7174746265771,100.528,-711.992004,-674.903992,21000.0,8260.0,6020.0
16.889615149800793,11.494605626817293,16.198555656481705,20.05056335263704,17.165396911635327,,12.21524641488068,,18.516966428385,16.290957242223808,13.510907762223205,8.967769470304964,19.81325153619725,14.67675817436064,16.574648008122217,9.670177156929931,95.648003,-707.600037,-676.367981,19880.0,7980.0,5600.0
16.908047582744622,11.464769789622048,16.233698286396763,19.71779674215085,17.064560648654496,,11.98189364512413,,18.263508428339815,16.13507336264892,13.482078310885154,8.917467133924308,19.22657887817334,14.360707954140377,16.570696608744324,9.596867141276203,92.232002,-710.528015,-677.832031,18060.0,7420.0,5040.0
16.978981139338632,11.547203943364025,16.435565083922413,19.784419604586702,17.048664847566126,,11.858574577731614,,18.251926151162934,16.1222548946441,13.651261734879107,8.9180388034934,18.74954249892611,14.106379926268605,16.410097859448367,9.50301858916209,86.37599899999998,-716.384033,-679.296021,15120.0,5600.0,4200.0
17.035886456314238,11.602746035209446,16.37599086920719,19.765207154454387,17.102533434377072,,12.004748063475876,,18.23143756090535,16.35804696855312,14.090948060156332,8.883592264140278,18.928619197357953,14.302797785063868,16.731866683600167,9.82019788025025,90.767998,-716.872009,-682.223999,15680.0,3220.0,4060.0
16.61707955389461,11.380995939843578,16.110312909892716,19.410346021430474,16.673300847710927,,11.861221422745437,,18.257448647177867,15.912360333050216,13.803422539073217,8.878914480776904,18.948070505094467,14.310235273458527,16.8664865123292,9.791702575015874,85.400002,-716.384033,-676.367981,16520.0,3640.0,4200.0
16.12338406527789,10.99628472482929,15.170819748210986,18.584253273108352,15.594465046920932,,11.861037396453074,,17.117910810768947,14.312830923703187,13.162603827101965,8.307312918161886,17.81324068825514,13.795994540215117,16.82676351921682,9.40930501019744,88.32800299999998,-718.335999,-675.880005,16100.0,5040.0,3640.0
16.112430224669357,10.96920747545058,15.133821695308095,18.576219693112563,14.832500925208656,,11.717684782180696,,16.982989243170927,13.887292268181206,13.138024276296889,7.937166228188653,17.282396628688115,13.664037049228078,17.1517797119057,9.1119792184303,84.912003,-722.23999,-677.832031,15120.0,5600.0,3080.0
16.042909866191405,10.638173104136209,15.215356261871786,18.813839142277324,14.016036447798408,,11.295798670657543,,17.1340117780769,13.993577329236675,13.019399939682325,7.6406055541078155,17.155562785130492,13.675605943437546,17.512199953794244,8.977339015528104,84.42400399999998,-719.312012,-675.392029,13580.0,4900.0,2800.0
15.677694189163583,10.479417415955801,15.398119502439478,19.340166139572386,13.846324923968748,,10.641457581596127,,16.899063412906848,13.957235421699224,12.56483903873201,7.732057235898057,17.119991234215753,13.558079667579069,17.35710417045966,8.97053235359899,86.86399799999998,-716.872009,-673.927979,12740.0,4480.0,2380.0
14.817834043663765,10.266695508816035,15.334908728138068,19.43044229933766,13.904997442695608,,9.942316382394631,,16.452492083961744,13.733355706920536,11.95408768657228,7.820504254430671,16.700051093705174,13.144587775851114,16.840621407269342,8.759786836299007,92.232002,-715.40802,-671.0,13020.0,4200.0,2240.0
13.591995615705718,10.137328365297938,15.3528293919004,19.70497798044094,13.174781385682167,,8.796370756602352,,17.071489449721305,14.012793453758317,11.525669393835384,8.031261134075985,17.81188577840372,13.60317126859552,16.74846419429861,8.58846774412392,91.744003,-714.919983,-671.976013,13300.0,4340.0,1960.0
12.718665276882732,10.140535677757711,15.325114858506623,19.672129880363677,11.846971642303908,,7.915746877191653,,17.5448506373274,14.234637070761885,11.24236638408711,8.065823060011992,18.335564506097615,13.659083437814957,16.56744756724183,8.086726184735006,92.720001,-713.455994,-664.656006,13160.0,4480.0,2100.0
12.429021440694502,10.05276406751448,14.790207614887832,18.78139905498395,11.084439025542636,,7.874966417970124,,16.855261101661018,13.744510472437106,11.05721612633405,8.004458113862452,17.61398043950538,13.092791834996978,16.581328010668365,7.944030136392171,93.208,-712.47998,-666.119995,12460.0,4340.0,2100.0
12.3283753342268,9.888679556041089,14.14573918292282,17.898371982651064,10.76511485099449,,7.922263309166797,,15.434539774539818,12.540446379625001,10.693371050244853,7.817586083374307,16.529234694958507,12.17823573121679,16.783130994699818,7.713776057106454,93.695999,-711.992004,-662.703979,10920.0,3080.0,1960.0
12.317031538394618,9.830823883949536,14.039669751322183,17.82845285262816,10.76838880361486,,7.7734036662720305,,15.473893965741254,12.594738311871017,10.748813400115864,7.849168423353536,16.71282880086836,12.32929877282878,16.994912823613916,7.682816275279933,95.648003,-712.968018,-661.23999,10220.0,2380.0,2100.0
12.194936915674722,9.694390771486937,13.783553531371346,18.09148911943738,10.821186231787078,,7.563156349849887,,15.041855677139917,12.456962792332545,10.716312346227944,7.880073775834865,16.693733075519717,12.338001342961547,16.659725657885357,7.625150729118009,94.183998,-713.944031,-660.752014,9240.0,1540.0,1820.0
11.660465247652438,9.888826976316004,14.14294016202797,19.122581484979733,10.877137826215224,,7.258849819698128,,15.697992277557471,12.971516494491471,10.864412005710735,7.7640637943444855,17.14135999021429,12.483592025957353,16.444057852658098,7.550835012218861,95.648003,-714.432007,-657.824036,8540.0,1260.0,2100.0
10.627695830153696,9.830833315876232,13.888841877694823,19.113084892541686,10.840228931901747,,7.136314459209872,,15.43432584481435,12.92258308370977,10.814041499107901,7.675878418534304,17.061308797314314,12.19366521545221,16.310765818876845,7.5433916680262065,94.183998,-715.895996,-659.288025,7560.0,1400.0,1680.0
9.70079525606445,9.869052640848532,13.809697279273898,19.1194834699624,10.940933257023508,,7.157446629094087,,15.36341427556851,12.971895900586238,10.78800410328874,7.676861221356512,17.085789405456353,12.095853862004526,16.337788392701537,7.55037850241332,94.183998,-720.7760009999998,-666.119995,5740.0,1400.0,1820.0
9.070869243368895,9.992161744378391,13.84738372626073,19.13571218255962,11.227259962793227,,7.463790928740627,,15.303297434766641,13.121134933949788,10.622100953404283,7.907736651463726,17.108097175413093,11.823500613043118,16.49319750725727,7.746776364842054,94.672005,-723.703979,-662.703979,4900.0,1260.0,1540.0
8.845848270654974,9.989137184959514,13.93574624746525,19.480318697297225,11.196300773829487,,7.442526530021057,,15.605371084206388,13.226055303171922,10.631911296913916,7.911386092576681,17.246395152684258,11.975857981581672,16.5295230767602,7.529089502735993,94.672005,-725.656006,-661.728027,3360.0,1120.0,1260.0
8.895303863364587,10.126299508159901,14.089897516262326,19.90357485544231,11.19932896925765,,7.438247775546714,,16.508213311918098,13.737890098605966,11.040535362140334,8.034630056351002,18.527425926940484,13.218944960210846,16.8898738300053,7.922587786936915,96.136002,-727.608032,-662.703979,2800.0,840.0,1120.0
8.874133583729844,10.126358105532569,13.930545648023571,19.923851792429026,11.181919592194433,,7.455709727603508,,16.53920628677427,13.732520019073908,11.062190842207892,8.122680302331158,18.62351508275929,13.360823100287,16.878389821839765,8.090483779442222,93.695999,-731.512024,-657.824036,2800.0,1120.0,1120.0
8.82215547157138,10.126662460666964,13.609608116898286,19.92243318779296,11.084149115456587,,7.450771691789867,,16.56643738516618,13.778929867243603,11.085232496726702,8.12404654729163,18.8083167642264,13.494101001491762,16.888189041901423,8.088059128175626,93.695999,-732.4880369999998,-660.752014,3920.0,1540.0,1120.0
8.961473202022104,10.262333322469765,13.64161711001923,19.89367596266394,11.142655028294312,,7.5519869129965596,,16.637291156055177,13.89710833917669,11.22373859248826,8.213757611841551,18.976442909949554,13.687242764365813,16.987549585512387,8.214302969472227,92.232002,-732.0,-657.824036,4760.0,2520.0,840.0
9.128746123403074,10.391468565311312,14.030849439873629,19.66102440736412,11.18675350194952,,7.597214253769947,,17.0041937607852,14.135668893002284,11.146893615743938,8.41303339589595,19.347798155085663,13.89850861842,16.988105531909323,8.283252007486114,94.183998,-730.536011,-660.752014,5040.0,3080.0,700.0
9.094796846861716,10.128540395867448,13.949037999160378,19.465908668037184,10.818040870919052,,7.309471167213626,,17.688144776986995,14.456860854568687,10.9098276163724,8.654558803004006,20.28602264834206,14.64662174225094,17.042726318597435,8.4189521085657,91.256004,-727.608032,-656.359985,5320.0,3220.0,560.0
9.109623863650894,10.071891915032353,13.799959141235187,19.371800679409343,10.568638314065783,,7.183737723517958,,17.653539249672342,14.283480227979782,10.825411185862935,8.739112622607221,20.351924949308632,14.96539163878431,16.983239408527503,8.441839453384528,90.767998,-725.656006,-663.192017,5600.0,3080.0,560.0
8.872407416756213,10.269879516710468,14.151248280782784,19.534606315893633,10.697921063183395,,7.225156819609836,,17.80319321085322,14.396265608182642,10.768104999230058,8.439300242560176,20.367189961703346,14.942318145048125,16.98654252102096,8.380458001150282,92.232002,-720.288025,-665.632019,5180.0,2660.0,280.0
8.651286899724127,10.33393113394513,14.392690030851238,19.656334636201574,10.76787968740104,,7.226919639327737,,17.969170167779406,14.575124323110343,10.577916483948787,8.21041259623584,20.419132951505087,14.76201263110874,16.8999506541604,8.169032527552,91.256004,-720.7760009999998,-670.023987,4900.0,2380.0,420.0
8.477907354759576,10.30956455056304,14.646119454221804,19.660804397067754,10.821797494330022,,7.254810058044748,,18.439417716681564,15.000557024663065,10.571850675445873,8.369786771306678,21.230129307706303,15.210304298477126,17.08656743870208,8.349819119437045,94.672005,-722.23999,-669.048035,4340.0,2240.0,420.0
8.330150319019443,10.171427572229165,14.757465081748586,19.409561745940387,10.45008812293741,,7.13436254012069,,19.037398211032993,15.643129669761196,10.733569417301844,8.79519022124305,22.11365054805692,15.977239010935348,17.574242043593525,8.877299893310301,92.720001,-716.872009,-674.416016,4060.0,2100.0,420.0
8.162208803642224,9.916323498449104,14.648287405266544,19.439819086593296,9.878366241558648,,6.954627507905427,,18.989628106052752,15.786438815821759,10.686385613560022,9.06674930919565,22.088119099404754,16.15888592620039,17.722806454148785,9.04682566087937,92.720001,-712.968018,-677.832031,2940.0,2100.0,560.0
7.953021590450948,9.529475096860986,14.422951714899574,19.38919492368276,9.151175771762482,,6.632559387096765,,18.836322775993214,15.466103479889997,10.486925879597328,8.97932782779789,21.85657005437448,16.094850911182007,17.486525364313387,8.92635222522924,95.648003,-716.384033,-680.272034,1960.0,1680.0,560.0
7.873146890656291,9.334628308130855,14.24267193042754,18.867447942955824,8.947809275236427,,6.681751335668931,,18.74226982706896,15.297840923112007,10.341508217604032,9.071846077285706,21.831692021842375,16.094357175356418,17.45222284446919,9.20484657032245,93.695999,-713.455994,-679.296021,1260.0,1400.0,700.0
7.959470872360119,9.673707804288858,14.60600465972725,19.35594657914061,9.419848148899465,,6.7124072553537015,,18.8623626474858,15.424620781604721,10.538816817564502,9.06953038583094,21.91320435716053,16.153037258764446,17.558383781064613,9.16373939755263,91.256004,-713.944031,-680.272034,140.0,840.0,980.0
7.791237979550788,9.477878551473504,14.440596193508746,19.220106616485204,9.353797039638861,,6.655206737857493,,18.790659212574525,15.39840755469332,10.553193494709374,9.05067970141277,21.92866265766123,16.169214206659245,17.454225829843935,9.230293911149984,89.792,-714.432007,-684.664001,-280.0,560.0,1260.0
7.7125264192539,9.504426816216116,14.83325751498492,19.692483636631923,9.013428469982905,,6.490654552510687,,19.341911590857826,15.779523852020299,10.714763030786582,8.913786397990911,22.225309912998465,16.321862469671753,17.334843303360778,9.136897374506448,88.81600199999998,-718.824036,-689.05603,-980.0,280.0,1400.0
7.806166234642598,9.719213706157882,15.05646159208661,20.006544108474827,9.019883906382788,,6.470042851179056,,19.890588424195016,16.260042538419043,10.945153953325613,8.947602698852313,22.914469021770813,16.69900336670137,17.95050802566738,9.208791417741633,89.792,-719.799988,-691.007996,-980.0,0.0,1540.0
7.994669091956971,9.919174816120192,15.105510619261098,20.073619376968345,8.988197375880555,,6.705805182432153,,19.951180226215666,16.35224290055105,10.997091080355034,9.051212760486928,23.04709506990324,16.74391772473667,18.50216693729305,9.399471867110943,93.208,-720.7760009999998,-691.496033,-840.0,280.0,1680.0
8.21496077140329,10.050427737383478,15.164845391897156,20.17111500180229,9.05680467499851,,6.864548362799755,,20.083572749870196,16.552841246875335,11.006122507082711,9.220096010508213,23.31706766697267,16.74338635536966,18.933532953738048,9.506300352090104,88.32800299999998,-722.23999,-695.888,-560.0,700.0,1960.0
8.289310957696856,10.05197722647215,15.195942563469355,20.105719549858968,9.062367767589459,,6.888801179094001,,20.27745161875174,16.85935342364663,10.977602213046257,9.355803982850919,23.920333103575555,16.970846167976035,19.266193055955874,9.614227448925103,93.208,-723.703979,-695.888,-140.0,700.0,2240.0
8.10802360091521,10.054365534154053,15.015717180742772,19.92448293162233,9.169687665640906,,6.950542215381037,,20.21925028221898,16.62909926197366,10.699114905701082,9.271351104450966,23.616667970407104,16.629152531219813,19.2868990956942,9.519998420569848,93.695999,-723.703979,-696.376038,980.0,980.0,2660.0
8.152361142353401,10.418309503337976,15.10878902448438,20.289649031148297,9.279438255429984,,6.934962266498822,,20.942125768969234,16.949738761465095,11.198182815301795,9.419608036175694,24.03727395135759,16.91671230922049,19.886805787449422,9.6547355280628,94.672005,-728.583984,-691.007996,1960.0,1260.0,2660.0
8.312300777850739,10.561012504272814,15.07062834116018,20.64442065539236,9.306952911776579,,6.766729819995284,,21.219759636015198,17.068582410265567,11.431986603290627,9.478027198869109,24.28654466270667,17.02496377348607,20.40747791704311,9.621837015239315,95.648003,-731.023987,-692.471985,3080.0,1260.0,3080.0
8.442211174866848,10.555151264831343,15.055832772826273,20.6264931076766,9.357919615062809,,6.901839950494468,,21.352982203985263,17.140541420818646,11.452210602303222,9.519294592501966,24.687004029633155,17.09513208569834,20.876435067653663,9.549411553428875,92.720001,-730.536011,-692.471985,4620.0,1960.0,3360.0
8.457233595686274,10.567242840985745,15.038717461014917,20.476462150117563,9.413448213223433,,7.0500824848381045,,21.3280853918301,17.140949786959116,11.526453613856702,9.522740216477082,24.757457789748013,17.082916249795506,20.98281272079932,9.495329122554681,97.112,-732.4880369999998,-688.567993,5460.0,2240.0,3500.0
8.468127553057672,10.655346230732457,15.142484536377896,20.590474601733288,9.399910194628228,,7.233709890043477,,21.550974875362222,17.331064519456334,11.973755521794452,9.516983574865684,24.98009736656003,17.41106246651871,21.030906716933128,9.610773407334467,98.576004,-732.0,-691.007996,7000.0,2240.0,3920.0
8.771675640244712,10.619436298054895,15.099549500777428,20.342407906770426,9.54932169693551,,7.760965271089998,,21.519806798746473,17.320583917434575,12.048855616468407,9.519611043139857,25.003537755196795,17.4280872172478,20.9071926977359,9.548286055522079,98.576004,-729.0720209999998,-691.007996,7700.0,2240.0,3920.0
9.03957954901819,10.41008577469413,14.906151267045646,20.104760846150345,9.711930400109374,,7.909397859627513,,21.26840858897267,17.143642582586025,11.959911477749456,9.852897059437703,24.891391602295776,17.48553583770449,20.277731566311942,9.555089911651956,99.064003,-732.9760129999999,-690.52002,8960.0,2380.0,3920.0
9.243095896722505,10.40802901913608,14.988203428392772,20.130462947368446,9.83342835938859,,7.959666062797515,,21.376861987010283,17.256188630653075,11.980239583148915,10.057593032949264,25.00709763652698,17.7318794343403,19.91252498523466,9.66811092508628,98.576004,-732.4880369999998,-692.960022,10500.0,1820.0,3920.0
9.202011875156925,10.844327644553895,15.240369063777766,20.46898339548466,9.9731136295313,,8.146797579107195,,21.401019551092407,17.263336863405677,12.052156664435357,10.033186948826588,25.00789803967001,17.742509969302596,19.827788014440703,9.689267471081076,101.992004,-732.0,-694.424011,11620.0,1820.0,3920.0
9.03107237678078,11.205378383599774,15.533762497527196,20.90484793647163,10.038925780010517,,8.386404545993381,,21.520435767485903,17.162199439757035,11.833297282273747,10.051704365722074,24.932309558346205,17.608536400651598,19.805453982325403,9.582637009803479,102.480003,-733.952026,-692.471985,12740.0,1960.0,3920.0
8.86956245986854,11.10186020886551,15.457009504548685,20.90506171444025,10.038110734332657,,8.135249093084118,,21.526938502689454,16.93472455259855,11.304462478332372,10.06251651122211,24.802993429611877,17.441124208573882,19.53952679134062,9.336781755213748,101.015999,-732.9760129999999,-690.52002,13440.0,840.0,3640.0
8.9033696530857,11.101181881206944,15.389077300884946,20.710695211119393,10.108965317039102,,8.169527632724034,,21.29008110570341,16.917937898899883,11.295123818339956,9.979726115973946,24.73322395412435,17.429153242337463,19.441860620943064,9.329559419011007,99.552002,-731.512024,-686.616028,14000.0,280.0,3500.0
8.982254915788367,11.127887830555467,15.429562598777013,20.843882160093322,10.336840057324327,,8.14392316743947,,21.239120613447756,16.918057638017476,11.312214186557643,9.974033105306749,24.736035682636448,17.437388887476015,19.280845820491038,9.383025109634463,98.087997,-732.4880369999998,-687.59198,14420.0,-420.0,3220.0
9.3476281542588,11.122095961486512,15.433496935779463,20.922130017089273,10.51645642940049,,8.008414066283635,,21.377862627144033,17.023702499670936,11.402791867188188,10.114082986953864,25.06238914670977,17.831280081502996,19.348683364585835,9.733862348585289,99.064003,-733.4639889999999,-687.104004,14420.0,-560.0,2940.0
9.64496824290823,11.081518659211506,15.333721006689784,20.51195494418322,10.582238266772327,,7.979740715300146,,21.426693731465736,17.062849704475223,11.484488507819735,10.180773472456956,25.231710096700645,18.15940302083278,19.450840711542906,9.959279862386774,96.136002,-737.367981,-690.031982,14140.0,-560.0,2380.0
9.515399991583138,10.876505126037937,15.0908343304882,19.992126432189117,10.477302132175533,,7.996980522273759,,21.384307686899373,17.043799793861968,11.52160340013781,10.13869264536174,25.533109218292147,18.266535556322264,19.380445069965702,10.070185391876999,98.576004,-734.927979,-694.424011,13580.0,-420.0,1960.0
9.47666427480428,10.830028474428923,15.049491855731112,19.90677080297789,10.608762745282426,,8.138603886617643,,21.38603824144292,17.071152007663738,11.65292922284491,10.070671926805584,25.699210074407656,18.3661450155504,19.377617151706858,10.170944684207752,97.112,-735.903992,-692.471985,12740.0,-420.0,1680.0
9.434614234348246,10.63442216955922,14.708719176048287,19.470588267532992,10.835152105945669,,8.164216910622235,,20.77249269881326,16.73018120077514,11.681655849993014,9.82012618563434,24.884980395786698,17.935878241352107,19.18685380581966,10.035347002684121,97.112,-734.927979,-693.447998,12460.0,-1260.0,1260.0
9.454295237078837,10.471987442961565,14.425577351685236,19.19858167613382,11.176498097518083,,8.292027292724661,,20.243724775451188,16.408306241846223,11.682938778536814,9.687868535432834,24.272524250993655,17.64814184782417,19.199954639546416,9.97006287046159,96.136002,-736.3920289999999,-693.447998,12740.0,-1680.0,1120.0
9.446663996642217,10.535385037548746,14.479571386704677,19.272016624022367,11.182783394648297,,8.297864319783308,,20.287994044702973,16.426411125092827,11.715728136838122,9.686886056159638,24.274048177736418,17.647298350799584,19.245676360340795,9.972393259622427,96.136002,-734.440002,-693.447998,14280.0,-840.0,1120.0
9.532587914622683,10.728251914618689,14.588990502001858,19.315311330731845,11.262858903435514,,8.728295470529257,,20.271955922404484,16.437614649066305,11.800160247698487,9.765747387475448,24.033691773771046,17.50310819354799,19.160940032126515,9.954304010811839,90.279999,-738.3439939999998,-692.960022,15960.0,140.0,1260.0
9.53190005324034,10.721190214458677,14.589487105971788,19.311408351518345,11.295271422045975,,8.920526529159735,,20.309187011949447,16.4528510248496,11.809505860678934,9.741821970610836,23.887163135775392,17.477878017977044,18.90793661864665,10.081412209580748,93.695999,-733.952026,-692.471985,17080.0,980.0,1820.0
9.399152867038346,10.62496252326331,14.466111554264794,18.980614583056308,11.304387772744619,,8.952424421631427,,20.128813780560098,16.291238684981742,11.799227554733832,9.7103312256442,23.670155001640538,17.300364749379526,18.687041950413676,10.133681899814954,94.183998,-732.4880369999998,-693.447998,18900.0,1960.0,1960.0
9.242436815453015,10.28087370290209,13.769873850396078,17.914820584159212,11.227137460664544,,8.96852200478283,,19.290335113574397,15.674590481634368,11.675244113235076,9.70350337454016,23.20130891729714,16.95398703108495,18.46086142290351,10.119791732353102,96.624001,-732.0,-686.616028,20020.0,3640.0,2240.0
9.277134458147565,10.28701830558147,13.76464071730875,18.113933499283217,11.287434258641522,,9.132963249485595,,19.29647637375017,15.69005985813563,11.671456089173207,9.698973119485656,23.22168977063974,17.15308435213632,18.439003987054456,10.223489000130977,91.744003,-736.3920289999999,-688.080017,21280.0,5320.0,2800.0
9.291737221592774,10.226286041151356,13.727531667513196,18.168427677661185,11.125704635840632,,9.11233749775308,,19.299231949879076,15.647170725912005,11.66732113916651,9.70190109895984,23.217547942928057,17.191771345165684,18.452629653546282,10.21709497110958,89.304001,-729.5599979999998,-685.151978,21280.0,7140.0,3360.0
9.065629985058168,9.95719488485545,13.515021421146107,18.130976398639255,10.678952999221657,,8.716388648055638,,19.290218394070834,15.549669213723732,11.598405102154219,9.541006930410934,23.355597770222605,17.17122858543206,18.60465710989916,10.145887263453371,91.256004,-731.512024,-683.200012,20440.0,7700.0,3640.0
9.072855851531576,9.992857323119837,13.448054832336448,17.920818765144183,10.921599519039038,,8.715687756486846,,19.069251044715184,15.500813475876754,11.444822879930506,9.537465311175103,23.42985577384882,17.020749675800374,18.771623220057005,10.244344143365975,90.767998,-726.143982,-680.272034,19740.0,8260.0,4060.0
9.038473080492341,9.868809324437255,13.153834802388337,17.452313195483963,11.1025264799186,,8.800096070572776,,18.38740985843382,15.091119408637404,11.041909009278731,9.408802602360716,22.623620614514635,16.16954796518208,18.44248041960297,9.922328559234504,86.86399799999998,-726.143982,-678.807983,18900.0,8540.0,3920.0
9.057560981186985,9.869786020500007,13.148062539345755,17.429391231212584,11.098546629480088,,8.785750502127847,,18.351566122831606,15.075374617429922,11.020511468636727,9.334343549117019,22.533551418365086,16.057630846894522,18.422687316040818,9.776514006817864,89.792,-729.0720209999998,-676.856018,18480.0,8820.0,4060.0
9.170297124129249,9.875222774346927,13.1303996776416,17.451882576193437,11.095739480543633,,8.821355615228256,,18.293635378139737,15.012245276255745,10.981408565112817,9.433869453447025,22.40824160603871,15.998470905300257,18.639576491472315,9.957970024585022,90.279999,-732.4880369999998,-674.903992,18200.0,8680.0,4340.0
9.024533281958085,9.756667317782398,13.05355141873543,17.451875940663733,11.127904408381221,,8.735486271907929,,18.27623951892856,14.919839431781591,10.848250540264095,9.339823015692474,22.542086250038597,15.94085139306907,18.896204764323716,10.039879849969472,89.304001,-731.023987,-668.559998,18200.0,9100.0,4340.0
8.837640197332735,9.404027805748795,12.445980891385528,17.04648643157917,11.038853760686079,,8.637182459754303,,17.877325172018548,14.59859623587639,10.657864669752064,9.140341775494441,22.61556401810266,15.859769278160622,19.2064490666964,10.065756644565464,91.744003,-724.1920169999999,-668.559998,17220.0,9520.0,4480.0
8.820565622807601,9.309348857516195,12.074552506093926,16.692886449161186,11.17556152879132,,8.684719703370016,,17.15575909287255,14.115985261722727,10.47939993842795,8.878195341543845,22.241476658241247,15.564391864527991,19.479386685289686,9.988463378883813,93.695999,-728.096008,-668.072021,16100.0,10220.0,4340.0
8.868399437291496,9.414000929116998,12.160326758454687,16.788258495771355,11.504963715142589,,8.977802682543066,,17.103807777494865,14.064000893849705,10.415200690338182,8.805273609644951,22.19135360144172,15.34346650818359,19.474631055366427,9.877219405784226,95.160004,-729.0720209999998,-673.927979,13440.0,10360.0,4060.0
8.77961920110043,9.331670271295817,11.938309627815938,16.874599812206135,11.460070173784402,,8.904359286721984,,17.123954477276804,14.042938883902305,10.480007361390872,8.893662808197833,22.20030970981231,15.363118479361255,19.471279787552405,9.912420405917302,101.503998,-727.119995,-671.488037,12180.0,9380.0,4200.0
8.686422390042008,9.210007502667901,11.650236926515458,16.70410550878028,11.431671964203721,,8.888314036806692,,16.861100576613655,13.830551319837232,10.525403229066338,9.343070932466079,21.90906342881815,15.247056982204281,19.416750304204545,9.902066735389635,108.335999,-728.583984,-680.76001,12740.0,8120.0,4340.0
8.730369895363506,9.382269908631356,11.709233015072243,16.873428565750537,11.333778514938814,,8.8791786572985,,16.335527882151574,13.408718950349408,10.345084305139679,9.561561499982076,20.828882655413448,14.571112922424753,19.024349115272344,9.655853982528384,104.919998,-727.119995,-680.272034,14560.0,7700.0,4620.0
8.629929763540483,9.257440634706919,11.431758966651778,16.96012837989662,11.330559821830919,,8.880418504685933,,15.45513487987156,12.497530290280887,10.021645612239029,9.069882356736196,19.637000666918247,13.878449918341714,18.420874901880754,9.095462007415291,104.919998,-732.0,-675.880005,15540.0,7840.0,5320.0
8.870379310810534,9.689619395715145,11.900327922763177,17.57646817369344,11.547236015787739,,8.909605657262956,,15.496637689585565,12.249410786646227,9.945454498724875,9.056093872475078,19.395843766566873,13.734054783195939,18.08194959461939,8.835817929232233,109.800003,-729.5599979999998,-678.807983,17500.0,8260.0,5740.0
9.351584748974165,10.087061798358725,12.12848690353425,17.314562403727933,11.58828998968378,,8.916775247053193,,15.422533492954935,12.366205964498723,9.934516166232378,9.364595616097239,19.38529730898392,13.767257899586966,18.095070717630055,8.818656484308098,108.823997,-731.023987,-677.832031,18760.0,7840.0,6300.0
9.712889907488483,10.269127553431327,12.297330604567515,17.322625591773445,11.648824287199712,,8.822184312318905,,15.567889528312426,12.64157626529287,10.130350960802755,9.593613954989488,19.539227810491106,14.279493302764473,18.571385063927053,9.395576106716423,107.848,-731.023987,-680.272034,21140.0,8120.0,6860.0
9.72668995409905,10.236369945788317,12.113482780374202,17.02365324993165,12.41699031115225,,9.14247915192776,,15.454804978956805,12.440502342234801,9.875125283691176,9.57824858054455,19.97525887767619,14.848322004362135,18.971415092719386,10.518954057263674,106.872002,-729.0720209999998,-674.903992,22540.0,8540.0,7420.0
10.031435579259027,10.780973818794221,12.732427737708678,17.607522864567752,12.952393025320667,,9.162854079498318,,15.452322436227254,12.555227468432339,9.96435390456433,9.609596227265323,20.387384864439593,14.972930238105828,19.014217030385833,10.797484182392976,105.408005,-729.0720209999998,-680.76001,23240.0,9240.0,7560.0
10.241439504056526,11.19314923351428,13.180053603871102,17.983613916805613,13.15505612756988,,9.133161868858833,,15.047566520597467,12.616099649260015,10.313712865112764,9.633433871561603,20.044427124379187,14.831263100335374,18.8630523852124,10.812276356615927,104.431999,-730.536011,-682.223999,23100.0,9380.0,7700.0
10.24685586710133,11.26621411349429,13.212502298095439,17.851685865275083,13.135221524180205,,9.13723614668633,,14.518560783820218,12.388839644267907,10.520253456420836,9.618351245151409,19.25214050925356,14.478691107087423,18.282772144984726,10.865916088719656,104.431999,-730.048035,-678.320007,23100.0,8260.0,7700.0
10.08648074962415,11.098047968853528,13.260682122520782,17.982539991323762,13.189440727940866,,8.960244170172633,,14.559672999583253,12.246848223331018,10.45881446050211,9.354311172919717,19.19502439087527,14.4033833019115,17.649085765895794,10.745456656107146,102.480003,-729.5599979999998,-682.223999,23800.0,7140.0,7560.0
9.913559675970317,10.977453344178024,13.158956489700055,17.878647950133324,13.129952706797969,,8.88202896290113,,14.373997588763118,11.974862506908611,10.468113861488325,9.130145138281463,18.849635157557096,14.40295100538578,17.214701325079805,10.658432943004124,101.503998,-734.927979,-683.687988,24920.0,6160.0,7560.0
9.893695125171288,10.97903513994358,13.119185560537554,17.941009600936713,13.097658477386293,,8.863246549673683,,14.09888851207975,11.573432479723389,10.614377004333791,9.063394766381563,18.061263655825723,14.100079570039439,16.97031429170524,10.577852478963544,100.040001,-738.3439939999998,-682.712036,25900.0,6860.0,7560.0
9.936614971801342,10.838425514745916,13.04398307816788,17.789662077487453,12.945160042132061,,8.784567668194041,,14.052195706483513,11.558852542295096,10.478876001240671,9.059914092815223,18.42650999428045,14.470546640928301,16.948031865766946,10.591467709703602,98.576004,-739.320007,-686.127991,26600.0,7000.0,7420.0
9.84641649166113,10.51673636063959,12.688833932867457,16.878853536555123,12.884787066692091,,8.74902751005728,,12.780022000144282,10.848094753782163,9.692727848876737,8.934361392935834,18.366793943446734,14.637351922583264,16.31398600764771,10.884549085448969,97.112,-735.903992,-683.687988,27300.0,7000.0,7000.0
9.707899626273413,10.77091978246485,13.205159543508765,16.911705791097564,13.049894174318494,,8.78887013126364,,12.576973432749405,10.916464800835016,9.391250200573639,8.928677041442626,18.029434166986903,14.507225105107931,15.617767446860777,10.842485216572816,94.672005,-735.903992,-680.272034,27580.0,6020.0,6580.0
9.616133705742444,10.80963313320646,13.361665136340456,17.005606396731064,13.001226866102693,,8.682338029756295,,12.851838969569066,11.202282662489294,9.404040712219736,8.961534396732135,17.94331576483081,14.636028448864218,14.997946122341267,10.817461664796362,93.695999,-731.023987,-678.807983,27720.0,5040.0,6160.0
9.620939608747634,10.8031314440953,13.331400857224482,17.00701470772237,12.908765439855193,,8.66103363262849,,13.236332306249972,11.433740502928414,9.314063312137424,9.040168593273652,18.545282500539734,15.117650883419607,14.83009483785732,10.928285027745062,88.81600199999998,-735.416016,-677.832031,27440.0,4620.0,5600.0
9.675657528743194,11.076935265777497,13.88234892996797,17.666475589808382,12.888720004807887,,8.688442297094065,,13.969512667184928,11.813440534339028,9.093842340009836,9.020940181087937,18.831469465459666,15.013535027339158,15.297378434253408,10.844937646114849,88.32800299999998,-735.416016,-675.392029,26740.0,3500.0,4900.0
9.440710437859014,11.2074922053498,14.175936868895736,17.995626685750448,12.761702172055196,,8.203808755842228,,14.846228274356257,12.43419845980418,9.323936859640968,8.978087464175957,19.74331052315708,15.641794136276115,16.228563244530363,11.176360079238698,85.888,-739.807983,-675.880005,26040.0,3220.0,3920.0
9.135143296179294,11.178658430712119,14.073759810485107,17.928376933174373,12.626709222747657,,7.96835449016902,,14.714812542018665,12.270674275855141,9.332676812430417,8.7781730320234,19.670912661639598,15.4648243763289,16.23555479101681,11.145157445788403,86.86399799999998,-741.7600099999999,-676.856018,25340.0,3780.0,3220.0
8.933615199711495,11.263942788541916,14.056708555222357,18.021557264940263,12.577436926544967,,8.144358160733892,,14.846681804770162,12.354922999394972,9.492131364169108,8.571275318270981,19.671530625610945,15.23277828774039,16.237643579220208,11.053931701619478,85.888,-738.832031,-674.903992,24360.0,3780.0,2100.0
8.900510088159301,10.949430495676468,13.872500605927177,17.7490158850285,12.46315601582108,,8.070553258089937,,15.206664897457616,12.622956957107922,9.441511607074595,8.576610283007218,19.8603464606259,15.269554243737353,16.223029025762887,11.043269689453755,89.304001,-730.536011,-674.416016,23800.0,3220.0,1680.0
8.85390347401285,10.504816454256863,13.34428598925442,17.174544627420765,12.345349098512823,,7.780985640852489,,15.027644356914081,12.51334818709155,9.249830458590708,8.551853865405638,19.97112631446937,15.372128062150743,16.311021568107325,11.050568499347742,85.888,-726.143982,-674.903992,23380.0,1960.0,980.0
8.858140079171378,10.523898994430034,13.357599708393643,17.274504103036556,12.263008737134154,,7.792128490272015,,15.196047525591709,12.681302740509784,9.308523687485666,8.654197092560253,20.114904322625165,15.399630362132259,16.302563607112976,10.9948453442355,90.767998,-725.656006,-660.752014,23800.0,1680.0,560.0
8.860361370880641,10.620750875483282,13.547098694755759,17.243150077829384,12.333837304662207,,7.841903901451726,,15.192934412744084,12.680961707429459,9.26773111939808,8.576815783765273,20.125233305062956,15.403011644439903,16.27417847297674,11.000134208230529,90.279999,-732.0,-658.799988,22120.0,2800.0,140.0
8.755121984234826,10.612203226773076,13.603270913813505,17.219612990623553,12.120912295694463,,7.863304772828295,,15.192778567142293,12.69449840723674,9.240650920321855,8.611841792784222,20.179980938983867,15.409174800206522,16.193774387450617,11.001789649320507,90.767998,-731.512024,-653.432007,19320.0,2520.0,-840.0
8.36741543081636,10.609046690686696,13.588902796069476,17.235140662458917,12.025250500526765,,8.145364553527793,,15.100786176644872,12.830799641341368,9.240237108096114,8.73154043614482,19.808743724369315,14.943428343574455,15.686030408210994,10.73953122155512,90.279999,-731.023987,-649.039978,17080.0,980.0,-1680.0
7.933482422004006,10.649565072969038,13.618146984460003,17.23550721874384,12.010584322568464,,8.224800575595626,,14.90944032923529,12.789348633010846,9.146095693645403,8.784274547137251,19.564194094130105,14.504051903721795,15.151710773072152,10.526665666001179,90.279999,-730.536011,-649.039978,14420.0,-1400.0,-2240.0
7.874202891770025,10.694643097317144,13.687339228692558,17.193819523261734,12.135908323563331,,8.314849113064632,,14.879488644258771,12.729991458895746,9.04300449186851,8.768629005545304,19.281508815611495,14.53155763179052,15.14763321290874,10.483422380828815,87.84000399999998,-732.9760129999999,-642.695984,12320.0,-2520.0,-2660.0
7.9329656154191825,10.847095637067637,13.771400333017429,17.081846318959133,11.98054959593189,,8.169926178421784,,15.285416435729536,13.193775028356958,9.31196924516407,8.888577432230646,19.464792665442072,14.731162554351107,15.254657945735431,10.57894669279667,87.35199699999998,-740.783997,-643.184021,9940.0,-2940.0,-3080.0
7.968716743380728,10.872120155845092,13.77141261374917,16.997246714094306,11.670060344769437,,8.051401846403355,,15.280393523038267,13.162350182444415,9.268039239362025,8.940494380895927,19.554259492312838,14.714285103531386,15.148877767145432,10.517027832407896,84.42400399999998,-732.0,-639.768005,7840.0,-2380.0,-3640.0
7.931131221973377,10.883294827739002,13.776464026800568,17.03653329266572,11.30154658086908,,7.9187583449215415,,15.274041599177432,13.165384391571001,9.239854198797927,8.929888209621629,19.673218163063268,14.86473977602078,15.106064948733465,10.531067343015566,80.520004,-737.367981,-641.231995,5180.0,-2240.0,-4480.0
7.962687293362795,10.818086209741507,13.73913028454473,16.953712735872497,11.299600226638713,,7.976763549385865,,15.247039233564557,13.164816797694414,9.187594582139244,8.933078434437112,19.72898074313409,15.011365365398545,15.011328278992151,10.5431707760422,81.008003,-732.9760129999999,-633.911987,1820.0,-3360.0,-5460.0
7.84684015238392,10.74827812374328,13.837787111349451,16.914872464619645,11.319226956908286,,7.551976611805382,,15.145784184472198,13.070593119904734,9.036258867305209,8.853807382946531,19.70467449186522,15.007544745850916,14.868149984764525,10.544711057596514,86.37599899999998,-735.416016,-630.496033,-560.0,-4340.0,-6020.0
7.899479300368358,10.89439243743513,14.083740969199575,16.9759142847254,11.495812848462617,,7.612332940035513,,15.072774336934833,13.01760650836979,8.980126612553914,8.848553240428116,19.918581518588276,15.041237915852555,15.042355365366221,10.517622571133295,84.912003,-738.3439939999998,-628.544006,-2380.0,-5040.0,-6580.0
7.901193615848248,10.934663600039157,14.118211606523559,16.89544212029617,11.444195366355313,,7.649833224677194,,15.122983833366566,13.011450536687812,8.822835918787375,8.937899177159439,19.919135139420682,15.0127760588395,15.001061336260397,10.461488557547158,85.888,-734.440002,-623.664001,-4760.0,-5040.0,-7000.0
7.9081432017001285,10.936835830599422,14.083026174616776,16.98463977469361,11.51355649891764,,7.641588356425011,,15.102474582975052,13.022834192922947,8.662956127357111,8.981445440182743,20.004937486618097,15.015999364669305,14.95072983650651,10.464739090869035,84.42400399999998,-729.0720209999998,-610.0,-6860.0,-5180.0,-7140.0
7.864898519066589,10.983195322264937,14.054319710657943,16.77531535648602,11.423727495909446,,7.45073951878096,,15.078327987500375,12.983798782339084,8.696172463685519,8.979220910183065,20.04477685770087,15.019135827260941,15.198150039650026,10.697288346170751,82.47199999999998,-733.4639889999999,-607.072021,-10920.0,-6020.0,-7700.0
7.834894635473424,11.011705377362917,14.019804721996719,16.706114251629284,11.430034498935115,,7.641788642511886,,15.121300090715806,13.085508128592952,8.761704679558829,8.977340968234914,20.505987178260636,15.430270509754594,15.46445097760243,10.917834040471908,83.93600499999998,-734.927979,-610.0,-14140.0,-5880.0,-8120.0
7.836253415038546,11.031915235985721,14.285413061985343,16.88273219816298,11.435138418011483,,7.81749444808494,,15.082530111923884,13.051131460186507,8.80173341486167,8.909702650235003,20.31769548331436,15.422162573778442,15.119379754911638,10.744249599099135,85.400002,-736.3920289999999,-613.416016,-17640.0,-5740.0,-8260.0
7.838664807404324,11.08891486553969,14.659405751175523,17.178886792361407,11.347119231829945,,7.712624107874979,,15.019965032111775,13.024333194165145,8.836176010187739,8.909352826489078,20.326998768558862,15.644023340860935,15.091817742695175,10.932694944793177,89.304001,-736.880005,-625.127991,-20580.0,-6440.0,-8820.0
7.839558477811037,11.126620109356162,14.769590822916767,17.208525319605993,11.340263188857858,,7.9067116405179325,,14.988467852860612,13.101373704440718,9.010628791326269,8.957496150098805,20.694939935377157,15.990309655804042,15.317296682565678,11.10195923790654,90.767998,-737.367981,-636.35199,-21280.0,-6580.0,-8680.0
7.828454244586812,11.17587890443215,14.829469377112076,17.244526639313857,11.338826844520737,,8.248869825585777,,15.0403123250472,13.102842710459488,9.025372250025443,9.01391632234995,20.696482302427075,15.98517851229133,15.281104241179154,11.114320137534044,86.86399799999998,-735.903992,-628.05603,-20720.0,-6440.0,-8400.0
7.73664152689996,11.263026852574319,14.90962633021526,17.25509773425742,11.444278020442454,,8.199726666544448,,15.347712616345067,13.269778625207664,9.126050865264286,8.94787348493309,20.798203845291233,16.007423357107207,15.116019349875248,10.952127575838778,96.136002,-743.712036,-655.384033,-21980.0,-7560.0,-8540.0
7.826001039569505,11.279039799823224,14.91620864195381,17.83602926767076,11.403238726587446,,8.381668414078895,,15.287764424658295,13.267382900321675,9.233037945834663,9.020370599350121,20.49763932519922,15.898288107709998,14.864964571370209,10.798615923363345,98.087997,-736.3920289999999,-654.895996,-19180.0,-5880.0,-8260.0
7.893387146669823,11.278874978806936,15.106223917778749,18.618367419622153,11.342556089078206,,8.855673866493689,,15.16380012022304,13.175285798091586,9.233580763812581,9.018477832525312,19.888265451791796,15.717642814455536,14.352360111062849,10.669468050760017,101.015999,-741.2720339999998,-661.728027,-18340.0,-5460.0,-7980.0
7.9268119228797636,11.48407452116851,15.662872221893966,19.608468366104926,11.24663457383828,,8.888073887909242,,15.233950376648092,13.276156722972777,9.609861746493689,8.999428824854947,19.243506180121198,15.39261230095777,13.661600977787367,10.516041572475565,102.968002,-734.927979,-673.440002,-17080.0,-5600.0,-7980.0
8.260579884138242,11.795996043537198,15.969001193272401,20.19979566074724,11.210793878059992,,8.894856002517754,,15.376171551749932,13.536884153797324,10.454549909413078,9.21961253615572,19.080582522697934,15.434887817761988,14.020266202660192,10.732288397076115,102.968002,-733.4639889999999,-670.512024,-14840.0,-4760.0,-7560.0
8.84237047715792,12.085889858309162,15.99499494408922,20.333312923646087,11.782835231438884,,10.031042796706672,,15.214219894086453,13.499716308210331,10.907719061326828,9.548738225209108,19.046717541626787,15.47382661160457,14.829915667671205,11.199548735824735,104.919998,-732.9760129999999,-669.048035,-13720.0,-4200.0,-7140.0
9.10202299896702,12.15902291925233,15.993557804148786,20.33593995415809,11.774844596884128,,10.319288901073378,,15.219217611316884,13.586116149898828,11.082864827411914,9.311284703380995,19.161609269947494,15.561667247965666,15.750564877321576,11.580472775088516,108.335999,-727.608032,-676.856018,-13580.0,-4760.0,-6440.0
9.003822832729513,11.927162011740032,15.730413995698571,20.1340653772769,11.791617592936323,,10.318169674272879,,15.001510862384842,13.475013511905722,11.14732502089902,8.877743380732266,19.519915652782018,15.757205474106108,16.441686778669915,11.747733921264064,107.848,-727.119995,-674.416016,-12460.0,-5180.0,-5740.0
9.03831815789499,12.05671498099342,15.833059426673856,20.168006306568063,11.866890929763889,,10.352073202325952,,15.105455179022252,13.571584976648113,11.229987859665888,8.932995579580146,19.550589332855786,15.617160530440731,16.324306130142904,11.847846403415032,102.480003,-725.16803,-678.320007,-12460.0,-5880.0,-5600.0
8.886105553757615,11.88696347057612,15.519022379083314,19.430948296508355,11.734671172089225,,10.482838639641036,,15.112291999538739,13.648266617374494,11.438673107544606,8.80179406331802,19.830805939963405,15.712669003483546,16.490326817496058,12.110818391413488,97.599998,-722.728027,-655.872009,-12180.0,-7280.0,-5600.0
8.418223344605288,11.737716970814796,15.310003809190459,19.430362590635966,11.801243934467745,,10.567332141099776,,15.149742344124938,13.608105861621162,11.561885785663126,8.616092789456518,19.87934142189388,15.687351276509702,16.770446572744234,12.17929235913599,111.751999,-737.8560179999998,-704.671997,-13860.0,-8820.0,-5880.0
8.352158558512404,12.265882660318415,15.504819634384383,20.28297131335315,12.095069819237604,,10.849189382537691,,15.558343172396304,13.840912157642284,11.845386427754342,9.15019343160761,20.078700198583324,15.431628839910392,17.381335275233077,12.122238689500884,95.648003,-727.608032,-673.927979,-10920.0,-8260.0,-5460.0
8.345455437412738,12.05601378246451,15.347835948299089,20.069621806032607,10.976876079233717,,10.696515217680671,,15.675712843846142,13.864227332651899,11.842577684277275,9.614091391899432,19.751507968767935,14.861402387304507,17.11744819596537,11.49169403171425,103.944,-734.440002,-681.736023,-11200.0,-9100.0,-5600.0
7.98760908264611,11.771455190276379,15.365243179872937,19.70738968659364,10.16380232743736,,10.798153808898697,,16.436018949410716,14.175639910170586,12.163049647704758,9.608967914160589,19.702342704527144,14.904883987241984,17.04869089379064,11.238129010571797,102.968002,-725.656006,-684.664001,-11060.0,-9520.0,-5600.0
7.650234058480621,11.347050412293749,14.641834384246115,18.87391477972063,9.853652727476208,,10.890859434220525,,16.141422211467354,13.660150009883434,11.838617737014806,9.58830579809096,19.96609665252541,14.991858868404133,17.048193942216017,11.223203992725916,98.087997,-726.143982,-674.416016,-10360.0,-9800.0,-5460.0
7.546044188742337,11.094812875080189,14.455329114649171,19.022242729529587,9.833704128652611,,10.953755242028965,,16.317376672592527,13.433609712181179,11.450568658130928,9.56265599904338,20.593736691527145,15.228739350087077,16.954190220500546,11.206962634582796,100.040001,-726.632019,-681.736023,-11200.0,-9660.0,-5460.0
7.494256564474169,11.109096181419854,14.680864665633848,19.30721476585046,9.724439842421102,,11.116620251023612,,16.582864794845857,13.669792124615064,11.767075984194047,9.557983394825353,20.64224698152472,15.455617004924418,16.952331598338493,11.172589632448089,94.672005,-725.656006,-680.76001,-10780.0,-9380.0,-5600.0
7.450396012576452,11.109741147201104,14.732390061985019,19.366339547648703,9.793825392290657,,11.303261090356715,,16.60710380400021,13.69250720172537,11.990408557394858,9.573418156054016,20.626234598959254,15.449205674666176,16.921255971196057,11.167266743699322,97.599998,-729.5599979999998,-683.687988,-11060.0,-9380.0,-5880.0
7.362693691114035,11.106864032881248,14.749041127756854,19.317024369513554,9.905713948801692,,11.50819471263036,,16.706338151645507,13.808251765173413,12.465895733403567,9.494906130378103,20.740600958648788,15.788001244934156,16.98801075446268,11.31078643370225,98.087997,-731.512024,-691.007996,-11200.0,-9660.0,-6020.0
7.4285696131903105,11.171100384392481,14.726623816333696,19.158863732153172,9.891020626038792,,11.499083816180496,,16.541726143720375,13.892315018489054,13.347070627166715,9.517429517021409,20.413048647149584,15.657116111557455,17.334386306359878,11.47337502055657,100.528,-735.416016,-706.135986,-9940.0,-8260.0,-5880.0
7.545579980197204,11.147117854142,14.609891200113113,19.17018387277315,9.885477496158328,,11.557382802585002,,16.545549902679177,13.908084699464036,13.793803369667717,9.474782839141222,19.87925060911369,15.100202290532943,17.32404485256012,11.082585857293784,96.624001,-724.1920169999999,-689.544006,-7980.0,-7000.0,-5880.0
7.6104545759454885,10.776163039942492,14.051898976259903,18.690108579251426,9.703373216814843,,11.744743217327475,,16.3553698010624,13.677846283579084,13.849031210892578,9.417739593816984,19.89106956849946,15.101019337788092,17.338521734187403,11.085938255249644,97.112,-720.288025,-693.936035,-8680.0,-6020.0,-6440.0
7.58712884196104,10.731153805650886,13.926842975694315,18.52767991682961,9.69164158926068,,11.741935103592503,,16.036508573564312,13.502548197478752,13.89887806694976,9.488809860602858,19.68602055676501,15.206876861816367,17.469537516050902,11.14606845488784,98.576004,-714.432007,-699.304016,-10360.0,-6300.0,-6720.0
7.7109246753037635,10.77149744291727,13.947748170253876,18.522555351878918,9.819196221223873,,11.838051328071437,,15.754011777381178,13.45952297430855,14.146357664743768,9.815100146635485,19.117568007633366,15.057291339645527,17.72642101321376,11.22987765090838,96.136002,-708.088013,-691.496033,-12880.0,-7000.0,-7000.0
8.016614767217671,10.704984049722407,13.60278788618251,18.069936140753278,10.052977364791547,,11.807624895083977,,15.343709616297343,13.528034197866086,14.597181512329032,10.485268174145762,19.035150730672573,15.558699913160378,17.87518973844018,11.541555451781424,95.648003,-715.895996,-683.687988,-14140.0,-9660.0,-7420.0
8.484053785461771,11.033868898313719,13.568112167611272,17.85612089547614,10.344691747525015,,11.984791899311368,,15.102397935884786,13.704703087674401,15.173017093696782,11.185894795095482,18.77483895323365,15.72041727769754,17.90189498478846,11.871010582790806,92.720001,-726.632019,-676.856018,-14140.0,-11200.0,-7280.0
8.601888544637578,11.096709663334225,13.54919624295818,17.88848317182711,10.371599000814543,,12.03859962074269,,15.131323875781185,13.806800965317994,15.325156313775212,11.215094032047938,18.882000697635508,15.896680275813154,18.26893735114347,12.144585757360046,88.81600199999998,-733.4639889999999,-665.143982,-13020.0,-11760.0,-7140.0
8.609438161815326,11.004764962558701,13.530835856779625,17.847842521904546,10.306602080446735,,11.86476756741465,,14.896503280587007,13.572909188321288,15.216207651553384,11.166897953569517,18.72805827232125,15.841750194280436,18.314255706095867,12.164449062381008,89.304001,-739.320007,-651.968018,-12880.0,-10640.0,-7420.0
8.611765033009453,10.899103617453715,13.391709748476242,17.713340847332855,10.30421122905828,,11.956610049758643,,14.677943424724567,13.399741350683074,15.155255649085671,11.17779080511007,18.856533299638546,15.887211478954649,18.311228152209917,12.18012274475883,90.279999,-740.783997,-647.088013,-14140.0,-10220.0,-8120.0
8.635063576141095,10.884472215626417,13.358162259681558,17.750829944290366,10.414882139901236,,12.252622927687737,,14.819765409490548,13.457789523829303,15.159355693594318,11.225317082943974,19.403680795005386,15.924504299182043,18.239225984868725,12.182686008831027,87.84000399999998,-740.783997,-642.695984,-15820.0,-10220.0,-9380.0
8.659692626335001,10.894202558865349,13.407263568932569,17.647678758031056,10.494719030674238,,12.339002018760295,,14.783432500315437,13.401813246445348,15.124843940707814,11.175739971472819,19.48092773055265,15.97145306747524,18.25168852134596,12.177187941051569,91.744003,-743.223999,-642.695984,-17080.0,-10920.0,-9940.0
8.851076137591965,10.938907865910977,13.25315210634864,17.61937837914574,10.424991564020432,,12.380120458133046,,14.814027915408454,13.585013223172506,15.206792601534492,11.50747523274685,19.50081418357813,16.100609595996154,18.681955695092753,12.338809255885682,97.112,-734.440002,-662.703979,-19460.0,-12180.0,-10780.0
9.253602864022849,11.219423336965919,13.329689329901283,17.43725463399254,10.373537509342041,,12.36879610510343,,15.03086951027462,14.116831965185469,15.654173616941355,12.044625348046914,19.655663471462017,16.48280319941534,19.596127520044366,12.591435861095986,97.599998,-725.656006,-659.776001,-20580.0,-13300.0,-11480.0
9.681481596462524,11.556363317049327,13.586332597009648,17.347700908696783,10.214862076106227,,12.213517658537027,,14.984005306916481,14.040192935242313,15.849184290654458,12.494973179026019,19.5032379814416,16.450853963008015,19.807199887285243,12.734956339446306,113.704002,-729.5599979999998,-712.968018,-22540.0,-13440.0,-11480.0
9.648195724982205,11.523683065647129,13.595044241789486,17.496840768440446,10.219044152622747,,12.16189547861649,,15.004903988457132,13.963871869839116,15.851760444378183,12.60683056291296,19.61037912603587,16.523550683642608,19.80659579603459,12.781144355232382,100.528,-708.575989,-695.888,-20160.0,-11480.0,-10640.0
9.941269403403808,11.855074681107299,14.01625975932595,17.807721590241737,10.517870700450969,,12.233341035888335,,15.394827748901017,14.33107225096988,16.290910042886352,12.586897206100755,19.702527244193668,16.560790177433404,19.83475901576331,12.721972242166824,110.288002,-728.583984,-708.575989,-21420.0,-12040.0,-10360.0
10.099563271463396,11.80530759473603,14.057974473661226,17.832277442842003,10.646000524524371,,12.320696579239543,,15.070956671523673,14.027174648704563,16.311436491972877,12.508034696429768,19.416104713078802,16.358058404300927,19.727774405180334,12.55901441005366,133.223999,-716.384033,-750.5440059999999,-19180.0,-10500.0,-9520.0
10.170012386220675,11.792901966694794,14.142715246429857,17.861455227684576,10.719120325716505,,12.589135409019779,,15.13381044380144,14.175327512509392,16.368981354017567,12.521591239469789,19.363703628244366,16.359991737267883,19.76014778302837,12.552065747063741,96.136002,-725.16803,-680.272034,-14000.0,-4060.0,-8400.0
10.143849359915302,11.787526325490937,14.140586601223585,17.820571219080502,10.72136656722606,,12.635379488107885,,15.133811034078105,14.179810829954503,16.37005013662842,12.500809490845194,19.24253772017313,16.22984430058441,19.72376146541768,12.597619374383772,108.823997,-741.7600099999999,-676.856018,-13160.0,-5600.0,-8540.0
10.117703882955468,11.790927961219161,14.13282101822074,17.818296466435733,10.717957525655303,,12.595575595914228,,15.117814258799434,14.20148537505864,16.36057149247864,12.544050833470008,19.254531925400773,16.148153527421073,19.775680414930267,12.59409958697751,105.896004,-732.4880369999998,-676.367981,-9800.0,-4200.0,-8680.0
10.126913330190309,11.697752085192342,13.944800111161015,17.849400838456056,10.620060015382164,,12.568953601117487,,15.145830774190086,14.369705534399333,16.42503572701285,12.757916378126541,19.424346371138483,16.442455863319616,20.190597262944127,13.081434530478758,100.528,-721.752014,-672.952026,-9520.0,-4060.0,-8820.0
10.086414162594046,11.588287715324425,13.714334442963892,17.94253856399795,10.461057176228321,,12.393607621191896,,15.203152204823546,14.344933193186417,16.430606682901193,12.764191969045376,19.164503270533817,16.26693497546036,20.05100227229938,13.03114768130642,102.480003,-716.384033,-676.856018,-10080.0,-5600.0,-9520.0
10.091784223890224,11.661878139767158,13.594211898834441,17.92803374295241,10.70366914608083,,12.349423873103577,,15.160575876210332,14.333829424676152,16.462406316813215,12.688616535136035,19.164609721879238,16.281332231159688,20.07656104626869,13.055762608651309,106.872002,-720.7760009999998,-671.976013,-10360.0,-6860.0,-9660.0
10.288835848510331,11.884703239290424,13.630111157304817,17.85036726607512,11.074256375411903,,12.550092073195179,,15.199798534749288,14.323487071464868,16.513253575526125,12.744908648103216,19.145804704009425,16.279917081035144,20.100617082352194,13.160308107363575,107.360001,-704.184021,-684.176025,-9800.0,-8120.0,-9660.0
10.299081888019847,11.816940015310655,13.630885175792985,17.825847587120304,11.06996747197828,,12.651313623811284,,15.204144488550511,14.31345834472951,16.49506460313134,12.760377420186055,19.082856544454536,16.055403873783693,19.916900225423937,12.890905283310252,102.968002,-705.64801,-668.559998,-11060.0,-8400.0,-9800.0
10.28642115894174,11.783873162987147,13.625966552614134,17.76426968995706,11.153703382099277,,12.571044450077789,,15.22416461361526,14.461294083697616,16.591037900753324,12.771833760253,18.714867039921923,15.789335278677077,19.707726961009488,12.718184697146782,106.872002,-702.720032,-677.343994,-12040.0,-10780.0,-10080.0
10.605065245731444,12.079150204008494,13.82763382148222,17.701596877712337,11.117262953991977,,12.5824483892156,,15.951308704517688,16.18694598336503,17.84252491848763,13.131257803386369,19.440678148603418,17.023948610314662,20.397167460712364,13.111428918540634,109.312004,-701.255981,-676.856018,-13020.0,-11340.0,-9800.0
10.591538952234018,11.990181438248754,13.41696734351436,17.249366332518157,11.27512348444105,,12.667372097942883,,16.174003823327247,16.463418727895597,17.947244259023048,13.220403355174415,19.29528542014725,16.94229623130707,20.295364985359036,12.919385575439362,109.312004,-711.504028,-688.567993,-14700.0,-10920.0,-9940.0
11.090678174344102,12.662262666020712,13.536954378693258,17.243978517647417,12.111169744390818,,12.984245272412497,,16.10243983775157,16.413248145194,18.10200711775769,13.227231883917819,18.649794391344347,16.523659308020665,20.176190620693912,12.864711765177848,110.288002,-713.455994,-694.424011,-16100.0,-10500.0,-9380.0
11.629541903405768,13.564462092275459,13.99350445533628,17.199363660154592,12.621801957162935,,12.951501980570388,,16.114695128050663,16.870507769865174,18.62788153035322,13.415090923003802,18.656070611212424,16.658184805873944,20.381320401876557,13.072140117338423,112.239998,-720.7760009999998,-693.447998,-16660.0,-9660.0,-8680.0
11.883963078866824,14.118877034334233,14.438299167501212,17.173633382962418,12.59875340661655,,12.950196773470031,,16.031366566591544,17.295293558156274,18.985175866623607,13.851728304539256,18.573256863277354,16.7139439593879,20.393565867653166,13.29287071414191,110.288002,-728.096008,-692.960022,-15820.0,-8820.0,-7980.0
11.843613783054883,14.155959825760705,14.432091732107288,16.661408315386065,13.017878915609316,,12.843307464689424,,16.03455506757093,17.306807629106242,18.927280096159688,13.961726428476846,18.573626363601516,16.7160759142476,20.262603033388285,13.29262191598142,106.384003,-741.2720339999998,-687.104004,-14280.0,-7280.0,-6720.0
11.980099749442555,14.714929420779736,14.351861503537009,15.789478936262583,14.031486448645014,,12.5844556879296,,15.972661846477394,17.297580744907272,18.947472888556963,14.053653546212637,18.62799230671449,16.716846968108822,20.241195119970627,13.299313868471186,105.896004,-750.0560299999999,-673.440002,-12180.0,-5880.0,-5740.0
12.331866062788398,15.078251433222844,14.085133590157087,14.585134818532245,14.755371044693298,,12.53163493008188,,15.657578759012246,17.08662610819331,18.826595083790416,14.073381552799283,18.616835237712234,16.64281647230995,20.18729311118273,13.334766602491607,101.503998,-732.0,-691.984009,-7560.0,-3640.0,-4480.0
