7.2991,12.303,5.30705,12.4797,9.78807,7.12368,9.63867,3.89939,8.70963,1.21884,-2.89756,9.29614,5.72107,7.62785,10.1576,8.06329,-193.736,-964.776,-134.688,9100,-19880,4060
11.467,20.6664,6.78623,17.6393,12.7393,9.9539,12.7944,5.05429,14.6151,0.732945,-1.55184,11.9672,6.14082,10.054,16.7642,8.66917,-191.296,-965.752,-128.832,8540,-20160,3920
3.87061,8.19926,3.18172,5.44365,2.67276,2.31564,1.46394,-1.03645,4.30559,3.32086,1.30118,3.10699,2.36462,2.03392,6.07568,0.466742,-189.344,-967.704,-132.248,8260,-20860,3920
-1.53603,1.20096,4.58913,4.81589,5.1421,5.14848,3.86437,0.322985,-3.01059,2.50251,-5.63091,2.37932,3.9998,4.60129,4.94309,2.61583,-187.392,-967.216,-131.272,7840,-21420,3920
-1.89204,-7.5193,3.00633,-3.86906,-0.208276,1.79737,-0.652078,-1.97259,-3.70796,2.89845,2.89002,-0.885305,3.16585,1.30396,-0.598468,-1.3611,-189.344,-970.632,-130.784,7840,-21280,3640
4.14853,-0.313061,2.08211,0.349444,1.84963,1.65066,2.05508,0.308698,3.7712,3.80551,-4.65623,2.55394,2.31355,1.77907,4.171,1.49008,-187.392,-963.8,-130.296,7980,-21000,3500
8.19912,5.49618,1.7087,5.42029,3.9979,3.36035,2.53137,1.55586,7.97396,3.67622,-0.90092,6.92968,1.55864,3.44818,4.35929,0.404733,-186.904,-963.312,-130.784,7700,-20440,3360
3.92114,0.682103,-2.61932,-1.78789,-2.71542,-2.24428,-4.84101,-1.15597,4.19552,-1.79914,0.122425,-0.141283,-2.51697,-1.89493,-7.64811,-4.70484,-187.392,-965.264,-133.224,7560,-20160,3500
-0.757378,1.38267,-2.18192,-2.27415,-3.30739,-2.94833,-3.94774,-2.78718,-0.326691,-4.06531,-4.39065,-3.3284,-2.21383,-3.10633,-8.82862,-5.0011,-183.488,-965.264,-128.832,7560,-20300,3500
-14.311,-10.3691,-4.25063,-7.72256,-6.45285,-4.78067,-4.01763,-1.80721,-14.56,-5.61405,2.90844,-10.967,-3.74321,-5.23288,-7.41568,-3.60461,-185.44,-965.752,-126.88,8260,-20440,3640
-15.1866,-9.43173,-3.62539,-2.62127,-3.31572,-3.40478,-1.39866,-0.952506,-15.7506,-4.57967,-3.38766,-9.36786,-3.16866,-3.39082,-0.581283,-1.47555,-181.536,-967.216,-131.76,8260,-20020,3500
-8.83913,-7.04519,-3.59295,-2.58396,-3.26656,-4.98364,-3.43019,-2.84931,-9.73416,-1.81289,0.723296,-2.80137,-3.79188,-4.60429,-1.46324,-2.83824,-180.56,-967.216,-131.272,8260,-20020,3920
4.50746,3.74524,-3.85794,0.19583,-1.88363,-4.1511,-3.57961,-2.89205,4.50823,2.07565,1.84809,7.31764,-3.89477,-3.49354,-1.26892,-3.14182,-178.12,-967.704,-128.832,8960,-20020,3920
10.7472,11.7181,-1.01615,4.19434,1.30854,1.3694,-0.635485,1.48462,12.2769,4.03399,0.737491,6.89434,-0.708304,1.45757,-0.148022,-1.28015,-178.608,-963.8,-130.296,9240,-19740,4060
3.27863,3.82072,-0.550022,-2.9113,-3.93012,-2.80841,-3.6757,-1.27686,5.40776,0.878625,8.86187,-9.30465,-0.195633,-2.70029,-5.05329,-1.35874,-177.632,-963.8,-130.784,9940,-19740,4060
-2.73821,-6.21819,-3.45742,-7.14185,-5.18585,-5.14299,-0.632292,-4.26966,-2.42899,-2.02445,-2.56591,-11.4419,-2.68791,-5.15953,-4.6653,-2.89932,-182.024,-967.216,-132.736,9800,-19880,3920
-8.69569,-14.3826,-3.81246,-9.03275,-4.18061,-1.22735,-4.76824,4.16365,-9.81478,-6.28788,-3.57552,-5.01103,-3.61863,-1.82154,-5.58693,-2.35617,-181.536,-970.144,-130.296,10080,-20020,4060
-10.8879,-13.0737,-7.75237,-9.66138,-7.00728,-5.14848,-9.23977,3.83935,-11.5365,-10.1856,-3.30204,-5.70591,-7.9495,-5.15887,-6.51583,-0.890871,-180.072,-969.168,-131.76,10500,-19880,3920
-10.1865,-5.14357,-6.70909,-4.12747,-2.64472,-2.63383,-0.966922,4.24945,-9.32285,-11.1545,-10.095,-5.59544,-6.7967,-2.55532,-2.26545,1.64419,-179.096,-967.216,-131.76,10220,-20020,3920
-6.9612,-4.18688,-4.26365,-3.8992,-3.39486,-3.00874,-1.01683,3.28844,-6.2886,-5.47526,0.812159,-7.45358,-4.24191,-3.26273,-2.21314,0.215877,-179.096,-971.12,-132.736,10220,-20020,3920
-4.46614,-5.67537,1.53178,-3.60304,-1.54839,-0.452511,-2.00159,1.65086,-5.21207,-0.972554,-4.67934,-2.75258,0.947816,-0.71393,-3.14051,1.6469e-05,-177.144,-969.656,-130.784,9660,-20160,4060
-1.09967,-2.00435,6.02697,-1.27449,0.804674,1.2387,-2.06775,-1.46911,-1.31876,0.729086,2.1384,1.5192,5.09448,0.904475,-3.31424,-1.4173,-176.656,-972.096,-128.344,9660,-20300,3920
10.9265,13.2603,8.96334,11.9934,8.10969,5.22679,6.71265,-0.79772,11.0223,8.54018,5.68203,12.6301,8.66787,5.61318,9.57277,3.37964,-175.192,-970.144,-128.832,9520,-20300,3920
20.3155,24.0794,14.7804,23.1364,18.5742,15.3206,16.3518,4.05658,20.7474,12.9487,0.568497,24.4414,14.3887,15.9999,20.241,11.6457,-175.192,-968.192,-128.344,9660,-20160,3920
22.0405,20.8651,9.89731,17.0994,14.0389,12.4233,15.3,5.11877,22.5882,14.3329,12.7545,18.8109,9.42566,12.2667,17.9341,12.8563,-181.048,-968.192,-127.368,8960,-19880,4200
13.6624,11.207,4.50157,5.99203,6.20593,7.4231,7.91309,1.84599,13.7266,8.30861,1.51194,5.68727,4.74254,6.71227,5.11132,5.68903,-177.144,-969.168,-131.76,7700,-20300,4060
-1.60993,-3.29779,-0.972396,-3.24891,-0.637044,0.752892,1.68442,0.782468,-2.37609,0.730062,-0.00422786,-6.5132,-0.801027,0.43299,-1.07308,1.05706,-174.216,-969.656,-126.88,7000,-20720,4060
-1.17725,-1.39651,-0.0795853,-0.47288,-0.676879,-0.921414,-0.50452,-2.10331,-2.10828,-0.800386,1.02901,-1.9359,-0.218237,-0.622953,0.843815,0.229575,-173.728,-972.096,-127.368,5740,-21140,4200
-3.25231,-4.22485,-2.80379,-2.37989,-3.74011,-4.42652,-3.80194,-6.69065,-3.58068,-5.60676,-6.65258,-3.0337,-2.5729,-4.24609,-2.0745,-6.25261,-171.288,-971.12,-125.904,4620,-21560,4200
0.933343,1.10124,-1.12241,1.5902,-1.00859,-1.75949,-2.00454,-2.50544,0.791082,0.153451,0.8778,4.35373,-0.955097,-1.47656,0.90613,-2.91796,-174.216,-969.168,-126.392,3920,-21980,4200
3.10208,3.84718,-1.51921,0.945015,0.721341,1.44531,-2.91866,-0.437834,2.629,-0.306435,-5.68771,7.85124,-1.16657,1.78531,-2.71671,-0.476245,-176.656,-969.168,-126.392,3920,-21700,4060
4.36476,1.93516,-3.53846,-5.75687,-5.09455,-4.38797,-7.16129,-4.38117,4.80292,0.92922,5.07939,-1.60877,-3.40642,-4.37303,-9.56311,-6.62384,-180.072,-969.168,-122.488,3500,-21980,4200
-1.04317,0.12215,-2.539,-2.87406,-3.88269,-3.71706,-0.990316,-1.49375,0.672086,-0.103325,6.05476,-10.876,-2.1972,-3.78382,-4.32382,-3.46244,-181.048,-967.216,-126.392,3360,-21980,4200
-13.6139,-13.3606,-4.45623,-5.75849,-5.39277,-4.33702,-0.468579,-0.132154,-13.5831,-5.39389,-6.49321,-14.0597,-4.60543,-4.49088,-3.12692,-2.32981,-180.56,-966.728,-124.44,3080,-21840,4200
-14.3675,-17.5346,-2.54382,-8.05916,-6.43698,-5.30324,-5.08068,-1.80512,-16.5331,-1.44439,4.11574,-9.0205,-2.88443,-5.77867,-6.05398,-5.2086,-180.56,-967.216,-123.464,2520,-22400,4060
-17.2409,-19.8567,-3.71704,-13.8805,-9.90684,-7.36996,-11.0226,-2.85612,-19.2892,-3.47964,-2.83015,-10.5814,-3.0758,-7.9676,-10.1352,-8.34666,-181.536,-969.656,-121.512,2100,-22540,3640
-15.5467,-12.2544,0.715902,-7.64319,-2.22506,-1.4782,-3.36969,0.785649,-16.4474,-5.50168,-2.56164,-3.93156,1.31733,-1.35452,-6.75907,-1.74583,-184.464,-969.168,-122.488,1680,-22680,3780
-7.0631,-1.18079,4.38041,3.74572,7.27706,4.98438,6.10506,1.53405,-7.64862,-1.60621,0.723285,4.55671,4.69281,5.56225,2.16638,4.78723,-184.464,-965.752,-122.976,1400,-22680,3500
10.545,8.509,4.92542,6.00598,6.31357,3.28155,7.63153,-3.02543,11.437,6.24977,0.465704,7.75714,5.40212,3.96992,7.75788,0.922964,-180.072,-965.264,-127.368,1120,-22820,3220
13.6314,9.97905,5.20665,5.24092,4.20732,5.26018,3.19095,4.805,15.1971,6.42886,8.1229,8.72955,5.28172,4.89144,7.19626,1.34073,-180.072,-964.776,-124.44,840,-22400,2940
4.75293,4.9554,0.657963,3.92503,2.50505,3.93699,-0.957604,6.02861,5.93018,0.169449,-3.89108,4.86538,0.304015,3.57822,5.08568,6.73275,-183,-964.776,-124.44,1120,-21560,2660
5.93866,7.79658,-2.14761,6.53604,4.1577,0.815367,4.50052,0.140556,7.13043,-0.495621,-1.33171,3.80047,-2.92126,1.22792,6.62431,6.7937,-183,-966.24,-120.536,1400,-21280,2520
10.9195,12.9272,-3.73773,11.38,6.46604,2.20275,7.86034,-1.63027,11.7445,-1.64549,-2.59263,9.1549,-4.45898,2.89077,10.9038,5.48092,-183.976,-967.704,-122,2240,-21000,2520
14.5294,18.1345,-4.77736,16.5832,9.34943,6.23834,11.3586,3.24458,16.4012,-4.72593,-10.9127,12.0914,-4.99041,7.0726,16.2751,7.44296,-182.512,-968.68,-119.072,2660,-20720,2240
6.24502,10.3226,-5.76949,4.52875,-0.668136,0.660384,0.904993,1.27457,8.43519,-3.8562,2.02279,-2.22852,-5.58982,0.228238,4.694,0.954134,-184.464,-970.144,-121.512,3500,-19880,2100
-13.0747,-9.65538,-8.70316,-13.2994,-14.1239,-10.3163,-12.3199,-3.96196,-12.4806,-7.18006,-5.26581,-24.4293,-8.38378,-11.3252,-10.7784,-7.7781,-186.416,-969.656,-118.584,3920,-19040,2100
-22.0092,-26.4563,-5.47624,-23.4416,-17.6422,-12.7821,-17.0964,-4.65939,-24.0182,-6.29497,-1.08099,-25.1134,-6.00235,-13.4265,-22.1973,-10.5957,-182.024,-971.608,-118.096,4340,-18760,2100
-14.949,-25.8187,-1.45982,-20.9359,-12.9302,-9.89546,-13.6476,-2.47775,-18.4201,-0.827592,2.4935,-10.5142,-1.49615,-10.424,-21.7495,-8.47811,-181.536,-971.608,-117.12,4900,-18340,2100
-0.42685,-7.89126,3.71565,-8.40371,-3.75524,-3.07861,-7.12799,1.11054,-2.55161,4.3283,-0.955195,5.17402,4.11786,-2.93116,-13.1666,-4.8053,-178.12,-973.56,-121.024,5180,-18200,2240
6.67301,6.11671,6.12026,3.21635,3.46996,2.43178,2.86414,4.68129,6.89575,5.50877,7.01566,9.2585,5.95233,2.81777,1.64102,2.48885,-179.584,-970.632,-119.072,5600,-17780,2240
5.57943,8.92144,3.48663,7.42183,4.44319,2.51014,5.00989,3.03407,6.47147,3.1588,-1.4447,5.13057,3.39794,2.62597,6.61168,3.57698,-178.12,-971.12,-118.584,6020,-17920,2240
3.26654,4.32651,3.10218,2.35158,0.114927,0.131732,-1.08595,-0.227729,3.6465,3.70131,4.42649,0.388072,2.74677,0.0427879,1.43701,-1.72607,-176.656,-973.56,-117.608,6860,-17640,2240
0.356775,2.71306,3.1612,0.834123,0.732262,0.747186,-2.99556,-1.6902,0.772432,0.44095,2.44002,1.18951,3.21206,0.664615,-0.820498,-2.67902,-179.096,-971.12,-119.56,7560,-17500,2380
1.7785,3.75425,4.88047,1.99402,3.49719,4.47155,-0.496002,0.320353,1.11309,0.680282,-3.89776,4.92072,4.6612,4.63046,-2.83317,-0.216985,-178.12,-972.096,-118.584,8260,-17220,2380
1.45265,1.05571,4.26308,1.36421,2.29769,3.18223,1.72789,1.22598,0.722049,3.29193,7.67222,1.90566,3.87446,3.10269,1.48611,0.277196,-178.608,-972.096,-122,8400,-17220,2240
-0.685237,1.71654,2.3757,5.2209,5.94645,4.83353,5.25659,0.661261,-0.557462,0.00751255,-2.80947,3.75607,2.93079,5.5361,5.44945,4.04047,-179.584,-971.608,-118.096,9240,-17220,2100
-3.79287,-0.240033,-0.889251,5.54105,5.82758,3.57424,10.8984,-0.845108,-3.12649,-3.1012,-0.53459,1.38361,-0.290621,4.41151,10.5385,7.03952,-180.072,-972.584,-117.12,9660,-16940,1820
3.26743,7.0359,-0.262982,9.77962,5.89375,1.51139,11.4108,-8.49915,3.92227,0.886678,3.15757,6.20255,-0.0744172,1.85638,12.8496,1.57505,-181.536,-973.072,-118.096,10080,-16380,1820
16.828,13.9476,5.42251,10.2307,5.21828,5.33184,6.59721,0.978334,17.7634,9.91902,3.28761,10.2799,5.59493,4.79084,12.8704,2.76326,-184.952,-968.192,-118.584,10220,-16240,1540
6.52667,5.09229,2.41282,3.64282,2.53405,3.93853,2.35445,5.49072,7.06553,4.05995,8.53336,2.61984,2.69395,3.37673,7.05463,6.09156,-184.464,-970.144,-117.12,10780,-16100,1540
7.78557,6.7148,1.99889,4.82933,5.76563,4.66354,5.86404,4.28625,7.30575,2.96047,-2.25762,7.32388,1.20399,4.60939,3.4873,5.73764,-183.488,-972.096,-114.68,11620,-15820,1400
11.0957,9.83855,-0.470526,6.57145,6.31024,5.22457,6.42985,4.89847,11.4142,4.11247,1.61496,11.661,-0.279667,5.2202,4.23966,5.44188,-188.856,-972.096,-115.168,12320,-15260,1120
-4.0919,1.39031,-6.59956,1.88194,2.2047,2.94951,3.88136,3.38886,-3.41376,-4.48606,0.130725,-4.09291,-5.61037,2.88953,2.309,4.7341,-182.512,-973.072,-114.68,12600,-14980,840
-11.371,-3.68184,-0.88036,0.858527,2.02145,3.03821,1.4277,1.07831,-12.3591,-3.4132,-5.97637,-12.0141,-1.08988,3.07225,-1.17608,1.65304,-185.928,-972.096,-114.192,13160,-14700,840
-9.96209,-6.24878,4.15902,1.72297,3.58987,3.45883,-2.58257,-2.70777,-12.1377,-1.28324,-0.13306,-1.00146,3.69541,3.37317,-4.63377,-2.07921,-186.904,-971.608,-111.264,13720,-14560,420
-2.42112,-9.72917,1.45146,-5.83034,-1.4765,0.688246,-4.54743,0.446122,-3.46118,-3.0176,-9.74165,1.59702,1.10771,0.0648978,-7.8225,-1.75795,-187.392,-973.072,-115.656,14840,-14700,280
-2.47591,-6.22792,-5.47452,-6.53685,-4.39444,-4.08772,-2.56595,1.35488,-3.19084,-3.71508,-2.11381,-4.04484,-5.43708,-4.12592,-6.32828,-0.626424,-191.784,-970.144,-108.824,15960,-14280,0
-1.9952,-5.41745,-3.39831,-10.2307,-8.36865,-6.55543,-6.12862,-1.186,-1.82231,-0.361433,4.35926,-7.49831,-3.56277,-6.60299,-10.1612,-4.54633,-196.664,-975.512,-112.24,17640,-13440,-420
-0.963306,-8.04393,0.143535,-13.5942,-11.0104,-8.54157,-11.7064,-3.72749,-0.712767,3.63065,-1.46104,-7.43435,-0.415064,-8.84092,-18.3456,-8.78913,-197.152,-979.416,-107.36,18340,-13020,-560
-3.90378,-10.6337,-1.51686,-11.2714,-8.7605,-8.38198,-8.32734,-2.93997,-4.88138,3.25301,2.37242,-4.43733,-2.15391,-8.71473,-11.9811,-7.52332,-190.808,-980.88,-110.776,19320,-12740,-1120
-1.62036,-5.8348,-5.54666,-3.42055,-7.56295,-11.4876,-5.59716,-7.79021,-2.4773,-2.931,-9.34517,1.85476,-5.2629,-11.1918,-0.909213,-11.3099,-195.688,-978.928,-109.312,20020,-12880,-1260
2.27478,5.59657,-10.3353,6.62028,-6.02939,-11.2442,-0.0740088,-9.13314,4.7017,-8.16323,-2.85733,-1.14056,-9.41884,-11.1244,13.3542,-7.79308,-197.152,-978.928,-105.408,20300,-13020,-1540
1.88306,4.98601,-10.3553,0.205408,-12.7492,-14.2119,-6.67074,-9.58935,5.61817,-6.87221,2.3725,-13.8325,-10.126,-14.2549,8.83008,-10.5718,-193.736,-978.928,-104.92,20160,-13160,-1680
-2.03003,-3.8098,-8.44589,-10.7771,-17.4269,-17.4426,-15.9056,-9.96971,-0.152091,-3.35973,0.249692,-15.7501,-8.09722,-16.7693,-7.0604,-14.8287,-193.248,-979.416,-99.552,20580,-13160,-1960
-10.1362,-8.77404,-1.67443,-8.19882,-6.69664,-4.79244,-10.0011,-2.39192,-10.2941,-2.89631,6.01503,-5.06669,-1.41573,-3.97802,-8.15724,-5.32137,-191.784,-976,-94.184,21560,-12740,-2660
-10.7858,-5.10897,4.89646,-0.954005,3.59134,5.83687,-0.552458,3.05991,-12.278,-2.09305,-2.32719,2.11752,4.89919,6.22255,-1.70576,3.62142,-192.272,-980.88,-95.648,22540,-12320,-3080
-6.32793,3.02632,6.70866,3.98924,8.7063,9.3252,2.6905,4.5495,-6.39123,-4.24273,-2.79425,6.09855,6.89216,9.36356,-3.04096,3.96552,-196.176,-977.464,-92.72,22820,-12740,-3360
-0.640087,-1.30744,1.03093,-1.00542,4.82855,7.41674,1.09302,6.39661,-0.742701,-2.86863,-3.333,2.59382,1.1558,7.13068,-2.56635,5.598,-192.76,-983.32,-90.768,22960,-12880,-3640
-5.59869,-10.9498,-1.64954,-6.67331,4.84672,9.0664,6.22167,11.0854,-7.00997,-5.0129,-9.37498,-3.48241,-2.02431,8.39524,4.07237,14.2849,-193.736,-978.928,-89.304,22540,-13160,-3640
-3.99502,-7.70882,3.59244,-6.12868,6.8687,11.2652,5.66313,11.7824,-4.86997,-0.624757,5.24004,-1.79848,3.38651,10.7843,-2.73526,14.7463,-191.784,-980.392,-91.744,22260,-12740,-4060
4.80571,3.97172,9.54782,5.17598,14.4923,16.5146,11.3223,11.2768,5.90176,1.20238,-1.23368,5.94805,9.0663,16.1535,0.045867,15.2118,-192.76,-978.44,-93.696,21980,-12600,-4340
1.03587,5.29904,8.2205,9.17367,14.0142,13.3587,10.0244,4.25943,0.838831,-0.66329,-0.520134,8.02454,7.8341,13.4266,5.33733,8.24937,-189.344,-981.368,-90.768,21980,-12460,-4620
-0.707357,0.866821,1.62937,3.56256,6.36315,6.43959,4.28296,0.553521,-1.41971,0.897893,1.44384,4.40724,1.48011,6.70796,4.26241,2.93367,-189.344,-980.88,-95.16,22260,-11760,-5180
1.80943,5.2007,1.47701,4.83787,7.55133,8.08475,0.788417,2.66474,0.432729,1.63524,-4.8865,7.19479,0.961182,7.94751,-7.08181,2.15212,-188.856,-982.832,-94.672,22120,-11200,-5600
8.72907,11.0236,6.07107,8.29621,10.3392,11.547,4.25893,5.50232,7.88692,8.58083,7.33966,13.4823,6.47721,10.735,-4.47436,7.59804,-190.32,-982.344,-92.232,22400,-10360,-6020
11.7663,13.4572,9.48578,13.8037,13.0055,12.026,10.7589,5.63313,11.2788,12.6564,5.41638,12.3975,10.4423,11.7777,8.74563,10.7742,-186.904,-983.32,-93.696,22400,-9380,-6300
8.36805,12.4726,7.836,15.01,6.82086,1.22365,16.6524,-2.08488,9.07285,11.8567,11.2891,1.75353,8.74097,1.92905,21.9947,4.51159,-184.464,-984.296,-97.6,22540,-9100,-6580
10.065,13.847,-0.323761,17.5035,-3.77107,-14.3293,12.6405,-9.3431,12.1844,6.45653,4.82617,1.71848,-0.356987,-13.9301,26.1644,-9.53893,-183,-983.32,-96.624,22540,-8260,-6720
3.94874,-3.75539,-19.6847,0.0359395,-25.8911,-35.5264,-6.46051,-11.0745,3.92852,-1.08978,-9.741,-8.64301,-20.2846,-34.8398,14.9636,-17.8334,-184.464,-981.368,-95.648,22820,-7560,-6860
-0.33288,1.22901,-17.9333,-0.41444,-19.3489,-23.9785,-3.80023,-5.18117,0.218085,-4.20287,2.67392,-7.8764,-17.9238,-23.1619,11.9558,-7.51955,-184.464,-984.784,-91.256,22820,-6720,-7000
5.51991,2.97393,0.7408,-11.2423,-14.8156,-9.3094,-16.1925,-6.33665,4.45042,7.69455,9.43341,-4.17251,0.537549,-10.3937,-17.4182,-12.6731,-182.024,-982.344,-95.648,22820,-5740,-7140
0.738585,-11.2038,6.79053,-25.0211,-20.8765,-15.9891,-25.5451,-16.0723,-0.0936796,7.39797,10.3402,-8.7828,6.39422,-16.9947,-24.7686,-25.8448,-183,-983.32,-95.16,22540,-4900,-7280
9.02862,-0.79257,6.68425,-5.30828,-3.37906,-5.06217,-8.04824,-12.59,8.68337,9.99914,10.5229,4.35472,6.57795,-4.15879,-3.1888,-12.1339,-183.488,-986.736,-95.648,21980,-4480,-7420
0.824574,-5.04519,5.20089,-3.66582,3.26582,6.69098,-2.04555,0.481383,-0.446881,4.54275,-1.39619,1.5019,5.11533,7.10167,3.33339,4.98302,-180.072,-987.224,-90.28,21980,-4060,-7420
6.23761,10.5674,7.83468,4.10005,12.0604,14.5479,2.35282,7.24298,7.64301,-1.11674,2.53984,9.06021,7.17929,14.9859,-1.75782,12.2038,-181.536,-985.76,-90.768,22260,-3500,-7280
25.6397,30.7017,3.80037,24.1907,29.9666,24.1445,19.4996,12.7443,28.9461,-1.08455,-13.6197,34.4324,2.23986,25.8468,7.14646,21.0242,-180.56,-988.2,-88.328,22260,-3080,-7280
14.3686,15.7897,-7.0266,14.7569,19.0577,14.6845,12.1273,5.49629,15.9825,-6.065,-11.277,22.9649,-6.1809,15.595,2.73637,9.24079,-178.608,-987.712,-88.816,22260,-2940,-7280
-7.92254,-3.35298,-13.0225,-4.87476,-6.27144,-2.47844,-4.91916,-1.60964,-5.87556,-9.34841,0.677456,-19.0736,-11.2265,-3.14748,-9.00887,-2.51388,-179.096,-988.688,-87.352,22120,-3220,-7280
-20.1122,-9.73895,1.81474,-3.56299,-4.38759,3.34351,-0.0106583,6.29135,-19.2619,-6.74304,-2.54361,-31.7749,2.26727,2.29104,-1.27385,5.11647,-179.584,-983.808,-86.864,21980,-3080,-7280
-17.8934,-11.6034,16.9881,4.57994,9.48992,13.9696,5.47192,7.64993,-20.7401,1.77226,2.573,-7.44571,16.6429,13.5587,0.378133,8.6507,-179.584,-989.664,-87.352,22400,-2800,-7280
-19.4539,-17.2505,12.8582,1.84168,11.1135,12.0442,2.10484,1.11132,-24.0881,-3.27211,-14.1411,7.76387,11.8498,11.6952,0.68344,1.10762,-177.632,-979.904,-85.888,22680,-2520,-7000
-4.30236,-15.3616,-1.71179,-10.5682,0.309939,1.41369,0.0684141,-0.932212,-6.43282,-4.45773,-7.84384,6.21522,-1.84556,1.14351,-2.02224,-1.30666,-182.512,-977.952,-88.816,23240,-1540,-6860
1.64665,-4.20442,-12.0242,-7.83123,-5.11853,-4.75365,-1.19478,-0.406749,3.46102,-9.07388,-1.56094,-0.0353208,-11.59,-4.887,0.141717,-1.31844,-183,-977.464,-87.352,23100,-840,-6440
-3.21142,-6.02262,-10.3309,-14.0684,-14.0582,-11.3406,-14.9027,-6.22897,-1.12951,-5.95468,-1.29462,-16.3078,-9.81992,-12.136,-15.0855,-9.32683,-179.584,-980.88,-93.696,22820,-140,-6160
-15.306,-12.282,-7.9872,-14.8115,-13.3187,-10.508,-13.303,-2.94101,-14.7204,-10.6666,4.99766,-21.1617,-7.40838,-11.3154,-20.1094,-6.89676,-182.512,-982.832,-97.112,22400,980,-5740
-25.4474,-19.2129,-6.26434,-11.0809,-6.46667,-5.35592,-5.59241,2.22339,-26.3858,-13.7753,-7.12404,-13.7979,-6.02725,-6.16643,-15.7245,-1.14638,-178.608,-983.808,-95.16,22820,1820,-5320
-22.5516,-20.7862,-13.4082,-9.95305,-10.5546,-13.0934,-3.70472,0.711531,-23.649,-11.1398,-4.8972,-11.6712,-13.6584,-13.2907,-5.40528,-7.00346,-183.976,-979.416,-94.184,22960,2660,-5180
-17.3905,-18.9847,-22.4167,-14.4721,-20.8979,-23.0895,-11.7552,-5.06707,-18.218,-11.7905,-4.46854,-17.406,-22.5524,-23.4702,-4.09183,-15.1671,-185.928,-979.904,-93.696,24080,3920,-4760
-4.96462,-8.37257,-13.4869,-12.2648,-15.937,-13.324,-9.36315,1.05337,-4.83912,-3.96672,-5.59969,-11.2144,-13.1867,-14.0061,-3.89605,-4.92586,-190.32,-977.464,-88.328,24920,4620,-4620
11.3745,16.9257,4.1119,6.72191,2.23271,0.680951,4.81834,3.38605,11.6337,9.45301,9.86969,8.72098,4.04462,1.10299,7.47511,5.71962,-193.736,-976.976,-93.696,26180,6440,-4340
14.803,24.9018,13.8148,16.1609,12.2625,6.76684,8.67182,-6.30793,14.405,15.366,6.06864,19.114,13.4717,8.05508,6.2156,1.29155,-194.712,-979.416,-95.16,25900,7700,-4060
4.11839,2.68689,11.5372,7.15981,9.62789,10.5961,8.01141,3.95898,3.26273,8.43287,7.01382,10.7028,11.5419,10.8552,9.31902,6.55871,-195.688,-978.44,-95.648,24360,7980,-3780
10.1988,-4.36151,7.90736,-1.15259,3.58842,6.27854,4.2543,8.36636,10.5349,9.08904,9.51706,3.01413,7.345,5.93756,11.2881,10.6037,-198.616,-980.392,-86.376,22820,7560,-3640
13.4189,2.31221,9.40005,3.90617,6.15083,6.66801,7.06662,5.06618,13.8192,7.73616,1.46319,5.55001,9.32579,6.46733,11.5278,6.94156,-190.32,-979.416,-79.544,24220,8260,-3640
14.7572,2.10182,4.54564,0.567059,-1.54847,-4.28556,0.592953,-5.91253,15.0171,7.39235,6.65467,5.13537,4.77157,-4.11914,4.97892,-5.83033,-196.176,-978.44,-81.008,26180,9660,-3640
18.6328,15.9053,5.05807,12.3289,2.50611,-4.76817,1.61471,-10.3503,20.1,6.33997,-3.49293,14.2644,5.1558,-2.94735,10.4825,-7.01891,-197.152,-969.656,-83.448,26180,10220,-4060
23.574,32.132,9.61418,23.1421,10.957,4.35839,6.83543,-4.3809,25.593,9.412,0.931341,21.056,9.4612,6.34664,14.2604,4.26414,-192.272,-973.072,-84.424,25620,10360,-4340
17.8038,28.0422,6.99712,17.0901,7.43731,4.58628,4.61688,-2.5837,18.0301,11.3765,8.11263,13.9671,6.82148,5.73546,8.28073,4.68834,-193.736,-967.216,-84.912,25620,10640,-4900
5.07667,13.4748,3.59193,6.75983,3.66723,5.80969,2.72816,1.84875,4.37133,5.79594,0.403586,2.91717,3.34853,5.34281,2.84019,2.839,-191.296,-962.824,-87.84,25480,11200,-4900
-2.11663,4.61748,0.880527,3.23028,5.61155,9.49557,4.01839,6.66407,-4.27948,-0.48867,6.25885,0.4157,0.743647,8.50574,-0.391366,5.30564,-185.928,-954.528,-83.448,25340,11480,-4900
-6.53515,-6.04716,-0.0496229,-3.53075,3.85479,7.26672,-0.500518,1.83401,-5.29691,-6.75776,-3.82852,-3.10263,0.605762,6.81546,-9.34706,1.81357,-187.88,-961.848,-93.208,24920,11760,-5040
-0.873661,-6.79467,1.24965,-7.85513,1.60461,4.60244,-4.64048,-1.84013,2.63134,-3.76667,0.223341,-6.0727,1.73247,4.12262,-14.9209,-2.04713,-186.904,-962.824,-98.088,24220,12180,-5180
-7.63308,-10.0952,-3.41807,-3.93408,-1.29408,0.240515,-2.27895,-0.316755,-7.06253,-6.29686,-3.81865,-7.54068,-3.80139,0.00884701,-2.86025,-0.376432,-186.416,-969.656,-94.184,22120,11760,-5460
-16.3862,2.2563,-7.62639,11.8897,3.38376,0.741923,4.1581,1.83766,-18.3388,-12.5899,-15.5951,-2.15827,-8.58268,0.475872,10.0903,1.89338,-178.608,-977.952,-89.304,21000,10500,-5320
-19.5805,-7.51372,-7.96225,-1.05485,-0.242954,-0.213267,0.815286,3.20382,-22.5066,-9.9317,-5.22035,-3.45192,-8.02799,-0.516027,-3.3351,-0.412215,-179.584,-976.488,-90.768,21840,9520,-5320
-7.44296,-23.8448,-6.28609,-23.6032,-11.877,-7.78696,-6.83177,0.746,-7.44782,-2.19488,-6.48216,-9.46308,-5.533,-8.11338,-16.4335,-6.59691,-177.144,-979.416,-91.256,22680,8960,-5180
2.96099,-10.2047,-2.45914,-10.2778,-5.33523,-4.96488,-1.11307,2.00853,3.46963,1.89539,1.0457,-4.75679,-1.798,-4.62183,-6.99026,-2.22587,-179.584,-982.832,-98.576,21560,8260,-5600
-2.78281,-10.0381,-0.778651,-7.4039,-5.333,-6.69213,-2.77272,-7.84156,-4.09945,0.431568,1.79539,-4.74273,-1.09496,-6.03922,-9.78498,-5.63751,-178.12,-989.176,-93.696,19880,7140,-6020
-5.16082,-15.0336,-0.120423,-13.7726,-7.2253,-4.66236,-7.60108,-4.87397,-6.30237,0.262989,-3.03204,-6.49787,0.094014,-5.58645,-13.1571,-8.7778,-172.752,-985.76,-96.624,20440,6860,-6300
0.23903,5.06715,4.18034,5.80543,2.91313,3.77166,-0.311918,6.40623,1.23016,4.08191,8.10871,1.30004,4.33823,3.41869,9.97867,3.34595,-174.704,-980.392,-99.552,21560,7420,-6440
0.331403,17.8224,5.82306,19.6487,11.5976,9.74324,8.48173,6.38967,-0.935436,3.43699,-1.31161,6.35837,5.28739,9.82672,16.3477,8.49817,-179.096,-980.392,-100.04,21140,8400,-6720
-8.47976,-5.3171,0.740275,4.44561,6.90774,6.75564,10.988,6.86377,-10.6566,-1.58376,-1.16679,0.18509,0.448978,6.75771,11.2701,9.63501,-178.608,-979.416,-89.304,21420,8540,-6580
6.90075,0.208783,-2.11898,2.74093,2.89306,0.76428,9.44181,2.89596,8.50371,0.954331,1.78224,4.33909,-2.29428,1.07618,12.4433,7.11633,-175.192,-975.512,-98.576,24780,10080,-6300
23.4763,19.8793,-4.27996,5.99549,-2.00518,-5.99702,-2.33558,-6.04366,27.2624,5.2252,-0.184009,9.33234,-3.84712,-5.61907,2.96263,-3.98606,-180.56,-974.536,-94.184,25340,11480,-6160
16.5383,19.1483,-0.540058,3.54771,-2.16901,-3.48451,-5.84235,-5.55424,18.496,5.61002,12.1107,5.39271,-0.393038,-3.7256,-4.32388,-1.38343,-183.488,-968.192,-98.576,24780,10780,-5880
5.91185,7.49772,6.9043,-0.955902,1.74061,4.35832,-0.695204,1.22808,6.06383,5.60427,6.36782,-1.78316,6.64999,3.61282,-4.6877,7.36939,-182.512,-975.024,-95.16,24220,10780,-5740
4.33083,2.7134,11.3694,4.07899,7.87984,10.6254,7.08159,7.38841,4.26675,8.97444,10.3689,1.15882,11.1916,11.0378,4.64622,13.5123,-180.56,-970.632,-106.384,24920,12180,-6020
-10.145,-15.1609,3.71278,-3.04968,4.84757,7.75319,7.63395,7.47482,-13.4864,-0.0313805,4.01036,-5.92504,3.7542,7.24073,1.58482,11.1419,-179.584,-973.56,-108.336,22680,12600,-5880
-23.2394,-34.4297,-5.45296,-15.1595,-6.09826,-3.73427,0.760828,0.612711,-27.0688,-9.38403,-9.05048,-14.2754,-5.30475,-4.12846,0.119397,-0.345783,-180.56,-973.56,-111.752,21140,11760,-5740
-6.28703,-16.8164,-9.32285,-14.96,-13.4827,-14.0569,-12.639,-9.47385,-3.19175,-12.8977,-3.73765,-8.34671,-9.01304,-14.2405,-11.1659,-16.1883,-182.512,-974.048,-112.728,21000,12040,-5740
-4.03032,-4.31833,-10.6685,-11.9627,-16.3181,-15.8031,-20.9218,-13.1997,-1.30061,-13.7912,-8.69959,-6.74644,-10.4072,-15.9666,-15.4517,-21.5719,-179.096,-973.56,-117.12,20580,12180,-5600
-14.0858,-2.86536,-9.96819,-8.44435,-15.8949,-17.9708,-21.5729,-12.9006,-13.256,-9.88889,-4.87133,-8.15084,-9.63199,-17.5225,-17.3145,-22.6881,-175.68,-976.976,-110.776,20160,12460,-5180
-16.1333,-3.61656,-14.218,-7.70285,-23.4587,-30.3843,-24.6012,-21.9404,-16.7635,-11.1871,-10.2807,-8.97108,-14.2177,-30.1094,-17.8388,-35.1048,-179.584,-977.464,-111.264,20160,12320,-4620
-0.790781,0.188783,-9.08181,-2.30339,-14.7845,-15.8832,-10.8965,-7.10361,-1.68936,-5.8393,-10.4775,-3.1009,-9.12196,-15.1279,-0.63045,-15.6926,-176.656,-976.976,-118.096,20160,12180,-4340
12.8802,9.59387,10.433,3.71456,7.49992,12.8918,9.31765,14.8599,12.9437,7.10253,12.1286,11.1594,10.1208,13.063,12.4714,15.4001,-177.144,-978.44,-117.608,18200,11060,-3920
10.6319,9.15856,18.3198,1.84824,15.3677,19.235,10.9091,12.7488,10.1076,15.6905,7.7989,14.6795,17.4171,19.2135,2.26298,16.3913,-180.072,-975.512,-115.168,16940,9520,-3500
5.37453,11.1223,10.969,13.7677,21.823,18.5504,17.7365,9.51241,4.473,9.91007,-0.0240664,19.1359,9.9078,19.1816,3.81942,13.629,-178.12,-973.56,-111.264,17080,8260,-3360
18.7376,34.2031,4.67643,35.1962,28.4955,20.8126,23.1761,6.79139,19.0667,4.70723,-7.94274,32.3748,3.65234,21.7917,23.6759,14.205,-182.512,-971.12,-109.8,16940,7700,-3220
20.6321,33.2035,-4.06735,29.573,19.511,14.4108,17.2904,5.87654,22.3288,0.910889,-10.1295,18.4842,-3.1991,14.7328,23.5459,11.2333,-179.584,-977.464,-113.216,16520,7420,-3220
1.161,16.8536,-7.91892,15.6557,3.50355,1.40755,6.58225,2.56669,2.65738,-3.4171,6.81376,-11.3626,-7.13725,0.725497,12.5098,2.71139,-182.512,-977.464,-114.192,15400,6300,-3080
-9.62038,-4.49289,-2.41288,-2.08222,-5.60848,-2.65615,-1.44641,0.988634,-9.33257,-1.32047,4.16412,-25.9033,-1.732,-3.20298,1.11256,2.92811,-183,-976.488,-109.312,14420,5460,-3080
-17.6856,-36.993,1.3081,-21.2491,-10.9259,-5.04314,-3.21716,0.93145,-19.2394,2.85623,8.25835,-22.4635,2.2023,-5.62334,-2.17025,2.12284,-183.488,-979.416,-105.408,12880,5180,-2380
-8.21512,-19.4844,6.96887,-12.2217,-3.66571,0.481334,-2.72099,2.61518,-10.0067,3.93921,6.67211,-5.74242,7.07966,0.260913,-2.39271,2.80809,-186.416,-976.488,-102.48,12600,5460,-2100
-3.98781,-15.8506,8.0848,-14.6591,-0.321482,4.72076,-1.15879,6.50863,-5.39908,3.01153,-2.83532,1.47258,8.15378,4.57849,-12.4527,7.23341,-186.416,-974.536,-110.288,12600,6160,-1680
1.37373,-10.9806,5.63156,-15.766,-2.81814,0.486736,-5.20585,1.15767,2.18454,1.14886,3.26655,-0.241704,5.47119,0.598642,-18.6159,1.10297,-190.808,-973.072,-105.896,10080,7280,-1680
-10.583,-13.9027,2.41822,-5.08347,0.743915,2.21245,-1.65903,-3.15359,-13.6467,-4.78336,-9.19313,-2.01599,2.42956,2.09201,-9.21127,1.16186,-186.904,-979.904,-99.064,8540,7280,-1540
-3.19269,-12.762,-0.0837854,-7.6491,-4.87636,-3.41255,-8.38643,-8.6822,-3.76217,-0.0254679,-1.50312,-1.04717,-0.0974783,-4.16396,-13.6738,-5.11261,-189.344,-971.608,-100.528,8820,8820,-1400
12.5365,6.96733,-1.1829,3.55742,-2.21648,-6.76325,1.29749,-11.0714,14.5001,2.43176,2.03956,5.65152,-1.32227,-6.75412,5.82707,-3.62121,-186.904,-976,-88.328,8820,10360,-980
3.23268,-7.65013,-6.4922,-8.07605,-5.72452,-8.03713,2.66811,-8.60329,4.07578,-2.17379,-8.14685,-2.08288,-6.87612,-7.85481,4.46119,-2.53739,-185.44,-973.072,-80.032,10500,11340,-700
-4.3494,1.57898,-4.49743,-0.400325,-0.70602,0.203122,-1.042,3.58537,-5.06705,-3.19833,1.36439,2.21497,-4.59742,0.0564453,4.61527,1.95226,-188.368,-971.608,-80.52,12180,12460,-420
-0.0479498,-1.43004,-2.05909,-3.55085,-0.726632,3.17979,-3.47518,9.07964,-0.228158,1.79061,1.54894,0.788829,-1.47171,2.71373,-2.12803,4.51079,-189.344,-973.072,-85.4,11900,12320,-560
6.57133,3.87226,4.0024,0.212167,2.98708,5.64036,-0.540428,8.42654,7.32332,7.05326,11.6496,-3.07916,3.97421,5.40252,-8.6371,3.87995,-186.904,-974.536,-83.448,9380,10780,-700
3.82147,21.4208,6.75481,14.5952,10.7792,7.49516,2.68293,1.94899,6.34677,5.00251,9.63583,3.45144,6.29974,8.14052,-6.40655,1.7139,-188.368,-976.488,-85.888,7420,9240,-840
0.82084,0.364395,-0.803407,-5.9868,-5.05136,-5.93438,-7.31869,-6.62128,2.23358,-0.111732,-2.97117,-4.23026,-0.664471,-6.11125,-13.9317,-9.6499,-188.856,-978.928,-93.696,5880,8540,-840
-11.1026,-2.68372,-8.1925,10.713,-6.30261,-12.9215,-1.25808,-10.4451,-14.2992,-8.94815,-2.9225,-2.57874,-8.46599,-12.8178,12.2795,-15.0788,-189.344,-978.44,-90.28,3920,7280,-1260
-6.46807,2.94196,-8.89108,5.63941,-10.4692,-13.4389,-8.92482,-13.086,-9.34337,-7.46482,-8.67484,1.90048,-8.78184,-12.9144,2.59694,-18.9119,-186.416,-983.32,-92.232,2800,6580,-1260
11.5623,12.5387,2.54921,4.56327,-1.12345,-3.13077,-0.635597,-0.393309,11.0675,2.847,1.48912,12.2317,1.73898,-2.41224,10.4925,-3.84154,-182.024,-977.952,-97.112,1260,5040,-1540
23.93,30.1558,6.99859,22.1786,17.6057,11.7382,19.844,10.9083,26.6489,6.59895,2.8169,26.443,6.06701,13.1837,32.2621,13.3671,-180.56,-984.784,-99.064,0,3640,-1400
12.4594,16.7054,-3.1178,10.7276,11.7664,12.2958,17.6967,12.8917,16.7106,-0.994441,-4.0724,13.352,-2.31889,12.4597,18.686,16.5147,-178.12,-980.88,-95.648,-1400,2240,-1540
8.95419,21.3949,-4.65868,10.8632,6.03059,6.28321,8.36811,7.584,15.7467,-1.19384,8.93274,-2.53485,-4.16155,5.78932,8.24902,7.83182,-174.704,-977.464,-95.16,-2940,-560,-1400
2.75341,10.1057,-2.05988,7.85137,0.50609,-1.25454,3.47012,-0.291265,3.88133,-1.86349,-3.18785,-11.7215,-2.07956,-1.68254,9.33979,-2.4062,-166.896,-974.536,-80.032,-5880,-3780,-700
-10.2808,-14.2179,-2.85274,-2.63992,-7.83992,-8.46102,-5.9931,-6.78912,-14.0989,-5.09335,-4.30215,-14.4636,-3.14561,-8.18457,0.474063,-9.44103,-163.968,-974.536,-69.784,-11900,-8120,280
-10.925,-16.5462,-2.24327,-13.2196,-12.2721,-10.4671,-16.6201,-8.79961,-13.8502,-1.20237,0.376361,-8.31435,-2.46018,-10.5644,-19.545,-13.8827,-160.552,-976,-63.928,-16380,-10500,560
-15.3113,-31.3522,-7.54723,-29.1407,-17.6341,-15.5981,-17.7932,-8.53513,-18.6581,-5.1416,-8.6721,-8.68378,-7.35623,-16.2398,-25.3054,-14.6365,-162.504,-971.608,-66.368,-20860,-10220,280
-8.38281,-14.1782,-10.431,-12.9088,-16.5164,-19.6543,-11.4671,-10.2658,-10.0377,-3.58379,1.73969,-5.65049,-10.1383,-20.092,-4.49357,-15.7955,-163.968,-964.776,-80.52,-22400,-7140,-560
4.3266,9.01858,-7.67318,4.84271,-10.7411,-16.097,-6.12271,-9.17859,5.3257,2.13843,-4.22424,-2.62272,-7.51531,-15.9872,9.35985,-8.02593,-178.608,-955.992,-95.16,-21980,-3920,-980
16.3218,18.4554,-0.839014,3.83694,-4.14329,-6.17516,-3.0836,-1.99299,18.8172,9.29871,1.75607,1.81053,-1.07879,-5.80621,1.62207,1.75546,-183.976,-950.136,-102.48,-20580,840,-1820
21.6631,15.4988,11.3634,-1.68709,8.46018,15.6422,5.39768,12.8006,23.0052,10.7145,7.45597,10.4597,10.7548,15.6023,-3.75863,18.6314,-186.904,-948.184,-111.264,-18620,4900,-2940
4.26951,6.22349,11.8942,7.18291,24.6684,31.6478,20.4466,23.1965,3.96293,0.165996,-3.97009,13.4435,11.9301,31.7887,2.01252,31.6248,-191.784,-952.576,-120.048,-14840,7840,-4340
-11.9519,-3.15352,6.39929,6.46693,22.7528,26.8142,16.7533,14.8133,-10.9381,-8.65575,-2.05841,-1.33873,6.85825,26.65,-3.42116,21.5376,-190.32,-949.16,-123.464,-9520,12460,-6160
-23.3352,-18.933,4.80534,-2.16033,13.0002,18.4235,9.57754,6.9155,-23.3126,-13.6203,-11.9807,-14.3974,5.04221,17.8831,-3.68417,12.314,-185.928,-953.552,-126.392,-5040,15120,-7700
-17.5019,-15.8958,2.06943,-2.66812,4.45367,6.25909,-0.903138,-2.05723,-17.0152,-5.90023,-2.58954,-5.39527,2.68074,6.29798,-11.4354,0.606661,-182.512,-958.432,-126.88,280,17780,-9520
-18.8395,-26.3584,3.07979,-9.50217,2.57014,6.33691,-6.2974,-3.24666,-22.413,-3.55154,3.99339,-1.41656,3.55114,6.6152,-15.7417,-0.116114,-178.12,-960.872,-123.464,4200,19320,-10920
-23.6351,-35.4216,4.45916,-16.6571,-0.497098,5.51166,-4.04697,1.23082,-28.563,-3.4298,-2.06779,-9.16388,4.63762,4.75648,-8.85367,0.9094,-178.608,-966.24,-123.952,9660,19880,-11620
-7.24015,-13.0509,9.08747,-10.547,-2.94449,1.22479,-6.042,-1.3921,-7.32881,6.14988,10.9636,-5.81155,9.29977,0.56372,-7.61168,-3.99641,-171.288,-969.656,-122,13580,19320,-12320
-8.87084,-5.22827,24.7187,3.53143,12.8811,18.9912,5.69258,8.51605,-12.1349,11.9018,11.5345,-3.30482,25.0532,19.0047,5.82886,12.1985,-167.384,-976,-117.608,15960,18620,-12460
-10.705,-25.6007,33.2695,-14.4789,15.8287,29.0214,7.34362,15.6846,-14.4434,16.4856,16.7,-4.06667,34.028,28.3051,-6.9383,23.6829,-162.016,-976.976,-117.608,17780,16940,-12180
-7.52946,-32.6786,23.5468,-20.4645,11.3235,18.5712,6.04674,9.99813,-9.7461,10.8524,10.6021,1.13586,23.0378,17.6969,-17.9378,16.204,-157.136,-980.88,-118.584,19040,15680,-11900
3.36813,-11.0206,2.85329,-0.270741,4.58338,-0.105611,7.27916,-1.32131,4.30789,-0.786536,-5.695,10.9786,2.38074,-0.113388,-1.48854,-1.6785,-152.256,-983.808,-114.68,19600,13580,-11200
-4.21159,-2.69254,-26.1926,0.721877,-17.9711,-31.8232,-11.1131,-21.0742,-1.52122,-12.9132,-1.96534,-4.46612,-25.557,-30.865,1.42473,-24.9076,-154.696,-986.248,-115.168,19460,11480,-10220
-31.6594,-27.488,-29.6695,-24.0447,-43.7712,-51.8032,-37.5248,-32.4657,-35.7874,-11.0362,-0.777488,-36.0431,-29.0992,-52.124,-23.0563,-42.5122,-154.696,-985.76,-114.192,19320,10500,-9380
-12.2396,-9.25237,-5.55953,-18.6509,-43.3048,-45.1649,-39.6088,-25.8041,-16.5365,14.6897,16.6742,-21.0151,-5.88265,-45.5645,-29.036,-37.9191,-154.696,-987.224,-110.288,17780,9240,-8120
35.7685,28.1248,20.6716,9.28233,-11.2946,-11.5433,-11.7602,-6.02281,32.6734,38.505,24.1094,28.9465,19.2475,-11.3893,-6.97852,-10.671,-154.696,-990.152,-106.384,16520,7980,-7280
69.8217,68.762,-20.3279,42.6828,-11.8239,-46.1447,5.88044,-25.0354,69.7401,18.3655,-26.705,61.7835,-23.9671,-44.9533,32.4297,-39.5728,-155.184,-989.176,-105.896,14420,6720,-6300
95.0575,115.578,-106.537,65.2206,-49.3117,-113.818,-8.0599,-66.3602,103.078,-32.0894,-61.5653,71.7617,-108.694,-108.533,73.5339,-93.6308,-154.208,-991.616,-104.92,12040,6020,-5320
95.9098,143.737,-79.841,70.3972,-28.66,-40.8525,-0.552713,-16.3513,115.4,-40.1896,-38.6821,51.5226,-79.2514,-38.6246,97.0694,-30.214,-156.648,-990.152,-105.896,10220,5740,-5040
69.021,126.849,-16.0661,35.2855,13.1021,39.0389,9.11864,46.5855,92.9465,-13.8714,3.86923,-2.86061,-13.9016,35.8249,47.7106,44.0473,-160.552,-986.736,-105.896,8260,5600,-4480
4.2072,28.8007,10.8776,-13.1377,34.3634,55.3014,21.6323,55.0926,13.8087,-4.24096,15.8633,-43.8698,12.8275,53.0904,-16.9086,58.9196,-161.04,-987.224,-99.552,6580,5600,-4340
-34.5909,-50.6464,38.814,-8.78998,50.9892,67.6488,44.801,50.6882,-41.2669,-0.317421,7.45276,-37.7417,38.3661,67.5514,-7.24763,71.0673,-163.48,-987.712,-100.528,5180,6020,-4200
-40.2364,-57.5096,42.1271,9.53079,60.3829,71.8288,51.8754,41.0475,-46.7306,4.06922,11.1838,-4.51288,42.8674,72.3488,13.0519,68.0058,-165.432,-990.64,-96.624,3360,6440,-4200
-51.4536,-48.9133,40.307,-1.94163,44.1197,54.0654,33.2563,22.6326,-55.6033,3.6563,4.51724,-15.4857,40.2667,53.6655,-3.13597,42.0481,-167.872,-987.224,-96.624,2660,6860,-4200
-62.2253,-67.5143,31.2386,-22.7147,13.1329,21.1344,7.41848,-0.0106341,-69.1662,-0.113773,7.87399,-32.3436,31.0701,20.7407,-20.3884,12.2071,-166.408,-990.64,-96.136,2240,7560,-4480
-60.075,-72.4696,34.5074,-25.7564,4.22255,13.588,-4.79869,-5.9178,-62.9607,12.976,8.58256,-20.9764,33.9002,13.3168,-23.6154,0.664367,-169.336,-989.664,-94.184,2100,8260,-4480
-30.8873,-59.6445,12.0509,-30.5674,-8.13237,-4.3022,-19.1051,-12.3461,-41.5268,6.02497,-2.37284,0.650362,12.1677,-5.02439,-30.8707,-15.4361,-166.408,-986.248,-92.72,2800,9660,-4340
-22.5196,-39.3326,-34.7166,-27.3269,-29.1822,-36.4407,-31.0466,-30.6623,-31.4156,-21.6498,2.26093,5.26074,-33.0922,-36.4425,-32.3377,-39.5716,-169.824,-987.224,-91.744,3500,10920,-4340
-19.7571,-23.7403,-18.6555,-25.7628,-37.2018,-37.0219,-35.8313,-30.5476,-21.8411,-8.61206,9.7642,-21.6307,-18.9992,-37.1546,-32.333,-38.2059,-170.8,-984.296,-93.208,4340,12180,-4200
-15.1016,-10.0487,11.5859,-19.6924,-20.0814,-14.6441,-23.8051,-12.1207,-11.4618,9.54636,3.33622,-24.1664,11.152,-14.0472,-23.7206,-14.6418,-172.264,-979.904,-94.184,5040,13720,-3640
-5.18103,-0.853757,22.8897,-9.09731,0.230542,5.34767,-4.70304,2.46496,-0.118253,18.0094,0.951254,-9.56026,23.1572,5.44543,-8.57457,3.01569,-172.264,-982.344,-94.672,5180,14420,-3080
8.3515,-5.71688,8.66702,0.176219,11.6394,14.5499,8.35896,11.1168,-0.201385,3.18595,5.68047,17.9708,9.28976,14.2434,2.31537,12.6273,-171.288,-977.952,-95.648,5460,15540,-2380
3.18782,-5.92608,-9.00823,-1.92127,6.42343,4.94619,2.37187,5.00414,-3.05914,-10.7782,9.82793,20.7855,-8.89552,5.50941,-4.87378,3.70237,-173.24,-975.512,-96.136,4900,16380,-1540
9.09859,9.09223,10.0837,0.115461,9.79211,13.0294,3.04762,5.82996,12.9268,0.573633,-3.95578,8.23607,8.95042,12.8855,-4.38119,9.03521,-170.312,-976,-97.6,4340,16520,-980
26.3453,23.2885,21.5155,9.18168,23.7621,29.4959,13.2979,18.0991,30.1107,10.5563,-8.57012,21.6819,21.6698,28.9194,0.617122,23.5463,-171.288,-976.488,-99.064,3780,16940,0
15.7572,-0.010386,21.2329,-0.702541,23.3407,30.1219,12.6343,19.4098,13.8157,12.8669,9.44983,17.888,22.1199,29.2346,-11.7927,24.8913,-172.752,-975.512,-102.968,2660,16800,840
-15.0091,-27.1831,1.4615,-11.9178,-4.60882,-3.70496,-5.46079,-0.0177773,-19.4297,-0.57802,-5.06089,-13.2122,2.17936,-4.89911,-21.0615,-3.42162,-171.776,-976.488,-103.456,1680,16800,1400
-16.1411,-19.7745,-14.1074,-3.91115,-21.5286,-28.5214,-14.8623,-18.0614,-17.7435,-8.18687,-10.3391,-15.0853,-14.1511,-28.1339,-8.78008,-22.6903,-172.264,-973.072,-105.408,700,17220,1820
4.7264,4.56007,-19.4325,6.3929,-26.351,-36.436,-12.6911,-25.3477,5.24354,-3.41311,-5.16293,-1.13644,-19.4483,-36.5227,10.7559,-28.3722,-172.264,-974.048,-105.896,140,17640,2100
9.32353,23.1398,-28.4876,10.7362,-34.2641,-49.216,-16.4744,-25.9719,9.89586,0.432437,0.760157,-1.18862,-29.23,-48.6993,16.9111,-39.9711,-170.312,-975.512,-108.824,-700,17920,2240
5.52131,18.1506,-19.5135,-5.51709,-40.5199,-42.1972,-27.4423,-22.208,8.90937,4.45224,11.4295,-9.86568,-19.0534,-42.0993,7.74688,-37.6638,-170.312,-975.512,-109.312,-1260,18620,2240
13.7592,12.09,7.64217,-14.3724,-22.9976,-17.0017,-21.6114,-5.0818,15.1645,14.0029,13.3143,-11.332,7.77372,-17.4485,0.77181,-17.7239,-172.752,-975.512,-113.216,-1540,19600,2100
16.4591,13.8928,0.301229,-1.44795,-4.74918,-15.7662,-7.76155,-9.55958,15.5493,8.91806,4.8646,13.0848,-1.29826,-15.3726,-1.80439,-10.146,-169.824,-976,-109.8,-1680,20720,1960
50.8151,57.926,-33.4097,53.3048,3.53685,-35.2559,19.9811,-22.0055,50.9152,2.49317,-33.5453,60.8061,-37.8041,-32.049,44.6304,-22.2185,-169.336,-981.368,-111.264,-1540,21280,1960
131.745,150.398,-34.9048,116.325,53.3567,23.5266,67.1406,24.9947,136.103,0.354934,-39.6921,142.36,-38.3068,28.8675,114.959,35.5216,-166.896,-979.904,-109.8,-1540,21700,2100
107.205,147.61,-26.1748,76.083,52.9288,62.9464,57.6472,57.6706,127.197,-11.9678,4.5009,65.0563,-19.9509,61.5809,85.5385,72.6833,-166.896,-981.856,-109.8,-1820,21840,2100
-3.20631,52.1875,4.20192,4.46352,19.0525,38.3436,23.8979,38.3379,22.4673,-17.8789,17.6658,-110.057,6.78519,35.2796,10.4604,43.2628,-162.992,-979.416,-103.944,-2240,21840,2520
-105.434,-102.438,13.5149,-58.1295,-20.0397,-0.6048,-14.9933,-0.169594,-98.0584,-24.6314,1.44074,-146.655,13.4982,-3.08443,-42.6714,-3.3997,-160.552,-983.32,-106.872,-2660,21700,2940
-122.463,-172.76,19.3303,-76.003,-30.779,-11.9127,-34.1902,-16.9861,-137.182,-10.495,-6.97714,-76.1783,18.9312,-13.0248,-60.2723,-19.6404,-162.504,-980.392,-105.896,-3360,21280,3360
-62.7871,-94.1081,12.5055,-45.2652,1.28381,12.9525,-17.6516,-1.44069,-84.7179,-6.35764,1.43868,17.4551,11.7313,12.7243,-51.3041,1.60549,-161.04,-981.368,-106.384,-4060,21420,3920
-26.4667,-31.7766,1.05017,-21.3346,16.5887,23.0183,-3.30125,6.37446,-37.7927,-10.2049,13.4397,35.959,1.64719,22.7646,-38.3861,9.43939,-157.136,-978.44,-110.776,-3920,21420,4620
-15.0068,-12.8415,7.33187,-9.09762,9.81961,15.0569,-0.887372,2.15157,-14.7411,1.21262,-2.30318,-7.1083,7.29273,14.897,-20.8859,4.87599,-160.064,-976.488,-111.264,-3920,21700,5600
-20.3718,-16.8886,-0.241469,-12.8181,-13.868,-14.1724,-14.2569,-14.552,-18.2319,0.176923,-10.3951,-33.7362,0.863881,-14.3868,-18.7627,-13.8135,-161.04,-975.512,-114.192,-3640,22680,7000
-2.72393,-14.4561,13.9376,-1.52364,-7.58631,-13.7995,-5.00294,-14.768,-6.55401,9.47884,1.53771,-3.77611,13.304,-12.81,-1.5087,-12.6405,-162.016,-972.096,-121.024,-3640,23520,7840
22.8857,-0.198364,34.795,7.07703,11.679,12.1946,6.81179,4.46551,15.2798,33.0689,24.5024,34.728,34.0792,12.4327,11.3251,6.23779,-162.016,-969.656,-120.536,-3640,25060,9100
28.1151,13.2597,28.2869,3.75495,12.2868,12.4689,-0.488014,-0.368204,23.9549,32.7978,22.8055,37.6808,27.6274,12.9838,-1.12435,4.01416,-165.432,-970.144,-124.44,-4060,26180,9940
16.2287,19.192,5.37864,6.07983,5.54572,0.469314,-1.37827,-7.96661,16.6357,6.83372,-3.84766,23.1262,5.2869,1.00597,-4.9634,-4.72388,-162.992,-970.144,-122.488,-3920,27860,10780
13.7129,22.045,-8.67267,8.69971,-1.52296,-8.82277,1.73396,-9.20258,17.1035,-7.47234,-3.51082,14.7781,-8.18009,-8.44953,3.63163,-8.63463,-165.92,-968.192,-127.368,-3780,29820,11760
15.2831,26.8799,-8.05069,9.51187,-7.03733,-8.25402,1.21978,-4.42025,20.6494,-6.32134,-5.82124,3.32584,-7.28613,-8.42807,12.3668,-6.13989,-166.408,-971.12,-125.416,-3920,31360,12320
12.8222,24.5244,3.04694,8.4043,-1.54328,2.87618,3.98161,7.22287,16.9166,-0.430565,3.4823,-3.95148,3.11102,2.49421,14.6776,6.07109,-166.408,-969.656,-123.952,-4480,33180,12740
1.91116,7.68824,4.54696,4.14027,6.75532,8.29094,9.88886,16.3424,1.82795,2.4603,5.53017,1.25434,4.43608,7.93255,9.65043,12.9649,-165.432,-973.072,-126.88,-5180,34720,13160
-15.4264,-10.7307,-10.4887,-5.32719,-3.70306,-4.70869,0.300699,8.04224,-14.5475,-9.65127,-18.3355,-11.5184,-10.7402,-4.99505,-3.9808,1.02845,-167.384,-971.12,-126.392,-5740,36120,13580
-24.6305,-19.9978,-24.9855,-15.6432,-19.3496,-19.8336,-13.7663,-4.96989,-24.7264,-22.9122,-11.3692,-19.69,-24.8042,-20.2072,-13.434,-13.0917,-165.432,-971.12,-125.904,-6860,36820,14280
-19.5656,-11.0141,-16.8434,-11.2231,-15.5302,-17.3479,-12.8322,-9.13656,-20.8784,-14.2479,-5.89905,-13.5607,-16.3412,-17.0868,-12.4878,-13.36,-169.336,-972.584,-123.952,-6860,37100,14420
0.304385,8.66034,-3.27853,4.98354,-1.13857,-4.98024,2.13315,-1.16914,-1.12081,3.43948,4.26662,0.275128,-4.09812,-4.01693,6.92667,-1.02363,-169.824,-975.024,-129.32,-7280,37660,14560
16.4256,18.8361,0.631525,12.3366,4.38071,0.455667,7.13712,1.40363,15.5788,10.6572,9.94937,12.6576,0.221926,1.20302,15.2631,3.56,-173.24,-976.488,-127.856,-6860,37940,14420
18.3344,17.436,5.14297,6.91457,3.80837,2.8581,2.61211,-1.97,19.3305,8.69608,0.383201,11.3789,5.0682,2.87229,3.6616,-0.261228,-173.728,-977.464,-126.392,-6300,38360,14420
13.771,15.7454,9.54249,9.17579,11.1656,13.6282,6.17966,4.53232,15.0883,4.29563,3.74249,12.5837,8.80077,13.7247,5.37061,8.3338,-176.656,-976.488,-125.904,-6020,38360,14140
18.4062,12.816,3.85477,10.7298,15.6325,17.5854,9.76831,8.70207,21.0026,2.36502,-2.80702,15.049,3.70714,17.7111,11.8372,13.434,-178.12,-978.928,-128.832,-5180,38220,14000
13.1796,3.87161,-1.02912,5.02835,10.5626,11.3768,5.53398,6.26076,16.1731,3.50592,1.34144,5.20458,-0.818235,11.1907,3.64628,7.80406,-178.12,-976.976,-125.904,-5040,37660,14000
-3.37861,-4.5194,-8.65211,-0.676237,-0.129693,0.870412,-4.11141,-2.11254,-0.54324,-8.1292,-1.93774,-8.05101,-7.94203,-0.0306175,-9.29811,-3.08721,-179.584,-976.488,-124.44,-5460,37240,14000
-18.6853,-21.9087,-11.2671,-9.8643,-7.85305,-5.42607,-6.06675,-3.46081,-18.5486,-16.2437,-8.9492,-22.4152,-10.2427,-6.33395,-11.0709,-3.38505,-180.072,-975.024,-128.832,-6160,35700,14280
-19.7199,-22.8973,-14.298,-5.26549,-8.78347,-18.0541,-3.90051,-8.89283,-21.6758,-9.64269,-5.97271,-20.3586,-14.8161,-17.6044,-4.59821,-7.85995,-181.048,-980.88,-126.88,-6720,34160,14420
-5.4908,-7.90805,-15.0453,7.05377,-12.0189,-21.8556,-4.23981,-8.77417,-9.56798,-0.88011,-15.5904,2.89116,-16.079,-21.6565,5.1568,-13.3448,-185.928,-980.392,-126.392,-7560,33180,14700
-2.08832,-3.25187,-8.42556,4.27186,-15.7046,-11.1059,-4.88415,0.105143,-5.79889,-1.40513,-4.26409,1.15515,-8.56983,-11.5795,12.9221,-6.82133,-184.952,-982.344,-127.368,-8820,31920,15120
-0.94588,-9.57848,0.0450635,-16.2017,-12.1223,-1.15757,-6.58223,7.16653,-0.155007,1.39596,10.851,-16.9477,0.960934,-1.49702,0.437265,4.92676,-187.88,-981.856,-129.808,-9940,30660,15400
-0.525627,-18.6131,5.73418,-13.4487,1.5649,1.23617,4.48179,0.63358,1.85513,5.48862,9.3211,-12.8994,6.48322,1.54265,1.20505,5.23915,-189.344,-989.664,-128.832,-10500,29960,15820
8.18286,-12.6192,22.4745,4.71467,16.0731,21.8744,14.1772,8.15826,8.83044,18.484,22.9685,3.37638,22.1211,21.8034,8.88423,16.3828,-191.296,-986.248,-132.736,-11340,29540,16240
5.5973,-16.506,29.6898,-0.294616,19.012,30.1967,6.8245,13.536,3.76684,18.4038,13.105,2.71743,30.2158,29.4001,-6.66878,18.954,-196.664,-985.76,-127.368,-12880,28980,16520
-11.7622,-38.261,24.5559,-21.9825,11.4822,22.5257,-1.45318,9.33691,-14.9274,9.6462,12.5048,-9.28461,25.2938,21.2094,-27.274,12.8232,-200.568,-979.904,-131.272,-13160,28280,16660
-29.1184,-45.6914,9.69527,-18.1927,-5.17431,-6.05731,-11.4463,-12.3748,-30.0865,-1.50996,3.16701,-22.2495,9.6531,-6.87583,-30.2568,-18.0879,-202.52,-980.88,-127.856,-13860,27860,16800
-9.01591,-6.43198,-0.97246,13.8701,-18.492,-30.5158,-17.5431,-29.3438,-7.89299,-6.02446,-16.213,1.53054,-1.65642,-29.5269,0.177943,-40.7037,-203.008,-977.952,-133.712,-14700,27300,16940
2.70409,13.6172,-4.14545,17.4808,-13.567,-25.2375,-10.9344,-23.6746,1.81307,-4.94715,-5.16643,16.5501,-4.15895,-23.4664,20.8866,-23.3046,-211.792,-977.464,-130.784,-15820,26740,17080
-5.80006,4.43319,-2.69871,-10.2108,-15.6515,-14.8544,-12.8733,-8.52504,-7.18732,-5.71475,-7.2029,-2.25416,-2.4601,-14.454,2.60625,-10.0596,-207.4,-976.488,-131.76,-17220,26180,17220
5.05256,0.629578,7.93157,-19.8538,-6.22534,-4.04297,-11.4192,-1.76248,3.88901,-1.63692,-4.77322,7.3453,7.31495,-4.26397,-25.9448,-3.45563,-206.424,-976.488,-128.344,-19040,25200,17780
-2.12552,-8.68521,-18.305,-16.0611,-12.189,-30.1787,-13.2283,-24.7881,-2.06554,-9.999,-5.96318,10.4289,-18.2982,-28.893,-34.9896,-29.2791,-208.864,-974.048,-126.392,-19880,23800,17920
18.8764,27.6984,2.64464,10.5906,-10.2092,-7.30908,-5.81164,-15.9135,19.0456,9.07588,4.40313,16.6728,2.35677,-6.77337,0.840953,-10.005,-208.864,-973.56,-122.488,-21700,21980,18060
42.5811,71.269,-5.65591,40.3132,17.519,8.67914,21.728,4.80028,42.6838,8.27695,0.437295,46.6442,-9.02039,9.90195,40.3215,15.6025,-208.376,-975.512,-123.952,-23380,21140,17780
73.2081,105.021,-22.7916,55.7467,48.3296,35.5182,44.1847,37.5186,75.4029,9.3689,-21.9904,87.4222,-25.0637,38.1934,54.1796,43.0009,-210.816,-976.488,-123.464,-24920,20160,17360
76.5404,118.783,11.3757,64.3253,85.9903,96.5285,72.4181,77.3784,82.9147,5.01366,-7.47252,71.0489,12.8872,96.1363,62.1734,94.2723,-209.84,-971.12,-126.88,-25900,19180,16940
6.56614,63.0955,-3.68751,24.9054,62.0659,78.7535,57.0716,60.7699,20.6342,-28.6798,-1.13594,-25.2714,-0.962782,76.1197,24.8327,76.3956,-209.84,-969.168,-122.488,-26180,18200,16380
-73.4228,-28.2199,-24.3804,-19.5159,0.225093,11.7241,7.65071,16.3941,-63.5241,-33.2577,-10.418,-103.034,-21.4872,8.37547,-11.4123,13.0887,-210.328,-971.12,-129.32,-26740,16800,15680
-80.5406,-57.3718,-31.8937,-27.4876,-55.4777,-64.474,-30.9367,-21.0011,-85.3839,-9.46469,8.12809,-87.7827,-31.909,-66.0577,-8.13138,-46.1744,-211.792,-967.704,-130.784,-27020,16380,15120
-74.803,-63.5957,-26.8593,-50.9228,-92.1361,-97.9911,-66.6882,-48.8854,-89.2398,-9.7641,-6.62443,-53.7773,-26.424,-97.4477,-23.7771,-80.5348,-217.16,-970.632,-131.272,-27580,15260,14560
-5.43136,-3.9828,26.7609,-55.7301,-45.9585,-31.25,-47.2446,-17.5114,-14.3725,18.3274,11.6142,14.4506,23.9023,-30.243,-35.7871,-26.1714,-213.744,-974.536,-129.808,-27020,14280,14280
76.6282,77.8359,56.6464,-0.101253,55.9199,64.3612,31.5097,38.615,75.0135,49.7032,22.5781,113.967,53.355,65.5087,-9.4054,49.381,-218.136,-979.416,-129.32,-27020,13300,13720
39.1003,70.6923,-4.36191,36.0315,44.921,27.2011,37.4158,10.563,41.8672,-0.0773494,-13.8487,79.4189,-1.34408,28.3461,15.0898,12.3828,-210.816,-975.512,-121.024,-26180,11760,13300
-12.8466,38.8349,-41.336,13.107,-32.2384,-37.8878,-21.8263,-36.8579,-2.70786,-29.7808,1.90765,-48.6053,-38.1141,-37.1268,4.94746,-40.8949,-209.352,-970.632,-121.512,-24780,10640,12880
-29.8736,-11.8014,11.6339,-46.3182,-39.715,-13.3887,-41.003,-14.5266,-22.5144,-0.895254,16.3322,-95.6911,12.343,-15.424,-31.2508,-18.156,-214.232,-964.288,-125.904,-22960,9520,12460
-42.315,-51.4661,25.5204,-41.1122,-5.68462,-6.99931,-17.7951,-14.9339,-46.9359,-2.28183,9.02178,-37.9521,24.5218,-7.7559,-40.1926,-13.8937,-216.184,-963.312,-126.392,-22680,8960,12320
-79.3552,-96.7404,-17.157,-13.9518,-21.9795,-37.8641,-19.527,-37.5421,-89.8141,-30.8212,-2.19753,-22.6167,-15.8144,-37.2245,-25.1502,-37.895,-209.352,-955.992,-136.64,-23100,7840,12460
-65.4133,-93.7768,-0.601989,-22.1259,-48.3967,-38.0323,-36.4919,-35.6012,-68.8334,-5.05255,17.0653,-64.5415,1.3242,-39.1204,-16.0092,-28.4919,-210.816,-951.6,-136.152,-25060,5740,12880
-25.7549,-94.5025,24.4828,-44.6079,-48.1865,-41.1695,-37.4833,-35.9128,-31.1537,36.9272,39.1121,-57.7314,23.1368,-43.0246,-33.6321,-33.5764,-208.864,-948.184,-147.864,-26880,3920,13160
-4.60934,-129.113,12.1661,-32.4658,-37.5945,-57.6305,-30.067,-56.1348,-18.6032,39.2534,9.73021,4.4439,10.0588,-55.8227,-31.3569,-58.8203,-208.376,-950.624,-151.28,-28980,420,13860
60.6756,-70.2429,36.1069,27.6624,24.0612,22.7984,7.02567,-3.64128,46.8536,41.1883,-15.6193,99.4948,32.7822,25.1121,23.3358,7.79148,-212.28,-953.552,-155.184,-29680,-6300,14560
97.8052,-39.1953,42.615,25.8071,62.9223,89.7661,25.5703,60.448,94.696,22.442,9.1784,108.658,43.7793,87.2283,-3.7327,75.5757,-227.896,-962.336,-177.632,-29820,-15680,14560
56.3037,-68.539,-0.213434,32.0315,60.8037,55.7148,37.6788,49.8973,64.6628,-17.0212,-33.1315,39.8446,-2.85112,55.5076,-18.4987,50.6749,-223.016,-965.752,-169.336,-28700,-37100,14560
68.4933,-33.5072,-46.5262,104.728,55.3499,26.7771,63.8796,40.265,84.8234,-39.72,-62.8846,64.9601,-48.2689,30.6228,84.4851,40.1185,-178.608,-955.016,-135.176,-28840,-45080,14840
58.9785,3.80781,-45.0421,79.1149,42.3305,41.5209,54.2162,42.2252,77.5217,-43.2013,-22.5171,14.8307,-40.1763,42.2226,90.9306,54.4,-171.288,-933.544,-115.168,-32340,-41440,15120
1.01367,34.7004,-8.79262,16.9332,31.1227,39.701,42.9876,39.7985,12.2374,-16.8562,-14.5607,-80.919,-9.8931,38.1979,33.9569,52.9358,-470.432,-1083.85,-192.272,-33320,-79100,14280
-17.043,54.4606,0.984366,11.1929,30.1523,29.2908,38.3942,27.447,-17.2591,-4.35112,3.63837,-37.4431,1.77653,28.636,19.4664,32.1128,-145.424,-961.36,-127.368,-27300,-157640,8960
-20.588,94.0717,-11.8561,-3.62452,-10.7163,-21.7337,-7.40538,-9.67853,-23.5984,4.68235,12.9242,-18.6148,-11.4682,-21.9047,6.17006,-23.4128,-122.488,-910.12,-32.696,-22120,-122220,7840
-30.6052,129.872,-14.5172,-14.4387,-43.8138,-53.6273,-38.7668,-35.3016,-30.8105,9.62922,18.6832,-44.1104,-15.969,-52.2346,-13.6575,-52.0148,-142.496,-922.808,-9.272,-35280,-84840,8680
20.2224,145.53,30.1342,9.15779,0.211171,12.546,6.13213,6.58375,14.9309,30.2232,6.37375,38.5369,26.9312,12.1346,17.8423,3.45071,-162.504,-944.28,-51.728,-54460,-71540,8400
35.934,125.966,13.6386,15.3201,26.0136,33.6709,33.9159,18.5135,35.2271,10.8443,10.1683,74.3209,16.6283,33.0467,46.8035,25.4868,-171.776,-955.992,-81.496,-61880,-70700,8540
-57.4729,42.5055,-15.278,-45.2165,-8.03806,5.31307,-12.3898,2.02486,-53.0902,-27.675,15.4543,-49.5612,-12.1382,3.35777,-18.3655,0.0338977,-176.656,-956.968,-118.584,-61040,-70280,8400
-59.6782,-0.306591,-16.7885,-45.1173,-26.1295,-41.699,-23.1907,-27.055,-64.7608,-4.7292,-21.6727,-58.7861,-21.4929,-40.2907,-42.2044,-30.3387,-188.856,-955.992,-141.032,-54180,-67760,8680
-22.1487,-16.408,-32.8196,-8.54115,-25.4617,-44.3903,-15.1897,-36.3093,-36.0336,-6.48301,-12.2584,37.8676,-32.0278,-42.8248,-18.6831,-45.7816,-194.224,-956.48,-150.792,-47600,-62860,9240
-24.498,23.795,-18.391,-10.9593,-62.6984,-53.6627,-56.1053,-35.5252,-19.5943,-17.1868,10.595,-4.66561,-14.6588,-57.5046,-16.7011,-62.4762,-195.688,-948.672,-150.304,-39200,-55160,9940
-8.1497,24.8685,20.829,-35.0504,-61.2142,-52.9841,-63.9956,-33.3632,5.54666,12.4831,17.9202,-51.3644,20.1252,-52.7668,-35.4354,-50.4194,-193.736,-944.28,-135.176,-32340,-46900,10080
7.40374,-33.334,23.4957,-46.1776,-25.422,-28.2309,-36.1457,-21.3715,6.49779,22.7015,14.1959,12.1342,21.8313,-26.4587,-43.919,-22.6648,-191.296,-940.376,-142.496,-26320,-40600,9800
26.4692,-28.0304,28.1865,-18.5938,1.97391,9.81367,-9.97475,4.40946,21.7222,31.5989,25.4366,45.0041,28.2772,10.1292,-29.0614,7.47718,-195.688,-940.864,-144.936,-21560,-32900,9100
27.5196,-10.6508,30.4043,5.69126,35.8643,49.8157,26.0984,38.7988,24.7306,20.1002,11.8058,48.55,29.5425,49.7098,-1.27393,49.8708,-201.544,-942.816,-150.792,-20720,-29260,8540
20.2242,-13.415,-9.84872,4.24457,32.1484,31.2867,30.4513,27.4597,22.5532,-14.887,-23.2848,31.2196,-8.77169,31.5249,7.06854,37.7596,-205.448,-942.816,-156.648,-19040,-26600,8260
-34.0736,-50.509,-31.7951,-7.85007,3.2151,7.65165,8.5452,7.33349,-30.5593,-43.7656,-21.2206,-46.3112,-29.1033,6.76916,-3.93322,12.1338,-208.376,-944.28,-155.184,-18060,-24220,7560
-77.6437,-95.5169,-19.475,-35.0665,-19.9521,-5.21613,-18.9859,-3.28444,-76.304,-43.5873,-14.3645,-88.7792,-17.8454,-6.96536,-33.8212,-3.14863,-211.304,-947.696,-161.04,-17220,-23660,7000
-47.0281,-98.0707,6.16627,-23.5971,-0.717835,3.7486,-5.68525,-0.269137,-52.7413,-6.09493,-3.85748,-38.696,5.9853,3.75493,-27.4272,6.18804,-208.864,-947.696,-169.336,-15960,-22540,6300
-7.28675,-42.4093,-8.4307,43.3121,25.619,-8.68521,26.178,-16.837,-15.5211,4.26074,-3.4925,26.566,-9.85626,-5.37482,26.0559,-2.98098,-206.912,-951.112,-167.872,-15960,-22400,5740
39.8006,39.7265,5.28504,100.66,35.9152,11.5758,51.3881,-5.13771,38.523,18.1113,3.86166,49.5569,5.24918,13.9786,92.7648,9.58578,-209.84,-958.432,-168.848,-15540,-22120,5180
50.2413,38.4836,34.3669,55.2132,18.6922,30.7345,32.9952,12.7777,52.029,37.0965,33.5934,24.5152,35.0888,29.3341,71.6267,26.45,-204.96,-959.408,-172.264,-14980,-22960,4480
2.1723,-37.1628,21.6878,-46.1898,-20.3688,-3.68816,-31.4549,-17.1014,1.8025,21.2025,27.3645,-32.9724,22.0511,-5.94221,-32.7525,-16.3848,-197.152,-963.8,-169.824,-14700,-23940,3780
-37.4281,-78.1614,11.0644,-61.5142,-25.863,-17.0029,-44.9665,-22.3519,-46.8336,-5.36218,-17.1679,-27.8736,9.2861,-18.643,-70.1287,-32.9781,-197.152,-966.728,-169.336,-14140,-25480,2800
27.2599,-17.7978,27.256,-15.2335,6.23661,9.55305,-19.3901,1.66384,18.2443,14.1983,-17.146,59.9055,25.4699,9.7389,-53.7241,-7.35814,-195.2,-963.8,-180.072,-13020,-25620,1960
68.6896,56.6137,25.2629,31.0796,37.4413,39.3124,20.6869,29.2015,71.4595,19.8748,-4.81836,77.0168,25.6887,39.5854,4.4926,28.1291,-192.76,-961.848,-183.976,-11760,-25900,700
59.3883,57.3271,9.91671,29.7278,39.0114,39.976,28.3326,30.1911,70.0733,13.3152,13.0349,21.1176,9.97178,39.9247,19.7544,32.8338,-196.176,-962.824,-180.072,-10780,-25200,-420
-3.55861,-1.23093,-15.7521,0.910805,10.4355,11.1157,19.5704,17.197,5.51532,-16.5054,6.594,-47.7338,-14.9876,11.1235,17.8512,18.2522,-197.64,-960.872,-187.88,-9660,-24360,-1260
-65.7056,-55.7503,-20.2586,-21.5659,-19.546,-13.4429,-6.49374,1.45832,-66.7654,-31.3115,-9.67586,-64.2221,-19.7532,-14.1871,-6.72893,-2.29965,-196.176,-957.456,-190.32,-8260,-22680,-2100
-38.1109,-39.9675,-25.8385,-17.0516,-40.7618,-52.4878,-30.1352,-24.791,-43.3195,-13.6971,-11.2044,-30.4307,-28.7351,-52.44,-16.2602,-43.9576,-197.64,-955.016,-187.88,-7280,-21840,-2380
42.7567,67.4988,-53.9323,52.0231,-13.8098,-48.9531,6.04274,-6.16052,37.4115,-18.6668,-58.1969,78.8487,-58.9675,-45.2944,52.8604,-27.2708,-200.08,-949.16,-190.808,-5740,-20160,-2940
76.5415,152.153,-62.1,84.5971,21.3494,-5.9812,42.9949,14.1007,87.2832,-26.9924,-33.7206,89.4043,-59.498,-2.9978,95.5267,17.4953,-199.104,-946.72,-190.808,-3360,-17920,-3500
18.5213,89.3415,-27.3672,23.7462,-0.703288,10.864,18.8593,13.2915,35.8772,-12.0251,24.5408,-61.3823,-24.0265,9.12022,41.8768,19.2839,-202.52,-944.28,-188.856,-1680,-16520,-3780
-48.294,-39.7959,-2.23922,-35.1516,-18.2196,-1.57084,-9.94457,4.73966,-47.8509,-6.93562,12.8882,-95.0423,-2.19894,-4.02991,-15.2822,5.37159,-205.936,-942.816,-190.808,-140,-14420,-4060
-45.6924,-69.2869,-11.8951,-46.6776,-30.6921,-34.7625,-17.3916,-17.7146,-50.6093,-5.75874,5.88378,-38.5284,-11.7571,-34.153,-20.3877,-19.0774,-203.984,-941.352,-190.808,1260,-12740,-4340
16.1906,10.3528,26.8924,-2.56558,-2.83299,-2.70173,-8.52885,-18.534,15.3961,30.1637,22.4866,16.9222,26.5902,-1.54548,-6.40592,-11.7105,-209.352,-936.472,-189.832,3080,-10920,-4900
-3.58257,4.22557,39.8269,-3.42587,12.8969,26.0383,1.31539,0.643714,-6.48132,24.7601,24.8403,3.31453,40.8502,25.0326,0.672468,9.50172,-212.28,-937.936,-190.32,4900,-9520,-5320
-21.7293,-41.2738,27.4082,-36.2129,2.54743,17.7066,-14.1147,3.87906,-26.5299,12.9094,12.9332,-5.24074,27.7131,16.3978,-40.672,4.79295,-210.816,-937.448,-187.88,5740,-9100,-5600
-13.4881,-20.3922,24.149,-21.2332,9.81782,12.7521,-9.62693,0.582412,-16.4827,5.52447,-6.16325,14.1754,23.3156,13.0101,-44.8738,0.946139,-208.376,-938.912,-186.904,7000,-8120,-6160
6.58367,8.37028,16.4674,5.62804,16.5253,14.824,2.11432,2.48126,4.14504,3.11973,-2.40556,34.425,16.2092,15.0769,-19.6044,3.82595,-210.328,-939.888,-188.368,8400,-7280,-6720
0.75244,11.227,3.29885,7.47778,8.7194,7.23765,7.09111,1.42278,2.59267,0.681849,-0.711745,10.5334,4.27973,6.8442,0.897856,7.46544,-211.792,-942.816,-188.368,9800,-6160,-7560
-8.95668,5.78869,6.70755,5.90149,1.92461,0.512988,8.851,-1.0425,-7.25877,6.42573,6.27798,-15.6054,7.01159,0.954401,14.3098,3.84205,-211.304,-944.28,-189.344,10640,-4760,-8120
-2.82538,-0.458757,11.678,14.8005,8.29726,8.37801,10.5413,0.0655652,-4.82864,6.06459,6.41431,9.14372,11.6895,8.65605,26.8509,3.93178,-214.72,-942.816,-187.392,12600,-3920,-8820
6.1466,-6.18475,5.47455,-10.5592,-3.84106,-0.291068,-12.3036,-3.87569,4.81647,4.48981,-4.64928,12.7609,5.23807,-0.655513,-11.6498,-6.88626,-217.16,-945.256,-196.176,15680,-1820,-9940
10.0012,-5.40376,-0.479217,-13.1129,-3.50074,-1.94503,-7.87745,-0.599075,11.3306,0.715276,-0.345576,9.48766,-0.258874,-2.38616,-14.7361,-3.60699,-212.28,-952.088,-196.664,16520,-840,-11200
-5.9268,-2.10111,-6.50878,-3.70849,-2.60432,-0.973714,0.865352,3.9375,-5.27883,-13.7925,-15.6808,-1.34481,-6.82227,-1.45943,-1.60761,2.09939,-212.768,-956.968,-198.128,19320,700,-12460
-9.38634,-13.5715,-13.8449,-20.7241,-16.8712,-15.0749,-18.274,-7.73951,-8.8744,-11.979,-3.50002,-15.6452,-13.3291,-15.6152,-30.3921,-13.5654,-214.232,-955.016,-202.52,22540,3220,-14280
-35.5535,-29.3442,-15.286,-14.4412,-16.0386,-17.3667,-9.94602,-6.21922,-37.4318,-15.841,0.214398,-30.6378,-15.4944,-17.3228,-11.7977,-10.7367,-212.28,-955.504,-201.056,26040,4480,-15680
-8.94426,-2.14444,-1.36875,13.1793,0.0784567,-4.8249,1.52281,-2.90864,-8.36748,0.299602,-3.75368,-1.00624,-2.47492,-4.06393,11.322,-3.22945,-207.888,-957.456,-200.08,29680,6020,-17220
29.3477,19.6981,-0.124647,14.2273,0.753043,-4.15497,-3.48085,-8.78407,31.0745,14.2316,10.8059,23.8906,-0.510875,-3.60579,5.44804,-7.44998,-206.424,-963.8,-200.08,32060,7420,-18620
14.3569,-1.50576,-3.66274,-16.9427,-14.5558,-10.7216,-22.3305,-12.2255,14.0886,9.5276,5.71971,-0.177541,-3.67943,-11.6201,-28.5155,-17.1887,-208.864,-965.752,-198.128,35840,10080,-20160
-4.15701,-23.0884,-8.73363,-21.1321,-12.1425,-7.82613,-7.8866,3.66257,-2.85985,-3.44725,-0.245897,-15.3925,-8.86318,-8.09069,-5.74401,-0.56812,-208.376,-968.68,-198.616,38080,13020,-21420
4.91124,1.58434,-7.35596,5.82859,6.25924,4.70519,12.1026,12.1673,7.10262,-7.42572,-4.02245,4.2992,-7.32464,4.90493,14.9708,13.3183,-204.96,-969.656,-197.64,41440,14980,-22260
14.4461,30.4829,-0.634577,21.2201,14.4314,11.8956,15.3304,11.889,17.1781,-3.97632,-9.7976,15.089,-0.426172,12.6329,12.791,13.8358,-205.936,-970.632,-194.712,45220,18200,-23100
-9.73051,0.147472,-5.87293,11.7976,8.46353,7.29432,17.6141,9.91777,-11.5112,-11.3603,-3.63206,-4.09638,-4.95931,7.72517,23.0693,12.7875,-203.496,-973.072,-194.712,47740,20720,-23800
-25.1951,-16.0868,-7.0941,5.14635,2.81747,0.665488,12.0524,1.12813,-26.5867,-13.8621,-7.47699,-17.9939,-6.219,0.311464,15.8383,5.94205,-206.912,-974.536,-196.176,51100,24500,-24360
-14.5774,-0.956868,1.88485,13.3021,1.68029,-4.16417,6.63173,-9.29762,-19.2983,0.325423,0.325014,-8.05618,1.43707,-3.74855,8.69934,-4.70135,-205.936,-973.072,-196.176,54320,29400,-25060
-27.242,-21.5792,-2.80056,4.88041,-1.1989,-2.29018,6.11105,-2.43159,-39.4733,-3.68864,-0.330785,1.05211,-2.78595,-2.36985,11.2905,-3.65499,-211.304,-977.464,-197.152,58660,33320,-25620
0.607115,-12.3362,0.113605,-6.35681,-1.59509,1.48005,5.34174,9.51424,0.769977,1.17869,-4.84494,2.48676,-0.131863,0.68418,16.2218,6.71931,-212.28,-976.976,-198.616,63840,38500,-26740
47.6363,42.1461,13.3008,16.7164,12.5434,11.5159,7.5365,6.69764,55.9519,17.0307,9.9845,18.5237,12.8001,11.4967,12.5019,7.79822,-212.768,-976.976,-203.984,67900,42700,-27300
27.3036,40.8773,10.8642,28.9913,20.1899,16.0325,4.55462,3.44569,27.7566,7.94467,-2.66247,24.3659,10.9085,17.13,-5.07178,4.96332,-212.768,-975.512,-200.08,72800,47880,-28420
36.5686,28.4956,7.46643,15.525,12.4926,11.7003,-2.76082,0.599155,40.8346,13.2539,5.01735,19.4539,7.48688,11.7168,-21.255,0.349884,-216.672,-977.464,-205.448,76720,53060,-29260
40.2447,9.40257,4.58669,-20.2871,-6.30116,-1.14498,-13.5533,-2.77166,45.4754,13.3158,8.57273,3.48216,4.95737,-1.64387,-32.2635,-7.30952,-214.232,-982.344,-206.912,81480,56700,-30100
-1.82317,-28.2307,-2.38573,-25.6355,-11.7857,-8.77965,-4.2131,-1.8286,-1.24625,-2.19671,-2.01479,-20.4134,-1.9783,-8.96579,1.72207,-2.86089,-211.304,-982.832,-205.448,83720,60340,-31500
-20.5917,-26.1229,-0.923071,-11.1575,-9.00613,-8.07209,-5.29347,-3.64576,-24.1968,-3.21796,6.58538,-21.8432,-1.3216,-8.33812,4.23457,-4.23614,-206.424,-986.736,-177.632,82600,60900,-32200
-6.18915,-11.0436,3.51085,-12.135,-10.5407,-9.85024,-13.5705,-7.32529,-9.23477,4.98134,2.42356,-0.953821,2.92678,-9.69712,-14.1623,-8.63247,-198.616,-988.688,-163.48,85120,62720,-32200
-1.11479,23.0288,4.99896,19.9002,8.90144,4.62036,11.2978,1.72119,-3.06703,-2.0277,-0.834451,16.4172,4.68658,5.58275,26.9267,7.55038,-186.904,-992.104,-152.256,88480,64540,-32200
-35.5979,34.342,4.48455,50.7271,25.4667,19.2845,23.9368,7.81347,-43.4123,-15.5464,-6.4454,11.1263,4.59672,20.0884,46.2923,16.3339,-186.416,-986.736,-136.152,90300,64680,-31920
-25.2782,-0.850491,1.50424,18.1321,14.2114,14.8711,8.98431,5.78409,-27.21,-9.3986,-11.3147,4.4719,1.5727,14.7404,8.81196,11.1579,-180.56,-995.52,-123.464,90160,62860,-31220
19.7826,-35.5928,-6.62203,-54.0157,-22.7447,-12.4039,-22.1981,-2.8568,28.4904,7.23889,6.95022,-11.0354,-6.48698,-13.2752,-44.7854,-8.99989,-172.752,-1001.38,-98.088,89880,61180,-30380
32.2545,-11.1587,-4.38197,-32.8188,-18.2233,-13.4263,-16.7804,-4.1972,38.9562,9.66496,3.14837,-7.26831,-4.39003,-13.9269,-24.9761,-8.86616,-173.24,-1003.33,-87.84,91560,59640,-29680
0.336929,-18.3639,-6.67631,-16.0038,-9.9193,-8.47459,-3.45572,-2.62025,2.02174,-2.861,1.91311,-14.9329,-6.4196,-9.32415,-2.1567,-4.47083,-171.288,-995.52,-90.28,92680,58520,-28840
-14.6071,-31.4206,-8.4583,-20.2212,-15.6773,-14.8788,-4.65909,-5.41142,-13.6024,-2.3987,5.78481,-26.2607,-8.16966,-15.0753,3.72715,-8.98749,-167.872,-995.52,-91.744,88340,54880,-28140
-11.8089,-10.06,-4.94316,-3.87619,-9.99306,-12.0499,-2.17674,-5.91386,-13.7353,0.527032,-0.779019,-11.9085,-5.04481,-11.9859,11.1543,-6.31768,-160.552,-999.424,-92.72,80360,49420,-27440
-0.790242,30.9245,0.881421,26.5441,6.22076,-0.44026,2.57501,-6.39036,-0.403284,2.25444,5.41418,13.6022,1.07586,0.497774,8.78737,-3.37022,-149.328,-999.912,-68.808,74620,45780,-27020
7.23511,44.0774,6.78629,20.7651,9.01911,6.40798,-7.58067,-7.78038,9.71727,1.39597,-3.55766,20.9399,6.84226,6.84015,-18.0374,-7.37883,-150.792,-996.496,-63.44,71540,42700,-25060
-4.57545,17.0487,0.812262,-0.175616,2.78739,4.22187,-2.99051,1.99516,-3.88077,-5.46323,-5.74439,6.00019,0.522121,4.37232,-13.0576,0.684869,-147.376,-996.008,-43.432,69440,40880,-23940
-29.7184,-0.663977,-3.47562,6.11474,6.83003,6.62936,3.06887,5.26175,-37.4335,-12.8734,-8.45667,2.11135,-3.29847,6.62631,-8.33541,6.07193,-143.472,-1001.38,-31.232,67900,38080,-21560
-49.9158,-47.8908,-5.644,-18.5793,-3.44423,0.791391,-4.73976,3.2153,-57.419,-15.1887,-14.3284,-11.447,-5.71932,0.0951669,-28.2049,1.46113,-150.304,-989.176,-38.064,68180,35140,-19600
-3.1373,9.79415,4.01098,21.9884,15.0022,10.9328,13.7013,5.83014,1.27383,-1.84126,1.63623,8.56592,4.11956,11.6061,13.1689,8.95539,-151.28,-985.272,-47.824,62580,31360,-18620
-11.9181,-27.0692,-4.69518,-9.30752,-4.39921,-1.26551,5.60432,1.58145,-13.5683,-4.38138,-1.4795,-15.6591,-4.27749,-2.09919,14.458,1.03497,-153.72,-979.904,-53.192,51380,24080,-17080
-21.648,-52.0344,-5.80317,-30.1207,-15.541,-11.6136,-0.7947,1.55191,-22.1029,-6.09259,0.29589,-22.5338,-6.24414,-12.0172,5.9134,-1.7558,-165.432,-966.728,-70.272,40600,18480,-16100
15.8854,23.3782,3.1446,8.86768,3.24582,0.0579895,0.849696,-0.658932,20.8376,2.42389,4.02509,15.5099,2.50049,0.290581,1.83243,-1.91963,-149.816,-980.88,-36.112,22820,11900,-14000
14.4218,11.3797,-0.764732,-0.674528,-1.96208,-1.82173,-2.81834,-1.02936,14.0588,5.15159,-1.39202,5.9307,-0.764643,-1.79011,-5.31632,-3.69784,-145.912,-977.464,-36.112,20300,10220,-12180
17.8085,21.3354,4.92942,15.3683,8.3694,5.85297,9.43813,3.03175,21.5175,8.44608,8.90942,6.1058,4.58307,6.36824,14.5342,2.96097,-150.304,-973.072,-28.304,19880,11340,-10640
44.8424,37.9795,11.5454,10.4929,8.43692,6.24008,-5.07974,-3.40168,49.2763,20.0846,6.38251,21.945,10.9204,6.73839,-11.1535,-6.37533,-154.696,-968.68,-23.424,16240,9940,-8260
10.8762,11.1282,2.00002,0.119051,-0.239573,0.947958,-10.2866,-1.03844,6.40758,8.68633,5.62153,6.16662,2.15371,0.23546,-6.39902,-6.13374,-156.648,-963.312,-30.256,13020,7980,-6440
-3.43107,-30.4172,-7.87427,-20.376,-12.1207,-7.42381,-8.42677,1.61462,-3.93696,-0.375402,3.76534,-17.4028,-7.0273,-8.53159,1.8745,-1.16087,-169.336,-961.848,-33.672,9940,4900,-4480
17.5825,-17.3089,-2.14645,-16.1635,-7.89827,-5.53567,3.11502,5.27292,22.5463,5.99242,-0.544447,-13.7793,-1.68006,-5.80919,12.7128,7.19237,-178.608,-959.896,-55.144,9800,4200,-3080
27.3893,20.1505,9.09492,17.7696,10.6396,7.12503,22.1565,9.66355,31.2511,11.1439,9.80984,5.05619,8.18599,7.73312,35.9199,15.632,-179.584,-961.848,-74.176,7420,3220,-2240
12.3804,0.564476,5.2232,0.386079,2.28239,1.30822,8.99859,2.87533,8.59352,4.96958,-1.39314,6.04253,4.57255,1.37941,7.47513,7.33383,-178.608,-959.896,-86.864,3780,2380,-1260
-15.3414,-3.0588,0.505632,6.76319,4.39724,2.35645,1.10117,-0.522921,-22.7253,-5.49035,-2.9186,7.24372,0.798471,2.69938,-10.9805,2.40872,-182.512,-962.336,-105.896,2940,2520,-840
-4.04519,31.868,8.21758,28.256,15.9901,10.567,-3.20785,-3.72571,-8.02603,-0.625916,1.66595,21.1817,8.50608,11.8829,-19.4533,-2.99415,-179.584,-957.944,-111.752,3080,3220,-560
-16.2763,-4.07389,1.73849,5.59414,6.53595,7.25262,1.83772,-0.621697,-20.2952,-6.81031,-9.46103,4.54781,2.21426,7.37129,2.31599,-0.458392,-181.048,-957.456,-119.072,4620,3920,280
7.87689,-7.63352,-3.30905,2.1489,1.03404,1.64535,11.8455,-1.13859,14.3408,-1.9038,1.4838,-1.79353,-2.82983,1.29015,36.8613,3.27815,-178.608,-951.6,-120.048,5040,4480,1120
8.1668,11.5896,-5.37339,15.4015,4.33494,3.40188,14.3972,0.67623,9.99175,-5.04644,-5.61809,-3.96512,-5.39639,3.19226,39.3784,8.10292,-173.24,-950.136,-124.928,4200,4340,2100
-33.297,-29.9821,-9.45279,-11.2791,-6.09641,-3.33086,1.72575,1.97762,-39.3109,-16.5818,-7.85938,-19.5875,-8.93019,-3.81648,2.04398,4.75096,-170.312,-955.016,-118.584,2380,4200,2800
-22.8946,-22.483,-4.52097,-26.1083,-14.769,-11.7416,-21.3863,-4.59885,-23.9525,-8.05591,-1.52615,-13.1566,-4.07371,-11.6831,-47.4509,-10.6693,-170.312,-959.896,-121.024,0,4900,3640
3.45673,24.4695,6.74077,5.82091,0.273904,-2.01946,-18.969,-3.92377,2.39912,6.89518,-1.74549,11.1431,6.36824,-1.4532,-46.0209,-10.1231,-173.24,-961.848,-126.88,-840,6020,3920
-7.94588,14.0321,1.18824,20.2765,7.12029,3.39484,-2.06803,-2.3121,-7.68526,-2.26209,0.365829,7.37499,0.780987,4.00593,-5.39911,-4.78032,-176.656,-960.872,-135.176,-840,6300,4620
28.0581,20.6306,-1.21082,-2.20164,-6.35273,-5.31687,-11.9181,-10.7115,39.1158,4.23949,-3.36681,3.29573,-1.29583,-5.34815,-10.6724,-11.5003,-178.12,-963.312,-134.688,-1120,5320,5320
47.8501,18.9005,-1.50916,-22.9301,-18.2591,-13.2702,-14.5957,-8.53524,59.7472,12.7388,4.07295,-2.51639,-1.43008,-14.1154,-7.26377,-6.89645,-183.488,-966.728,-141.52,-1400,4340,6020
42.8915,9.78897,-0.453754,-23.8421,-15.3013,-9.9428,-8.34802,-1.86516,49.2096,12.7942,9.83327,-0.755787,-0.581421,-10.5014,-2.81819,-0.11917,-181.536,-973.56,-141.032,-1960,2940,6580
-30.6191,-45.1796,-10.0095,-21.1433,-6.82136,-2.45819,14.5454,15.6651,-40.7249,-15.9205,-8.24463,-22.6008,-9.7341,-3.27967,17.5435,18.5531,-182.512,-974.048,-144.448,-1680,2240,6720
-71.1241,-37.7183,-8.60689,14.0926,11.7015,8.1708,27.5441,14.2513,-81.0307,-27.466,-3.48948,-17.2921,-8.31537,8.60002,31.4874,21.7617,-186.904,-982.832,-146.4,-1260,1960,6440
-2.07661,58.9024,13.3617,43.7937,25.0325,17.0844,4.82226,-1.63552,-0.155733,3.81631,2.94281,26.7279,13.0044,18.4422,-11.7348,4.86182,-188.856,-986.248,-148.352,0,1820,6020
-7.54032,1.63004,9.82765,4.37025,7.96727,7.93355,-10.5906,1.66764,-16.5395,7.59109,-1.10513,14.6688,9.60876,7.97146,-35.5181,-7.48815,-190.32,-986.248,-146.888,1540,1540,5600
-15.3638,-59.1394,-1.94576,-17.8555,-3.63973,-2.9184,3.67919,-1.31437,-19.0971,2.36483,-0.332982,-5.76355,-1.76513,-2.9872,9.44679,-8.43747,-188.368,-986.248,-144.936,3780,1400,5460
28.23,-15.4905,-5.1278,-17.7495,-10.3283,-9.2458,7.45213,-7.57579,39.3419,9.7456,3.64968,-7.76775,-5.39626,-9.11355,28.3261,-5.90083,-187.392,-985.76,-138.104,5040,700,5320
22.9411,14.7921,-0.284801,-13.5351,-12.2313,-11.4146,-15.2688,-20.4652,24.2611,10.6884,16.7836,-2.79665,-0.652961,-11.5126,-17.1964,-19.6749,-186.904,-982.344,-129.808,5180,-1260,5600
-100.708,-68.3047,-8.24236,-20.857,-8.63034,-5.37167,-15.8566,-15.4789,-122.654,-33.4172,-14.3211,-26.8959,-7.99438,-5.95504,-24.5901,-15.4535,-186.904,-984.784,-120.048,3360,-4900,6160
-80.7438,-59.5871,-8.23574,-11.1275,-0.172751,1.1533,2.35971,8.65503,-87.4621,-27.9515,-8.88478,-19.7586,-8.18996,0.511401,9.51588,3.25646,-186.904,-990.64,-116.144,1400,-7420,6440
20.864,64.1311,3.45336,56.3849,26.6433,17.4892,23.0055,19.4222,28.6493,3.48093,4.33223,20.1147,3.42497,18.7758,50.2325,15.8057,-184.952,-992.104,-115.656,-840,-10220,6160
37.6247,45.5138,5.36106,20.7809,8.69199,7.82848,-0.83314,5.99864,46.4919,11.7589,-1.20107,14.8208,5.37318,7.37068,5.22595,-1.58444,-186.904,-994.544,-110.776,-1540,-11620,5880
74.8757,27.277,-1.51806,-20.0791,-19.062,-16.1033,-17.7601,-7.09402,94.4195,22.2382,16.6857,-1.55155,-1.92926,-17.2127,-10.299,-13.6945,-188.856,-995.032,-115.168,-700,-12180,5460
87.2075,48.9451,2.82251,-15.1156,-17.1067,-14.5849,-23.1972,-6.89751,100.649,27.0905,4.8306,11.8104,2.49823,-15.1649,-23.7404,-13.3722,-189.344,-994.544,-119.56,840,-12740,5180
38.1617,1.05047,4.27407,-24.8383,-11.7389,-7.06591,-8.22225,7.71762,33.8165,19.7513,-2.73089,5.4319,4.14833,-7.71424,-20.5481,3.65053,-192.272,-994.544,-125.904,1680,-13160,5040
-16.0425,-12.3809,7.40441,16.9795,14.7359,12.1553,24.4437,14.7198,-27.1239,4.98606,-0.791421,5.82393,7.19671,13.0509,27.3326,23.7906,-192.76,-998.936,-125.416,2520,-13300,4200
-5.52881,43.688,13.1,57.8556,35.9136,27.8496,32.0808,14.2292,-7.7182,3.62058,-3.00643,26.1658,12.8734,28.9606,32.6282,27.4873,-197.152,-996.496,-127.856,5880,-12040,3220
-8.52025,20.0212,4.93049,28.2989,20.4163,18.9579,16.2824,6.12118,-14.12,-1.67707,3.47193,12.825,5.05201,19.4022,2.11195,16.2781,-196.176,-989.664,-133.224,8680,-11480,2800
-65.1991,-101.803,-9.13411,-62.1103,-23.1618,-11.7864,-19.5507,-11.3479,-76.2701,-20.7633,-8.10345,-30.6896,-7.87515,-13.2032,-50.3817,-10.931,-199.104,-986.248,-130.296,11340,-11620,2240
-15.1053,-39.0717,-7.67766,-39.7412,-21.4582,-18.3416,-16.7133,-10.5901,-8.83716,-12.4069,0.379418,-19.8076,-7.51092,-18.9437,-29.2296,-16.4822,-195.688,-987.712,-122.488,12180,-11900,2100
5.84793,29.2641,-4.1129,13.5244,-1.0234,-5.22014,-1.8912,-2.63627,11.3952,-9.11273,-4.61766,-2.99846,-4.41363,-4.78056,4.91647,-7.49475,-199.592,-983.32,-115.168,12740,-13020,1540
-18.093,9.6057,-1.23436,8.82215,2.30071,1.0522,3.93982,7.62915,-21.3134,-10.9408,-13.0973,-2.63252,-1.33735,1.56268,3.11356,5.89355,-194.712,-985.76,-109.8,11480,-14280,1540
-11.1776,-5.185,5.51202,6.67201,9.22485,8.21649,13.751,11.4753,-16.5019,0.00503944,8.74914,7.39723,5.45488,8.8073,8.85843,15.4003,-197.64,-987.712,-107.848,10500,-14840,1120
2.46176,-8.74845,1.94264,0.16379,3.86642,2.27144,9.00131,-0.953416,2.27363,2.16842,4.33426,5.15917,2.43405,3.03518,11.8353,6.04723,-196.176,-986.736,-109.8,10360,-15820,0
19.341,24.0772,4.92711,31.3887,18.8612,12.1825,24.7,-0.65348,22.5506,3.03704,2.72529,15.5832,4.52771,13.3124,45.8679,10.7472,-200.08,-987.712,-109.8,9940,-17080,-560
-3.73188,22.9446,-0.549344,54.5818,26.0656,17.3731,25.4788,-4.87825,-6.62077,-5.90573,-2.25956,11.1884,-0.272369,18.4246,55.4168,4.57388,-203.008,-983.808,-111.264,9660,-19460,-1260
1.6448,7.43724,-6.1873,15.2659,0.94743,1.24626,-11.0007,-14.4835,2.97584,-3.91681,-9.09927,0.65092,-5.73886,0.722868,6.13666,-20.0322,-203.008,-982.344,-111.752,9380,-22400,-1680
-1.6976,-43.6051,-15.2546,-55.0057,-36.2303,-24.2685,-37.1561,-8.16046,0.944947,-3.29373,-0.158056,-28.1162,-15.0618,-26.6558,-26.077,-24.2573,-197.64,-980.392,-102.968,7840,-24640,-1820
33.4871,1.84444,-3.12112,-39.1846,-28.4185,-23.0053,-32.3627,-5.75579,42.8256,13.3788,3.99618,-10.3227,-3.07362,-23.5828,-35.3824,-16.5963,-201.056,-976,-103.456,7840,-28280,-2240
29.8194,21.1806,5.6156,-16.597,-9.62089,-8.66428,-12.6361,-4.6553,35.0227,13.293,4.73214,4.46314,5.69741,-8.27225,-27.7753,-3.7405,-201.544,-976.976,-100.528,7420,-30800,-2520
2.35872,11.845,1.3945,-2.99419,-3.16038,-4.32875,-5.54715,-7.3965,1.81915,2.07911,5.05327,1.71564,1.48459,-3.78103,-20.3093,-0.0114453,-197.152,-976.976,-99.064,6160,-34440,-2940
-4.77387,15.2815,4.25365,12.5264,6.72292,5.57891,1.2148,-3.25854,-7.34027,1.79333,-0.455995,8.97594,4.10515,5.4582,-12.9077,4.63037,-191.784,-975.024,-98.088,6300,-36680,-3360
-4.53644,3.73791,1.80933,-8.78419,-2.02484,0.930035,-4.98218,0.927769,-6.66882,0.721607,5.58098,2.08124,1.30525,0.3415,-22.2539,0.817572,-193.248,-968.68,-99.552,7280,-37940,-3360
-21.7783,-28.8528,1.94007,-10.5117,0.994104,1.67089,3.76498,4.63138,-30.1747,-0.0271164,-0.666705,-4.28506,1.55211,2.13531,1.44576,4.20986,-194.712,-967.216,-104.432,8120,-39900,-3360
-37.7933,-41.0274,1.64686,-1.12832,7.51913,6.60639,16.5907,10.1366,-45.7373,-3.14236,0.730158,-5.41645,1.43698,6.73518,28.8598,12.4459,-194.224,-965.752,-106.384,8540,-41160,-3220
-0.420596,22.3835,1.31966,18.7358,12.6264,9.66946,14.2012,8.79908,5.23189,-2.69667,1.69749,6.49812,1.13952,10.1452,15.9405,10.8461,-189.832,-962.824,-101.504,8540,-41860,-3220
1.55225,19.1056,-0.42636,15.2517,6.73639,4.38164,4.8617,1.7984,4.8993,-5.10235,-6.53065,-0.364128,-0.406861,4.72237,4.42012,1.45465,-186.416,-966.24,-98.088,7840,-41160,-3080
7.83339,7.72052,2.0024,19.6823,8.23378,4.79539,10.2684,2.70686,10.8256,-2.70547,3.68147,1.49735,1.92844,4.85769,25.6892,0.88601,-187.392,-966.728,-93.696,8120,-40040,-2800
8.04172,-9.24842,-3.63379,3.42278,0.621048,0.825953,12.3726,5.25412,12.3477,-6.37076,-7.43179,-4.31683,-3.64148,0.3887,34.4184,5.7501,-185.44,-967.216,-97.112,8680,-38500,-2520
18.6393,4.50141,-4.21206,-0.127634,-1.87464,-1.50169,11.0268,8.65005,24.133,-2.29339,-7.40579,-3.55539,-4.56601,-2.26117,29.9004,6.7056,-185.44,-969.168,-94.672,9520,-37240,-2520
8.19993,-2.92924,-3.59433,-8.28241,-5.67418,-2.72826,-1.93473,7.46423,7.80982,0.562208,-1.32839,-5.84712,-3.60957,-3.76083,-2.98531,0.630862,-186.904,-965.752,-98.576,10500,-36120,-1960
-7.06526,-23.8565,-4.83263,-37.9577,-21.0051,-13.3049,-30.9999,-2.2838,-10.6416,0.554462,-3.30953,-12.6112,-4.74861,-14.2672,-68.3137,-15.0721,-188.368,-965.752,-97.6,11200,-34860,-1400
-15.6576,-15.6778,-4.37364,-32.1653,-17.5799,-13.3979,-30.9861,-4.85247,-18.9849,-3.85875,2.7678,-7.54477,-4.24389,-13.6562,-70.3288,-17.7381,-191.296,-961.848,-100.528,12320,-34020,-1120
-7.03527,12.2497,0.814505,-6.05942,-5.71816,-6.13418,-26.4254,-8.07076,-10.1699,-1.27586,-5.27979,7.95699,1.06632,-5.98524,-49.644,-20.2864,-193.248,-961.848,-101.016,12740,-32900,-280
-34.7307,-27.5093,-2.71044,-1.38347,-0.802774,-1.5971,-8.83447,-4.76314,-48.2455,-5.99065,-4.72903,-3.59581,-2.03045,-1.06243,-17.1717,-11.38,-190.32,-959.408,-108.336,12180,-32340,0
-75.1747,-79.5361,-9.56568,-7.19769,-0.492446,-1.12564,12.8589,-5.50734,-90.2574,-18.9751,-6.3404,-23.5452,-9.41501,-0.616033,25.1186,5.6211,-187.88,-956.968,-104.432,11760,-31640,840
-6.97025,0.611526,4.53871,25.6465,16.3344,9.82673,25.8664,-5.32317,-1.90985,0.990783,-2.67545,7.07847,4.30695,10.8928,49.1941,14.7861,-187.88,-952.576,-101.504,10780,-31500,1540
40.4262,40.5938,10.7867,21.5724,11.007,8.20589,11.32,-1.59341,49.6372,19.5944,17.8442,18.1345,10.7855,8.52638,22.4482,6.7969,-187.392,-954.04,-104.432,9520,-31920,2100
72.0615,70.5437,14.6072,14.2218,5.39974,4.86382,-13.5209,-5.89166,82.4262,30.2148,16.7922,30.3017,14.2545,5.25852,-30.2985,-5.03162,-190.32,-953.064,-101.992,7700,-32760,2660
33.67,12.9275,4.8106,-5.22775,-0.0771443,2.87892,-2.5838,1.2679,35.9754,14.7425,10.6836,8.90805,5.11157,2.54056,-9.85328,2.72692,-189.344,-954.528,-103.456,5880,-33460,3080
3.34751,3.51824,-3.19373,8.37708,5.88832,5.2463,24.3042,11.5685,5.39785,-3.32806,2.79935,-5.21753,-3.16387,5.21344,52.0289,16.8146,-191.296,-955.504,-101.504,2800,-33880,3360
-0.463459,28.4187,1.32849,47.0094,24.0114,17.1649,38.855,13.6234,-0.329768,-4.03423,-6.29661,4.54838,0.796719,18.2464,81.98,23.1264,-189.832,-960.872,-101.992,980,-34300,3360
25.0705,36.812,7.74151,26.8494,16.6307,12.5042,17.6944,3.43051,30.047,8.30934,5.39987,14.5859,7.17194,12.9221,26.3091,10.9384,-187.88,-959.408,-101.504,-560,-34580,3220
31.7349,34.9539,9.06777,6.32364,6.05999,2.0495,1.67697,-8.16625,37.1275,8.45202,-1.40021,16.054,8.85444,2.358,-11.4085,-2.73068,-190.32,-962.824,-101.016,-1260,-34720,2940
-3.45006,-13.3716,-0.210258,-4.30868,-3.45031,-1.78695,4.55531,0.98308,-5.56021,-0.732629,-1.99857,-6.38844,0.330983,-2.39715,10.7534,-1.24495,-187.88,-961.848,-101.992,-2100,-34440,2800
-17.4577,-34.9139,-3.46733,-26.2789,-14.9067,-7.74693,-9.36471,4.20433,-21.1903,-3.44658,3.28295,-15.8265,-3.10382,-8.57174,-4.18749,-2.28226,-188.856,-963.8,-103.944,-2800,-34160,2240
-15.6811,-15.1676,3.29827,-16.4184,-6.46813,-4.34092,-14.2657,-1.82168,-16.631,-3.10796,-3.36444,-0.82172,3.39221,-4.25044,-21.1171,-6.62045,-190.808,-959.896,-111.264,-2940,-34160,2100
38.2459,58.5076,9.3478,29.8149,15.0181,8.78711,0.445511,-1.42362,46.5359,10.2079,8.81973,26.9425,9.48066,9.37784,-2.86712,-1.56684,-189.344,-959.408,-107.848,-3360,-33460,2100
19.7845,7.49096,-2.56845,1.01708,0.104292,1.07521,-1.8515,-1.12747,21.2602,1.03818,-3.04799,3.22174,-2.54042,0.393763,-1.14166,0.754146,-192.272,-955.992,-104.92,-4480,-33040,2380
2.2928,-7.75329,-0.268176,-15.9032,-4.67342,-2.30188,-6.74525,-2.24748,-0.928265,-1.95031,-3.85202,2.38246,-0.313162,-2.40613,-19.9993,0.318146,-190.808,-956.48,-101.504,-6300,-32060,2660
-63.2418,-58.9524,-4.65713,-13.6929,-0.218761,2.04685,-0.900242,3.01884,-81.4171,-21.1149,-11.0063,-13.373,-4.50336,1.81869,-16.6291,5.81803,-188.368,-960.872,-104.92,-7980,-30940,3080
-88.206,-81.9496,-13.0114,-30.9791,-12.3327,-6.29397,-12.5055,4.9467,-103.095,-30.396,-21.2962,-30.3614,-12.6186,-7.14896,-33.8576,-2.03958,-165.92,-957.944,-54.656,-9940,-30240,3500
-72.5642,-82.0093,-23.7133,-55.3056,-37.9472,-27.2077,-29.9978,-5.40824,-79.6636,-26.5574,-7.29358,-48.6934,-22.985,-28.6477,-40.4846,-18.9292,-185.44,-955.016,-85.4,-15680,-28560,4900
-15.4372,-46.2421,-23.5357,-40.6736,-38.8881,-35.9511,-24.8854,-16.7485,-7.37923,-9.6771,-3.15551,-38.968,-23.42,-35.9241,-8.63531,-24.5841,-190.808,-952.088,-95.16,-19600,-30660,5880
55.4383,67.3467,2.13076,24.1484,-1.0993,-8.79282,-8.61375,-13.8376,70.9197,13.7414,8.45135,16.3449,1.24438,-7.46555,8.37717,-16.3956,-185.928,-963.8,-81.984,-21700,-30940,7000
29.2982,54.4646,7.63344,15.2492,4.76851,3.61634,-13.3922,-3.9897,36.0728,6.6623,6.14753,19.1595,6.98169,3.84801,-24.4222,-10.8217,-184.464,-967.704,-72.224,-24500,-30520,7420
-5.77125,1.6634,-3.91279,0.0676966,3.23397,3.94018,4.8504,9.722,-6.2824,-10.0257,-10.6884,-2.63015,-3.66242,4.15638,1.68869,5.18101,-188.368,-968.68,-81.008,-26180,-30520,7700
-36.1928,-34.1037,-8.87885,-18.1949,-1.55392,1.51819,-0.471637,10.4763,-42.3573,-21.3831,-13.1967,-12.272,-8.75206,0.943189,-16.3411,6.27066,-191.296,-972.096,-82.96,-27860,-31360,7980
6.74675,20.9369,-1.05874,4.77733,2.30386,-0.448924,-5.17451,0.30477,12.6065,-3.62066,-9.42297,7.58389,-1.32564,0.00253381,-17.0341,-3.64882,-186.904,-971.12,-79.056,-30100,-33180,8400
32.1738,27.2535,-5.68999,13.6018,-1.25149,-3.60364,8.53418,-1.92781,40.4609,7.3315,2.13056,-1.74655,-5.43535,-3.67029,26.6245,-1.32624,-183.488,-968.68,-74.176,-31640,-34860,8960
17.3235,-5.01361,-1.03503,-0.774975,-1.1966,-1.96115,9.3152,-1.04314,18.9876,10.7423,9.31809,-4.58969,-1.06344,-1.98425,22.4043,3.07896,-182.024,-967.216,-78.568,-34020,-36820,9800
25.0136,18.3485,13.6601,10.96,9.42331,6.30514,1.88423,-4.31232,25.0561,20.257,10.8556,16.72,13.3999,6.64845,-4.28301,-0.807047,-183.976,-966.24,-81.008,-35980,-38500,10220
-2.94908,-4.76275,11.1799,10.129,12.3652,10.281,8.24675,1.13522,-9.62489,11.6202,16.1214,10.7616,11.3157,10.2374,-1.02533,4.6704,-180.072,-967.704,-85.888,-38360,-40040,10780
-16.8188,-21.2064,2.44831,14.4982,14.631,13.2733,32.2491,12.8208,-22.6692,1.82486,4.05247,-2.11508,2.39607,12.8683,56.7973,21.74,-178.608,-961.848,-82.96,-39760,-41300,11200
18.1839,13.1009,9.79675,16.4495,14.469,13.2442,25.1971,10.4041,19.7079,14.25,9.06473,14.507,9.23573,13.3305,45.2208,19.153,-182.024,-961.36,-89.792,-41020,-42280,11480
55.6178,67.238,23.3724,43.858,27.688,21.453,18.0105,4.21392,61.6971,29.2194,18.5501,42.7565,23.3038,22.4494,17.5828,12.7893,-177.144,-959.896,-86.864,-42420,-43820,12180
53.5049,52.559,18.3593,24.4949,15.9642,13.6384,1.7385,-0.513836,57.6007,28.0037,10.9477,29.6681,18.5405,13.5212,-11.2693,3.46429,-178.12,-960.384,-84.912,-42280,-44100,12740
-8.50708,1.54428,10.4818,15.6636,12.8286,11.8045,10.5349,1.96895,-16.8406,9.33591,7.99737,7.03155,10.5704,12.0058,13.8923,9.74118,-180.56,-955.992,-103.944,-43820,-45640,13580
-1.4925,24.8766,9.1764,28.0128,17.6436,14.1436,14.6213,1.61974,-2.02856,5.15825,-2.21341,14.1045,9.07009,14.7139,22.8954,10.7357,-171.776,-961.848,-91.256,-47880,-47600,14280
14.6869,13.4235,2.44036,11.8793,8.05945,8.69009,13.8411,5.69787,17.5479,3.00083,-1.62018,4.90688,2.08609,8.56586,25.8245,11.0955,-176.168,-963.312,-90.768,-50680,-49280,14700
-2.94003,-34.7413,-3.37022,-36.2869,-15.8491,-7.53253,-13.9381,-2.64234,-6.15834,-2.00605,0.109102,-12.1656,-3.44197,-8.76066,-25.4681,-4.69077,-179.584,-959.896,-106.872,-53480,-50680,14980
-43.0105,-78.7213,-10.5944,-67.5602,-34.3221,-25.0285,-36.842,-15.583,-53.4718,-15.1394,-13.611,-28.6478,-10.6032,-25.9366,-69.3116,-22.5959,-175.68,-962.336,-103.456,-55720,-50400,14980
-61.0971,-64.1707,-13.7923,-40.835,-25.3505,-22.2996,-23.569,-14.3527,-67.723,-24.9144,-8.03843,-27.1413,-13.4705,-22.0003,-37.4317,-21.3134,-170.312,-958.92,-97.112,-58520,-50540,15120
-11.0285,9.67595,-9.69766,-5.97875,-12.6881,-11.3002,-23.2151,-4.96385,-5.40114,-18.6452,-12.1241,-5.27752,-9.54363,-11.5772,-23.3084,-17.0121,-168.848,-959.408,-88.816,-59360,-50400,15680
-5.52876,20.5689,-6.5515,6.57479,-2.77545,-4.04887,-17.3535,-0.26901,-3.42365,-17.4336,-10.331,1.75647,-6.80027,-3.34098,-20.8047,-9.20085,-172.264,-959.408,-93.208,-60060,-50260,16240
-19.0952,14.8131,-4.202,22.185,9.11399,3.55368,3.69188,0.365565,-18.8712,-18.1031,-8.01327,0.654797,-3.98698,5.15337,7.62913,-0.525229,-175.192,-964.288,-97.6,-60480,-50540,17080
-14.2719,14.6856,-7.84835,32.3074,12.6475,7.62816,19.7808,5.58636,-10.5633,-18.637,-17.8045,-6.88339,-7.45448,8.04985,43.5363,9.53352,-178.12,-958.92,-99.064,-60200,-50680,17500
-1.74585,-15.0536,-10.277,-8.06865,-7.81682,-4.65741,1.91934,3.42119,0.65131,-6.11961,-1.10574,-17.9129,-9.32937,-5.59589,14.4047,3.03163,-179.096,-959.896,-101.992,-61180,-50820,17780
16.0659,-8.74481,-7.91614,-22.5515,-15.3678,-11.2765,-4.74007,2.81039,20.9138,3.41503,0.400583,-14.6575,-7.74067,-12.0484,-0.517729,1.26223,-181.048,-962.824,-105.896,-64120,-50820,18060
27.3458,9.87439,-4.08305,-5.91757,-6.63332,-5.62023,7.80606,6.05004,32.2044,8.25654,6.78437,-6.13014,-4.39108,-5.48176,18.9823,6.30395,-185.928,-965.264,-113.704,-65800,-51100,18200
3.87845,-32.6341,-7.96601,-33.6509,-17.3581,-11.6634,-2.58205,3.06318,-1.75425,4.18552,7.70651,-18.4555,-7.72952,-12.1293,-6.87801,-0.970784,-183.488,-967.704,-110.776,-66920,-50400,17640
-17.5653,-28.0837,2.66123,-18.3703,-3.37948,-4.12258,-4.7965,-0.772679,-26.1186,3.74777,-0.843333,-0.232058,2.04797,-3.51681,-21.1883,-2.98948,-186.416,-964.776,-115.168,-66920,-49420,17500
-7.37389,28.1083,5.05411,35.9566,17.9689,9.97837,17.9297,3.09441,-6.87522,2.81096,3.71398,13.7116,4.76228,10.8729,30.8705,7.28633,-191.784,-963.8,-117.608,-66080,-48020,17220
0.132964,12.4018,-4.7375,1.02413,-3.47764,-4.24828,-0.572714,-1.92909,4.03001,-1.00197,-4.55724,-2.49946,-4.65449,-4.8945,-3.57009,-4.28724,-190.32,-959.896,-115.168,-64820,-46340,16940
23.4865,15.6427,0.527445,-13.812,-9.64087,-7.28351,-10.9014,-4.00729,31.5316,7.9295,4.16905,3.24144,0.559903,-8.14055,-24.6089,-8.28357,-188.368,-955.504,-115.168,-64820,-45080,17080
28.9895,16.848,2.19207,4.29103,-1.09221,0.01393,8.2415,2.28752,35.6966,12.1136,11.0414,0.489394,2.28677,-0.655061,27.0092,4.00396,-183,-958.92,-109.8,-66640,-43680,17220
24.2963,5.72613,5.98015,-0.723395,2.79649,4.59441,9.635,3.46006,25.6442,13.8979,5.61803,2.70916,6.38266,4.50505,21.7212,7.02751,-180.56,-954.04,-92.72,-69020,-42840,17080
8.44926,20.9635,16.8495,6.8174,16.1648,14.128,-0.165406,1.46983,4.05994,9.94523,8.65087,27,16.5382,15.2048,-21.3618,3.99329,-187.88,-967.704,-102.48,-74060,-44240,17920
-18.2714,-11.2915,12.5668,-17.1335,4.0221,8.06409,-15.9247,-2.30559,-25.2912,-3.41198,-6.01479,15.1341,12.553,7.76943,-50.4102,-4.15474,-198.128,-970.632,-123.952,-74900,-43680,17500
-20.3383,-12.6324,-1.2758,5.77456,1.76139,-0.788773,0.49444,-2.90706,-23.561,-9.87246,-5.82238,-1.75938,-1.18275,-0.741635,7.51381,-2.53178,-203.008,-962.824,-130.296,-73220,-42140,16240
-28.7437,-11.6677,-3.41754,17.2374,5.29816,1.55822,0.549045,-7.46448,-35.2417,-9.02985,-0.233759,-3.85364,-3.38987,1.62907,15.8184,-6.73324,-198.616,-968.68,-126.88,-72380,-40180,15400
-23.6656,-14.6372,-6.02215,-6.63246,-3.69609,-1.4988,-13.9723,-7.96229,-22.6936,-12.6875,-9.46693,-9.30883,-5.78286,-2.11137,-25.1876,-9.7252,-202.032,-967.216,-137.128,-70700,-38920,14420
21.4703,25.9792,-0.938735,20.3863,4.38637,0.718202,-2.75746,-1.90336,28.8272,4.36197,7.88559,5.19321,-1.18222,1.13704,7.97352,-2.81304,-205.448,-964.776,-134.688,-70420,-37100,13720
24.7191,18.2313,6.39727,15.6814,4.29706,2.34937,-9.15901,-1.44131,22.7377,15.9447,8.42417,13.2257,6.00547,2.52398,-11.2771,-4.81738,-199.592,-961.848,-136.64,-69720,-35840,14000
-17.0596,-1.86147,8.47722,25.5898,20.8941,16.4478,9.29326,7.83569,-23.649,0.0624482,-0.468155,14.8695,7.30159,17.1844,-8.22347,10.0814,-200.08,-954.04,-129.32,-70560,-34720,14420
19.5036,18.6835,13.1667,18.7214,15.001,12.3017,1.09786,-1.18712,22.7482,11.9014,7.53167,26.3399,12.4541,12.5789,-17.4179,0.249856,-198.128,-947.208,-123.464,-72240,-33600,15820
39.3766,34.0879,8.31016,38.8102,15.2148,7.07966,18.0059,-2.43974,45.9468,13.5435,1.39976,23.2055,8.09872,7.47228,39.7398,2.10334,-187.392,-943.792,-110.288,-75600,-33320,16940
1.58458,-13.7294,-6.47716,18.1854,8.39103,8.18416,33.2923,10.0662,3.93751,-7.38319,-2.5749,-10.9076,-6.42815,7.5825,68.4027,20.27,-190.32,-943.304,-108.824,-80920,-32200,19180
-39.6244,-87.7667,-8.54426,-61.9103,-21.6087,-8.67488,-9.46908,4.60625,-46.8067,-13.978,-11.0736,-31.2665,-8.03216,-9.92065,-35.0837,5.15993,-184.952,-953.064,-98.576,-87360,-30660,21140
-24.8013,-51.7221,-6.65704,-21.7301,-5.91532,-2.85109,10.2096,8.15855,-22.9542,-10.5421,-5.34843,-21.1324,-6.03135,-2.32479,12.5938,12.4141,-178.608,-963.8,-90.28,-96040,-28840,22540
21.753,-2.92679,-4.87692,10.3518,-0.152424,-1.27929,18.0344,4.63238,30.3171,6.50703,7.35816,-11.1305,-4.871,-1.03858,54.1833,9.2637,-186.416,-972.096,-87.84,-101640,-26040,23660
-3.42986,-27.7639,-9.4184,-23.6609,-13.9729,-9.05755,-11.2032,-3.84013,-4.49316,-4.99627,-7.74742,-19.3317,-9.11481,-9.67291,-14.0848,-6.35845,-180.072,-969.656,-83.448,-104300,-24780,24920
-43.4406,-79.1636,-12.1246,-64.8135,-33.4791,-22.4558,-38.0269,-11.2734,-55.5301,-12.8841,-3.21685,-30.9999,-11.9359,-23.9265,-74.6539,-19.9107,-186.416,-983.808,-87.352,-108920,-22540,25760
-71.6592,-105.777,-16.3961,-81.145,-47.9913,-37.2901,-53.9157,-18.0526,-90.1392,-17.208,-11.0275,-40.1397,-15.8507,-38.6587,-99.9508,-30.5458,-188.368,-1001.38,-106.872,-111160,-20440,25480
-38.3539,-16.221,-7.39573,-16.5549,-19.3568,-22.4996,-29.5736,-14.3989,-42.6526,-10.5495,-6.51621,-6.79603,-7.19951,-21.3305,-41.7219,-19.669,-195.688,-981.368,-122.488,-108920,-20580,24640
37.2417,99.1185,12.5173,46.3497,15.4712,5.59013,-1.55561,-5.21827,48.9405,11.9649,10.426,37.7211,11.9726,7.50289,14.0051,-4.40645,-199.104,-979.416,-115.168,-106120,-19460,24500
77.4961,147.991,15.5386,78.9714,36.2345,24.666,32.7541,9.938,95.9706,15.8459,4.84035,46.7952,15.4885,26.3611,70.6405,16.4652,-208.376,-1038.46,14.152,-104580,-16660,25340
72.5398,114.374,12.179,56.9692,28.6606,23.1897,45.4398,16.4423,83.5523,22.2489,13.4786,28.0502,12.3449,23.9637,87.3996,23.7413,-217.648,-1006.74,107.848,-79240,-13440,30240
50.1149,85.1063,3.53126,27.8068,13.9916,12.222,32.9066,13.6724,57.2647,13.2023,1.54575,10.5043,4.11886,12.5497,59.0522,17.4928,-211.304,-990.152,-29.768,-42420,-11900,32480
11.8186,45.2039,-3.4526,-1.11607,0.934071,3.31416,21.3065,11.8262,9.41419,-0.819905,0.415818,-5.01416,-2.97656,2.7539,33.2274,12.7203,-199.104,-954.528,-184.464,-15540,-6580,31360
-13.029,31.8416,-3.86334,-24.5068,-9.08759,-5.16007,-0.0659939,4.55336,-17.6423,-3.84583,4.73714,-7.05546,-3.57544,-5.45648,-14.7986,0.636532,-215.696,-954.528,-188.368,-41300,8260,28000
-15.6066,65.9051,6.69706,-2.56794,2.77358,1.73974,-11.31,-2.28585,-20.0025,-0.260378,-2.9054,16.6684,6.76397,1.95595,-32.2333,-7.59296,-129.32,-986.248,-185.928,-75180,24500,24640
-19.6501,12.0358,-1.5037,-18.5091,-7.01673,-3.56458,-15.1956,-3.14473,-22.3739,-6.05494,1.24672,-4.63623,-1.36992,-4.3534,-29.4101,-8.49746,-190.808,-942.816,-203.008,-93240,77560,19880
-21.6107,-70.9005,-1.71761,-30.3734,-12.0731,-9.11423,-19.1582,-6.49033,-30.12,-1.79328,-0.234225,-14.8062,-2.07082,-9.41395,-30.2458,-11.2881,-408.944,-998.936,-179.584,-75180,15260,14560
-60.8736,-123.292,-2.59108,-32.9548,-9.28659,-4.94362,-17.2209,-5.66401,-75.1173,-10.6767,-3.44443,-21.2403,-3.14011,-6.0223,-33.5604,-8.12578,-148.352,-974.048,-159.576,-74340,-73780,23520
-17.4759,-61.0903,-4.51343,5.57147,4.42552,1.9612,2.97212,-0.966011,-10.6537,-9.16939,-0.80262,-7.24157,-5.36522,1.51213,6.70687,3.1256,-210.328,-976.488,-148.352,-55300,-7700,17780
37.5504,-4.27109,1.17148,30.773,15.6414,9.87427,12.0298,1.45858,48.7015,3.00594,-5.32325,12.771,0.633446,9.93941,24.764,8.88719,-242.536,-967.216,-166.896,-43540,16660,13580
33.3564,1.9487,9.30734,32.5191,20.8766,15.5194,9.72271,0.640461,38.639,6.97134,1.60143,22.798,8.85748,15.6008,15.4717,8.06701,-215.208,-986.736,-172.264,-39060,9520,12320
21.2503,-19.887,2.11574,0.961798,1.11727,2.35913,-6.80082,-1.9417,23.6588,4.98036,-3.04139,4.68623,1.81731,2.25064,-15.4854,-2.13958,-221.064,-963.8,-147.864,-37380,14280,9660
0.724259,-17.4787,-4.78155,15.6848,3.88053,1.13268,7.82202,4.07117,1.93521,-4.04431,-4.42564,-6.29265,-4.65089,1.74844,18.0824,4.16458,-228.384,-954.04,-156.648,-32760,14980,8820
-29.6121,-39.8937,2.85164,6.55677,8.92622,8.61879,9.19505,2.81078,-38.6321,-7.46203,-2.50576,-2.15775,3.33991,8.71728,4.926,6.79207,-219.112,-961.848,-133.224,-28140,17360,8960
-61.582,-85.6622,-4.71808,-28.2602,-7.38517,-1.16731,1.31403,0.922092,-75.4639,-14.9516,-11.4252,-23.2964,-3.8226,-2.24545,-11.7001,2.43542,-214.72,-967.216,-138.592,-24220,20580,7980
-44.4877,-52.0984,-1.46026,-23.0911,-9.90013,-5.67436,-7.54306,-4.61069,-51.0788,-7.0947,3.07636,-12.7029,-0.877385,-5.84118,-14.7502,-4.89109,-231.8,-961.36,-183.488,-20020,19880,6720
3.79012,-2.39552,-2.8801,-19.158,-16.7135,-13.2777,-20.6019,-10.6217,9.7757,3.64849,3.24775,-5.74648,-2.38416,-13.5339,-27.4791,-16.0878,-237.168,-969.656,-188.856,-20580,18480,5600
25.8777,-0.674734,0.0232196,-26.5656,-19.1941,-15.061,-19.9191,-8.61967,27.7518,13.8126,9.29522,-2.9396,-0.214588,-15.7757,-30.2486,-15.0397,-233.264,-969.168,-187.88,-19040,17360,4480
18.2498,-0.551722,4.06535,-29.7896,-14.2224,-11.1868,-20.3674,-6.50077,18.6776,11.4135,9.11934,4.15283,3.66854,-10.9307,-48.3024,-12.1887,-226.432,-967.216,-183.488,-15120,17360,2940
39.6904,66.127,4.97825,34.0494,12.0885,3.95001,11.631,1.23175,49.1804,10.9182,-0.813845,19.4686,4.53971,5.49817,27.3947,2.10899,-229.848,-967.216,-187.392,-11760,17920,2240
22.3668,70.7181,4.05267,45.4029,20.8965,10.254,18.7312,-0.618503,25.2822,1.94941,2.95806,20.3117,3.87157,12.4329,31.906,5.22082,-228.872,-972.096,-190.32,-9520,16940,840
12.5188,52.1905,-1.85358,34.459,12.0217,6.43127,15.1982,-0.355576,15.8067,-1.39043,-4.90014,8.37264,-2.18031,7.16672,32.875,0.482348,-222.528,-973.56,-182.024,-6300,15960,-280
15.8557,26.6729,-4.91701,9.31185,-2.16733,0.633045,3.7619,7.68985,19.0005,3.91525,-0.513951,-4.73983,-5.15657,-0.350805,29.6485,1.98904,-226.432,-962.336,-179.584,-140,16240,-1680
-5.85735,2.73098,-4.67097,-7.19979,-5.20465,-1.7303,-4.83311,6.95705,-8.73173,-1.76972,1.40175,-8.39865,-4.25986,-2.44824,2.27245,2.77236,-222.528,-958.92,-177.144,5040,16240,-2520
-16.1682,-12.2531,-3.03237,-16.1105,-6.52124,-3.0661,-7.30361,4.44918,-20.3666,-4.17815,-5.63625,-8.36144,-2.7926,-3.49084,-12.5539,-0.257076,-220.088,-959.408,-177.632,7700,15400,-3080
-13.3405,-12.339,-6.31018,-15.8581,-8.81481,-6.4084,-4.16608,3.16943,-12.5742,-8.37417,2.41227,-13.7328,-5.88373,-6.74871,-6.85863,0.781113,-221.064,-955.016,-180.072,10080,14140,-4060
-16.96,-15.6289,-9.80901,-15.4331,-11.5438,-9.51219,-0.632875,0.0498347,-17.4513,-11.3034,-4.55809,-19.2072,-9.52956,-9.97483,5.30943,-0.16872,-223.504,-954.04,-182.024,10920,13440,-4340
-16.0032,-10.1623,-3.81079,-4.85475,-1.64226,-2.54485,5.75387,1.48345,-16.187,-8.41296,-2.51814,-9.45019,-3.91767,-2.30621,6.3792,4.30488,-212.28,-954.528,-168.848,10220,12180,-4340
11.7203,25.533,6.1061,24.5567,16.4475,12.6579,21.1458,4.93574,16.027,0.612588,0.223091,11.1058,5.39387,13.2417,29.8302,14.8232,-206.424,-954.528,-164.944,9520,11620,-4620
19.8098,19.3872,10.911,8.27956,11.6895,12.5777,9.51247,4.44352,20.5646,8.20951,-2.66079,15.2481,10.3086,12.4839,7.09739,10.4202,-205.936,-958.432,-161.528,9100,11200,-4760
-1.33908,0.246227,8.52131,-1.68365,5.07308,7.31455,4.1015,2.8592,-4.71464,6.70448,9.06998,7.09787,8.25674,6.92139,-0.825924,6.71913,-209.352,-956.48,-163.48,9380,10920,-4480
-0.104639,6.03849,6.66656,-1.13522,4.39192,4.81167,2.57256,0.853628,-0.564957,6.60143,5.37886,8.64552,6.64279,4.9558,-6.04801,5.49344,-210.816,-966.24,-171.776,9800,11200,-4480
14.9446,5.4913,7.71508,-9.89629,-1.1966,1.44254,-9.36651,-3.64097,15.7995,11.6982,8.47317,11.9734,8.17981,0.6798,-26.4936,-2.0638,-211.304,-967.216,-175.192,11200,11760,-4340
8.2382,0.19459,1.4468,-6.28948,-6.52241,-5.56705,-13.3469,-6.18421,7.86255,7.39902,10.4803,1.36558,1.58215,-6.19424,-16.6872,-8.99672,-210.816,-964.288,-183,12460,12880,-4760
-37.4272,-48.5402,-8.36898,-37.798,-20.4012,-13.978,-26.9943,-7.69289,-46.8726,-10.471,-5.96523,-21.7417,-7.70244,-14.6871,-53.892,-15.0418,-213.744,-970.144,-188.856,13020,14140,-5040
-58.5291,-63.4193,-9.49007,-35.8213,-15.8619,-10.9979,-18.7708,-2.96002,-66.6995,-19.5959,-5.04989,-23.3436,-8.93025,-11.3649,-45.848,-7.44244,-211.792,-969.168,-188.368,14000,14420,-5320
-3.11983,3.43688,1.48129,16.1058,7.55262,2.2399,5.63839,-1.28134,0.234808,-3.53411,-5.42652,6.42808,1.09486,2.96404,15.9083,1.66847,-208.864,-972.096,-192.272,15680,14560,-5600
42.0257,59.2136,10.6858,49.7524,23.5347,12.4506,18.1462,-0.0782576,52.2086,10.2056,-1.64419,30.4638,10.1252,13.5926,42.2978,5.09258,-211.792,-970.144,-190.32,18340,14840,-6020
54.9846,70.9413,2.51914,53.1822,23.8304,14.4747,24.3167,4.44918,66.9009,5.52219,-1.53998,28.7588,2.3367,16.1553,54.5572,10.4228,-216.184,-969.168,-198.128,20440,13860,-6440
29.413,29.326,-5.93657,25.1007,9.67051,8.16123,16.171,6.74114,33.0235,-1.93885,-11.8944,11.3879,-5.48849,8.4152,40.6632,6.77692,-210.816,-968.192,-194.712,21560,12320,-6580
-19.2122,-27.7548,-13.5137,-19.4339,-13.5863,-13.4915,-6.91584,-4.33798,-23.8299,-10.699,-6.67298,-16.661,-13.483,-14.1051,-10.3318,-9.43867,-206.912,-965.264,-193.736,22540,11480,-6860
-35.7925,-44.2575,-10.2901,-26.6349,-18.7858,-20.8947,-12.2333,-17.1557,-43.611,-9.36944,-8.65741,-20.09,-10.6172,-20.1115,-23.2183,-19.5599,-211.792,-966.24,-190.32,22680,10220,-7140
-12.4729,-8.01598,8.62543,11.5932,7.08981,5.84979,10.4273,-0.598731,-16.5053,5.59575,3.81553,7.04876,8.10954,6.43697,22.5443,0.57745,-206.912,-969.168,-186.904,24220,8820,-7560
2.02921,1.14157,11.6882,15.5326,14.1153,16.9081,16.204,9.78919,0.663798,8.10255,8.80855,7.31839,11.5036,16.5617,33.9351,15.3486,-209.352,-972.096,-186.904,25200,8540,-7980
-16.2926,-28.0519,1.10258,-24.105,-5.78379,1.05292,-9.96882,2.32146,-20.7266,-2.39706,-3.6997,-11.3618,1.93394,0.380435,-28.925,0.785096,-212.28,-975.024,-196.664,25760,7560,-7980
-18.6679,-47.0975,-13.2595,-54.5094,-32.4706,-21.6605,-36.8243,-7.4585,-19.2265,-5.05942,5.5151,-32.62,-12.677,-23.0908,-63.6033,-19.2997,-218.136,-976.976,-210.328,28560,5740,-8400
4.53758,-22.2938,-7.06666,-34.4084,-24.3731,-19.2441,-29.7072,-7.19651,5.88714,4.46295,6.00681,-18.4395,-7.34634,-19.6657,-44.5521,-17.4566,-209.352,-961.848,-180.56,32760,7140,-9100
-0.529176,-9.80871,1.4802,-18.6785,-7.91701,-5.52048,-13.5047,0.428446,-2.09144,3.64708,4.39813,-3.87803,1.26153,-5.89936,-34.8772,-5.50011,-205.448,-969.168,-181.536,32620,7700,-7980
10.5754,19.3206,1.81698,17.4351,6.80459,3.0248,10.9564,5.64374,13.3399,6.16684,7.60483,2.42278,2.05028,3.13439,20.1206,5.35188,-203.984,-974.048,-182.024,31780,3360,-7560
28.8081,39.7325,2.5645,38.1856,17.6659,12.9487,24.9361,11.0785,33.693,8.29975,-2.1863,9.3318,2.52739,12.8436,51.1697,14.3127,-205.448,-977.464,-177.632,32200,2940,-7840
12.1923,12.3941,4.10618,9.51961,9.10067,9.09821,7.86587,6.83969,11.4303,1.53686,1.33378,9.30895,4.23197,8.88619,7.32411,8.5513,-206.912,-976.488,-178.608,33180,4060,-8400
5.89632,23.4943,7.0077,20.8572,16.3448,11.3323,11.2844,3.71454,7.97038,-4.80296,-5.96717,17.52,6.94468,12.4608,9.73302,8.81558,-206.912,-976.976,-182.512,34020,3920,-8820
-6.13961,12.7957,5.08549,23.1191,16.6787,13.09,18.1509,4.64806,-5.02246,-6.05238,-3.57325,9.43823,4.95053,13.8622,26.2888,11.5938,-211.792,-974.048,-174.216,34720,4060,-9100
-5.44407,2.99039,3.85307,7.8174,8.07129,7.19231,9.62416,2.23946,-6.42355,-3.5592,1.5977,6.44179,4.09623,7.51452,7.78053,5.21243,-212.768,-972.584,-175.68,35560,4340,-8960
0.553705,13.7054,1.80357,16.3413,7.55974,3.54403,9.14512,-0.811652,3.35225,-4.41939,-6.28944,10.135,1.77113,4.10477,13.2548,1.37683,-208.864,-976,-182.512,35140,4480,-9240
7.58682,14.0852,-3.34341,11.8005,-0.856352,-3.29579,5.58734,-3.42957,11.6045,-0.144995,4.74581,0.705561,-3.31698,-3.17379,21.2568,-1.15653,-206.912,-974.536,-177.632,34580,4480,-9380
8.48048,7.68809,-4.34791,-6.23814,-7.94382,-5.96524,-4.39219,-2.72077,11.8094,0.965538,0.0346082,-4.46439,-4.32757,-6.53322,0.565288,-2.63376,-206.912,-971.608,-174.216,34300,4760,-9520
0.645993,-18.3814,-1.47216,-32.2889,-14.6228,-7.50043,-15.467,-0.392043,-1.77238,4.70478,4.05185,-6.87272,-1.11199,-8.11388,-33.1356,-3.04763,-206.912,-971.12,-169.824,33880,4900,-9660
-12.6513,-29.9976,-7.27856,-27.0223,-15.1718,-10.2242,-10.157,0.17928,-14.8236,-0.0671395,5.94142,-19.0066,-7.06963,-11.1624,-14.2835,-1.791,-208.376,-970.632,-165.92,33460,4760,-9380
-23.8629,-28.7527,-7.18672,-15.9929,-7.52319,-6.3405,-8.26768,-2.68987,-28.6287,-6.4508,-7.6433,-14.9728,-7.41698,-6.96194,-16.5558,-3.41883,-204.472,-971.12,-164.456,33460,4340,-9240
-4.67205,-5.01045,0.272438,-5.83008,-1.25708,-2.04751,-9.88325,-5.8292,-5.89989,-0.384059,1.23359,2.59378,-0.324847,-1.98181,-24.4486,-6.85373,-207.4,-974.048,-168.36,33600,4200,-8820
2.41769,4.86435,3.24475,4.66209,2.85397,0.362859,-4.50268,-5.81056,1.96172,0.548382,-4.12916,8.62298,2.78539,0.949408,-5.58911,-4.60076,-208.864,-965.752,-173.24,34300,4480,-8960
1.97313,-1.99961,2.59603,1.10984,0.688583,0.57564,-2.13641,-3.96072,0.5825,3.88022,-1.41135,3.91849,2.64497,0.778415,4.7431,-2.51755,-209.352,-963.312,-177.144,35840,5320,-9520
1.02421,1.67838,1.35244,4.29274,1.19499,0.544669,-1.10016,-3.93091,0.879065,1.91567,3.10777,1.58714,1.39366,0.363282,5.76246,-3.336,-207.888,-964.776,-175.68,37800,6860,-9520
17.3534,25.4259,8.38787,21.282,13.2207,9.50921,8.82947,0.204288,19.4055,4.93512,-3.8778,15.8149,7.84121,10.1535,15.0952,3.36865,-206.912,-961.848,-179.584,38500,7140,-9380
9.46559,12.1606,7.84624,12.0967,8.63644,7.92428,6.47356,3.86599,8.38916,6.1395,6.89725,9.95144,7.44957,7.78144,12.6156,3.86859,-207.888,-956.968,-174.704,39200,7420,-9100
1.78796,-2.97591,-1.04271,-8.27928,-5.54291,-3.08042,-4.99413,1.09167,1.41946,2.22192,-0.145369,-4.80258,-0.960484,-3.60812,-4.36318,-2.20539,-205.448,-957.456,-173.728,39200,7560,-8960
-2.62528,-6.27431,-3.27402,-13.6944,-10.9146,-8.92304,-10.6933,-1.94237,-1.77345,-1.02283,1.02746,-8.15917,-3.33308,-9.26415,-13.6045,-6.40725,-203.008,-955.504,-166.408,39200,7700,-8260
0.944363,-3.31394,-8.41137,-7.18482,-11.2895,-10.6891,-5.0518,-0.976627,2.94862,-1.75651,5.48309,-13.7159,-7.987,-10.783,0.697994,-4.10888,-201.544,-955.992,-166.896,39060,8120,-7980
2.63145,-3.71761,-1.88649,-2.24201,-4.16987,-4.63011,1.99642,-0.215048,1.86421,4.33743,0.626602,-5.09034,-1.61095,-4.12989,4.58052,1.14225,-201.056,-956.968,-164.944,38780,8260,-7560
-19.32,-29.8059,4.62783,-16.2892,-3.26248,-0.449546,-1.625,-1.37334,-25.5538,-0.414814,5.20255,-3.08108,4.39714,-0.465718,-13.2149,1.22278,-202.52,-959.896,-164.456,39200,8960,-7000
-21.4581,-13.7023,3.2649,-0.339482,3.36297,4.17522,6.73811,3.73,-23.8566,-5.7788,-5.41829,-2.05988,3.06639,4.26635,4.65064,6.89109,-205.448,-954.528,-160.552,39340,9800,-6720
-24.0053,5.92821,3.18974,15.1204,11.3307,9.68648,7.67823,6.68896,-27.0541,-8.77391,-7.35431,3.96278,3.46153,9.96549,0.154254,7.80393,-204.472,-957.456,-155.672,39340,10500,-6440
-13.1092,11.4478,-3.00896,12.908,6.48637,4.83332,4.38838,4.30344,-11.99,-9.3453,-7.33434,3.24825,-2.60673,5.27692,0.600226,3.75468,-203.008,-956.48,-156.16,39060,11340,-6300
14.0279,14.478,-3.2529,7.39471,5.27782,4.68822,8.5027,6.52113,16.9344,-4.07111,-13.5674,11.1706,-2.9367,5.0154,7.90991,6.29922,-205.448,-957.944,-150.792,38500,11760,-6300
22.7358,3.56025,-7.72769,-6.86548,-3.63188,-1.76323,1.04438,3.13154,26.3514,-0.791839,-0.587333,5.44023,-7.5497,-1.6715,0.308794,2.68532,-202.52,-955.016,-148.352,37800,12460,-5880
9.12893,-4.63197,-8.04579,-8.19436,-6.41465,-6.32927,-3.98542,-3.237,10.0421,-1.71318,-2.45756,-3.37054,-8.1605,-6.13271,-1.51014,-3.34318,-202.52,-957.456,-142.984,36960,12880,-5600
14.3333,14.2345,-2.97552,9.7611,5.26495,2.39507,6.2644,-0.818217,18.9129,-1.93573,0.907645,0.892501,-3.32001,2.42727,11.8458,2.4985,-201.056,-959.896,-140.544,35280,13020,-5460
9.79177,19.3541,-1.9203,16.063,8.2159,5.79453,6.24478,1.04728,15.0094,-1.8698,5.55254,1.73709,-1.92054,5.57544,8.18197,2.11348,-199.104,-963.312,-141.52,34020,13580,-5740
0.503016,11.4769,1.6067,18.3955,9.50128,7.85303,9.51154,3.49589,2.05839,1.00315,-0.0164829,-3.57588,2.29242,7.45331,17.8591,3.36138,-203.008,-959.896,-145.424,33180,14420,-5880
-5.10969,-8.84361,-0.439039,-4.91398,-5.25802,-6.14802,-1.17721,-7.38973,-4.50344,4.42013,8.9547,-12.6427,0.188414,-6.40054,7.38623,-9.14559,-202.52,-961.36,-145.912,32480,16100,-6300
-6.47256,-10.6672,2.32222,-5.78377,-4.80256,-4.39157,-3.87944,-5.14818,-7.99166,2.17748,3.12646,-4.93647,2.38456,-4.2639,2.80155,-12.0223,-198.128,-964.288,-141.52,31500,16660,-6160
0.313944,-6.02384,6.2244,-7.43218,-2.35149,1.30552,-7.78927,6.10327,-2.29655,2.84359,3.25378,3.75792,5.98792,1.20802,-11.5416,-2.00339,-203.984,-961.36,-136.64,31220,17220,-6020
10.5072,10.0424,7.92977,-6.50535,0.316443,1.26831,-9.25411,2.7764,10.1249,6.69934,3.31453,12.0291,7.80072,1.11414,-26.3161,-0.92342,-195.688,-964.776,-135.664,29540,17080,-6300
8.30507,7.0956,5.84366,2.01585,3.29376,2.28097,0.675376,-1.15412,6.20342,6.82218,-5.66644,8.55731,5.8083,1.90345,-3.23473,1.00166,-199.104,-965.264,-137.616,28000,16660,-6440
-0.931,-7.52468,3.63869,-3.7488,-1.72229,-2.11333,-3.95951,-7.00361,-3.55312,5.03363,4.31026,1.51265,3.45267,-2.33806,-4.59787,-3.90824,-199.104,-963.8,-136.152,26880,16940,-6720
-3.12155,-2.5665,3.60359,5.5274,2.09984,0.935811,-0.682004,-5.7974,-4.02271,4.11467,2.75966,1.5296,3.76443,0.676997,9.86792,-1.61254,-198.128,-961.36,-134.688,26180,17640,-6860
4.69338,-1.30085,-1.28875,-3.30045,-3.83123,-2.55614,-3.61055,-3.18256,5.39235,5.93909,6.59838,-3.89113,-1.03901,-2.61938,5.48929,-1.12045,-196.664,-963.312,-135.664,24920,17780,-6720
-13.5848,-26.2137,-7.29785,-25.9237,-15.9676,-9.79971,-12.2278,-0.577857,-15.7717,-1.95455,7.08653,-18.7659,-7.80377,-10.54,-17.2208,-2.56098,-198.616,-962.824,-134.2,23660,17920,-6580
-22.7868,-36.8718,-6.40292,-34.5347,-18.473,-12.5688,-15.8917,0.953009,-25.5543,-5.0284,-4.06303,-19.7112,-7.18126,-13.09,-31.8315,-3.09456,-194.224,-967.216,-129.32,22260,18200,-6440
1.92176,3.56569,-3.16471,-3.35989,-4.47092,-5.84822,-3.02041,0.749722,6.99857,-6.08837,1.22006,-3.23114,-3.74821,-5.11981,-5.77152,0.559336,-194.224,-965.264,-131.76,21140,18480,-6580
6.96351,14.0005,-0.611059,13.4475,5.40271,1.9828,8.14066,1.30574,9.13487,-6.23068,-7.4577,4.10013,-0.539874,2.68358,15.9545,5.20735,-197.64,-967.216,-134.2,20300,18760,-6720
4.39542,15.3832,3.55471,20.6072,13.3648,9.4396,13.5228,2.51641,2.59457,-0.512728,-4.71226,11.036,3.83066,10.4869,21.7133,9.28841,-196.664,-967.216,-135.176,19460,19460,-6720
2.15695,1.703,1.71114,4.26888,6.72836,6.73767,4.2087,-1.4712,-1.73011,2.90611,2.58446,9.36862,1.47777,6.78978,2.32473,3.67898,-195.2,-966.728,-131.76,19040,19600,-6720
-5.31601,-7.23181,4.64015,-6.07897,2.88765,3.87059,-2.81994,-1.23779,-10.3577,5.23716,-2.94193,7.71785,4.27974,3.98789,-19.0137,0.141235,-191.784,-966.24,-133.712,18200,19740,-6580
3.26438,19.0304,7.85758,26.56,16.8421,11.0448,17.8533,4.14044,3.45892,4.92599,2.25306,13.6725,7.58788,11.6433,22.2529,9.67951,-195.2,-966.728,-134.688,17500,19740,-6580
4.17012,25.637,2.16918,35.3981,16.7991,9.30931,19.9213,2.95005,7.05094,-2.81119,-8.43528,13.6624,2.04912,9.93808,34.696,6.55919,-194.712,-966.24,-138.592,17080,20160,-6860
-6.13436,7.54537,-6.44154,9.40178,-1.65101,-4.28003,-0.905054,-2.45756,-4.57242,-11.9822,-8.32496,0.468735,-6.04895,-4.45046,6.63023,-7.80454,-193.248,-965.752,-138.592,16800,20720,-6860
3.69578,2.64931,-9.19705,-10.9367,-13.0122,-9.92647,-9.82969,-2.31843,9.95052,-6.43329,0.0851455,-9.97414,-8.54057,-10.345,-9.74681,-9.74417,-193.248,-965.752,-138.104,16520,21280,-6860
11.4322,6.18094,1.91669,-3.26795,-3.22676,-0.0123949,-0.858522,3.39913,13.5924,7.42961,1.12289,-1.79292,2.12456,0.164054,-0.866393,1.25849,-193.736,-966.728,-138.592,16240,21700,-6860
8.35149,2.41741,9.0743,0.236277,4.35364,7.09743,3.98953,3.55357,6.81826,11.2032,12.0349,2.99228,8.80489,7.37458,-1.29983,5.73681,-197.152,-970.144,-139.568,16520,22540,-7000
2.7308,-8.73922,6.82589,-12.5101,-1.06379,2.88227,-3.80829,0.0646096,1.32979,7.30796,4.50598,0.115662,7.23684,2.70396,-18.2269,1.83946,-195.688,-969.656,-140.056,16940,23240,-6860
-13.0273,-25.3144,-0.849963,-25.7066,-9.3415,-4.56519,-13.4952,-1.41203,-16.3707,-1.73006,-0.0643846,-7.63099,0.102818,-5.58305,-31.5658,-3.38781,-199.104,-971.12,-136.64,17220,23940,-7000
-19.4593,-29.8995,-14.5252,-26.5666,-19.0683,-16.7222,-17.8588,-6.08271,-19.2045,-13.9004,-4.94254,-20.8636,-14.0147,-17.6878,-25.9746,-11.1223,-198.128,-970.632,-141.032,17220,24500,-7000
-18.2954,-23.9183,-16.018,-15.4319,-16.1885,-16.7368,-13.4276,-8.96014,-18.6029,-17.1726,-13.8007,-20.3104,-15.4554,-16.6745,-9.47655,-13.7952,-196.664,-972.096,-139.568,17780,25200,-7140
-18.8098,-14.0468,-9.04211,-3.13791,-5.5304,-5.47888,-3.12727,-2.62732,-18.6256,-12.4622,-2.15909,-13.7845,-9.0881,-5.11746,6.86709,-5.60984,-197.152,-974.048,-138.104,18340,25480,-7560
-8.26672,-7.15831,0.946636,2.72267,3.58727,4.21606,6.99935,3.89109,-9.32351,-0.764772,-0.834788,-3.4876,-0.275193,3.88777,17.7276,4.80587,-200.08,-973.072,-141.52,18900,25900,-7700
6.63939,10.8129,7.87299,11.9192,11.6497,10.0293,10.3542,6.85985,6.43079,6.70726,1.70241,12.5766,6.181,9.65554,13.5596,8.63049,-202.032,-970.632,-142.008,20160,26180,-7980
29.0279,30.344,7.29285,18.7275,19.0016,15.0049,17.7576,10.0942,31.3158,7.27706,2.97902,29.7116,6.62153,15.0915,13.7255,13.9947,-200.08,-969.656,-136.152,20300,26040,-8260
25.9458,29.5548,1.47658,19.0567,16.7842,14.1713,18.0168,11.2917,29.2785,3.07678,-4.67325,23.9283,2.25734,14.1313,14.4348,14.3561,-198.616,-971.12,-136.64,20300,25340,-8820
27.9025,38.3594,2.54201,25.6313,10.6286,6.83889,15.36,5.15062,33.4777,9.98054,11.2573,8.73516,3.21843,7.04993,27.9954,5.81146,-201.544,-969.656,-136.64,20440,25340,-9240
7.40613,10.4041,-0.370027,7.74932,-4.05071,-4.92414,-2.47756,-3.94609,7.25297,4.27563,5.52109,-10.7492,-0.604574,-4.89515,14.3783,-7.47884,-199.592,-972.096,-137.128,20160,25060,-9380
-17.2512,-19.4877,-5.28773,-15.6027,-17.3455,-14.429,-23.2227,-7.24729,-21.0093,-5.66505,-0.668829,-16.2434,-5.66376,-15.1845,-20.3056,-15.7863,-199.592,-970.144,-133.712,20300,24360,-10360
-5.62617,-10.3218,1.63791,-9.14226,-4.97308,-2.96107,-8.56449,-1.11364,-7.15559,2.10341,5.89638,-1.29371,1.72254,-2.99265,-11.0248,0.744179,-199.104,-970.632,-137.128,20300,24500,-10780
6.70569,-3.10774,5.9169,-2.88465,4.77392,6.58672,8.72861,4.36827,6.46432,7.73012,-0.437109,0.418407,6.08928,6.49233,5.80201,12.0673,-197.64,-970.632,-136.152,20580,24360,-11200
0.601221,-6.35085,5.97144,-8.43917,2.33226,4.71747,3.69526,2.18949,-1.80089,5.69755,7.11565,-0.277736,6.36538,4.87773,-5.85145,6.76752,-198.128,-972.096,-135.176,20860,24360,-11620
-5.01233,-3.55,3.69127,0.443918,3.22417,1.77905,-0.782889,-5.14135,-6.75123,0.652047,-1.86382,2.80663,4.03742,2.52562,-2.79344,-1.85799,-195.688,-972.584,-135.664,20860,24220,-11900
-1.42255,4.91507,4.75067,5.42433,5.11431,3.35001,-4.24294,-4.05678,-2.02529,-2.09912,-5.26434,7.19651,4.77359,4.17702,-8.88834,-5.04872,-191.784,-973.072,-140.544,21420,24500,-12460
-7.60706,-1.84458,-0.851278,-2.67495,-2.80033,-1.50942,-7.62365,-1.58451,-8.06984,-6.20841,-3.21238,-2.07207,-0.729711,-1.66184,-12.0544,-5.40511,-195.688,-971.12,-136.152,22260,24780,-12740
-24.4921,-24.3265,-3.23439,-12.2671,-6.05498,-3.79197,-4.44834,-1.75455,-27.5913,-7.89344,-10.4811,-10.5727,-2.42941,-3.63411,-9.50903,-3.14318,-193.248,-965.264,-134.2,22680,24640,-12600
-12.6148,-11.5304,-3.17931,-6.48563,-8.66883,-11.9248,-6.41901,-13.3346,-12.7573,-0.87655,2.51253,-6.15637,-2.63973,-11.2548,-10.2839,-13.4986,-190.32,-965.264,-130.296,21840,23240,-11900
1.392,5.08021,-5.83429,8.52858,-10.6539,-18.9886,-3.91728,-20.5784,2.11924,1.69701,-1.30064,-2.93145,-5.64286,-18.8719,8.69943,-24.6415,-186.416,-965.752,-124.44,20860,22260,-11480
2.14319,6.86129,-1.04192,7.37205,-8.72495,-10.5584,-8.98488,-7.89631,1.33588,4.23343,2.15147,1.28063,-1.04109,-10.3814,5.98929,-13.1866,-185.928,-966.728,-121.024,19040,21420,-11060
5.41632,9.80272,5.03497,1.2618,-0.927094,1.65122,-5.92576,1.47147,6.09087,7.19311,9.83728,4.55887,4.55655,1.90182,-0.663853,2.10874,-184.464,-970.144,-120.048,17780,20720,-10780
3.26093,-1.53308,4.92394,-10.6582,1.1642,6.17448,-1.69847,6.86501,4.68924,5.25756,3.00282,0.967026,4.72237,6.11032,-11.8534,7.54301,-189.832,-973.072,-120.536,16520,20440,-10640
6.45672,-2.39984,1.82655,-10.479,0.230954,3.97713,0.102381,5.83013,8.49076,5.4326,11.0154,-1.74607,1.88492,3.53223,-11.7753,5.69561,-187.392,-973.072,-123.464,15960,20720,-10640
3.50178,-6.04459,-3.3754,-4.56258,1.97566,4.05931,5.11644,6.6084,5.01261,-3.21011,-3.50318,-2.39907,-3.89279,3.39357,2.55687,6.9675,-188.856,-976,-123.952,15680,21140,-10780
-3.06517,-3.91888,-8.15097,3.32132,5.19925,5.12936,10.1599,9.44895,-0.712874,-11.0927,-10.8882,0.598825,-8.86952,4.88008,12.4545,11.3857,-187.88,-975.024,-127.368,15960,22120,-10920
2.76347,7.44221,-6.25727,10.2645,11.2948,9.6481,15.2812,10.3832,6.14462,-7.29343,-4.46018,8.61518,-6.15362,9.93933,14.5769,15.0588,-190.808,-972.584,-132.736,16660,23240,-11200
9.23753,8.00407,-3.14036,2.16763,6.67678,8.30233,6.86585,9.62199,9.54815,-4.09485,-8.35957,4.18683,-3.41214,7.90305,1.60148,11.7711,-191.784,-972.584,-134.688,17500,24500,-11480
-9.87516,-8.42688,-1.79935,-2.84681,2.37642,3.77278,1.88837,5.81544,-14.4096,-7.07623,-0.21982,-5.59369,-2.38513,3.65341,-4.04319,7.6769,-191.296,-971.608,-133.712,18620,26600,-11760
2.86229,5.92354,-3.25062,7.85565,2.87144,0.880868,5.50046,1.91091,5.8648,-2.99419,-3.50369,-1.30691,-3.20908,0.617322,11.6828,4.00651,-195.2,-969.168,-135.176,19180,28000,-11900
3.74841,4.62687,0.757926,9.59599,4.73193,2.47989,8.36051,2.03872,3.86817,0.723798,-2.16703,-3.2131,-0.0687359,2.20625,16.9018,5.06314,-195.688,-971.608,-133.712,19880,29960,-11900
-7.13864,-6.83859,3.39635,0.73965,2.86654,3.00253,2.516,0.706245,-8.83303,-4.02469,-0.121537,-4.5937,2.53838,2.61673,3.78897,3.32537,-197.64,-974.536,-135.176,20160,31220,-12320
-13.7971,-12.2789,2.15713,-11.4003,-5.17873,-3.24544,-8.4815,-3.37558,-15.3052,-5.20941,-7.17671,-4.38459,2.22488,-3.15359,-16.5485,-4.15874,-203.496,-972.096,-159.576,21980,34160,-13300
-0.797488,-2.25041,4.12455,-4.3513,-4.36989,-5.12903,-4.99453,-4.43964,-2.58834,5.88365,8.53099,3.30283,3.95708,-4.24765,-11.492,-5.33031,-187.88,-948.184,-117.608,25620,37100,-13720
14.3424,13.4811,5.76011,10.6262,2.73793,1.42621,4.52397,-1.42773,13.2532,9.20237,5.26375,12.1844,5.72987,1.65381,10.058,-0.908868,-187.392,-985.76,-107.848,21980,39480,-12740
7.82615,3.76167,10.6662,1.38369,2.72293,4.49964,-0.342346,0.453422,5.0001,13.582,7.90679,9.93512,10.7027,4.10248,-2.38402,-0.528232,-203.008,-979.416,-143.96,22260,38780,-13860
12.4294,12.3987,10.8196,3.90294,3.5417,4.31686,0.0954992,-0.230305,13.8861,15.7229,13.2531,8.37676,10.6679,3.81328,-2.14839,-1.16163,-209.84,-959.896,-157.624,27020,37240,-14000
8.69392,9.37185,5.38957,9.37743,3.37638,-0.786481,3.91196,-1.57916,7.14897,9.88633,-2.39803,7.3655,4.78479,-0.842173,4.87419,-4.42072,-198.616,-955.992,-116.144,28420,39480,-13160
-9.24085,-9.1564,-5.37215,-4.41928,-7.78532,-9.34695,-9.12042,-7.0866,-11.3989,-6.89552,-4.48856,-0.183853,-5.40823,-9.52934,-10.4322,-13.8217,-203.496,-964.288,-106.384,24360,42840,-12180
-4.33219,-3.62701,-13.7613,-6.57066,-14.6724,-17.0755,-14.9376,-11.5435,-0.834398,-16.5544,-11.8049,-6.56297,-13.2452,-16.5564,-3.5567,-17.6315,-200.08,-971.12,-126.88,22960,40740,-12320
12.5305,15.9638,-7.81746,7.58524,-3.76722,-8.94126,-5.26276,-8.40735,16.5564,-2.4553,-1.23255,3.17739,-7.62745,-8.03208,10.8706,-11.8432,-196.176,-975.512,-118.096,25060,37100,-11760
0.850321,11.4383,-4.7508,7.72226,2.78361,4.05152,0.540821,2.19387,2.61939,-2.31226,4.60674,0.910571,-4.12625,4.20841,8.6531,1.24617,-188.368,-981.856,-109.8,25200,36540,-11760
-5.25136,-0.701418,-4.74227,-5.69469,-1.39147,3.51478,-1.43383,5.74855,-4.52303,-6.00851,-4.76992,-12.4144,-3.41811,3.16597,-5.43516,3.55798,-183.976,-984.784,-92.232,24500,36120,-12040
-7.72064,-6.03456,-1.70017,-6.16879,-0.0499128,1.83185,1.45046,3.63638,-7.45221,-3.89228,4.1442,-14.8744,-0.746696,1.80624,-2.61844,4.21508,-184.464,-983.808,-96.136,23380,35420,-12180
-7.59197,-8.8846,-1.04046,-3.08683,0.254908,-1.16893,2.93976,-0.480798,-7.72233,-1.4763,-1.53902,-11.1797,-0.166971,-0.792365,1.67593,1.47066,-188.368,-977.464,-100.528,22960,35420,-12320
-4.8851,-7.20608,1.96183,-2.90214,-1.07123,-1.3547,-0.497339,-3.79872,-5.49434,2.0668,-1.4937,-3.79458,3.06414,-1.07749,-2.09607,-2.01752,-189.344,-973.56,-103.456,22960,35560,-12880
6.38211,4.43205,4.13656,8.06137,3.01857,0.0360568,4.93629,-9.89954,7.00797,7.0327,6.88277,4.24607,5.53648,0.636398,15.7485,-1.44864,-186.904,-967.704,-108.336,23100,36400,-12880
1.86518,-6.87954,3.66419,-6.49648,-3.78155,-1.52146,-5.89651,-8.25374,-0.701053,8.31353,2.96234,0.763376,5.19253,-1.54115,-6.26651,-6.1737,-187.392,-957.944,-112.24,23380,37240,-12880
-8.30875,-16.0297,5.3028,-15.1598,-2.92066,2.78837,-5.9869,7.91636,-10.9476,5.06526,10.2276,-1.53676,6.35229,2.29177,-16.0828,7.27618,-192.76,-954.04,-117.12,24080,37940,-12460
2.76951,-0.825103,6.56822,-4.46199,5.41719,7.27542,5.96451,7.75094,3.30316,4.15278,0.956278,4.07839,7.79979,7.26529,-3.87223,14.4663,-188.368,-957.944,-135.664,23240,38080,-12320
1.53896,0.51868,3.09466,-3.01314,2.42762,3.24994,1.05135,0.375204,2.48228,0.0381216,-2.05701,1.47688,4.37189,2.94247,-7.33814,4.62968,-187.88,-959.896,-141.032,22820,37940,-12040
-17.311,-19.9723,-4.70792,-12.0038,-6.42937,-3.89502,-5.9791,-0.552781,-20.4919,-8.09587,-1.65288,-10.4282,-4.02021,-4.93329,-10.7833,-2.30296,-184.464,-959.408,-152.744,22820,38080,-12040
-25.3771,-25.489,-8.42095,-7.37951,-2.19866,-0.406575,1.86195,6.56354,-27.7813,-13.5172,-12.6218,-7.52053,-8.56585,-1.17945,0.0993866,4.7452,-180.56,-966.24,-159.088,22400,37380,-12180
-4.7982,-1.38673,-8.73733,-0.0692373,1.73659,2.56796,2.57227,9.71892,-1.92928,-10.1186,-2.22498,2.25449,-9.33414,1.98692,-1.4804,7.26865,-176.168,-967.704,-158.112,21560,35140,-12460
14.8552,12.3275,-3.38347,-1.57566,0.188983,1.73111,-0.636696,6.83811,17.7542,-3.31262,-5.19735,3.2118,-4.56617,1.63857,-9.25871,3.49783,-168.848,-974.048,-157.136,21560,33180,-12740
15.1798,17.9095,4.83792,9.80689,7.22793,6.5761,9.45959,8.43954,16.4646,2.82797,-3.19006,3.57595,2.65389,7.05884,7.29164,8.20852,-158.6,-978.928,-137.616,22960,31920,-13160
-9.05268,-6.12277,-0.0942838,-1.34517,-1.30322,-1.86418,0.642703,0.998352,-11.3169,-0.963226,0.778994,-4.45478,-2.81864,-1.42954,-2.9271,-1.74402,-156.16,-979.416,-130.784,25060,32760,-13440
-11.5617,-11.8429,-6.67594,-5.4406,-11.5121,-14.1518,-9.23489,-9.79277,-11.9436,-2.55761,-3.80244,-7.40089,-10.0025,-13.7945,-7.97831,-15.0384,-159.576,-993.568,-137.128,26180,32900,-13720
0.510825,1.29109,-2.36703,1.95507,-9.24367,-14.9697,-10.7537,-15.1718,-0.31774,4.0147,6.8027,2.23603,-6.97868,-14.6097,-4.63033,-19.5485,-169.824,-986.248,-151.768,29120,33180,-14420
1.95059,9.12165,2.13501,11.4643,-1.53339,-6.3182,-3.98233,-11.1604,2.50479,5.37525,3.73339,8.35303,-3.0868,-5.96437,10.8115,-10.3108,-172.752,-978.44,-160.064,33040,34440,-14700
14.3998,23.2766,9.82529,21.7361,11.7542,9.69953,9.37611,4.05457,15.5475,9.5172,5.738,22.9727,5.82933,10.1608,22.4539,8.07787,-168.848,-975.512,-159.088,36400,34580,-14280
20.916,20.6505,10.4879,22.6647,24.1814,24.2805,24.0716,17.2683,19.5945,4.8751,1.09673,31.8174,9.46447,24.7541,29.6847,24.3356,-166.896,-980.392,-153.232,38920,33320,-13580
21.0146,20.0613,-0.358648,17.4037,20.3943,20.4182,24.2627,13.5896,22.5649,-2.03295,-14.2794,18.1689,0.860135,20.3645,25.7537,22.412,-166.408,-981.368,-148.352,40320,34160,-12740
