-5.26239,-5.22416,-0.767045,-0.107318,1.46624,2.12662,5.46585,4.50009,-7.68546,-3.14642,-4.06202,-4.81377,-1.74457,1.51521,2.72157,4.30554,23.424,-833.016,-547.048,1820,560,-840
-4.26268,-4.01898,-1.58701,-0.326857,0.180091,0.959473,4.44668,2.08745,-5.88296,-2.25252,-2.52449,-1.33087,-2.38176,1.40386,1.93227,4.02478,26.352,-833.504,-547.048,1680,280,-840
-0.171435,0.429063,-1.46616,-0.866726,-1.23616,-1.08989,2.296,-1.7875,-0.160052,0.90771,0.43979,1.43101,-1.17022,0.487607,0.533658,2.17372,22.448,-835.456,-547.048,1120,280,-1120
2.59475,2.12549,-0.410575,-1.28223,-0.916625,0.285884,1.93991,-1.93833,1.21365,3.61415,2.4613,3.09021,1.49956,1.58109,0.54619,0.607174,23.912,-834.968,-548.024,700,280,-1260
2.5894,0.0377716,-0.21328,-2.26665,-1.16175,0.864255,0.138175,-2.47343,0.994209,4.2857,3.66041,5.13387,3.50962,2.03592,1.49984,0.31282,21.472,-836.92,-546.56,140,140,-1260
3.3273,2.49311,0.874668,0.696617,1.97456,1.07992,2.07672,0.143498,-1.78133,0.518143,1.35525,3.5369,0.149508,1.24803,5.14973,-0.96593,23.424,-836.92,-545.584,-140,0,-1260
4.41339,7.39699,3.78025,5.96559,5.38825,2.65034,4.51276,1.82458,-2.98459,-3.07362,-2.68823,1.0182,-3.12836,-2.23128,1.80987,-3.51487,25.376,-835.944,-543.632,-700,140,-1400
-0.520058,1.93508,2.43534,4.0767,2.48238,0.51557,0.78688,0.281876,-5.84815,-3.74495,-2.42106,0.412518,-2.4091,-3.08013,-3.16229,-4.64812,24.4,-835.944,-543.144,-1260,140,-1400
-3.34983,-3.54192,-0.220984,-2.29377,-2.0991,-1.06329,-4.47614,-2.33777,0.409383,-0.0593214,3.63264,2.10635,1.0518,-0.510014,-4.65654,-2.52161,22.448,-838.384,-547.048,-1680,280,-1540
-1.39055,-1.96535,-1.18927,-3.30219,-3.46175,-2.86189,-8.04142,-4.37056,6.57038,1.69089,4.23987,2.28455,0.965654,-1.75397,-5.42193,-3.08049,22.448,-836.92,-546.56,-1680,280,-1680
-1.21811,0.698354,-1.657,-0.0343891,-1.1071,-2.16199,-4.44541,-1.89806,6.35793,-0.745209,-0.926425,-1.13404,-2.47913,-2.51149,-2.45208,-3.44695,26.84,-836.92,-545.584,-1820,560,-1960
-1.78775,0.974916,-2.83817,0.447181,-1.6124,-2.2637,-3.9415,-2.76404,5.86552,-1.87129,-2.40318,-2.6152,-3.09228,-2.47925,-1.88324,-2.65736,21.96,-837.896,-544.608,-2100,420,-1960
-2.6325,-2.36419,-2.9744,-1.15593,-1.88594,-3.42389,-5.32181,-3.22948,2.5959,-2.51232,-1.60169,-2.6997,-0.621893,-1.01802,-1.43976,-1.34619,22.448,-836.92,-548.024,-1960,700,-1820
-0.240295,-4.87892,-1.79838,-1.4652,-3.39249,-3.24482,-6.8409,-2.39242,3.42425,-1.10626,-0.0746232,-2.55613,0.448068,-0.792498,-5.42375,-0.815299,25.864,-833.504,-547.536,-1960,980,-1820
1.25561,-6.76111,-2.14819,-4.77607,-6.50531,-3.70524,-10.4685,-3.54779,3.70275,4.47337,4.49895,0.95904,3.55275,1.34866,-8.13059,0.0928368,24.888,-837.896,-548.024,-1820,980,-1820
0.0359456,-5.1062,-1.09806,-3.73118,-3.10636,-0.477801,-3.38413,-0.809642,-2.31824,3.68377,2.74887,0.761861,3.20108,2.88799,-0.977846,3.99667,21.472,-838.384,-549.976,-1960,980,-1680
-2.11484,-2.4792,-0.865781,-0.35318,-0.281077,-0.615765,1.36608,0.332945,-8.40847,-0.974505,-1.89895,-1.08993,-0.468621,0.486487,3.43152,3.83157,24.888,-839.36,-550.464,-1400,1260,-1680
-0.973986,2.38284,-0.520208,3.57604,2.29569,0.49925,5.28462,-0.385481,-8.20446,-4.55976,-5.88419,-2.83285,-3.30981,-1.41097,4.24914,-0.0351104,25.376,-835.944,-547.048,-1260,1400,-1680
2.83585,6.46678,2.73736,5.26685,5.15914,3.24353,8.76457,0.389377,-4.70062,-4.0655,-4.91264,-1.30111,-1.98538,-0.356668,4.91058,-0.201081,25.864,-835.944,-547.536,-980,1540,-1400
6.47582,11.7081,5.32017,8.13,8.94173,4.47175,11.098,3.43655,-2.64223,-5.68408,-6.90374,0.145179,-3.20134,-1.48674,2.62125,-2.17104,24.888,-835.944,-548.024,-840,1680,-1400
5.8582,11.8552,3.71089,6.67599,6.00362,4.59001,9.03307,7.07682,2.11696,-5.50288,-5.48231,0.325894,-2.23469,-1.84563,0.680952,-0.394145,21.96,-835.944,-548.512,-840,1960,-1400
2.0946,2.45535,1.19054,-1.72005,-0.221302,3.32974,3.6777,7.78222,4.56196,2.97923,4.9341,2.219,4.4201,1.89281,1.12128,5.03059,22.448,-834.968,-547.536,-700,2240,-1400
-1.00462,-5.91336,-1.30864,-6.34558,-2.0777,1.78581,1.60971,4.6468,1.95014,7.31923,8.83849,3.08385,6.98528,4.80646,5.50732,7.20957,22.936,-837.408,-546.072,-700,2380,-1400
-3.38439,-9.58126,-3.21284,-7.80883,-4.30405,-1.06504,-0.631797,-0.808097,2.62744,7.54338,9.05299,2.64974,6.88474,5.00959,6.64598,6.33197,23.424,-835.456,-545.096,-700,2520,-1400
0.0961086,-1.10793,-0.495624,-1.18104,-1.08649,-1.30668,1.14173,-2.70952,3.52729,3.09044,3.47875,-0.404781,1.55699,0.569203,4.82075,1.11685,23.912,-833.504,-547.048,-700,2380,-1400
1.93808,3.84859,1.25562,2.79071,1.94106,-0.9014,2.45706,-3.38995,2.97955,-1.08719,-1.36172,-3.15123,-0.788612,-2.01484,4.08978,-2.01986,26.84,-833.016,-547.048,-420,2520,-1400
-1.59766,-0.63527,-0.312913,0.377737,1.62672,-0.0748331,0.407573,-2.48151,0.319853,-2.28619,-1.57554,-3.36997,-0.29085,-0.8701,0.784294,-0.800068,27.816,-833.992,-549,-420,2380,-1540
-3.80496,-1.22611,-0.819057,-0.828168,0.811567,0.169918,-2.64331,-2.52236,-0.278439,-1.68144,-2.50543,-2.47092,-2.42803,-0.740964,-3.16334,-0.776927,23.424,-832.04,-546.56,-420,2520,-1680
-2.78067,1.21375,0.890481,-0.15113,1.1717,0.669321,-3.08853,-2.11703,2.52212,-0.212633,-2.49409,-0.163167,-2.55451,-0.778076,-5.7919,-0.661106,25.864,-831.064,-549,-420,1960,-1680
-3.5382,-0.181759,-0.327742,-2.43653,-2.01828,-0.42655,-4.74287,-1.83248,3.49468,2.51176,0.356887,2.30149,0.696072,1.8348,-6.01661,-0.272357,27.328,-832.04,-547.048,-560,1960,-1680
-4.0944,0.192299,-1.48147,-0.262527,-1.62316,-0.682665,-1.89194,-0.519176,-0.281152,-0.40947,-3.25162,-0.293778,-1.97991,0.870122,-2.98436,-2.74522,28.304,-830.088,-547.536,-840,1680,-1820
-1.69825,0.222707,0.312661,2.21402,0.463286,-0.448235,-2.39678,1.03409,-2.45183,-1.94673,-3.68002,0.364772,-4.20759,-1.39145,-4.92688,-4.54723,25.864,-829.6,-549,-840,1540,-1960
1.34491,-1.15963,1.46661,0.243123,-0.957203,-1.64871,-5.94604,-1.11654,0.150353,1.75943,0.136355,3.97537,-2.61618,-0.427969,-7.85711,-6.10978,26.352,-826.184,-547.048,-1120,1260,-2100
4.09923,-0.753153,2.64465,-0.652695,0.0525443,-1.02495,-5.37793,0.162129,1.4311,4.48222,3.09937,5.35836,-1.0918,0.0932964,-5.88741,-4.51226,22.936,-829.6,-549.976,-980,980,-2520
6.2742,5.93911,3.14469,5.3111,4.99628,-0.475705,1.37962,2.55215,-1.85359,0.013069,-1.92978,1.12983,-6.02764,-4.31195,-1.29504,-6.56555,24.888,-829.112,-546.072,-1120,980,-2520
6.2038,10.6365,2.34033,10.8482,6.50045,1.78982,8.18028,5.8045,-5.05612,-6.81007,-8.45124,-3.42992,-10.1306,-8.1832,3.05343,-7.91839,26.84,-828.624,-545.096,-1400,980,-2940
-1.0785,-2.08638,-1.42768,3.58515,-0.559199,0.978519,4.40964,5.36286,-8.83549,-4.44061,-3.27239,-3.55126,-3.12041,-3.46785,3.82372,-0.262783,25.864,-829.6,-549,-1540,840,-3220
-2.59253,-9.34427,-3.239,-1.89679,-3.94039,-0.818102,0.260241,2.4987,-8.21041,-0.526155,1.10429,-1.94834,2.44339,1.65663,4.62712,3.38798,24.888,-830.576,-546.072,-1680,980,-3360
3.22719,-3.65434,0.00896669,-0.875309,-2.88116,-1.11878,-2.06647,0.0850887,0.156778,1.31423,2.08266,-0.00238953,3.20598,1.15223,1.23255,1.83454,23.424,-832.528,-548.512,-1400,1260,-3780
4.32405,-0.117259,0.823206,-0.261214,-0.198448,-0.355821,0.483866,-0.824661,1.90813,-0.322994,0.651311,0.0679164,3.65991,1.84144,1.58415,4.03843,24.4,-833.992,-548.512,-1260,1120,-3780
3.18236,-0.454154,1.20368,-3.14218,0.0266516,1.04879,1.33912,-2.65731,2.54756,2.58265,3.54417,1.68481,6.49492,5.87566,4.3406,6.86866,21.96,-831.064,-550.464,-840,1400,-3780
-2.22971,-5.27849,-2.20138,-7.36971,-4.27385,-0.677132,-2.63682,-6.46499,1.88598,3.18356,6.10561,1.09535,8.01467,5.92864,3.77037,7.68411,21.96,-833.992,-554.368,-280,1400,-3640
-0.921732,-1.85853,-2.34971,-5.26166,-4.35658,-0.978444,-1.67772,-6.11018,2.43828,2.61365,4.67878,0.700673,4.81933,1.98484,2.43108,4.10965,21.96,-835.456,-549.976,-140,1680,-3640
-2.46576,-0.604577,-1.08187,-1.22539,-1.58757,-0.666726,0.66891,-4.44943,-2.45099,-0.130437,2.05962,-1.24715,1.9361,-0.410928,2.0843,1.48858,22.936,-831.552,-552.416,560,1260,-3500
-9.64418,-8.7165,-4.17898,-6.1606,-5.16247,-2.42255,-3.36442,-3.24702,-6.44326,0.422442,4.71863,0.196588,4.40046,1.40542,1.75743,3.433,19.52,-830.576,-548.024,840,1400,-3500
-5.76763,-4.60447,-1.66495,-4.73585,-2.9203,-1.1272,-3.58493,-1.32216,-0.227536,2.59174,2.78764,3.04795,3.3109,1.36736,-1.20845,1.66478,21.96,-832.04,-552.416,1260,1400,-3220
-2.78587,1.23713,-0.58898,0.336251,1.17994,1.26489,-0.916191,2.13917,1.1976,-1.23552,-1.83783,0.377923,0.155742,-1.26645,-3.88354,-0.421887,20.496,-831.064,-549,1540,1540,-3220
-1.2684,4.0037,0.201525,0.909455,1.28233,0.836273,-0.00841507,3.08144,4.56354,-1.01734,-1.59095,-0.843429,-0.977537,-1.46757,-3.84657,-1.90146,22.936,-832.04,-545.584,1820,1260,-3080
0.233584,5.15456,1.78729,3.51465,3.24234,1.00818,1.57722,3.26165,4.03785,-2.03593,-3.65887,-3.32495,-3.64506,-3.37488,-3.29456,-3.33449,23.912,-829.112,-549.488,1820,1400,-2940
1.26293,7.17995,2.65417,5.96412,5.32982,2.2683,3.74953,3.78473,1.28877,-4.5128,-5.85263,-5.12965,-5.97353,-4.21431,-2.48117,-3.7498,23.912,-830.088,-550.952,1820,980,-2940
2.89341,8.30396,2.90185,6.50483,5.78678,3.04882,6.46393,4.32161,2.12974,-4.70197,-6.348,-4.10528,-5.6288,-1.79658,-0.370176,-1.82368,24.888,-831.552,-550.952,1820,980,-2660
0.979525,2.99075,0.686067,0.714271,1.03374,1.70715,2.20822,4.54107,3.43084,-0.974241,0.626094,0.0892477,-0.90557,1.47499,-0.357498,1.42635,25.376,-828.136,-548.512,1680,560,-2660
2.03886,0.109729,-0.504559,-2.56972,-2.93293,-0.598809,-2.15792,2.27695,5.13283,2.54085,5.15775,3.16324,2.57026,2.57531,0.219397,2.24341,24.4,-828.624,-546.56,1820,560,-2380
2.92003,1.24368,-0.666937,-0.43044,-2.55303,-1.272,0.314764,0.0593933,4.15351,1.06876,3.3734,1.93389,0.992122,-0.454779,2.82652,0.813708,26.84,-830.088,-549,1820,0,-2100
1.19764,1.28527,0.0716878,1.24714,-1.41793,-0.157861,1.39576,-1.4273,3.01755,-1.2196,1.97984,1.15502,-0.560232,-2.13189,2.95653,-1.82289,28.304,-829.6,-549.976,1820,-140,-2100
0.43041,-0.849255,1.83661,-0.545785,-1.4976,1.22017,-1.47587,-2.87664,2.91485,2.12155,3.92723,3.05195,1.2417,0.437577,1.03879,-2.49566,29.768,-830.088,-550.952,1540,-420,-1960
-2.00232,-2.89366,-0.11264,-2.5334,-1.19117,-1.00462,-3.61324,-4.43558,2.02646,2.34844,2.69769,3.00119,1.55498,2.31679,0.236588,-2.88096,28.304,-830.576,-551.928,1400,-700,-1820
-3.64734,-4.95473,-3.00398,-2.20072,0.628912,-2.05072,-1.06736,-2.35278,-2.52091,-0.303656,-2.28466,0.265491,-0.501075,2.51098,1.25348,-0.875022,28.792,-831.552,-548.512,1260,-840,-1680
-1.0796,-5.39775,-1.56388,-1.24957,2.68031,-0.416027,1.85894,2.10182,-3.20127,0.382126,-2.57487,1.11081,0.169973,2.78162,0.763656,2.40133,30.744,-833.992,-547.048,980,-980,-1540
0.183165,-5.01273,-1.34153,-1.05824,1.28405,-0.745088,1.13535,2.00429,-1.95785,0.945146,-2.90054,1.45598,-0.194419,2.01933,-0.307031,3.05889,31.232,-833.992,-549,700,-1120,-1540
-0.889777,-5.87904,-3.03694,-4.23648,-1.35544,-2.23183,-3.62685,-1.19281,-0.179768,2.98366,-0.0333014,1.59041,0.987277,2.27066,-1.32656,2.35557,29.768,-833.016,-549.488,280,-1400,-1400
0.727732,-0.913678,-1.51795,0.696328,0.331452,-1.86847,-3.08897,-0.665694,-1.91434,0.712734,-0.643157,-1.91881,-2.0399,-1.80057,-2.10579,-3.49771,28.792,-833.016,-544.608,140,-1540,-1400
-0.590158,0.319486,-1.39999,0.59379,-1.44227,-1.09698,-2.54198,0.951142,-4.77956,-0.0431837,-1.35833,-3.06843,-1.44901,-1.67079,0.0806084,-2.62067,32.208,-833.992,-546.072,140,-1680,-1540
-0.856527,-0.132782,-1.85962,0.546119,-1.94626,-1.72757,-2.29789,0.256764,-6.78067,-2.13944,-2.99114,-2.82725,-1.03701,-2.69136,-0.0126769,-1.56984,28.304,-832.528,-548.512,140,-1820,-1540
-0.043623,2.05148,-1.18718,4.26868,-0.195865,-1.45389,0.0796344,-2.62744,-9.47465,-6.08286,-6.34706,-5.53281,-4.92014,-5.8034,-0.474082,-3.28614,30.256,-838.384,-547.048,140,-1960,-1400
4.66477,4.11337,2.51415,3.97432,0.534889,-0.381357,-0.0394657,-3.88848,-5.29511,-1.01952,-3.34373,-2.56637,-3.60283,-4.15119,-3.02759,-3.01892,29.768,-837.896,-545.584,-140,-1960,-1400
1.89536,0.942508,3.34007,1.84143,0.528276,0.682664,-0.478448,-3.13759,-4.8223,2.63068,-0.0852986,-1.11617,-0.784296,-1.72267,-4.70596,-1.0824,31.232,-833.992,-549,0,-2100,-1400
-2.01946,-4.84288,3.47663,-3.21061,0.234176,2.16831,-1.33495,-1.70967,-5.21508,6.24774,5.1364,1.93641,5.2956,3.94046,-2.81784,4.86645,29.768,-835.944,-549,0,-1960,-1540
6.82418,4.67322,7.72375,2.71566,6.99224,3.9158,2.94217,0.249234,0.601127,5.34233,1.98616,4.42039,1.85078,2.70779,-2.77285,1.25568,28.304,-833.504,-549.976,140,-1680,-1540
13.5807,11.8619,10.6048,7.32512,10.705,5.70249,6.12665,2.09389,6.04726,2.68547,-1.43256,5.05652,-1.58288,1.13893,-2.54048,-1.6935,29.768,-834.48,-549.976,280,-1820,-1540
12.3591,12.4539,8.60214,8.96375,10.1657,4.96473,10.8996,4.38942,4.53729,-0.926925,-2.66884,1.99733,-4.2904,-1.05159,3.77812,0.242233,31.232,-833.504,-551.44,420,-1400,-1680
5.52556,10.652,2.04938,9.1697,6.17007,0.942613,11.7606,3.7483,3.61148,-6.11138,-6.16561,-3.56235,-8.24154,-5.39925,7.63934,-0.591661,30.744,-834.48,-553.392,700,-1260,-1820
3.05513,9.2389,1.32594,6.69632,4.72588,0.554234,9.44533,2.25816,4.9873,-4.95475,-4.67732,-2.59099,-5.89473,-4.31247,5.84662,-0.486717,28.304,-833.016,-550.952,980,-560,-1820
-0.961462,5.52452,1.13754,3.66077,2.56497,1.87035,6.15147,1.80857,2.85503,-3.54801,-1.69221,-1.49852,-2.31968,-2.14716,4.32342,1.61669,25.864,-831.552,-552.904,1260,-140,-2240
-5.03758,0.0678841,-1.53519,-0.815575,-2.73627,1.3533,1.65868,1.37021,1.90464,-2.53512,1.19495,0.276498,1.0094,-1.04,3.05906,2.38482,27.328,-829.112,-553.392,1400,140,-2100
-6.3006,-5.33325,-5.30004,-7.74711,-8.40269,-1.14231,-5.30264,-0.691981,6.23094,1.73519,7.38953,3.68617,7.28481,3.50041,1.0884,3.86635,26.84,-833.992,-549.976,1680,420,-2100
-6.49516,-8.52133,-6.09564,-8.47703,-9.74765,-1.35371,-7.40693,-0.256175,5.66093,2.13821,8.64861,3.37926,7.70415,3.67992,-0.205268,3.50698,25.864,-835.456,-550.952,1680,700,-2100
-6.1698,-8.81124,-5.55674,-8.9597,-9.68548,-1.17039,-7.60152,0.983002,6.4031,2.7614,8.08981,3.46879,8.39886,3.77875,-1.20912,2.59299,27.816,-833.504,-552.416,1960,700,-1820
-10.1093,-11.1135,-6.33812,-9.55159,-9.63419,-1.52921,-8.286,1.04479,1.96943,0.728038,5.4508,0.843978,7.46308,3.96379,-1.83735,2.45646,26.352,-833.016,-549.488,1960,560,-1540
-10.6757,-8.54073,-4.46767,-4.50983,-4.16504,-0.246536,-4.46754,0.333578,-5.81229,-5.06508,-0.934711,-2.10332,1.5723,0.634646,-1.5634,-0.920365,25.376,-833.992,-553.392,1960,560,-1260
-7.7985,-3.81873,-3.04468,-1.24292,-1.59066,-0.940201,-4.95001,0.180293,-5.54853,-6.04151,-4.37778,-3.24249,-1.19331,-0.699479,-2.99202,-4.44353,24.888,-833.504,-551.928,2100,560,-980
-10.2961,-7.36873,-6.10654,-3.42681,-5.25612,-3.51482,-8.81123,-0.417822,-4.38744,-4.59984,-2.56795,-5.31238,-1.02649,-1.19432,-4.49119,-4.06934,25.864,-828.624,-552.416,1820,980,-840
-12.3985,-14.6958,-9.30808,-11.2975,-11.5236,-5.31102,-11.5569,-2.22622,0.831994,1.44009,4.93268,-3.05906,5.51478,3.33488,-3.18959,1.23696,25.864,-831.552,-553.392,2100,840,-560
-12.113,-16.2356,-9.66634,-12.4903,-11.4812,-5.15254,-8.92498,-2.06877,-0.211592,3.38868,5.06343,-2.06301,5.97182,5.49458,0.706771,3.08094,26.84,-829.6,-552.904,1820,700,-560
-7.71654,-11.9274,-7.38242,-10.177,-9.64685,-7.17459,-8.68073,-5.20663,0.190703,1.97251,2.55042,-0.965417,4.1559,3.94046,-0.0972894,0.289813,26.352,-829.6,-553.392,1960,840,-420
-2.48294,-5.42731,-4.08355,-5.64437,-5.76952,-6.41426,-6.24039,-7.63553,0.311755,1.05184,0.346421,-0.386827,1.79829,1.5585,-0.854282,-0.565196,27.328,-827.16,-554.856,1820,1120,-140
1.70278,-1.26465,-1.01255,-2.43457,-0.598894,-3.12375,-1.99852,-6.32753,-0.618001,3.55529,1.39904,0.393365,1.42323,1.28063,-0.276064,0.353906,26.84,-827.648,-555.832,1680,1260,-140
6.20116,1.37532,1.5333,-1.22474,2.31875,-1.46738,-0.00122259,-6.79008,-0.0678553,6.75788,2.93731,3.41064,1.65403,1.66788,-1.73814,-0.111182,29.28,-828.136,-548.512,1540,1260,-140
11.3028,5.88878,6.28361,3.20616,5.75578,0.909205,4.30879,-4.42509,-1.71848,7.25594,1.99178,4.87472,-0.762035,0.44287,-0.32022,-0.191336,29.768,-829.112,-552.904,1400,1400,-140
15.2852,13.4392,9.78703,9.58707,11.0533,2.99279,9.3412,-0.613605,-2.82748,3.73134,-2.89937,4.59625,-4.65839,-2.6827,2.39834,-1.70826,29.28,-829.112,-555.344,1260,1680,-140
15.1693,13.9119,9.86656,10.9026,12.3612,5.11301,10.7907,3.76715,-1.62671,1.5091,-4.41938,4.23275,-4.34746,-2.07168,2.2868,-0.992518,28.304,-829.6,-552.416,980,1400,-280
14.1178,13.7422,10.6064,13.6529,14.8906,7.02106,14.6532,9.47091,-3.56667,-2.28282,-6.0381,1.59106,-6.37632,-2.99005,4.25099,0.821702,28.792,-830.576,-554.368,840,1120,-280
15.24,19.5916,11.1464,17.9327,18.3034,8.03073,16.3547,10.6234,-3.03588,-5.12296,-10.0629,-1.59852,-11.8067,-6.61151,4.74791,-2.10593,31.232,-832.04,-552.416,840,1120,-560
13.5247,19.269,10.3599,15.9253,15.8313,7.23923,15.0259,8.61469,-1.18916,-3.66996,-7.35118,-4.22297,-10.8108,-5.63528,4.91307,-2.98238,27.816,-831.064,-553.88,700,700,-560
5.63205,8.88521,4.97723,7.74623,7.52477,4.1596,6.93635,3.37625,-0.0983881,-0.965788,-1.91282,-3.47839,-5.02009,-2.21144,2.30473,-1.14273,26.352,-832.528,-549.976,420,560,-700
3.78902,3.11733,3.95681,1.31654,2.63178,2.30704,-1.14274,1.42526,4.80395,3.79557,3.40869,2.00821,0.957546,0.829385,-2.01742,-0.705187,28.792,-831.064,-550.952,140,280,-980
3.01294,3.05212,5.21169,3.03354,5.70641,2.57823,1.20823,3.31063,1.61123,1.605,0.0502563,2.84033,-1.0416,1.32245,-1.40922,0.167344,30.256,-829.6,-550.464,0,280,-1120
4.4041,6.15195,5.98747,4.89936,6.21706,4.05069,3.77662,4.35344,3.28392,-0.537755,-1.57217,2.44251,-2.9131,0.168764,-1.54846,0.37115,28.792,-833.016,-549.976,140,-140,-1260
6.01159,10.2366,5.48327,8.01623,5.8636,4.14322,5.62224,4.33148,3.72824,-4.27145,-4.40955,-0.725528,-5.20305,-4.44481,-1.45418,-3.01933,32.208,-836.92,-547.536,0,-420,-1400
3.23591,8.77805,2.24928,7.83205,3.39501,2.79068,4.12481,3.66861,1.72182,-7.35105,-7.00536,-3.6192,-6.04239,-5.53717,-1.83902,-4.45042,28.792,-833.504,-546.56,-140,-420,-1680
-4.20404,-2.89366,-4.21808,-2.15766,-6.86596,-2.09545,-4.83655,-1.79143,3.5255,-2.81509,-1.99425,-2.37647,0.133966,-2.32467,-4.83969,-0.927181,30.256,-833.504,-549.976,-420,-280,-1820
-14.1701,-16.0572,-10.0917,-11.6217,-15.2983,-5.31076,-12.4571,-5.17999,2.32326,1.45827,2.69997,-0.616036,6.75496,2.07463,-5.10693,4.67201,28.792,-833.504,-548.024,-700,-280,-1820
-18.1908,-20.4226,-12.0973,-14.6511,-17.0646,-6.38888,-13.8047,-5.31428,-0.867616,1.88696,4.72419,-0.311729,8.12349,3.29252,-3.76205,5.65959,29.28,-835.456,-546.56,-840,-420,-1960
-15.6776,-14.437,-11.115,-10.1339,-13.6498,-7.5839,-10.0543,-4.63306,-2.36895,-1.42296,1.77982,-4.24015,3.47371,0.0032332,-3.72909,1.18204,30.256,-835.456,-549.488,-840,-560,-1960
-15.5122,-13.5467,-10.8466,-8.62527,-10.9856,-5.49747,-5.61943,-3.1409,-3.66648,-3.2059,2.03555,-6.36016,4.02953,0.227892,0.208669,2.26569,29.28,-832.528,-545.584,-1120,-560,-1820
-16.3832,-18.6669,-12.3307,-13.4343,-13.6369,-2.91078,-7.41268,-3.91975,-4.93267,1.04495,9.217,-3.3864,9.02225,4.41798,2.68266,6.0856,29.28,-832.528,-546.072,-1120,-840,-1680
-12.1724,-16.2745,-8.86382,-12.5794,-11.9184,-2.88896,-7.38298,-3.54934,-3.16846,3.80365,11.0869,1.42011,9.12972,5.12615,2.58091,5.18284,31.232,-833.016,-550.464,-980,-840,-1680
-7.69673,-11.9884,-6.21561,-8.44966,-8.11484,-3.8792,-6.64168,-5.73215,-2.64187,1.18678,5.31233,1.19393,4.87873,2.23929,1.39672,-0.70097,28.304,-831.552,-549,-1120,-1260,-1400
0.80003,-1.51333,-1.46189,-1.06261,-1.14751,-1.69719,-2.20623,-5.01487,0.0213555,-2.69205,-1.78677,-0.058037,-1.60605,-0.768725,-0.372287,-7.74627,26.84,-830.576,-552.904,-1120,-1540,-1260
7.62197,6.29516,4.14902,4.73063,5.79089,1.04702,3.15347,-1.51279,0.976329,-3.50865,-4.32911,1.40858,-3.8012,-1.54647,-0.538221,-9.53667,27.816,-834.968,-549,-1400,-1540,-1120
7.8426,7.83415,5.36514,5.04379,8.3315,1.30561,4.74268,-0.580035,-0.522826,-1.37859,-1.95296,3.05699,-1.30172,-0.221143,-0.714555,-7.17852,27.816,-832.04,-549,-1260,-1680,-840
5.63853,4.13151,3.48661,0.780872,5.3756,-0.538814,2.64415,-2.2856,0.611194,2.63917,1.00851,4.59728,2.92218,2.90859,1.24732,-1.11649,30.256,-834.48,-549.488,-1260,-1820,-840
3.53674,4.55033,1.34304,2.056,2.95971,-0.372819,2.82956,-2.02981,-1.7992,-1.10194,-2.25628,-0.908377,-2.13152,-0.330558,4.5365,0.405761,26.84,-832.528,-554.368,-1120,-2100,-420
4.97183,10.8533,3.06276,7.47531,6.16748,0.528039,6.24838,0.387389,-1.03668,-4.62425,-7.99403,-3.42633,-7.4453,-4.64286,4.00776,-1.88598,27.816,-831.552,-550.952,-560,-2100,-560
6.4304,9.47024,3.96774,5.03152,4.94198,0.843461,3.70808,2.19964,4.40337,-0.468438,-3.55725,0.827347,-2.5768,-1.53925,1.20635,0.168469,24.4,-831.552,-549.976,-140,-1680,-560
5.77318,6.54371,3.87196,2.1272,3.39468,1.7044,2.29876,3.26678,4.47454,2.51101,0.610486,2.84314,0.585082,1.41966,0.237652,4.49634,26.84,-834.968,-554.856,140,-1400,-420
6.48137,6.8031,5.0993,2.40723,4.66163,2.75089,2.76556,5.90428,3.18785,3.709,2.61827,4.15637,0.866202,1.75507,0.964159,6.78747,26.84,-831.552,-553.88,280,-1120,-560
5.60309,5.16338,5.73799,3.30995,5.05472,3.0306,2.83378,6.89208,0.913574,1.68944,1.361,3.39304,0.1299,0.506777,0.391098,4.74454,29.768,-832.528,-551.44,560,-700,-560
2.63623,4.48332,4.51191,4.83544,5.51243,3.78445,3.20803,6.76551,-2.51576,-0.225398,-3.25727,0.92913,-2.02298,-0.714412,0.391773,2.83086,25.376,-829.6,-554.856,840,-280,-700
0.939984,0.313785,1.95048,1.88671,1.44825,3.20324,-0.534973,6.41676,-2.19302,1.49108,-0.121088,1.3245,-0.0545568,0.272368,-0.511881,3.04067,23.912,-832.04,-553.392,1120,280,-840
-1.93989,-6.89399,-1.21587,-6.5771,-5.79801,1.59117,-5.83622,4.20692,0.80063,6.96091,8.09513,4.42684,6.30284,6.1052,-0.229012,6.46485,23.912,-832.528,-555.832,1400,1120,-1120
-3.40332,-8.40459,-2.40463,-9.37076,-6.9119,-0.456509,-5.8729,1.84377,1.99311,7.79215,9.80382,4.18111,7.36987,6.98064,-0.211762,6.99007,26.352,-828.136,-554.368,1540,1540,-840
-1.22168,-3.38834,-0.835131,-5.33838,-3.10191,-1.03309,-1.93987,-0.89541,1.5639,5.73699,4.80128,1.29452,3.17082,4.6746,0.230139,3.46052,21.96,-830.088,-555.344,1680,1820,-980
0.406012,1.82733,-1.36563,-1.66315,0.08971,-0.780698,0.864207,-2.54281,2.34727,3.86506,1.17594,-0.589278,-0.934384,1.12914,2.40609,-0.142776,24.4,-831.064,-549.488,1960,1820,-980
4.03062,5.20255,0.25252,2.54797,2.15242,-0.122444,1.80719,-4.18599,4.81146,2.23849,-0.0306257,-1.19448,-2.26131,-1.90661,0.449366,-3.04392,23.912,-830.088,-548.512,1820,1960,-1120
0.491427,2.04155,-0.157835,2.14806,0.577551,1.29815,1.24446,-6.95936,0.443793,0.686504,0.178279,-2.52607,-1.21036,-1.36121,0.743208,-2.23214,22.448,-832.04,-552.904,1960,1960,-1260
-3.21888,-2.14461,-1.34298,0.736383,-0.582602,0.406317,0.618639,-6.19784,-2.77539,-2.57868,-2.26286,-3.97163,-1.79184,-1.50758,-0.272548,-2.64665,24.4,-834.48,-549,1820,1540,-1260
-3.21117,-2.72597,-0.595893,2.256,0.316484,-0.99521,1.4622,-2.9729,-2.60006,-6.77725,-5.83919,-5.51578,-3.4315,-3.68356,-0.458659,-5.14284,22.448,-833.992,-549,1960,1120,-1120
-0.0601976,0.0698728,-0.196031,5.14823,1.4363,-1.50713,1.88188,-1.80456,-1.58545,-8.70635,-8.58044,-6.10047,-5.55642,-7.39781,-2.15482,-8.76442,26.84,-833.016,-551.928,1820,700,-1120
2.09029,-1.19955,0.178335,3.03845,0.0637712,-0.689377,-1.14048,-0.126068,0.682493,-3.91512,-4.14079,-2.67729,-2.1164,-4.22383,-5.72433,-6.78798,25.864,-832.528,-547.536,1960,140,-1260
-1.2897,-4.94118,-1.34467,0.710781,-1.87426,-1.35306,-1.82771,-0.874992,-0.776064,-3.62078,-3.28264,-1.89684,-0.814327,-2.85372,-5.41533,-3.8065,27.328,-833.992,-549.976,2100,-700,-1260
-2.43003,0.941049,0.0911988,7.50975,2.29277,-0.410125,4.73784,2.2612,-6.29558,-8.53008,-10.0496,-6.03192,-8.37426,-7.05266,-2.88398,-6.08939,29.28,-831.552,-546.56,2100,-1120,-1120
-4.57454,0.860294,0.321544,5.32058,2.26385,0.0156866,4.46047,2.64099,-6.11641,-5.33146,-6.78585,-3.82016,-5.89285,-4.21757,-1.48739,-4.37626,30.744,-830.088,-547.048,2240,-1680,-1400
-6.83264,-4.27115,-1.9895,-2.23253,-1.83716,-1.24257,-1.05964,-0.768212,-1.54051,0.54455,0.650162,0.963706,1.21439,1.24037,-2.12243,-0.408606,32.208,-832.528,-547.536,2240,-1960,-1540
-7.33524,-6.48243,-3.4252,-5.89471,-3.61254,-1.22387,-2.54049,0.335642,0.279441,2.41819,5.22816,1.61583,4.29887,3.11621,0.0605591,3.43872,34.16,-832.528,-549,2380,-1820,-1680
-1.32472,-0.494983,-1.68271,-4.00379,-1.78862,-1.72709,-2.42014,0.157008,3.2926,2.01617,5.75317,1.97194,3.38096,1.44791,0.677811,1.28223,30.256,-836.432,-544.12,2520,-2240,-1820
-1.14706,0.430228,-1.55459,-2.896,-0.903815,-2.13782,-2.30268,-0.99618,1.25931,0.779415,3.84567,2.02559,1.73236,1.0183,0.789236,0.720657,33.184,-838.872,-545.096,2800,-2100,-2100
0.89557,3.09788,-0.137477,-0.458828,0.925417,-0.824677,-0.0642637,0.545436,1.87786,0.88018,2.15691,2.75029,1.18437,1.44806,1.60854,0.679126,35.136,-840.824,-544.608,2940,-2240,-2100
6.11276,9.07462,3.43329,5.10155,6.40199,1.90301,5.10742,3.67876,0.672052,-1.42365,-1.47234,2.62207,-2.79692,0.481069,5.18505,-0.0962381,33.672,-843.264,-543.632,3220,-2240,-2240
6.37192,6.60929,2.6604,3.35985,4.88425,2.01927,3.40648,3.1307,1.04593,-1.00279,-2.11165,3.12167,-3.4381,1.50007,2.89676,0.970061,36.6,-842.288,-543.632,3640,-2240,-2240
4.23784,1.28748,1.45451,-1.11334,0.0482845,0.35099,-1.90278,-0.211487,2.1046,1.83148,0.671042,2.93703,0.241863,2.26227,-0.119259,1.20098,35.136,-844.728,-542.168,3780,-2100,-2100
4.18695,0.254123,2.17068,-2.15097,-0.501604,-0.0496915,-2.77678,-1.3151,-0.0309886,3.65779,2.86984,3.3331,2.50027,2.66665,1.38895,3.19912,37.088,-844.728,-544.12,4200,-1960,-2100
6.06398,4.23139,2.38501,0.454094,-0.264241,-0.145877,-2.50847,0.460095,0.408312,2.51714,1.93853,2.5046,1.36053,-0.482308,-0.214063,1.2194,35.136,-845.216,-538.752,4760,-1680,-1960
3.12274,2.55716,0.956838,-0.832624,-2.60418,0.637585,-2.86574,1.54192,-1.30195,1.19856,0.88095,1.48874,1.7621,-0.843142,-2.12986,2.07681,34.648,-848.144,-545.096,5040,-1680,-1820
2.20014,1.10552,1.08091,1.92454,-0.208304,2.62291,2.95681,4.50014,-6.57818,-3.17281,-2.15824,-1.97247,-0.0231284,-0.328984,1.0021,3.66102,34.16,-845.704,-543.632,5320,-1540,-1540
0.206753,-1.45988,-0.287088,3.24884,2.18644,3.56909,6.83956,5.32588,-7.59547,-5.55087,-2.98742,-4.71172,-0.366923,-1.25672,4.97713,5.11009,33.184,-845.704,-542.656,5880,-1540,-1260
-3.64924,-6.73353,-3.83417,-5.28985,-4.77888,-0.121082,-1.01915,-1.78121,-0.0403121,2.33243,3.5052,-1.2775,5.66999,1.93856,1.98784,6.23379,31.232,-843.752,-542.656,5880,-1820,-1120
-8.15544,-13.4998,-5.90565,-14.4177,-9.92681,-1.96413,-7.83468,-6.30105,7.21746,10.4022,12.2237,3.34113,13.6706,8.51261,1.87788,9.44653,30.256,-843.752,-544.608,5600,-2100,-700
-5.77868,-11.978,-3.77768,-13.0718,-7.49386,-1.74082,-7.7012,-7.1746,8.5311,11.0413,12.8421,5.01322,13.5398,9.52876,0.0399275,7.1517,30.744,-839.848,-546.072,5740,-2520,-560
-1.46812,-3.4789,-1.67853,-4.54073,-1.99489,-1.42041,-4.73431,-5.28326,5.69307,5.5578,4.15772,2.07127,3.75579,2.48666,-2.54056,-0.01729,32.696,-834.48,-545.096,6020,-2800,-140
-2.50224,-0.0875526,-1.09666,-0.342384,1.58443,0.556777,-1.33619,-1.65458,1.33351,1.38349,-0.406811,0.10989,-0.737781,-0.646363,-0.980813,-1.82201,30.256,-837.408,-549.488,5880,-2940,140
-0.0685896,1.9574,0.765886,2.5565,2.93473,0.423187,1.17004,0.236137,-0.29139,-0.919857,-1.93037,-1.72377,-3.19636,-1.29213,1.89411,-2.32489,31.232,-832.04,-551.928,5880,-2940,280
3.10708,7.18611,1.90131,6.28692,3.85264,0.0862093,2.8718,1.80741,1.89054,-2.55267,-6.36164,-3.57802,-6.68771,-4.06262,2.2054,-5.0301,30.744,-836.432,-551.928,6440,-3080,700
7.36455,14.0943,4.41072,11.0376,7.64167,0.383318,5.58247,2.75767,3.21356,-4.99375,-10.7756,-4.69776,-10.2657,-7.31597,-1.81362,-9.61869,30.744,-835.456,-554.368,7000,-2940,840
2.98625,6.28928,2.65673,6.08974,4.5868,0.234583,2.11421,2.8906,0.92654,-2.7126,-4.78928,-3.18666,-6.74755,-4.5002,-3.20377,-6.1083,30.744,-832.04,-550.952,7420,-2940,1120
-1.48806,-0.534327,0.506339,2.90049,-0.0305261,-0.467629,-0.219676,1.80763,-2.53573,-3.61197,-2.80705,-3.37364,-5.56745,-4.0294,-3.48218,-5.36728,29.768,-832.528,-554.368,7840,-2800,1400
-0.329253,-0.411675,0.522982,3.20362,-0.941429,-1.09561,-0.812008,1.81005,-1.96433,-3.45381,-1.69389,-1.15777,-5.97645,-4.07311,-5.73725,-5.91091,24.4,-827.648,-552.416,7980,-2660,1540
-1.24554,-1.31514,-0.196925,2.28123,-1.14539,-0.787973,0.235372,1.41209,-1.49556,-4.26507,-0.499665,0.30421,-3.43704,-2.36477,-3.65531,-5.3471,24.4,-825.696,-551.928,7700,-2940,2100
-1.9345,-1.26464,1.25227,1.61408,0.679065,-0.300106,1.547,0.465634,-2.32013,-4.67337,-1.57466,0.603408,-1.20137,-0.0785415,-2.74673,-2.95926,22.448,-824.232,-550.952,6860,-3080,2100
-5.46218,-4.4937,-0.671087,-1.36283,-0.735318,0.528339,1.64726,-0.678155,-5.11102,-1.44598,0.0867622,1.84695,2.06646,3.17002,-1.64454,1.06269,22.448,-820.328,-551.928,5880,-3220,2380
-2.06062,-0.755919,-0.398997,-1.23585,0.937574,2.13513,3.5172,-0.228279,-3.30488,1.08729,0.66303,2.46239,2.02103,3.42296,2.81814,1.51957,21.472,-819.352,-554.856,4760,-2940,2520
0.970564,4.76677,1.04125,3.28209,2.56751,1.79856,4.26014,0.684476,-3.12976,-1.78267,-3.14704,-0.637933,-3.20596,-0.713079,4.06457,-0.747718,17.568,-822.768,-555.344,4060,-2380,2520
1.57437,3.25336,0.556972,3.03368,1.45249,0.997846,1.83624,0.636634,-1.48073,-1.82422,-3.30132,-1.777,-3.86187,-1.81805,2.70595,-0.850288,17.568,-820.328,-556.808,3360,-1260,2520
0.773572,-2.06548,-0.936324,-0.105317,-2.47353,-0.261286,-1.2324,-1.72881,-0.301245,0.483159,0.0703795,-0.910674,0.673119,-1.84367,1.51076,1.04058,14.64,-820.816,-557.296,2940,-560,2520
-0.558448,-4.07512,-2.96546,0.163994,-3.54004,-1.35274,0.317934,-3.98755,-2.929,-1.93479,-1.52856,-2.99534,0.106746,-4.19562,3.19291,0.876456,12.688,-821.792,-558.272,2660,420,2520
-3.97929,-7.7614,-4.05438,-5.11461,-4.12167,-2.43434,0.335517,-3.73768,-4.07297,-0.818497,1.09155,-1.60816,3.6954,-0.123293,8.14734,5.94796,13.176,-822.28,-559.248,2240,1400,2380
-4.64374,-5.34163,-3.49387,-3.72165,-2.46722,-2.58895,3.53254,-1.22226,-5.23763,-2.10565,-1.65537,-2.12296,0.885767,0.516545,11.1276,7.42165,10.248,-821.304,-557.784,2240,2380,2380
2.56403,3.41978,0.54563,0.144071,1.88013,-1.87529,2.77405,0.184138,-1.01236,0.724749,-3.38605,0.204286,-0.804647,-0.153072,3.67159,3.61442,10.736,-824.232,-555.832,1820,2800,2100
7.85065,8.53142,3.99284,1.39478,1.64069,-1.06021,-3.1981,-1.94179,7.44072,3.23271,-0.843518,3.11479,1.59707,0.916606,-9.21846,-0.87636,13.176,-824.232,-554.856,1820,3360,1960
1.28308,-3.12208,2.00909,-8.25981,-4.43482,0.0803187,-11.6463,-3.16145,8.06992,9.90513,9.36558,6.98503,10.3794,8.94407,-14.2788,3.54728,13.176,-827.16,-552.904,1540,3220,1680
-4.23749,-7.98941,0.717303,-10.7835,-4.12584,0.932405,-9.65227,-1.55146,2.40843,8.41009,9.89682,6.86456,11.264,11.0313,-8.36696,6.46774,15.128,-827.16,-558.272,1540,2800,1260
2.06747,3.74844,3.58454,-2.0067,2.64051,1.76442,-1.52652,1.07556,3.98152,3.65543,4.52041,6.31716,2.90556,6.54205,-3.58617,2.28762,16.104,-830.576,-553.392,1400,2800,980
3.00299,5.83596,2.71664,0.118412,5.26461,2.52842,2.35153,3.81869,4.02137,3.23095,3.47899,4.59895,2.57325,4.39057,1.12164,2.34519,15.128,-829.112,-553.88,1540,2100,420
2.69899,5.81565,2.12079,2.45677,7.02665,2.30424,3.55913,4.94841,3.22427,1.49589,0.464008,1.95182,0.571272,-0.000202833,2.62088,1.30387,20.984,-830.576,-554.856,1960,1680,140
-0.58537,1.45115,0.461802,1.95779,5.62287,1.30373,1.77602,6.51883,-1.69006,-0.502203,0.798073,0.400758,0.187611,-0.688896,0.448785,0.208235,22.936,-830.576,-551.928,2660,1540,-700
-1.42653,-0.403453,0.0334686,1.54932,3.31117,0.447305,-0.130432,5.74991,-1.7396,-1.57803,0.677538,-1.18831,-0.721978,-0.896581,0.220776,-1.68974,27.816,-830.576,-547.048,2800,1260,-1400
2.13144,0.138104,0.253691,2.91885,2.03362,0.463603,1.25471,3.97085,0.72369,-2.39187,-0.410506,-1.74327,-2.14965,-2.81761,3.68295,-2.42336,27.816,-832.04,-550.952,2940,700,-1820
-1.7343,-3.67781,-3.0684,1.61496,-1.22506,-0.142524,2.00068,0.964227,-1.64478,-3.27911,-2.39803,-4.12646,-1.89157,-3.94932,5.81876,-1.73687,31.72,-834.968,-547.048,3920,140,-2380
-1.78421,-2.873,-3.60648,2.82807,-3.44349,-1.1309,1.47182,-3.60174,-1.85371,-3.47771,-3.42964,-5.89331,-4.37512,-6.36613,3.64565,-4.71938,36.6,-832.528,-549.976,4340,-140,-2660
0.588343,-0.147907,-2.2475,3.25606,-3.55632,-1.47749,-0.551948,-5.13227,1.11734,-1.70078,-1.66737,-5.42755,-4.13796,-6.53893,0.729287,-6.57375,37.088,-829.112,-552.416,4760,-700,-3220
-0.084774,0.11536,-1.89995,1.04426,-3.23256,-1.53972,-1.91722,-4.85157,2.63485,0.777919,0.143537,-3.59129,-2.7138,-4.87286,1.02396,-4.44392,39.528,-829.112,-549.488,5180,-1120,-3220
-0.412342,-1.46724,-2.27571,1.41043,-4.09079,-0.630058,-0.924866,-2.88932,0.329891,-2.47435,0.163417,-4.49823,-3.20471,-4.23015,0.404444,-3.55831,39.528,-830.576,-554.368,5740,-1540,-3360
1.55107,-0.929383,-1.07869,-0.789709,-5.79167,-0.433161,-3.85426,-3.59797,3.91677,-0.0438277,2.4377,-1.65813,-1.40007,-2.41963,-4.12592,-3.56225,41.968,-827.648,-553.88,6020,-1960,-3080
4.23815,4.17332,1.72666,3.58609,0.0794834,1.65061,1.81658,1.01581,3.57394,-1.57648,-2.13812,-2.11227,-4.87445,-3.19693,-3.90884,-4.60137,39.04,-822.768,-554.856,5880,-2380,-3080
-0.622897,1.57533,1.49791,4.64533,2.60241,1.75392,5.83494,5.1401,-3.0778,-5.12162,-5.61601,-2.95732,-4.79737,-1.15576,0.724572,-2.23415,41.48,-820.328,-554.856,6160,-2800,-2660
-0.621777,1.46976,0.339176,2.29516,1.3497,0.125138,4.18497,4.76983,-1.87969,-2.91025,-3.43945,-0.32943,-2.77849,-0.540604,1.36356,-1.01621,42.456,-818.864,-552.416,5880,-2800,-2240
4.07399,8.60489,2.67525,4.63371,3.07939,-1.41039,3.16043,0.746199,2.59083,-2.40375,-3.90605,1.14795,-3.97506,-2.73979,-1.66772,-4.9308,41.968,-822.768,-555.832,5740,-2940,-1820
2.80663,6.45518,2.90198,0.559869,2.21885,-0.922076,0.253638,-0.333803,1.50073,0.960078,-1.15533,4.63261,0.608342,2.35052,-3.69889,-0.320753,41.48,-819.352,-553.392,5600,-2800,-1400
-7.64156,-7.42554,-2.09749,-8.23174,-3.6143,-1.24473,-7.951,-1.23056,-6.72481,3.61279,3.78846,4.48795,6.44864,7.62641,-7.69754,6.34352,41.48,-819.84,-552.904,5460,-2520,-1120
-14.9316,-18.1425,-4.11793,-10.986,-3.84949,-0.0921962,-6.23665,0.409946,-17.4281,0.388529,2.11053,1.98701,8.25153,9.68486,-2.17826,12.8711,42.944,-824.232,-552.416,5040,-2100,-700
-9.76136,-13.6556,-1.75929,-7.53594,-0.789586,1.42652,-0.449606,2.40029,-12.6896,0.116596,-0.787115,2.10422,6.09717,8.44267,4.78366,12.8065,41.968,-824.72,-554.368,4620,-1540,-280
1.4001,-2.42346,-0.723069,-3.2045,-2.74056,-0.949868,-0.247399,-0.549078,0.789358,3.0133,1.0731,1.90658,2.44304,1.5689,5.0759,4.8243,40.016,-823.744,-552.904,4340,-1120,140
7.03362,0.499724,-0.721409,-5.83014,-7.2159,-2.56166,-5.3843,-3.95961,9.79189,9.08267,8.47666,4.11695,5.39569,2.01255,0.47654,3.19445,38.552,-822.768,-552.904,4340,-140,700
2.49892,-0.408572,-1.23364,-3.13092,-3.97205,-1.88953,-1.53862,-4.92885,4.1998,3.53475,3.96049,-0.19551,2.45268,1.21222,1.49881,2.16586,39.528,-826.184,-553.392,3920,420,840
3.69256,6.53345,1.81569,5.11277,5.00504,-0.250182,5.48757,-3.39731,0.576166,-4.07996,-5.394,-4.28774,-5.00053,-3.00287,4.80201,-1.94049,37.088,-826.184,-550.952,3780,1120,1120
6.02157,12.0446,3.2976,8.97646,8.55302,0.632398,5.83694,-5.87092,1.55583,-6.85074,-9.51481,-4.57649,-8.48312,-6.19765,4.01599,-6.35251,38.552,-824.232,-549,3500,1680,1540
6.03712,12.8136,3.63899,11.8845,10.235,2.10671,9.10142,-2.89747,-1.02777,-8.79151,-12.8083,-5.45317,-9.29033,-7.81,2.65499,-7.291,36.112,-827.648,-547.048,2940,1960,1820
4.60616,7.29835,2.83606,5.62846,4.38799,0.908435,3.02845,-2.5488,3.54511,-1.73306,-4.32665,-0.306561,-4.02272,-4.07058,-2.70141,-6.4295,33.672,-830.088,-545.584,2240,2240,1960
-0.940266,-2.21715,-1.1042,-4.27599,-2.49071,0.774091,-3.96478,-1.36551,4.87998,5.81484,7.64372,4.39564,4.43377,2.77904,-5.02863,0.216398,33.672,-829.112,-549.488,1680,2380,2100
-5.19552,-7.54761,-1.36217,-6.75195,-2.92301,1.38154,-3.42263,1.59237,0.649474,6.12347,10.2589,6.39615,8.52394,6.78219,-2.35772,5.62875,31.72,-830.576,-543.144,980,2660,2240
-6.17403,-8.7559,-1.39145,-6.66702,-2.3591,1.24496,-1.51535,3.97063,-1.05157,5.01861,10.14,6.33201,9.5171,6.97403,1.90948,6.01288,26.84,-829.6,-545.096,560,2380,2380
-0.245053,2.74329,2.19355,3.18296,3.28135,1.59419,2.37313,5.67798,-0.446199,-1.487,0.315516,1.9267,-0.12645,-0.218551,2.25208,-1.93571,28.792,-831.552,-542.656,280,2380,2240
2.94403,6.02917,3.78907,6.62513,4.40339,3.03387,3.77584,6.40518,-0.131922,-2.63979,-1.50429,0.650111,-3.23988,-2.1895,1.55833,-3.76474,25.864,-833.016,-547.048,-700,2240,2100
-2.10438,-6.51384,-1.01134,-5.05711,-4.98938,0.953352,-6.64152,3.73884,3.43045,5.24651,8.64688,4.77439,6.45475,3.28677,-2.51059,1.71012,24.4,-833.016,-543.632,-1120,2100,1820
-0.653993,-6.5196,-1.54528,-3.41684,-3.8179,-1.35625,-5.63414,1.54444,2.261,3.15721,4.9834,1.73642,2.52578,-0.369993,-3.36558,-1.65536,23.912,-834.48,-544.12,-1260,1680,1400
5.58597,3.87444,1.30292,2.45081,3.92869,-0.675911,0.514367,2.3998,2.8242,0.830844,-1.54255,-1.0941,-2.84324,-2.36547,-0.282673,-4.73699,23.912,-832.528,-543.632,-1820,1400,1260
3.26396,5.06499,0.135835,1.50651,1.63882,-1.4526,-0.516047,1.4187,1.73185,1.09603,-3.18619,-1.92633,-2.57375,-2.05757,-2.20402,-3.39278,21.96,-829.6,-545.584,-1820,1540,840
-2.78731,1.25523,-2.73525,-0.842653,-3.09039,-2.11189,-1.21104,0.54312,-2.05509,-0.0988705,-2.51487,-5.44238,-2.08809,-2.02988,-2.56877,0.569294,21.472,-831.064,-547.536,-1820,1120,560
-2.85553,2.11708,-1.71489,3.86637,-1.22968,-1.41288,2.35724,-0.780735,-4.575,-6.30832,-8.83524,-8.93504,-7.7143,-5.48278,-1.35043,-1.27702,19.52,-828.136,-549,-1680,1260,0
-1.7835,2.98372,-1.21569,6.70789,1.9019,-1.26964,6.03219,0.123478,-5.79431,-9.93904,-12.197,-9.17436,-9.76344,-6.55295,0.272633,-1.7126,19.52,-827.16,-549.976,-1820,1260,-420
-0.843287,1.54397,-1.60976,3.83069,1.91393,-2.13106,4.78967,0.207146,-2.80468,-8.61332,-8.78385,-5.78084,-6.23903,-4.7466,1.11664,-0.160242,16.104,-825.208,-552.416,-1820,1400,-840
-1.71225,-3.78202,-1.50643,-2.3249,-0.378762,-1.67058,1.33135,0.243481,-0.0355823,-1.30673,0.515401,-1.65445,2.06492,1.05451,0.966015,4.31136,17.08,-828.624,-549,-1960,1540,-1540
-2.35621,-4.86539,-0.613224,-6.06645,-1.12398,-0.292755,-1.17674,-2.15299,3.2014,4.67134,6.86547,0.308987,6.91663,4.50681,2.46278,5.01253,18.056,-826.184,-551.44,-2240,1540,-1960
-0.22198,-4.14781,0.721424,-5.72832,-2.89455,2.21476,-3.9571,-5.24225,5.60554,8.11778,7.61845,2.17936,8.30748,4.77755,-0.384087,2.3461,19.52,-827.16,-549,-2240,1680,-2380
4.07001,1.54597,2.07209,-0.76176,-0.729225,2.56717,-2.82481,-3.65788,3.70837,5.58228,3.50339,2.45945,4.19603,1.52808,-0.459437,-0.544458,17.568,-827.16,-551.928,-2520,1540,-2800
1.96329,2.18842,1.89365,4.29175,2.36601,2.06115,2.62594,1.06173,-3.84629,-2.3298,-2.51344,-0.665319,-3.03122,-1.24703,3.4964,-2.20984,21.472,-827.16,-548.512,-2660,1260,-3080
-0.406734,0.14006,-0.110658,2.067,0.668371,0.496333,0.62547,1.88517,-2.58456,-3.75146,-2.57477,1.31504,-3.28461,0.132766,2.92198,-1.61265,22.936,-828.624,-551.44,-3360,980,-3500
3.26364,1.92503,0.913985,-0.400567,-0.415057,0.106715,-3.26502,-1.01849,4.49831,0.383399,2.22713,5.74546,-0.719111,1.43413,-0.550303,-1.89371,23.424,-831.064,-549.488,-3780,700,-3640
-0.0216567,-2.72991,-0.317558,-2.91821,-1.61485,0.411269,-3.35891,-1.21307,2.35255,2.74998,5.76638,6.19907,2.01888,3.49412,-0.508157,0.422333,23.912,-830.576,-552.904,-3920,700,-3640
-5.16012,-7.12466,-2.70002,-5.71493,-4.65465,-0.836791,-4.25139,-1.31561,-0.635268,3.4484,7.25403,5.47618,3.98212,4.20928,-0.11392,2.41552,25.376,-833.016,-548.024,-4200,420,-3640
-3.78424,-5.1193,-1.34465,-3.84474,-3.01775,-0.677485,-3.20686,-1.15207,-1.1894,2.80271,3.8116,4.02818,2.71688,2.86168,-0.195674,2.29267,25.376,-833.992,-551.928,-4200,140,-3640
0.424961,-2.00674,0.223441,-2.83889,-1.81018,-1.01441,-3.21172,-0.909302,0.878549,3.37024,3.42109,4.39934,2.60462,1.79199,-1.58459,3.25629,27.816,-834.968,-552.904,-3640,140,-3360
1.84988,1.94161,1.62218,-0.700863,-0.552615,-0.933101,-1.55623,1.02518,0.798637,-0.179129,1.50918,2.14889,0.667119,0.718399,-1.95758,1.50397,26.84,-834.968,-548.024,-3920,280,-3220
3.87135,6.63501,2.8579,4.53697,3.22678,0.153375,2.99316,3.3316,-0.740247,-4.61711,-5.53529,-0.267832,-4.11632,-2.59559,0.397561,-2.58852,30.256,-833.992,-550.464,-3780,0,-2940
2.16809,5.3392,2.22618,6.00948,2.89016,-0.0218427,4.54646,2.44641,-4.306,-5.83813,-7.96539,-2.53297,-5.23888,-3.92348,0.891595,-3.012,31.232,-834.968,-548.512,-3780,-140,-2520
-1.939,0.947554,-0.62369,5.0404,1.79842,0.24268,6.95808,3.97864,-9.40495,-7.60139,-8.44806,-6.31019,-4.85177,-4.60957,2.89799,-1.61906,33.184,-836.432,-546.072,-3640,0,-2240
-3.88943,-6.6013,-3.24439,-2.67044,-2.68412,-0.0889287,1.48026,2.23029,-5.00407,1.78368,0.393437,-2.76052,3.06505,-0.145891,1.22723,2.02818,32.696,-834.48,-546.56,-3500,140,-1960
-3.30511,-4.36076,-3.62588,-1.48633,-2.21433,-2.11147,0.0573595,-1.9847,-4.79996,0.47383,-1.44805,-4.17046,0.16104,-2.4378,1.73083,-0.414796,29.768,-835.944,-545.096,-3780,140,-1540
-1.88781,1.86245,-2.55393,1.80101,0.243619,-1.48614,2.47943,-1.87977,-4.36139,-1.94403,-3.78016,-4.68227,-2.63202,-3.4787,0.736293,-1.51447,33.184,-834.968,-548.024,-4060,0,-1400
-2.12196,-0.187178,-2.16168,-3.15711,-1.41049,-1.43973,-2.46109,-2.56494,1.12649,3.43161,2.07336,-0.56596,2.7964,1.10072,-2.25409,0.702817,33.184,-834.968,-547.536,-3920,0,-980
0.900291,-0.546441,-0.0228316,-4.7288,-0.635515,-0.358615,-4.59119,-2.56629,8.159,6.03469,5.87274,2.04833,5.76391,3.23922,-4.42395,1.41674,35.624,-834.48,-547.536,-3780,140,-840
6.12074,5.62477,4.07526,0.291451,4.09881,2.31277,-0.365751,-2.93482,11.5258,4.36582,3.00744,2.48398,2.36421,2.0166,-5.38043,-0.519753,35.136,-834.968,-547.048,-4200,-140,-700
7.49029,8.6042,4.38415,4.21091,5.9304,3.14658,2.59372,-4.43768,7.8068,0.406597,-1.64244,0.722562,-1.3059,0.516977,-2.75888,-2.6629,32.696,-832.528,-549,-4060,-280,-420
3.11098,4.85112,2.71114,4.96677,4.83348,3.8584,3.80347,-4.52131,1.27349,-2.01806,-3.67875,-2.4411,-2.93561,-1.10317,-0.856282,-2.21901,35.136,-835.456,-549.976,-4060,-140,-280
0.44114,3.38154,2.3596,6.46304,3.00497,2.7981,4.54104,-2.28617,-2.09819,-3.75576,-5.05129,-5.7036,-4.94283,-4.45892,1.70898,-2.81725,36.112,-835.456,-547.536,-3640,-560,-140
1.06829,1.96344,2.0853,3.95647,1.10777,0.0586565,2.53905,0.269537,-0.536869,-1.37459,-2.01456,-2.96944,-3.28736,-3.33041,0.794707,-1.4863,30.744,-835.456,-548.024,-3500,-560,140
1.52367,0.15932,1.53326,1.71549,-0.0335796,-1.99271,-0.416231,-0.698079,0.184411,-0.486384,-0.333307,-1.04375,-3.25975,-1.8586,0.162209,-1.09693,33.672,-834.968,-555.832,-3080,-560,140
-1.06913,-2.29934,-0.862434,-0.42616,-1.93947,-2.37424,-2.05619,1.12106,-3.35498,-1.82405,0.239469,-1.83361,-1.08856,0.519353,0.781179,-0.318482,31.232,-833.504,-552.904,-2800,-840,420
-3.68782,-5.56567,-3.10104,-2.90367,-3.24176,-1.23829,-2.79313,4.65483,-5.7503,-3.02357,2.02276,-0.277175,1.59305,2.60623,0.425276,1.90995,31.232,-832.528,-553.88,-2520,-560,420
-6.45323,-6.9172,-3.5808,-2.52034,-1.8832,0.503769,0.0222947,6.80356,-7.48625,-5.10747,0.553539,-0.243242,0.694875,3.01587,3.40755,4.35221,33.672,-832.04,-555.832,-2240,-840,280
-3.73303,-6.50778,-1.45045,-6.04476,-1.54718,1.26432,-0.75214,6.26871,-0.744935,2.63178,6.25601,4.65542,5.16179,6.59956,3.93275,7.57336,31.232,-830.576,-553.88,-1540,-840,280
1.98568,-2.21372,0.6972,-6.35634,-1.01509,1.22688,-2.14818,6.73323,5.92373,8.21734,9.58965,9.39785,8.50768,7.85456,2.97013,6.17895,30.256,-831.552,-552.904,-1400,-980,420
-0.773975,-3.17097,-0.531617,-5.36567,-1.09972,-0.73463,-1.3144,5.3889,1.39309,4.78074,4.59503,7.86028,5.25931,5.20944,3.53939,4.38412,30.256,-830.576,-556.32,-840,-980,280
1.56349,2.11955,-0.0236041,-1.80254,0.0184658,-0.628232,-1.30456,2.24119,3.63203,2.91984,0.122958,5.42614,0.81864,0.691951,1.52552,-1.33635,29.28,-829.112,-553.392,-560,-1120,0
2.7428,3.28788,0.349455,-1.29776,-0.048763,0.758833,-0.781888,0.283381,5.50947,4.4569,-0.108715,3.96207,2.08749,-0.465914,0.405793,-1.48488,28.304,-829.6,-553.88,-280,-1260,0
0.0880105,1.69501,-1.13452,0.0547655,-1.31322,-0.542458,0.413403,-1.33815,3.95909,1.53571,-2.7876,0.531355,-1.28924,-2.51607,-0.232822,-0.933534,28.304,-826.672,-555.832,-280,-1260,-420
-4.93009,-0.0928726,-2.58905,3.90193,-2.00398,-1.26665,3.29061,-1.55104,-2.93159,-6.4961,-7.8049,-5.4793,-7.31265,-6.5928,0.613799,-3.34055,27.816,-826.672,-556.32,-420,-1260,-700
-4.28655,-4.29686,-1.34992,0.271558,-3.85256,-1.92843,-0.231649,-4.7397,-1.42325,-3.02785,-0.667031,-4.1461,-0.829171,-3.09138,-1.12362,-1.91447,26.84,-825.208,-555.832,-560,-1400,-980
4.39403,3.5614,1.34443,2.0034,-1.03918,-1.94071,-3.0214,-8.06658,6.95912,0.301749,1.52777,-1.82399,-0.758049,-2.93761,-5.35057,-5.51165,27.816,-823.256,-552.416,-700,-1260,-1260
4.79255,5.19866,1.56071,3.16391,0.846267,-1.60662,-3.93667,-7.77413,5.50591,-0.0238684,0.420743,-1.08331,-3.71751,-2.82615,-5.45132,-6.18721,27.328,-828.624,-553.88,-1120,-1260,-1680
1.96071,4.61245,-0.0823025,4.4846,3.08916,-0.873998,-0.823213,-3.62248,-0.931816,-4.64449,-3.91306,-3.7223,-5.83042,-2.49234,-3.35136,-5.79598,30.256,-826.672,-551.928,-1540,-1400,-1820
0.118741,1.30647,-1.21938,3.62193,1.01033,-1.46203,-1.2553,-2.97545,-4.04914,-5.6622,-4.53242,-5.15905,-3.94164,-4.77803,-4.93412,-4.64262,29.28,-825.208,-554.368,-2100,-1680,-2240
-2.46363,-4.72989,-0.24316,0.694196,0.0502985,0.327183,-1.24736,-0.396878,-7.67885,-1.78492,-1.34378,-2.94085,0.503469,-2.16039,-3.78636,-0.0952516,30.744,-825.696,-551.928,-2520,-1680,-2520
-3.14879,-6.20804,-0.221492,-0.680872,0.639591,2.07108,0.340254,1.57236,-8.44125,-1.06527,-0.589142,-0.545704,2.66444,0.189335,0.0675054,1.99444,30.256,-828.136,-551.928,-2660,-1820,-2800
-2.63613,-3.85787,-0.407395,-1.24431,0.438905,0.330475,0.555657,1.0499,-5.86314,-2.16777,-1.06994,0.211058,1.67657,0.102645,1.1277,2.01727,29.28,-827.16,-551.44,-3080,-1820,-2800
-0.349462,1.02774,1.50653,-2.01502,0.794508,-0.126681,0.963115,1.71802,0.191114,1.11202,0.148176,1.51346,1.39324,3.09196,1.78019,3.29262,27.328,-828.624,-555.832,-3080,-1960,-2800
1.34948,3.60099,2.69964,-0.051811,-0.308951,0.240059,0.346387,2.51085,2.0915,3.20766,1.7048,1.63687,1.0429,1.62901,1.93751,0.986577,29.768,-830.576,-552.416,-2940,-1680,-2940
1.24644,5.47476,3.50793,2.57726,1.21213,1.96376,3.45954,4.69467,-0.42768,0.624765,-0.486507,-1.08831,-1.02478,-0.945159,1.9757,0.217364,29.768,-827.16,-553.88,-3220,-1400,-2940
1.74922,5.44848,1.40895,-0.263648,0.146335,1.05663,0.386945,2.55164,5.36882,4.15368,2.1791,0.259346,1.28351,0.553715,-0.0346149,2.30557,28.304,-828.624,-555.832,-3360,-1120,-3080
-3.49915,-3.55823,-2.74384,-7.226,-3.36423,0.22178,-3.02724,-1.34142,4.86408,6.6815,6.82513,2.16083,5.65606,6.1794,2.11076,7.57618,26.84,-828.136,-552.416,-2940,-560,-2940
-4.32239,-4.88522,-2.1909,-6.04934,-0.740778,1.09862,-0.519363,-1.18719,-0.209757,3.76041,5.15949,1.36376,4.78105,7.93104,4.70479,8.83906,27.328,-827.648,-553.392,-3080,-280,-2940
1.18435,1.95999,0.95409,1.10333,4.09811,2.19877,3.06127,3.4364,-1.68238,0.629422,0.166007,1.30722,-0.478588,3.02612,1.7065,3.88279,29.768,-827.16,-552.904,-3360,140,-2940
3.39376,4.52841,2.68642,5.79941,5.7502,3.22511,5.49537,5.50672,-3.21017,-2.76199,-3.25917,-0.105323,-3.91668,-1.95773,0.907764,-1.45018,26.84,-827.16,-553.392,-3360,700,-2660
6.56798,7.15722,2.47618,8.87224,7.0036,3.08419,7.27535,2.61748,-3.0574,-4.86344,-5.69955,-1.85584,-6.45249,-4.7993,3.1835,-4.55247,29.28,-827.16,-549.488,-3640,700,-2520
9.0946,4.30305,1.04059,3.46957,1.17887,0.693921,2.02381,-1.71614,3.67988,1.53974,0.458525,1.14537,-3.19793,-2.14876,-0.163391,-4.09807,29.768,-825.696,-549,-4060,980,-2380
1.94556,-5.92885,-2.22363,-1.95131,-3.40097,-2.06603,-1.6431,-4.58799,-0.48868,1.77971,3.0557,-0.432229,1.02802,-1.00966,0.0433423,-2.13702,31.72,-828.624,-553.392,-4200,1260,-2380
-1.73051,-10.2433,-2.82439,-3.71533,-2.77059,-1.75308,-0.896915,-2.82357,-4.10285,-0.157488,2.29791,-0.0534852,3.58445,-0.654541,1.36794,0.149055,30.744,-825.696,-552.416,-4480,1400,-2520
-1.44808,-6.60494,-1.9046,-2.89115,-1.29474,-0.685156,0.6569,0.318731,-1.92408,-0.187279,0.559857,1.7345,2.8971,-0.0714048,0.731722,1.18254,31.72,-825.696,-553.88,-4620,1260,-2100
-1.38384,-2.29705,-2.01187,0.330472,-0.741576,-0.713464,1.79676,1.30675,-0.614034,-3.62023,-4.69678,-0.505913,-1.54018,-1.48426,0.0828539,-0.396968,28.792,-826.672,-554.856,-4900,1260,-2100
-6.06815,-6.6518,-4.53968,-5.58069,-6.9824,-2.95374,-4.25717,-0.362866,0.677345,0.357931,0.93358,0.273743,2.05509,1.27912,-0.506634,2.47701,28.304,-825.696,-553.392,-5180,1680,-2240
-5.97292,-5.4635,-2.57439,-6.9358,-6.995,-3.21123,-5.38118,-2.401,1.51204,2.28144,3.88891,1.5606,4.19812,3.37648,0.414669,2.02468,28.792,-825.208,-556.808,-5180,1400,-2100
0.211514,2.1198,1.01831,-0.970588,-2.37204,-1.71844,-2.90373,-1.55645,2.68856,-0.482178,0.371573,0.655733,0.473174,1.58731,-0.899068,-1.83498,30.256,-824.72,-555.832,-5600,1680,-2100
1.2626,4.85369,1.64059,2.335,1.26932,-1.56496,-2.31591,-2.30027,0.720526,-2.91002,-2.27816,-0.469175,-1.60255,0.444119,-1.64084,-3.46814,30.744,-822.768,-554.856,-5880,1680,-1960
1.97652,7.18106,2.95385,4.0042,3.48463,-0.155017,-2.9526,-3.09227,3.05885,-2.54604,-3.77857,0.87898,-2.63416,-0.0418414,-6.00379,-4.31521,33.184,-827.16,-554.856,-6160,1540,-1960
1.58583,10.9897,4.14505,8.45453,7.44879,2.36957,3.5229,-0.207984,2.1236,-7.49593,-9.97722,-1.61955,-7.44129,-2.28929,-4.51462,-4.17492,27.816,-826.184,-554.368,-6300,1820,-2100
0.618002,7.33043,3.86884,6.83142,4.82564,2.10152,5.15218,0.846373,1.47648,-5.22077,-6.22505,-1.82152,-5.00761,-2.78446,-0.673384,-4.12063,30.744,-826.184,-555.832,-6440,1820,-2100
-1.41861,-3.11377,0.956916,-5.48051,-3.73737,-0.0529646,-4.58399,-0.855664,7.04564,8.5105,9.71566,5.16077,7.70796,3.6604,-2.22224,1.87988,28.792,-825.696,-556.808,-6720,2100,-2100
-0.626807,1.13584,-0.320419,-1.85145,-1.37052,-0.956217,-1.76094,-0.232796,5.10422,3.55478,4.57248,0.557068,1.89395,-0.515148,-0.741636,0.0983766,30.744,-827.16,-559.736,-6440,1960,-2100
-3.49149,-0.543118,-1.78652,0.924959,-0.295435,-0.303339,1.78671,1.54528,-3.25047,-2.0183,-1.13092,-4.89519,-1.96079,-3.7026,2.6997,2.10633,29.28,-826.672,-558.272,-6720,1820,-2100
-4.58328,-6.52733,-1.80034,-3.138,-1.76611,0.0051411,0.567732,1.55926,-3.90611,3.12853,2.88306,-1.95006,2.80948,0.804431,3.80449,4.18541,30.256,-828.136,-560.712,-6440,1540,-1960
-0.974667,-1.63507,-1.1525,-1.5912,-1.72963,-0.688427,-0.874984,-0.697221,0.487697,4.26705,0.891382,-0.919374,1.93476,-1.41194,0.185093,-2.11544,31.232,-826.184,-559.736,-6020,1400,-1820
0.581403,1.50363,-0.839809,0.754388,-1.04449,0.138883,-1.48314,0.429507,-0.207465,1.09785,-1.44559,-1.48684,-0.0890861,-2.48821,-3.64869,-4.45399,31.232,-828.624,-557.784,-5740,1260,-1960
-2.17665,-5.94044,-2.13958,-5.32551,-4.24136,0.887262,-4.18396,3.18719,-1.30396,4.54292,5.57453,1.97419,6.46411,4.24105,-4.18586,2.38792,28.792,-827.648,-562.176,-5320,840,-1960
1.37549,-5.06957,-1.05029,-6.32289,-4.46221,-0.132623,-5.49108,2.02006,3.54472,5.18247,6.31148,4.10939,6.91334,3.86153,-4.39434,3.49028,31.72,-831.552,-560.712,-4620,840,-1820
6.01785,4.17266,1.84785,4.00375,2.01164,0.0169555,2.01627,2.139,0.0156974,-2.84926,-3.51301,-1.54432,-4.79312,-3.39494,-0.657356,-1.83257,28.304,-826.184,-564.128,-2800,700,-1820
1.63281,2.30359,1.13557,2.09675,2.67226,0.105274,2.91608,0.946179,-3.95455,-1.94266,-2.19687,0.211022,-3.72685,-0.583313,2.26001,0.212688,30.256,-827.648,-568.032,-2800,980,-1680
-4.70598,-7.68113,-2.45215,-4.26502,-1.89324,-0.17356,0.954757,1.53046,-6.17949,0.375351,2.87511,1.71077,0.702296,3.2457,5.62711,5.90116,31.232,-828.136,-563.64,-2380,840,-1680
-2.18255,-4.63273,-2.78924,-0.498207,-0.61196,-0.157416,2.75059,0.739563,-5.75956,-3.33851,-0.663284,-0.569783,-2.68192,-0.108221,7.46524,3.78512,28.792,-830.576,-564.128,-2100,560,-1820
1.04814,1.95054,-1.05134,3.41651,2.18189,0.469578,4.10536,-1.2754,-3.79274,-5.45708,-4.56229,-0.929536,-5.77812,-2.18286,4.88173,0.978045,26.84,-831.064,-562.176,-1400,560,-1680
0.901173,2.8354,-0.370911,3.72606,3.24513,1.60249,3.45327,-0.291952,-3.10069,-5.66482,-5.50995,-1.99169,-4.8713,-2.51739,3.75744,1.54948,27.328,-832.04,-558.76,-980,140,-1820
5.4727,6.28574,1.10897,2.35593,2.94075,0.0168781,-1.67896,-2.53466,6.89002,0.149235,-0.862409,0.388131,-1.51153,-3.37085,-0.611462,-1.31797,26.352,-833.016,-559.736,-700,420,-1820
11.5231,12.1416,4.80087,9.35449,7.94431,1.86725,4.35234,-0.0783279,6.50456,-0.761358,-2.57844,-1.7475,-5.35572,-5.65134,2.11408,-4.369,23.912,-834.48,-558.76,-420,0,-1680
5.84475,7.77834,5.02932,9.73557,8.49605,2.58314,8.80341,3.07352,-3.77288,-4.66965,-4.06171,-4.13043,-7.68954,-3.62219,5.89022,-2.56402,26.84,-833.992,-559.736,140,-420,-1820
0.12228,0.0471402,1.89192,3.58581,3.45986,0.148306,3.96394,1.4696,-6.69649,-3.04872,-2.55879,-3.04908,-4.23564,-0.987772,1.83368,0.107798,26.352,-831.064,-555.832,420,-700,-1680
1.78006,1.80424,2.57928,2.44335,4.17932,0.328061,-0.0239532,-1.52699,-2.29165,-0.329411,-3.06921,1.08148,-1.14875,0.284344,-7.41137,-3.53988,25.864,-833.504,-557.784,1400,-1120,-1680
-0.897409,-0.822142,3.47574,-3.1568,2.66275,0.257061,-5.62256,-2.33851,-0.00730867,6.18569,2.52286,6.71175,6.21295,7.22153,-14.4447,-1.75844,25.376,-834.48,-558.76,2100,-980,-1680
-6.34549,-9.19452,-2.33479,-7.14012,-5.11942,-1.90708,-7.1068,-1.03246,-4.31322,6.72329,4.62765,2.1808,8.30279,5.32847,-6.03784,0.0177412,27.816,-832.04,-559.736,2660,-1400,-1820
-8.86937,-14.5017,-6.37491,-12.1806,-11.5826,-3.38885,-9.82888,-1.56673,-1.05108,8.04165,8.56834,0.445074,11.4477,5.20102,0.0492669,2.17331,28.304,-832.04,-555.832,3640,-1680,-1400
-3.97234,-6.84556,-3.46509,-6.92592,-5.82947,-0.620918,-3.25651,-0.481112,2.79158,3.81105,3.3871,0.994045,7.70193,4.9477,3.42915,2.97883,28.304,-831.064,-559.736,4480,-1820,-1400
-3.15015,-2.23406,-2.00853,0.160908,-1.62904,1.07681,4.1429,1.1091,-1.08377,-2.69097,-3.71739,-2.67336,0.203633,-0.0880341,6.76157,1.83506,28.792,-829.112,-559.248,5600,-2240,-980
-0.109283,2.25392,-0.267592,1.22351,-1.03268,0.746799,1.66764,-2.78411,3.13823,-2.50656,-0.54657,-1.20391,-0.0708686,-1.35129,0.842466,-0.792487,28.304,-829.112,-561.688,5880,-2240,-840
3.48027,6.44734,1.81901,0.395971,-0.217456,1.35797,0.393652,-3.62859,10.5374,0.203253,4.3273,2.6904,1.82339,-0.618361,-2.60756,-0.57306,32.696,-827.16,-564.128,6580,-2660,-700
3.86693,8.33732,2.95222,2.29834,0.213864,1.21316,0.121559,-1.83655,11.1716,-0.167021,2.79611,1.74381,-0.802634,-2.12153,-1.11409,-2.16848,34.16,-830.576,-565.104,7000,-2520,-700
-2.25913,1.86683,-1.18994,-0.957635,-3.87328,-0.524241,-1.94769,-3.89306,4.56609,-3.06232,2.15884,-1.14152,0.126111,-1.59638,1.2593,-1.42254,34.648,-832.528,-561.2,7700,-2660,-840
-4.96292,-3.2433,-2.73307,-5.43191,-5.78981,-1.85085,-4.86229,-4.37266,2.59253,-1.46568,3.47893,1.04572,3.20157,2.4515,-1.05888,1.31337,35.624,-834.48,-560.712,7980,-2520,-980
-1.64509,-1.08012,-0.0345725,-3.85994,-3.23623,-2.60107,-4.89657,-3.51142,3.29396,1.71892,2.78627,3.69657,1.46658,2.25047,-4.74264,-0.786527,35.624,-836.92,-555.832,8400,-2660,-1120
0.827159,0.925159,1.4831,-0.694063,1.17827,-2.04955,0.618523,1.26212,-0.704568,0.698744,-1.22966,2.04172,-1.95769,0.167867,-2.53114,0.497739,37.576,-836.432,-556.32,8680,-2240,-1120
-3.73734,-7.44107,-1.85857,-6.75157,-2.05534,-1.65233,-0.524306,3.61206,-3.62795,4.17888,2.76728,2.29134,2.91767,5.70019,0.910256,7.63149,38.064,-833.992,-556.32,9100,-2380,-1120
-5.71762,-8.734,-2.91349,-6.07806,-1.97497,-1.96354,0.824262,3.78139,-3.86404,4.78123,2.44749,-0.609303,3.69347,4.91803,5.47701,8.31065,37.088,-836.432,-552.416,9520,-2380,-1260
-0.0257699,3.66458,-0.600957,8.53511,4.94048,-1.46707,8.23695,5.40517,-5.21677,-5.86416,-11.7447,-8.98595,-8.46059,-8.04405,6.84176,-3.04868,39.528,-834.968,-551.44,10220,-2940,-980
1.88527,6.3764,0.872099,9.25362,3.83198,0.820014,6.09621,5.19847,-4.00959,-7.16685,-10.1144,-7.42544,-7.4045,-7.56979,1.72849,-3.69321,38.064,-835.456,-549.976,10360,-3220,-980
-0.616533,0.147589,-0.645168,2.73301,-0.661673,1.6651,0.797271,5.44461,-1.33644,-2.99617,-1.63644,-2.79498,-1.27643,-1.90791,-0.918195,-0.397021,37.576,-833.504,-550.464,10780,-3780,-420
-1.4356,-5.35705,-1.1468,-0.805663,-0.917995,2.51688,-0.34528,6.64958,-0.517606,-0.0676476,2.58487,0.604154,2.05656,0.853212,1.87303,0.884175,36.112,-831.552,-548.024,10920,-4340,0
2.59142,1.00708,0.953626,4.70782,4.62811,3.27203,4.70883,6.75561,-1.14577,-3.05646,-3.3874,1.16599,-4.17255,-3.64423,2.44039,-2.42484,39.528,-831.552,-551.928,11480,-4620,420
5.65098,6.68966,1.69333,7.47769,5.97419,1.65627,4.97669,5.48133,-0.090187,-3.55867,-4.69188,1.06552,-6.94013,-6.55455,-0.0278695,-6.24672,36.6,-823.744,-553.392,11480,-4340,700
9.18782,7.1325,3.49942,3.56447,3.11693,-0.529405,-2.11498,-1.11345,5.38082,4.162,1.99432,3.80727,-2.53214,-2.72755,-5.57203,-7.82127,32.208,-822.768,-549,11900,-3780,980
6.7929,2.8211,2.31019,0.554861,-0.23019,-1.05214,-4.27212,-4.02988,3.44079,5.57712,2.96631,3.16454,-1.64964,0.136394,-8.09626,-5.40415,31.232,-821.304,-549,11480,-3080,1260
5.48481,2.05504,1.62118,0.534624,1.92373,0.990753,-0.352112,-2.92325,-0.882432,3.5989,1.03559,0.994467,-1.32559,2.25069,-1.94357,0.237347,29.768,-821.792,-549,10920,-2240,1400
1.5926,0.790249,0.465901,1.84857,2.22303,1.77528,1.99869,-4.25948,-6.11022,-1.37107,-1.44175,-2.97799,-3.13454,0.573714,1.60118,1.18054,26.84,-821.792,-551.928,9940,-1680,1960
0.446386,1.21111,1.40983,1.39102,2.05838,1.80884,0.172811,-5.68318,-4.16033,-1.78922,-1.86004,-1.43373,-0.810746,0.846446,-0.115263,0.943678,24.888,-819.84,-552.904,8680,-700,2100
4.93059,7.68108,3.23387,3.08917,2.92714,0.451972,-3.03154,-7.24609,1.90485,-0.95895,-3.19743,1.65916,-1.11426,-1.72282,-6.23429,-3.16303,23.912,-823.256,-553.392,7840,0,2520
2.40308,5.66476,2.89404,0.606784,0.142699,-0.60248,-5.1835,-6.55927,1.98927,-0.715826,-0.115282,3.46441,1.29508,-0.78369,-7.83814,-1.01698,21.96,-820.328,-552.904,6720,840,2660
-4.24209,-6.0157,-0.247831,-6.92716,-5.14197,-1.04878,-7.3295,-7.05487,-1.68303,3.21915,5.92837,5.24799,7.66154,4.93722,-3.97772,5.4185,21.472,-822.28,-556.808,5880,1400,3080
-7.98691,-10.4854,-2.79801,-6.53766,-4.82529,-0.186403,-0.926239,-2.89687,-7.16253,0.180969,3.3196,1.31291,5.76759,5.05122,5.35021,8.44781,19.032,-824.232,-556.808,5180,1960,3220
-7.09016,-7.5405,-2.83103,-2.29117,1.03153,1.27412,7.16841,2.63823,-8.90618,-4.27568,-2.2926,-3.05776,1.15906,2.79287,15.4603,9.1705,20.496,-824.72,-557.296,4900,2380,3220
-8.28881,-7.52704,-4.969,-1.43577,0.531361,0.0542362,6.68016,2.285,-7.5735,-5.65333,-3.49326,-6.4738,-1.59629,-0.776668,15.2144,6.23476,21.96,-824.232,-558.272,4340,2380,3080
-6.55485,-7.1485,-5.51485,-3.54247,-3.02798,-1.92184,-1.44215,-0.339224,-2.34391,-0.643709,0.279069,-3.61858,1.4003,-0.256125,5.26036,1.46907,20.008,-824.72,-556.808,4620,2240,2800
-1.24524,-3.04334,-2.42372,-3.99214,-3.18354,-1.85855,-5.17098,0.829451,2.0003,3.54003,4.26909,0.670554,3.84955,0.889494,-2.29605,-1.08691,23.912,-827.648,-553.88,4760,2240,2380
1.72966,3.53041,0.942894,2.44722,0.443711,-0.504015,-1.15822,3.48212,0.90668,0.613972,-0.561664,-1.9814,-0.85618,-2.81674,-3.13613,-5.36488,23.424,-827.648,-553.88,4900,1680,1820
-0.537378,0.883827,1.13981,-2.9002,-2.67916,-0.0848257,-7.3272,3.23608,4.31863,5.11938,4.92368,2.43381,5.46778,3.49481,-9.64577,-2.80731,24.4,-830.088,-551.928,5180,1120,980
-3.31995,-5.13464,-0.344009,-14.6512,-8.1734,-1.77166,-15.4191,1.50118,12.0665,14.4105,15.8543,10.683,16.3137,13.5471,-13.1303,4.03513,29.28,-832.528,-551.44,5740,980,560
-2.60349,-4.45171,-1.41351,-12.1043,-6.42287,-2.11811,-6.71394,3.24276,10.5418,11.6612,12.6335,8.76962,13.7454,11.7534,-3.23948,6.33328,27.816,-835.944,-551.44,6020,560,-140
-0.922921,-1.65242,-2.61754,-4.02854,-2.97203,-1.97569,5.29545,3.7285,5.9079,3.02416,4.26546,0.672445,4.16686,2.8373,7.44651,3.47094,27.816,-833.992,-548.512,6300,140,-560
6.92851,7.81777,1.04708,7.8066,3.56398,-0.921125,12.0022,2.3111,3.80682,-4.61944,-5.51404,-5.00067,-8.62694,-7.05341,8.19316,-6.19124,28.792,-834.48,-550.952,6580,-420,-980
12.4168,16.1586,5.41589,16.1498,9.39973,2.29532,16.5361,1.71642,4.60213,-8.87658,-11.2752,-7.62379,-15.4686,-11.9217,6.17605,-10.3878,30.256,-833.992,-551.928,7000,-560,-1120
7.59297,12.7538,4.15014,17.1484,9.06377,2.97528,15.9707,3.10364,-0.448803,-13.6985,-14.0463,-10.4224,-16.5847,-12.76,8.1058,-9.70032,33.672,-835.456,-545.584,7140,-840,-1260
-2.90669,-0.8392,-2.57774,9.61262,0.196868,-0.427048,9.82169,0.92052,-8.01744,-15.2618,-11.6376,-10.0325,-13.1491,-9.66839,8.32153,-4.90771,31.232,-833.016,-549,7420,-1400,-1260
-4.18322,-5.52767,-4.93066,-0.133646,-6.32697,-2.63034,-0.341669,-4.46825,0.74585,-5.35091,-3.26312,-3.38242,-4.67376,-5.30384,2.48607,-0.967695,34.16,-833.992,-554.368,7700,-1680,-1260
0.844295,0.0311158,-0.587558,1.13512,-3.14604,-0.748381,-2.66307,-3.78215,7.28402,-0.674751,0.0354381,-0.333616,-1.2498,-5.55495,-0.929203,-0.821374,34.16,-834.968,-552.904,8120,-1820,-1260
6.22131,10.1149,5.54234,9.70703,6.81286,1.76288,0.139324,-3.00881,2.83378,-3.98233,-6.52042,-0.282146,-6.49037,-6.70684,-6.40522,-5.70126,32.208,-836.432,-553.88,8680,-1540,-1120
7.76206,14.9937,9.57488,9.38453,11.3438,3.38913,-5.67702,-4.51086,0.384075,-1.29245,-6.23144,5.06715,-5.77689,-2.12465,-20.7836,-7.18001,34.648,-833.016,-550.952,8680,-1820,-980
2.66052,5.51583,8.66066,-2.07305,5.68097,2.61715,-16.5557,-7.29956,-0.628602,7.98334,5.07945,12.539,6.07549,7.44008,-29.6957,-1.76976,34.16,-834.48,-552.416,9100,-1960,-980
-10.7335,-15.0242,1.76176,-14.9584,-1.61423,1.40284,-15.8964,-2.98378,-9.45707,11.7587,13.5558,14.1972,16.2096,16.6221,-15.5036,11.7132,36.6,-832.528,-556.32,9520,-1960,-840
-19.5638,-28.788,-7.26992,-18.6033,-6.58519,-1.13586,-5.87421,4.4469,-14.2663,7.39452,11.1165,6.56177,14.7648,15.1054,3.63599,20.3638,34.648,-834.968,-559.736,9940,-1820,-420
-9.30362,-14.0182,-6.81809,-7.35421,-2.97365,-1.0842,4.59878,7.03409,-5.9801,2.15564,1.01091,-1.99857,4.05237,3.99117,13.4132,12.0763,36.6,-830.576,-559.248,11060,-1960,0
2.18602,5.27219,-1.15321,6.33368,3.91027,0.859707,12.7522,6.15587,-1.97232,-4.09368,-9.77526,-7.81075,-6.65975,-5.05623,15.9682,0.411981,35.624,-832.04,-555.832,11760,-1820,280
6.36276,7.45307,0.862544,6.63096,2.97824,2.16616,9.85997,6.39483,0.0803819,-2.25484,-7.18138,-5.52439,-4.98375,-3.84366,10.9285,-2.35493,32.208,-834.968,-561.2,12880,-1820,840
3.95547,2.45705,-1.47978,-0.972403,-1.4051,1.25879,1.41005,2.34584,1.66127,2.65245,1.39872,-2.23934,0.819906,0.680998,5.13845,-0.617327,36.6,-834.48,-562.664,13720,-1820,1120
-0.604755,-5.18981,-3.91297,-6.69551,-5.59585,-0.537491,-4.08966,-1.65109,0.473259,5.1663,5.71118,-1.89936,4.49039,3.62161,2.14838,0.916707,38.064,-834.48,-559.248,15260,-1680,1540
1.80349,-4.72326,-2.64645,-7.26841,-7.33075,-1.6617,-6.59455,-2.496,4.54594,8.1916,7.77854,0.0178822,6.01734,2.44137,-0.364298,-0.540875,36.6,-836.432,-561.2,16520,-1260,2240
6.43864,4.80925,-0.797702,-1.0737,-4.75032,-4.43107,-5.33345,-4.1127,7.21085,4.92471,3.81335,-0.204648,0.207666,-4.43181,-0.717031,-7.38547,34.16,-836.92,-560.224,17640,-1260,2380
5.90335,11.2267,1.24421,5.60267,0.984688,-1.78006,0.972676,-1.43559,1.76153,-2.22884,-2.84254,-1.41577,-5.4276,-5.76633,-0.0744263,-7.39799,30.744,-838.872,-559.736,18760,-1400,2940
4.50118,10.8187,3.14444,7.46647,4.7162,1.61499,4.15413,-1.15658,-4.50011,-5.0787,-5.99932,-1.77749,-5.79129,-3.90938,-0.298157,-5.12801,33.184,-835.456,-561.688,19880,-1400,3360
-7.11199,-5.17252,-1.33516,2.05837,1.01268,2.86942,1.02427,-0.0149767,-15.34,-6.20888,-3.21215,-3.1201,-0.780296,-0.217236,0.776405,0.0432704,30.256,-835.944,-558.76,20860,-1260,3920
-7.35188,-4.95128,-2.47514,-1.29345,-0.844394,0.16742,-3.87331,-0.390478,-7.88134,-3.57085,-1.2958,-0.893896,1.15902,1.26335,-3.74711,-0.292406,32.208,-835.944,-558.76,21700,-1120,4200
3.13356,5.46463,1.17388,-0.863926,0.250866,-1.66629,-6.15809,-3.41419,7.98331,2.09427,1.89639,4.53212,2.50842,0.0855895,-6.70487,-3.01538,30.744,-836.92,-557.296,22260,-1260,4340
-1.1316,-8.66668,-2.0415,-10.9923,-8.24891,-2.73918,-10.4274,-4.61649,11.1412,8.63287,13.2717,7.08598,12.2124,5.82672,-4.24435,4.88702,30.256,-836.92,-555.832,22540,-1540,4620
-0.903499,-7.74843,-1.09375,-8.16587,-5.35301,-2.40463,-3.54138,-1.45664,9.21496,3.81749,10.0292,4.99354,8.11445,5.26627,1.19438,5.27814,33.184,-836.432,-556.808,23100,-1680,4900
2.98948,3.74313,1.91156,2.87736,3.83746,0.0625978,7.48339,3.193,3.87019,-7.03972,-1.45801,1.53476,-4.01853,0.0556473,5.77636,1.48921,31.232,-834.48,-556.32,23520,-1820,5180
0.549134,0.55896,0.397937,0.178692,1.29172,-0.0154979,7.05846,2.75951,1.50802,-5.40348,-0.49874,2.25826,-2.58853,1.51801,7.86382,3.34494,27.816,-835.456,-552.904,23800,-1960,5600
-3.58706,-1.23333,-3.54161,1.30069,-0.579639,0.188543,5.88731,2.06185,-2.19338,-8.33809,-5.05973,-1.52446,-5.41128,-1.9636,6.62561,2.72373,30.744,-836.432,-557.784,23940,-2100,5460
-1.47954,3.66527,-4.06027,5.93451,-1.42111,-0.995382,3.73093,0.141726,-1.40176,-11.2806,-8.89109,-6.66714,-10.1852,-9.00528,4.33671,-5.77398,30.744,-834.48,-553.392,24080,-1680,5180
4.2678,11.228,1.58767,10.9511,4.50541,1.39588,5.69648,1.17478,2.03273,-10.0974,-10.289,-6.84722,-10.9831,-9.22437,1.07359,-8.12802,29.28,-833.504,-552.416,24080,-1260,5180
0.558246,-1.56883,0.0280512,-1.22581,-3.22962,-0.305611,-3.73119,-1.81248,7.56555,2.73527,1.68962,-0.793338,1.29698,0.0262868,-4.09763,-0.145334,30.256,-832.04,-554.368,24080,-840,4760
-0.338687,-3.76247,3.16122,-3.66787,-1.23749,-0.725704,-6.65026,-3.76498,4.70409,7.92031,5.6337,4.54504,5.13815,3.65321,-10.7929,0.761609,29.28,-830.576,-553.392,24220,-420,4620
-6.24034,-10.6232,3.50202,-3.98086,3.50501,1.82189,-1.27922,-0.171889,-8.84523,5.82385,5.86296,5.70317,6.46396,8.13333,-6.24952,5.84245,29.28,-828.624,-554.856,24500,-420,4480
-6.35638,-13.4423,1.81621,-0.0370696,4.68659,2.05735,6.04188,2.67264,-12.9594,2.93852,1.33781,0.418582,3.13731,5.03931,3.95459,5.59994,30.744,-831.064,-551.928,24360,140,4340
3.47166,-5.09464,4.16146,1.40458,3.76568,0.984816,6.97879,1.95202,-0.956693,9.38416,2.72759,1.4229,2.83661,2.60704,6.38942,4.17396,29.28,-831.064,-552.904,24360,280,4060
11.3042,7.7146,6.26165,7.04998,6.9366,1.39547,10.5692,3.22061,3.60317,5.01332,-3.3203,-1.44207,-3.48085,-2.78896,4.6292,-1.01466,28.792,-829.6,-552.416,24500,560,3920
11.8203,17.2107,5.88171,15.8044,11.8105,2.16526,11.4854,3.18943,-1.90651,-6.73889,-14.3031,-6.71729,-13.2495,-9.54616,-2.2178,-8.06264,30.744,-829.6,-553.88,24500,560,3920
7.59293,16.9808,5.17769,12.9029,9.11127,2.11056,2.72413,-2.38975,-3.64385,-7.14845,-13.1446,-4.20561,-10.3983,-7.13861,-11.7094,-9.52893,27.816,-827.16,-551.44,24640,1400,3780
2.61431,12.7718,3.02521,7.37475,6.52501,1.8337,-2.93194,-3.16612,-4.66605,-4.31941,-9.08108,-2.00995,-4.97706,-3.96834,-16.2587,-6.65744,29.768,-830.088,-553.392,24640,1820,3640
-2.29023,-3.40325,0.113715,-7.69437,-3.10575,1.46781,-10.7388,-1.95576,-2.08572,10.714,7.65403,4.1351,9.99921,6.62102,-10.312,2.14824,27.816,-833.504,-555.832,24780,2100,3640
-1.63647,-2.65148,0.534706,-5.30632,-1.99992,2.34331,-3.90922,2.18633,-2.86928,8.88197,5.81824,-0.471351,7.54003,4.96379,2.28241,3.9335,27.328,-832.04,-552.416,24640,2940,3500
-14.7997,-15.9409,-8.54578,-10.6858,-9.86341,0.0614017,-2.13133,2.41914,-9.43001,3.64121,5.11412,-5.0972,7.36216,4.47502,14.3337,9.79682,23.912,-833.992,-553.88,24920,3360,3500
-15.6004,-9.83389,-13.1901,-9.2408,-17.9296,-4.4184,-12.5377,-1.72454,1.38087,-2.3667,1.66721,-7.97556,1.98025,-4.89717,8.1598,-1.05315,25.864,-825.696,-552.416,24920,3780,3360
-9.77378,5.66109,-12.3095,1.0155,-15.3242,-6.06466,-12.4414,-3.1976,6.46165,-14.3922,-7.6641,-11.742,-8.80218,-15.3927,6.93554,-14.0756,24.4,-829.6,-552.416,24360,4340,3360
-4.82262,2.85709,-7.69319,-0.639193,-6.39168,-4.15704,-0.0310923,4.6989,5.05225,-8.5431,-3.83619,-5.166,-5.38273,-6.22713,9.25676,-2.15131,26.352,-823.256,-552.416,23520,4900,3080
7.38279,-1.71141,2.44765,-8.04964,1.24247,-1.90867,4.89385,7.45621,12.4086,12.1255,12.2981,10.9793,5.95522,8.7461,4.12146,12.6216,28.792,-825.208,-549,22120,5740,2940
9.53167,0.0776045,7.65056,-3.28423,9.49593,2.01398,7.93181,4.84487,5.16283,8.22551,8.48313,13.3517,4.38187,11.024,-2.53531,11.8191,27.816,-825.696,-550.952,20860,6580,2520
8.02763,4.87415,8.70934,5.53975,15.5591,4.11036,9.59062,1.04903,-2.72981,-4.30177,-2.18937,8.94668,-1.83595,5.7607,-6.76641,3.73617,28.304,-829.6,-552.416,19600,7840,1960
4.65963,2.51844,0.153245,0.939775,2.15278,-0.705505,-0.612361,-3.62953,6.0036,-6.22834,-1.03315,7.46734,-1.11775,-0.342791,-5.0168,-2.75945,27.328,-831.552,-556.32,19460,9520,980
-11.6475,-2.32382,-13.382,-7.79693,-16.1002,-8.65911,-19.7479,-12.4349,6.51637,-8.95202,1.52048,-0.456358,0.862841,-7.2355,-7.34873,-13.5723,30.744,-825.696,-552.416,19460,11060,280
-29.8218,-23.0585,-13.6913,-20.6523,-15.9087,-2.1823,-18.7583,-9.23146,-8.88417,-5.94075,7.98368,2.22553,15.0647,12.9992,-3.27816,6.27148,25.864,-822.28,-554.856,20160,12740,-1120
-9.73858,-18.9255,1.82954,-11.9492,1.85579,6.19283,1.64529,3.07393,-9.23544,4.71056,7.90107,8.33695,13.3999,21.0013,2.91609,18.8874,29.28,-816.424,-552.904,20300,14980,-2240
11.5656,-2.83452,10.44,3.3732,7.58553,4.67859,5.75468,0.0642843,-4.85715,10.0471,6.4236,4.62293,2.39152,5.59147,1.58318,2.3435,27.328,-816.912,-558.272,17920,16520,-3080
2.38967,-9.34196,3.64838,-3.10074,-3.21917,1.13532,-5.93747,-4.09287,-3.43198,8.73715,8.15047,0.689332,7.45952,4.46307,-0.856422,-0.132243,30.256,-816.424,-552.904,15260,17780,-4480
18.0409,7.00605,9.46786,6.19488,5.45109,0.0568788,3.40423,-3.12569,5.78695,9.92455,3.50761,1.90415,-0.288311,-2.38953,3.15339,-6.06267,28.304,-816.424,-550.464,14560,19180,-5740
39.5391,31.28,18.1103,22.4452,17.6359,1.31662,17.9469,0.664731,19.4739,8.72815,-4.54117,2.84051,-13.9351,-12.3496,5.22788,-12.5002,31.72,-811.056,-551.44,12880,20860,-7000
21.8322,26.2109,7.18189,24.9714,14.6707,0.907065,23.2012,3.85468,4.79124,-9.23755,-17.9147,-10.551,-23.2548,-18.7556,11.374,-11.8977,31.72,-814.472,-551.928,11480,22120,-8540
-2.63312,3.62007,-10.1503,11.6495,-3.34768,-4.35714,16.2774,3.52181,-7.44221,-14.9593,-14.9161,-20.5305,-19.0109,-19.568,18.53,-3.83584,27.328,-814.472,-547.536,9520,22820,-9240
4.84301,7.95747,-7.0136,5.61205,-8.83579,-5.00314,-0.745373,1.21831,7.44734,-4.15322,-4.59317,-10.6947,-11.2939,-15.2255,-0.19346,-7.38897,31.232,-813.496,-548.024,7700,23100,-10360
0.99016,-2.97415,-11.3541,-16.9897,-26.6391,-9.65344,-33.2555,-9.19689,24.9116,18.868,20.1923,4.82484,13.0801,-2.83272,-21.7647,-6.821,31.232,-821.304,-544.608,5320,22960,-11060
-17.1478,-15.4292,-13.1449,-22.8894,-24.3065,-8.4901,-31.8744,-10.5827,9.95339,12.83,16.3201,3.64574,19.7211,5.95875,-12.918,-0.727674,36.112,-825.208,-541.192,2800,22260,-11760
-11.7494,2.52533,3.90278,0.284685,9.47829,5.23254,1.11476,6.38236,-11.3942,-6.70538,-8.44126,0.4961,3.58556,7.44445,-8.5248,3.65636,40.016,-830.576,-544.12,1260,21840,-12460
-6.68148,7.78763,11.5908,-2.43708,14.2313,10.3182,-3.36637,8.53779,-5.73954,2.71136,-2.24772,13.3323,11.0919,17.0097,-24.2378,8.41265,38.064,-832.528,-540.704,-700,21420,-12740
-18.4576,-1.06199,9.9933,-2.94455,15.074,10.0661,-1.79824,3.71806,-24.0436,-4.83438,-6.3731,10.9284,10.7837,19.2133,-18.837,8.02039,39.04,-836.432,-543.144,-1540,20300,-12740
-31.0133,-20.4215,2.08751,9.44029,20.7144,10.3722,28.9996,13.9458,-61.5132,-24.8002,-22.3817,-12.5167,-7.48933,6.71032,17.3574,14.6115,42.944,-834.48,-537.288,-1960,19460,-12600
-14.7759,-20.0152,1.28077,12.7468,16.2217,7.22079,30.2303,13.9442,-44.0407,-16.7866,-16.9371,-15.41,-12.5628,-3.89746,23.1796,9.78448,30.256,-838.384,-529.48,-1680,18760,-12320
11.4699,-3.6974,3.10515,1.82892,-0.210478,1.64063,5.07505,0.0601281,10.9543,7.13311,3.46058,0.266316,-0.391047,-4.03263,8.39491,0.554661,35.624,-837.896,-534.848,-280,16380,-12180
12.2062,-1.70894,-1.43641,-3.76179,-6.25456,-0.712246,1.46218,-0.699364,22.309,8.6405,6.83802,1.3023,1.96844,-2.92665,11.3197,2.27897,34.16,-841.8,-527.528,420,15820,-12040
-8.47987,-19.978,-11.1598,-15.0799,-11.9477,-4.43645,0.00424518,0.309287,8.1916,3.8115,11.7442,-1.75519,7.7497,5.66498,13.2593,13.4538,32.696,-842.288,-533.872,980,14700,-12040
-12.3818,-12.5495,-11.4533,-7.81845,-4.62535,-3.1432,4.91716,2.61981,-0.319966,-9.84077,-0.553945,-5.94452,-1.66767,4.23361,7.50976,11.295,26.84,-834.968,-538.752,1120,14000,-12320
25.5735,25.5968,4.77371,6.91376,-0.0436141,-4.98176,-9.2307,-9.14837,33.0638,3.88601,1.21254,6.62608,-7.66657,-8.18727,-13.8709,-17.0621,30.744,-832.528,-543.632,-560,13440,-12600
40.8869,43.705,3.25715,18.5275,-5.32615,-9.21672,-8.02866,-11.404,45.8009,2.5711,-3.01571,-0.370232,-18.7502,-28.9863,-5.95124,-33.117,32.208,-832.04,-540.216,-3220,15540,-13720
5.36303,26.4727,-9.52877,28.1062,-0.230535,-5.77572,16.0691,2.82325,-3.12393,-34.5073,-30.332,-27.9616,-35.1409,-35.4384,18.1838,-24.7699,32.696,-835.944,-536.312,-5460,16940,-14560
-10.401,8.47669,-4.91683,16.083,3.07689,1.38131,8.14343,5.45143,-20.1426,-28.5558,-23.2392,-15.7083,-19.6753,-12.3458,1.58827,-10.0745,31.232,-839.848,-536.8,-6440,18340,-15680
-6.19244,-13.3654,-0.209718,-11.6653,-8.90033,-0.149784,-15.1459,-3.50174,-2.53432,11.9246,14.2987,10.7291,12.914,11.8338,-7.14045,3.80072,29.28,-846.68,-539.24,-6580,18480,-15960
-6.96475,-16.7326,1.23863,-5.76587,-0.415856,-0.202614,5.06492,-1.77708,-12.0444,7.43807,9.92999,4.14503,7.49008,10.0459,12.3161,9.7317,32.696,-849.12,-539.24,-7280,18760,-16100
27.8873,39.163,21.592,29.4163,28.7618,4.30599,14.5392,-3.95106,2.23909,-6.06154,-16.4136,2.6548,-19.5895,-10.1166,-13.6706,-19.7653,27.816,-850.096,-536.8,-7980,19180,-16240
34.6265,35.2389,28.6518,4.68286,14.2942,4.96062,-25.1473,-14.3457,30.082,27.9778,14.6334,31.2925,12.4453,11.0123,-47.087,-18.1525,26.84,-853.024,-537.776,-7700,19460,-16380
-14.809,-42.8864,-8.05983,-55.5828,-37.1679,-5.97341,-53.6466,-12.7508,25.1748,55.8384,61.0938,35.9496,58.234,37.6556,-26.3328,25.5867,28.792,-848.144,-537.288,-5600,19180,-15960
-43.414,-68.8375,-19.948,-51.5089,-30.7439,-4.02114,-25.0619,-0.761683,-14.4382,28.26,39.5918,12.7146,45.3294,35.2795,10.2312,39.1086,24.888,-847.168,-536.8,-4480,18620,-15960
-26.3247,-41.5829,-9.29536,-22.5542,-6.14453,2.88856,8.36458,12.5767,-20.0807,9.90132,11.8029,2.35213,18.7214,22.011,22.0683,33.6466,26.352,-847.656,-536.8,-4760,18620,-15400
-26.456,-13.0503,-12.9579,-0.0379444,-1.01658,1.48331,12.9386,11.817,-23.7953,-17.5288,-14.3879,-16.5081,-7.50234,-3.15652,18.4827,10.3755,27.816,-845.704,-538.264,-4900,17920,-15260
-32.1562,-11.1814,-13.3624,0.675595,-3.92416,-0.402649,0.872872,1.62184,-27.0837,-24.2556,-16.0044,-18.8932,-7.06818,-7.27947,10.3845,-2.1662,39.04,-848.144,-528.992,-6580,17360,-15260
32.1472,40.879,17.934,19.8667,15.7311,-0.911546,-3.56452,-15.3797,20.4729,3.97522,-8.49879,7.58039,-12.3629,-14.0092,-13.7292,-29.3273,48.8,-842.776,-533.872,-7280,16800,-16100
40.1514,51.5376,22.1627,21.4197,23.6888,5.44893,0.994639,-9.91958,27.8842,1.24293,-13.3826,12.4633,-14.3099,-7.75632,-25.7785,-22.7645,41.968,-837.408,-538.264,-7140,16800,-16520
7.96083,-6.70131,-4.55034,-15.926,-8.77646,0.528747,-2.99052,1.25061,22.8157,14.1645,13.9629,8.01053,11.9086,9.62937,-0.502088,17.2475,40.016,-842.776,-537.288,-8680,16240,-16380
-5.22868,-20.8166,-14.2436,-4.34054,-6.37914,-3.24645,25.5198,11.815,-6.34212,-5.57013,-0.772844,-15.6158,-3.95054,-4.17735,37.3694,21.8381,37.576,-848.144,-527.04,-8960,15260,-15960
-2.34764,-15.9264,-10.7224,-0.081774,-4.25119,-2.99925,26.8235,12.7924,-4.49325,-5.77149,-0.431846,-15.466,-5.18187,-5.17203,38.2245,18.3541,34.16,-846.192,-528.992,-8960,13440,-14700
2.21349,-5.95551,-7.46471,0.527556,-6.6633,-2.4355,13.3125,9.20669,9.41837,-5.08534,-2.08274,-9.06855,-5.71144,-6.33687,23.2018,8.9191,38.552,-844.728,-526.064,-9520,12180,-13300
2.60163,18.8474,-4.09738,10.332,-7.98425,-5.25987,-10.6124,-4.84375,4.98,-16.0521,-12.5025,-11.598,-14.2975,-20.968,-6.26949,-22.366,41.968,-842.776,-529.48,-10220,11760,-12740
7.71833,29.0603,15.4909,26.0153,16.1356,2.11695,-0.795069,-6.14929,-21.3228,-21.0429,-23.3806,-6.80984,-19.9053,-16.2255,-17.373,-30.4545,40.504,-841.312,-527.04,-12180,11060,-12040
9.86608,14.8282,14.6622,16.7918,19.2096,4.97697,1.2961,0.216052,-11.9957,-9.64721,-15.1687,0.365504,-11.1947,-2.06344,-24.8568,-13.6606,39.528,-843.264,-528.992,-12740,10220,-11200
21.1091,42.4293,13.6121,24.3724,22.8256,5.62596,-1.49468,0.589618,7.33965,-14.7416,-24.679,0.775383,-19.9165,-10.0882,-34.8969,-22.8507,45.872,-845.216,-526.552,-13160,9240,-10360
-11.2363,7.99061,3.09808,19.8238,15.2025,4.70675,7.36643,3.8003,-42.9294,-25.0295,-22.9359,-11.717,-18.6873,-9.36264,-9.59507,-14.2452,51.728,-848.632,-526.552,-13020,8260,-9380
-36.2516,-58.8363,-8.59977,-20.6777,-10.9017,0.113346,-4.58664,-1.23086,-44.0008,8.24714,21.5876,-1.90238,20.3602,18.544,12.394,17.2825,51.728,-853.512,-523.136,-12040,7560,-8400
13.4584,-6.4213,6.84831,-8.53684,0.240081,0.851989,0.556165,-1.94343,31.6549,21.5976,18.3129,14.1203,14.4614,12.4427,2.7468,6.95753,49.776,-852.048,-520.696,-10780,5740,-7280
35.5218,29.7357,8.26117,-7.68092,-9.74166,-2.30279,-21.4597,-6.77513,74.4132,31.3038,23.8181,22.1327,16.0052,3.52066,-28.5086,-8.74582,53.68,-842.288,-516.304,-10080,5040,-6580
23.9004,8.86681,6.40926,-31.8778,-21.1953,-2.99827,-39.2777,-12.5228,73.2181,52.3668,47.3697,36.8328,40.2162,25.3421,-34.2049,5.88326,51.24,-844.24,-518.256,-9100,4200,-5880
18.3019,8.16909,7.69105,-17.95,-5.24883,0.61858,-15.0971,-5.41206,38.4901,33.1844,24.6147,26.1894,22.6361,19.6569,-7.51096,9.08019,50.264,-843.752,-516.792,-8820,2800,-5460
-28.3531,24.151,-1.98275,38.2551,30.9097,8.03266,41.0271,15.9702,-81.0205,-60.4907,-58.7103,-32.4787,-42.903,-22.5942,24.5067,-9.73137,50.264,-837.408,-517.28,-8960,1960,-5040
-92.875,-62.7474,-27.7763,12.5531,9.32505,7.41351,49.1487,24.9484,-156.904,-71.2571,-48.4693,-53.5524,-26.1272,-7.68044,57.1987,23.8574,47.336,-839.848,-521.672,-9800,700,-4620
-66.4195,-105.908,-32.4819,-40.6776,-29.8456,-1.67905,8.49751,12.655,-63.4733,1.82958,18.6843,-14.9881,28.3389,24.1855,52.1374,50.3262,48.312,-841.8,-519.232,-10500,-280,-4060
44.8811,17.1503,2.70866,-19.3122,-21.4949,-10.1205,-33.1479,-18.3966,95.7779,44.8355,32.7303,29.8366,21.5048,2.07512,-14.8172,-7.76614,49.288,-838.872,-530.456,-10780,-840,-3780
37.98,41.7003,7.51349,8.05138,-1.45514,-6.53588,-15.531,-17.4006,60.5764,10.473,4.59706,12.471,-4.13099,-14.9377,-15.8873,-24.8503,50.264,-824.72,-543.144,-10220,-700,-3500
4.17589,36.3156,7.32957,50.6601,32.4076,3.87108,39.9841,4.71737,-47.0661,-54.3167,-52.5601,-30.4965,-49.7373,-36.8445,18.0381,-28.6436,47.336,-859.856,-508.008,-10220,-280,-3360
-32.9682,-20.0778,-9.08569,29.0058,14.5749,4.89496,39.9249,15.7296,-86.2159,-52.9917,-41.1143,-40.7603,-33.5713,-22.4875,32.2862,-1.8848,47.336,-823.744,-533.384,-12740,-4200,-3080
-32.2954,-55.9173,-16.9859,-16.5869,-18.1307,-2.49549,3.8348,8.62138,-36.3151,-1.51478,10.6443,-13.6488,9.37369,6.57065,19.076,21.1823,36.112,-832.04,-516.304,-14700,-4620,-3360
26.7678,-1.51031,2.33255,-21.7271,-20.3917,-6.88552,-27.2625,-8.54781,58.6773,44.5082,37.8767,23.4897,23.9198,10.4286,-21.9533,3.48752,40.992,-844.24,-533.384,-16940,-4340,-3780
45.3919,31.5861,5.91175,-22.6583,-25.2234,-10.7338,-52.5438,-18.914,97.2552,54.089,41.3488,35.2267,25.5095,5.71186,-55.7144,-11.1786,27.816,-878.888,-506.544,-16240,-3080,-4480
45.4,32.5273,8.78708,-24.4294,-21.1756,-8.16667,-49.1952,-16.6532,96.5908,55.4547,41.7902,39.9003,27.6498,10.9101,-50.7468,-5.95656,40.504,-835.456,-540.216,-15120,-3080,-4200
32.3398,33.5674,5.46868,7.07038,6.17708,0.1312,11.4079,6.06292,48.0131,12.6575,1.40937,7.10728,-6.74644,-5.76814,2.87436,2.23039,32.696,-826.184,-530.944,-14000,-1260,-4340
19.5323,51.2359,8.36265,41.783,32.7034,7.55034,44.2173,19.8574,1.51495,-34.604,-44.7463,-20.2138,-42.0099,-24.7492,13.692,-9.99711,34.16,-829.112,-511.424,-15120,-2100,-3640
-19.1873,2.393,-1.12739,11.0699,15.588,6.0059,18.5174,13.2457,-24.099,-24.2446,-22.5389,-12.8737,-12.3362,1.12428,3.36978,6.64255,25.376,-826.672,-499.224,-18900,-4060,-3080
-32.3279,-28.2774,-10.8502,-17.5542,-11.0792,-2.84617,-11.7959,-0.979574,-20.2425,0.421303,9.19504,-3.3869,13.3344,12.2203,0.453983,12.9214,25.376,-823.744,-497.76,-24500,-7000,-2660
-5.09328,18.4,16.1635,16.5549,21.7838,2.08037,1.82909,-9.7466,-32.3861,-15.4317,-15.952,0.605019,-11.2776,-3.76079,-6.26944,-18.3092,22.448,-836.432,-499.712,-28840,-9240,-2380
-18.4515,-5.82337,5.59871,23.1521,22.7964,4.99436,28.8046,1.57294,-62.2823,-31.348,-26.4596,-19.3222,-23.0472,-10.602,20.4328,-6.78147,35.136,-842.776,-539.728,-33880,-11340,-2940
-23.1088,-48.1677,-3.97277,-20.8055,-7.07237,3.96527,-2.26063,-0.60541,-21.1596,8.49679,18.1555,2.91989,18.6,21.2277,16.0782,20.2272,23.912,-817.4,-515.816,-33180,-11480,-2940
4.2282,-10.9259,10.124,-18.8902,-2.19764,3.6381,-22.7399,-10.3581,23.1641,20.8665,21.4748,23.8516,21.0071,24.0874,-11.6465,2.82458,20.984,-817.4,-493.368,-36120,-17220,-1400
-7.52013,-5.70241,5.82989,-10.1839,1.94651,5.33335,-14.0798,-3.17971,1.73439,3.36271,5.29608,13.9366,11.0642,17.25,-13.6562,2.86239,18.056,-815.936,-496.296,-44660,-21980,-1820
-10.1994,-8.29783,11.2523,-16.7494,-1.71498,5.88286,-32.2522,-10.7119,-6.35513,10.742,12.4115,23.9797,23.0569,24.6825,-28.181,-2.62795,26.84,-827.648,-519.72,-49980,-24500,-2520
-8.73231,-34.7035,-12.0599,-42.125,-37.4605,-6.72233,-44.988,-12.6499,21.7626,37.3278,43.1927,19.9787,40.88,22.1068,-12.3649,11.9377,26.84,-833.992,-526.064,-52500,-26180,-3640
13.104,-17.1405,-6.17958,-25.2747,-17.2036,-6.59491,-10.339,-4.8777,36.7838,33.1572,31.9563,13.5823,26.2803,13.3617,15.2694,14.1124,31.72,-836.92,-527.04,-52500,-26180,-4480
40.5652,38.1518,10.4045,19.2016,16.7636,-0.275818,19.6892,4.39969,33.1974,3.84972,-9.55127,1.06283,-13.1116,-12.9132,9.64135,-12.0184,33.672,-852.048,-533.384,-52920,-26320,-5180
16.6141,15.2724,-4.34178,13.5753,3.03608,-2.0428,19.6175,8.15266,9.02613,-6.51315,-11.1938,-14.6941,-14.3922,-16.0852,15.6669,-3.39135,44.896,-863.76,-546.072,-50400,-27160,-5180
-0.741138,8.82124,-5.45058,21.1959,11.7886,2.36352,35.333,14.342,-17.7893,-28.8224,-29.6693,-26.0299,-24.9378,-15.8026,28.8916,1.96907,42.944,-857.904,-533.872,-47040,-27860,-4620
-10.811,14.5967,-7.93238,33.9259,14.1357,2.61005,36.6983,15.3101,-46.8978,-47.8454,-44.8103,-38.941,-40.2477,-29.862,22.6461,-10.3938,41.48,-855.952,-536.8,-44240,-29120,-3500
-62.6512,-20.0923,-21.9613,29.2579,3.89586,-0.77569,21.6891,6.59597,-118.769,-72.7673,-52.4453,-57.4787,-40.9275,-33.0467,14.7029,-17.7944,48.312,-853.024,-539.728,-43120,-29260,-3220
-61.6048,-41.9903,-17.5125,7.06806,-3.55598,-0.733301,2.01791,0.678551,-109.118,-44.6431,-26.0009,-33.6263,-15.8891,-10.2228,-2.74035,-5.10497,43.92,-851.56,-536.8,-41160,-29820,-2380
-2.04998,-33.9178,0.435716,-25.4416,-14.6269,-4.36954,-19.831,-10.6093,-1.27262,33.633,34.8084,20.086,26.236,19.4396,-10.9438,13.9922,41.48,-851.56,-534.848,-39480,-31500,-1400
41.0489,13.3195,12.053,-20.7452,-6.8145,-1.56014,-19.7963,-8.73891,75.6562,50.1644,39.2325,38.7329,27.4419,18.619,-19.2286,10.5967,39.04,-849.12,-526.064,-38500,-33600,-420
32.4976,25.0522,5.46167,-4.25504,-0.982557,-0.0437439,-4.44023,-0.512931,60.0147,24.1729,16.223,20.0129,8.49501,2.97416,-8.69102,4.54511,34.16,-847.168,-522.16,-39060,-36400,140
28.1879,34.512,7.1154,6.72632,2.09596,-0.142553,-2.6761,-1.1794,44.2562,9.84765,5.38457,12.4351,-2.1997,-5.81167,-16.1781,-6.27584,30.744,-858.392,-529.48,-40320,-38080,280
27.8126,22.5325,6.15331,-4.03733,-5.27016,-1.08329,-6.90062,-2.46602,50.4962,22.126,15.5991,19.0711,7.66782,1.3294,-9.98956,1.07206,24.888,-860.344,-511.912,-39620,-38640,140
27.2063,27.6722,5.6017,14.98,7.01188,-0.595809,16.2371,1.54054,36.3952,2.11517,-7.30651,4.27797,-13.2373,-14.2071,11.199,-6.19322,15.128,-889.136,-477.752,-40740,-40880,420
26.7566,31.387,8.61389,23.1181,13.7024,1.2197,19.0518,2.30555,28.9287,-6.04033,-14.854,-1.45594,-17.5547,-17.5332,8.0226,-12.1719,36.6,-907.68,-556.32,-38500,-45640,980
28.7346,31.4913,10.3303,13.6489,9.25053,0.723474,2.00678,-0.878976,37.5421,6.69595,-4.74162,6.74409,-5.33015,-9.1279,-8.69294,-10.5202,-10.248,-940.864,-407.968,-31640,-37660,700
8.63665,19.3214,5.1369,8.32098,6.83588,3.47735,-5.30593,4.41308,13.7042,-3.26609,-11.3309,2.36549,3.7096,-3.53785,-20.1651,-6.06707,32.696,-1106.78,-483.12,-31220,-51520,3640
-30.2454,-13.4605,-2.95876,7.50429,8.76256,4.6267,7.22643,8.30347,-50.0625,-28.3768,-25.0462,-16.7724,0.357574,-2.04202,5.10032,-0.234497,22.936,-829.6,-674.416,-3360,-56980,4760
-48.8258,-31.9549,-13.3829,9.20707,-1.41615,1.09028,9.58654,7.78526,-80.4231,-40.3551,-27.8054,-34.4521,-26.9932,-13.1938,14.2681,-3.24105,-4.88,-760.304,-650.016,10360,-6020,-280
-48.6534,-67.4323,-25.1699,-33.8793,-34.6526,-6.30007,-19.8602,-1.3917,-32.3445,8.75465,23.0104,-9.06366,5.79004,12.8535,7.3567,20.1886,23.912,-837.408,-518.744,10220,-6860,420
-15.6891,-27.1723,-10.4711,-35.0335,-25.6621,-7.68073,-32.1002,-10.8363,20.5186,27.6686,34.0885,19.8402,24.0297,19.5917,-17.4773,10.2309,-12.688,-864.248,-391.376,15260,-15680,4200
-27.546,-34.6944,-12.3714,-36.5567,-24.1352,-6.65723,-27.1433,-6.6138,-0.549343,19.6056,32.453,14.4953,38.9071,22.5511,-10.2344,18.3066,17.568,-1022.36,-520.696,-1260,-33600,6160
-20.4018,-35.973,-6.31251,-27.2362,-9.18375,-0.58245,-1.95443,4.27274,-7.62958,13.8568,21.9363,5.6877,40.4355,24.3064,14.8888,27.2035,29.768,-951.112,-578.28,12040,-45920,8960
11.6051,3.20991,10.9549,-3.01968,7.28397,1.3337,-0.704402,-2.90668,9.07108,12.5997,7.41756,4.22815,16.6648,9.95934,5.80152,-0.942734,14.64,-982.832,-651.968,25900,-40320,7560
33.5484,33.0046,23.6247,18.8862,21.8195,1.65067,3.63988,-9.94527,11.331,8.8395,-3.98196,3.01271,-13.5948,-4.20552,1.7457,-25.83,66.368,-504.592,-737.368,57680,-19880,6860
21.5914,57.9426,21.5085,55.5083,40.4482,6.62317,30.3693,2.25855,-33.6322,-39.8697,-51.2755,-22.5165,-70.9532,-31.5775,3.73393,-45.6747,23.424,-650.016,-676.856,46340,7560,-140
-29.1758,-0.230229,1.437,31.6325,23.5974,8.92665,27.5747,10.1647,-82.2534,-50.1291,-46.0133,-28.6292,-52.3489,-12.8741,10.6774,-18.1177,36.112,-798.368,-477.752,49560,-6720,3220
-29.6972,-44.7729,-10.7882,-20.1082,-5.22003,6.03946,7.5107,10.6816,-27.5676,-3.89224,3.06657,1.49314,19.9552,24.7891,16.8097,30.4043,14.64,-849.12,-447.984,37380,-16100,4200
15.7187,3.06058,3.25519,-12.0847,3.29387,4.58162,6.7858,7.07171,39.8973,10.4552,5.0334,17.6924,28.6406,18.1451,6.5945,27.2414,49.288,-852.048,-601.216,22820,-31920,3780
24.5456,34.0937,7.86148,12.477,12.5009,2.5474,10.3199,4.94427,29.2411,-4.75256,-9.81811,2.47444,2.39159,-6.20443,-7.12635,2.60014,74.176,-828.136,-649.528,23100,-30520,3220
17.3718,14.3535,3.30548,-6.01696,-9.20934,-4.31408,-17.9905,-6.7739,25.0635,19.0664,20.2383,12.5703,13.499,-1.21551,-18.9367,-3.73424,66.856,-843.752,-653.92,35420,-21000,2940
20.0974,-6.95154,3.76618,-24.4787,-18.8689,-7.9366,-30.2638,-15.4883,39.4351,42.225,45.4685,30.8447,29.4044,13.1705,-11.346,-0.66951,61.976,-851.072,-621.712,46620,-20300,3500
18.8595,3.10237,1.34236,-16.8495,-16.6139,-9.13908,-31.2067,-18.3312,42.7848,28.7051,32.3246,25.2072,18.3894,5.05054,-15.2258,-10.863,60.024,-820.328,-619.76,56700,-20160,4620
-3.75534,9.08971,-5.59373,5.21051,-1.73237,-3.78231,-5.76168,-5.71172,-4.78616,-12.7471,-6.01401,-3.84551,-12.2426,-11.1637,-7.25877,-9.24108,53.68,-837.896,-602.68,58520,-17780,4760
-18.0872,-9.93268,-9.68076,-2.68076,-5.54845,1.62103,-5.01944,3.39631,-17.6861,-10.9236,-4.14857,-8.50634,-3.58347,-1.07053,-14.067,10.3475,62.464,-836.92,-613.416,62300,-17500,4760
-15.8472,-38.5976,-15.741,-22.1749,-19.4664,-0.662218,-0.754829,4.63333,9.39747,14.133,18.2231,-4.43415,14.7833,12.2052,11.5057,32.4124,57.096,-788.12,-558.76,66780,-20300,4900
11.7919,1.38956,-8.81303,7.91114,-5.78696,-2.42021,14.5666,1.78424,28.5301,-0.46322,-5.61286,-16.8741,-17.4168,-15.5268,22.0022,3.16407,62.952,-804.712,-570.96,59920,-24640,4200
11.9695,21.7786,1.6573,23.7359,7.12039,2.07626,13.4378,1.30741,6.62255,-16.0156,-22.2975,-16.7571,-27.5294,-22.5422,9.15969,-17.158,60.024,-815.448,-575.84,58520,-26460,4340
8.75574,22.9953,9.2844,24.3666,16.8325,4.43865,12.7482,1.70909,-9.96053,-17.2403,-23.8179,-8.14614,-22.7819,-15.2359,-2.04861,-18.7833,47.336,-818.376,-559.248,58520,-27720,4480
16.1194,15.5391,10.5575,7.49787,8.45128,1.80901,-2.03822,-2.6493,9.72576,7.99232,0.984451,8.86607,-2.22911,-2.53345,-11.4776,-10.1667,59.536,-826.672,-577.304,58520,-29820,5180
-16.4207,-4.40338,-4.62159,12.9392,11.072,2.04028,25.6784,9.19114,-39.1774,-21.3268,-19.7452,-18.5519,-16.4172,-9.53842,20.8885,3.03883,61.976,-796.416,-579.256,60200,-29680,5600
-37.0432,-12.6704,-8.56437,18.4717,13.4837,4.86083,30.1622,12.5006,-73.3846,-41.0269,-35.1693,-33.0052,-23.9767,-13.1905,19.4407,-0.305746,66.368,-797.392,-589.016,59080,-27020,5600
-19.2672,-39.597,-13.2438,-25.6917,-20.9617,-2.74276,-5.48734,1.67782,-4.89571,18.2069,22.9378,0.891477,23.5997,13.3257,14.2539,19.2841,66.368,-782.752,-550.952,59500,-25060,6440
23.0957,0.768188,-0.627213,-27.5908,-23.2506,-7.97037,-30.7742,-12.3248,62.7249,43.7059,36.3101,25.7036,31.3437,12.7441,-13.6216,2.72688,67.832,-798.368,-557.784,56280,-23800,6860
17.3308,29.2522,13.0342,14.4045,16.4048,2.37707,4.12356,-2.66756,3.01372,-3.77451,-15.2423,3.67697,-8.88929,-4.4322,-6.08503,-15.4834,55.144,-827.648,-556.808,53480,-24920,7420
-1.71715,12.3534,11.239,21.5518,21.0149,6.46128,14.6283,7.64412,-39.7678,-22.493,-26.0696,-10.3427,-16.4717,-5.91574,-0.035289,-12.2219,52.704,-841.8,-568.032,55860,-25760,8540
4.77553,5.07834,8.81805,1.70084,4.69833,3.08469,-4.32096,5.2162,-5.30765,0.733565,1.0186,6.929,4.81212,5.10738,-9.38681,-3.73013,49.776,-853.512,-560.224,59360,-24360,9240
16.1954,24.63,10.402,8.02347,8.88498,1.8544,-2.04241,4.00993,11.3389,-0.827498,-2.63356,10.4848,-2.62251,0.216581,-16.8709,-9.26013,47.824,-857.416,-587.064,63700,-21840,10080
3.41958,4.41998,1.6128,-14.031,-6.74254,-0.564172,-21.9115,-0.7381,17.565,13.8552,15.7277,20.9133,15.9084,13.9994,-30.8937,2.58102,42.944,-851.56,-588.04,68740,-18060,11200
-21.0157,-33.5518,-10.5774,-38.1865,-22.5101,-3.42927,-29.6584,-4.82603,8.24548,22.3992,32.9246,22.5234,35.6847,28.9595,-15.3662,20.2451,23.912,-838.384,-556.808,76860,-14420,12040
-16.0031,-28.8412,-10.1552,-22.714,-12.0364,-3.93365,-9.104,-2.53547,-2.93657,9.11666,15.5556,7.49953,18.516,16.2764,6.70598,16.0324,23.912,-827.648,-550.464,77980,-12180,13440
-2.49275,10.851,2.24939,27.744,23.5015,1.41994,33.5055,3.85652,-37.0102,-33.6976,-33.4152,-21.0013,-29.0003,-17.655,23.9538,-10.1842,21.472,-831.552,-540.216,75880,-12040,14140
-13.9043,-3.25351,-0.428478,26.2585,15.8322,1.41851,30.3959,1.56899,-51.1233,-35.7054,-27.8574,-28.2987,-26.3863,-19.6125,24.2596,-9.77161,19.032,-831.064,-560.712,73640,-11340,14700
8.54668,-4.56474,-2.87671,-8.4975,-15.3816,-5.91857,-9.46673,-11.8695,27.6275,15.3296,16.9334,3.08767,7.73016,-2.81479,3.15082,0.00216764,6.832,-823.256,-547.048,73360,-9240,14840
33.9517,27.2337,5.46151,2.61301,-3.48679,-4.40452,-6.54658,-10.3706,59.9011,17.5873,8.01642,9.75939,-2.60458,-8.93076,-6.6491,-9.29303,11.712,-856.928,-559.736,70700,-9660,15120
8.81123,-8.08054,-7.22892,-25.1901,-23.0484,-4.3424,-27.9934,-5.43305,55.7724,30.5186,28.1875,12.961,22.1359,11.3819,-18.2105,12.2064,12.2,-842.776,-572.424,71120,-6860,14700
-24.0065,-39.3316,-20.199,-51.7491,-43.7733,-7.71106,-50.0141,-7.26413,41.6594,36.1462,45.1648,16.0361,45.5428,26.9748,-23.0274,25.9811,5.856,-853.512,-555.832,64260,-3220,14420
-16.8515,1.04018,-2.5881,6.94764,7.79658,3.77464,9.58991,8.14908,-19.5442,-18.766,-17.8191,-8.93013,-8.15183,-2.66739,5.06894,3.70741,5.856,-859.368,-536.312,66500,-2100,14280
-17.2192,-2.2124,5.5661,28.7598,26.0475,8.9453,39.1059,13.0099,-57.1811,-36.9767,-37.1556,-20.8338,-24.8261,-12.2536,30.0698,-1.66328,5.368,-879.376,-537.776,73360,-2940,15260
26.3066,22.6312,16.0261,27.7155,22.2095,3.60783,27.0296,0.642602,3.26541,-5.34295,-20.1593,-2.30061,-19.6469,-15.2635,20.4751,-12.999,9.76,-845.704,-523.136,77980,-2100,15820
32.1804,57.3368,20.3991,39.6698,28.6057,4.35737,16.6964,-0.113031,8.78761,-16.1288,-32.4714,-2.04705,-32.0518,-23.6677,-9.09767,-30.115,5.368,-871.08,-531.92,75180,-1680,16100
-19.3835,3.43697,-0.833148,13.4108,8.08335,1.55698,3.3136,4.17303,-38.3825,-22.0088,-19.1808,-12.3927,-16.4987,-8.54728,-7.22453,-10.1328,7.808,-858.392,-531.92,77980,-2940,16520
-27.7835,-28.997,-9.76678,-16.1292,-11.7056,-0.297269,-13.6595,2.39846,-25.0813,2.87436,11.9827,-1.55038,10.0425,12.3913,-7.78488,10.2794,14.64,-846.192,-532.896,79240,-1820,16660
-48.6114,-47.9548,-21.9924,-16.5294,-15.5364,-0.769038,3.4754,8.07447,-52.0392,-14.504,3.20232,-18.6121,4.11382,7.91724,22.5672,19.7891,10.248,-852.536,-523.624,79940,-840,16520
-30.8079,-34.2941,-17.5394,-10.3929,-16.0538,-3.60164,1.63838,3.81461,-37.1427,-8.5561,3.40709,-17.3524,0.0275331,-0.784383,18.7684,10.1667,9.76,-847.168,-517.28,80360,-700,16660
0.561116,-20.0478,-3.26541,-22.5136,-15.6402,-3.46561,-16.5438,-4.33576,12.5848,27.6167,30.8016,13.4802,22.3385,14.4642,-5.45812,13.8205,15.128,-832.04,-509.96,77560,-2660,16520
28.8483,7.02978,6.0169,-18.232,-7.38235,-3.37263,-19.5723,-8.75646,50.8475,37.852,31.8078,26.1146,21.4583,14.5149,-14.4553,6.57535,27.328,-836.92,-539.24,74480,-2660,15680
18.0805,13.058,11.3218,-12.2604,0.0687325,0.222158,-28.0427,-12.618,25.0559,23.3564,21.336,24.1977,19.4068,14.7879,-29.8687,-6.17578,21.96,-834.48,-521.184,73500,-1120,14420
11.2096,1.92422,6.4497,-9.33405,-0.385772,0.232813,-13.2651,-8.36586,9.81104,15.3449,14.703,13.9694,13.954,9.47028,-8.19769,-2.84176,33.672,-842.288,-539.728,70980,-1540,14140
39.7255,24.4677,11.1242,-0.0733766,2.36311,-0.403584,-2.80862,-5.76699,48.6118,22.3235,12.3573,16.0143,6.70433,-0.125778,0.277925,-7.54284,28.304,-834.48,-525.088,69300,-2520,13300
47.385,45.6642,17.9132,25.6766,24.2216,5.59893,22.1792,2.46122,35.6251,-1.76566,-15.2699,4.70603,-16.3354,-12.3091,6.63394,-15.5993,31.72,-854.488,-535.336,65520,-2380,11900
20.7208,23.8531,8.63955,23.664,19.8957,5.45006,24.2912,5.68925,1.23999,-14.2287,-19.7666,-7.15274,-17.4885,-12.6297,9.58836,-8.59849,25.864,-846.68,-524.112,66780,-2800,11060
-9.06049,4.692,1.31046,20.1638,14.7439,5.01364,22.0309,6.13156,-37.1938,-28.5615,-22.5655,-17.7513,-17.6676,-12.5532,10.1774,-4.95788,31.232,-842.776,-536.312,65100,-2100,9940
-21.2717,-5.4692,-3.93491,14.4791,7.97082,4.58628,19.0464,9.52955,-45.8573,-34.8888,-24.3508,-21.1199,-16.8594,-8.91424,9.22469,0.660218,29.28,-851.072,-531.432,64260,-420,9380
0.266047,-5.59614,-2.33102,4.47356,-1.69918,1.52723,11.8254,9.48544,-1.93242,-9.51654,-8.90871,-9.35058,-6.34932,-4.17035,8.39828,5.66713,31.72,-851.56,-532.896,63840,420,9240
17.2204,11.8726,0.540491,7.58748,-1.17823,-0.377009,8.83026,7.6917,26.8533,0.0336937,-3.98809,-5.50665,-7.96277,-8.35801,3.28357,-0.739317,34.648,-830.088,-537.288,66220,3220,8120
0.200953,4.03043,-2.98738,6.02871,-1.07258,-0.982502,5.20039,3.72422,7.97756,-8.11955,-5.98081,-9.5903,-8.2777,-6.41823,3.06955,-1.77964,35.136,-808.616,-532.408,65100,4760,7560
12.3775,14.2727,2.93581,5.06558,0.230965,-1.56126,-3.19225,-2.89375,23.1122,1.53243,-1.15267,0.987667,-5.42164,-5.545,-6.19159,-8.26275,37.088,-829.112,-545.584,61460,7140,7140
10.4052,7.20536,-0.506582,-5.91904,-9.24303,-4.681,-12.5489,-5.07502,29.8147,14.7285,10.501,8.30339,4.72276,-1.02472,-10.2903,-2.79798,27.328,-828.136,-529.968,61460,9100,7000
-4.52777,-7.15005,-5.58471,-23.2224,-20.9499,-7.27708,-27.4195,-7.63877,25.2992,25.3153,22.2081,15.6221,18.0078,12.7482,-22.5244,6.47595,23.424,-833.992,-513.864,59360,11760,7140
-25.4399,-10.6711,-3.6048,-6.40827,0.0268099,-1.00526,-2.20296,0.528726,-26.6063,-4.11522,-5.73217,1.13641,-0.548319,9.41455,-6.34145,7.10872,25.864,-837.896,-523.624,55300,14000,7000
-33.6313,-7.51361,0.0682697,21.1684,22.4369,7.09954,32.0932,15.0736,-69.2938,-37.5285,-37.4768,-21.2845,-24.9857,-6.11519,19.7316,1.93148,12.2,-848.144,-507.52,53340,15680,6580
-3.17001,-1.65595,3.83403,-5.76263,-1.35724,1.07758,-8.18345,2.28628,-0.491801,10.1097,6.73087,10.6634,7.62615,7.32341,-9.69134,1.99517,14.152,-848.144,-503.128,50260,15540,6300
3.36558,1.56049,0.807903,-9.24139,-6.65228,-2.15486,-14.0361,-3.77434,15.0763,15.1634,10.5554,15.0927,10.0852,5.10979,-12.3413,-0.407964,13.176,-844.728,-511.424,48300,15960,5740
-38.9476,-26.225,-11.7141,-4.5909,-3.93293,-1.18868,1.85502,2.39549,-48.1335,-16.0222,-10.4566,-10.5516,-0.237494,0.187678,9.5685,5.16198,7.808,-830.576,-485.56,45920,16520,5040
-68.3064,-61.5274,-24.279,-22.0075,-17.0461,-4.08118,-10.1693,-0.473993,-75.4842,-17.0019,0.604304,-16.464,13.0025,9.39093,11.4974,15.2618,22.936,-863.76,-533.384,39620,14280,4760
-61.7706,-80.6447,-30.8311,-54.2993,-41.2684,-9.07896,-41.659,-8.77138,-31.8266,17.6523,38.1646,4.40456,43.5165,28.8815,-4.35801,29.0964,12.2,-841.312,-499.224,41720,15260,4620
-8.00635,-39.2612,-19.5771,-42.5196,-35.4587,-11.9219,-37.4003,-14.9598,38.0779,35.9262,41.4039,14.6328,34.956,16.1632,-1.27157,16.1252,16.104,-848.632,-506.544,40460,15680,4620
43.7923,42.6558,10.3154,10.8819,9.55549,-2.94218,-7.41006,-14.5498,59.3916,9.06799,-2.16829,10.4733,-7.58245,-11.7437,-12.2161,-21.422,16.104,-849.12,-479.704,38780,14000,5180
45.5647,47.791,15.4038,21.489,17.7792,0.138709,5.82617,-11.9172,39.7903,1.67716,-11.5501,5.90213,-13.8517,-15.9397,-7.28451,-25.1364,27.816,-896.944,-538.264,34580,10080,5740
26.3574,21.8155,5.38476,13.6294,4.92491,0.878001,10.277,-6.97831,16.0037,0.883528,-3.90325,-5.04428,-7.22461,-13.5907,8.87058,-13.4811,23.424,-895.48,-517.768,37520,10920,5600
-7.15454,-4.5656,-4.43393,9.87301,3.03549,2.87555,18.2362,-1.04771,-23.2809,-18.499,-10.7551,-19.8987,-9.18059,-8.6231,22.3322,-0.432674,19.032,-862.784,-506.544,41440,11340,6020
11.0657,16.168,5.75261,16.7428,14.9416,4.32392,17.4328,1.44554,-4.91494,-17.3237,-15.7382,-8.81582,-14.172,-7.31277,7.74893,-3.60858,27.816,-856.44,-524.6,41160,12180,6160
22.9693,12.6314,14.0154,-9.76041,2.23761,3.86871,-18.1929,-6.15213,33.4391,21.626,22.0405,25.8667,19.2316,18.115,-25.9248,4.44262,20.496,-848.144,-481.168,40880,13860,6300
30.7398,20.7063,16.5138,-7.29346,3.64264,2.62899,-15.0186,-5.522,40.1196,26.9763,24.7003,28.9182,18.0719,15.746,-21.032,1.50668,29.768,-838.384,-517.28,35980,10780,6300
27.4957,31.0237,19.0916,26.79,27.17,8.10603,28.0357,10.1114,1.95579,-9.02202,-14.0088,-0.14866,-17.2857,-7.68514,12.4903,-7.07033,7.32,-803.248,-442.616,33880,10500,6020
14.5,14.8638,11.4696,28.2932,20.1493,6.89806,33.9027,14.7693,-14.7784,-18.328,-20.5076,-14.9886,-21.8613,-14.2999,24.0348,-6.75368,32.208,-883.768,-494.344,20440,4760,5740
9.27975,8.52803,8.7615,17.9909,13.1265,5.57506,21.7469,13.6369,-10.7804,-9.50875,-13.8694,-9.75673,-14.0813,-6.74024,12.7821,-2.01959,59.048,-940.376,-569.008,26180,3360,4060
1.41082,5.13354,3.75757,17.7215,12.4277,4.22777,22.0635,14.957,-14.0605,-15.8601,-20.437,-13.6011,-21.2112,-8.0065,11.2053,-0.710687,19.52,-871.08,-508.008,39900,9520,4900
6.04287,1.49827,-3.42332,2.13866,-9.31275,-1.97717,0.776979,10.1673,14.5835,3.9227,0.43443,-5.36294,-7.54371,-7.31473,0.938151,0.883376,33.184,-888.16,-484.096,35700,8120,4760
4.96842,2.33579,-3.70217,-6.47591,-16.5607,-3.55816,-13.9232,3.18008,23.7284,14.0185,12.9592,3.27166,3.8533,-3.01829,-11.7715,-0.488203,31.72,-808.616,-548.512,39060,10360,4760
-2.47775,9.29079,0.243991,-1.79966,-5.4429,-1.55803,-12.5832,0.773067,5.31477,3.3937,2.44713,5.13023,-2.03846,-1.60484,-21.1351,-4.93905,33.184,-818.864,-525.088,33320,19460,2660
-16.7459,-3.01699,-1.82704,5.65069,5.56835,2.05625,8.05852,7.6331,-29.4635,-12.6608,-10.0756,-6.86048,-10.9563,-3.66779,0.283365,0.957975,28.304,-804.712,-474.336,30100,19180,2520
-40.956,-14.1171,-4.98382,18.4109,14.1642,5.62045,21.7008,11.3554,-77.3203,-40.4631,-30.7074,-25.5012,-22.8231,-10.01,9.10843,-3.95206,23.912,-806.176,-451.888,20720,15680,2240
-46.823,-37.9229,-5.0134,-5.30995,2.90238,5.70886,8.02071,7.82327,-66.7899,-18.2541,-7.54194,-9.01304,6.69785,11.8553,7.73132,13.5885,34.648,-841.8,-498.736,5880,8120,1260
22.4016,10.3451,13.0512,-6.83839,3.92406,1.10685,-8.14014,-6.7287,32.7889,24.7338,14.3781,25.3263,16.3969,12.4082,-11.0535,0.635762,26.352,-883.768,-502.152,6020,9660,420
31.1182,19.4881,6.4046,-9.27023,-6.31207,-4.38663,-19.0624,-16.027,54.7948,27.953,17.3096,24.1234,13.0964,4.93254,-17.6163,-6.95718,17.08,-856.44,-475.312,10220,10920,420
4.52468,-2.75797,-8.37834,-16.5806,-14.5673,-6.85239,-16.1913,-13.8357,31.2992,14.6968,13.6848,8.52465,11.406,3.98405,-3.48808,2.36682,21.472,-879.864,-499.224,9380,10080,140
-8.96392,-14.9205,-12.3962,-23.4794,-17.4169,-7.22021,-21.0166,-12.5302,18.9874,13.4403,16.7381,7.35499,16.8134,9.05634,-5.04816,8.41668,16.592,-850.584,-487.512,12180,10500,280
-25.4581,-25.9459,-16.8217,-17.1675,-11.5907,-5.00854,-8.37168,-4.41606,-11.6248,-3.36539,4.95321,-6.96234,9.95081,4.86545,5.90805,10.7387,18.056,-852.536,-474.336,10360,12180,0
-20.8207,-17.1379,-11.9054,-6.73316,-2.97166,-2.84054,-1.03882,0.394544,-23.7511,-10.5777,-3.86912,-11.9091,1.85231,-0.903716,8.08318,5.39397,11.712,-859.856,-475.312,9520,12740,0
-18.4384,-14.0015,-7.75133,-8.44067,-0.302862,-1.54518,-3.21282,2.91874,-25.0958,-6.74581,-1.74101,-6.79474,5.36417,5.74935,2.67547,8.90548,15.616,-849.12,-474.336,9660,11620,-280
-23.0151,-27.4432,-11.3714,-15.617,-8.26818,-4.28292,-6.89968,0.416584,-25.3779,0.177181,5.32588,-6.1645,10.1554,8.25683,6.6755,11.4497,12.688,-841.8,-489.464,10780,14000,-1260
-10.1529,-24.0797,-10.9345,-11.7721,-12.7051,-5.00876,-4.7109,-1.46202,-1.86434,6.26224,8.70378,-5.86336,7.30343,1.25809,13.0006,6.7294,16.592,-818.864,-463.112,10920,15120,-1960
11.7012,-1.45015,-6.00585,-9.3024,-15.028,-5.03068,-8.91188,-4.16726,36.7528,15.7097,12.9719,3.50727,8.85904,-1.89639,4.55267,1.46604,14.64,-838.872,-438.712,7000,14980,-2520
24.2099,23.9098,3.31103,8.05016,-0.934476,-1.59744,2.59578,-2.56615,37.5505,5.35541,-2.46614,3.74418,-3.27206,-9.56269,-0.854176,-8.72378,20.496,-848.632,-453.352,980,11200,-2380
15.279,21.5362,6.58664,15.1025,6.59413,2.24442,9.1351,0.0532256,11.9207,-6.20024,-11.7855,-1.29789,-9.27137,-8.95499,-0.0155928,-11.2626,27.816,-872.544,-493.368,4480,10780,-3220
18.7516,21.3033,11.5244,14.1024,7.41849,3.13734,4.87206,-3.05644,9.15472,-0.963321,-5.90107,3.20239,-7.23707,-6.15873,-3.41239,-13.1604,17.08,-838.384,-475.312,20440,17080,-2520
28.4958,37.1606,18.622,28.1389,19.0519,7.27895,13.8123,0.692576,9.68183,-7.24154,-17.2228,1.4745,-18.4127,-11.1711,-6.59229,-19.4879,31.232,-905.728,-477.752,17640,16800,-2100
11.0324,15.5049,10.1883,13.1873,9.86124,6.59518,9.7063,2.36263,-0.86063,-4.46068,-9.23764,1.14808,-8.50592,-2.03949,-1.4881,-6.16173,28.792,-867.664,-529.968,21000,13580,-980
2.89598,7.76103,5.50814,9.10694,8.07386,4.97689,9.77276,4.34859,-8.119,-9.13124,-9.02749,-1.29422,-11.8377,-0.88779,-0.275413,-1.92687,13.176,-808.616,-507.032,26600,22960,-2940
-10.1504,-13.0412,-2.96759,-7.89931,-6.04473,0.802151,-3.59675,2.86473,-9.5957,-1.04473,5.09015,3.05644,1.14732,8.66866,-2.22775,7.19799,26.352,-810.568,-478.24,27020,27720,-3920
-21.5629,-10.8646,-2.8876,6.83821,7.43985,2.51671,14.1643,8.2172,-39.8822,-23.8314,-16.1176,-10.8637,-12.8221,-0.612266,8.65013,4.47735,21.96,-811.056,-449.936,19740,26740,-4620
-10.7088,-5.89109,4.65363,4.85797,7.27254,3.00119,2.91829,2.53249,-26.1505,-11.8946,-4.91446,-2.68535,-4.26562,2.56386,-4.84358,-0.524817,36.6,-835.944,-482.144,11200,22680,-5040
16.727,10.7068,10.6413,-2.90111,-0.0407856,-1.76151,-17.4219,-8.59437,20.3485,16.2807,14.5084,14.5281,8.25136,3.72699,-20.5749,-9.23346,37.576,-835.456,-512.888,8540,19460,-5740
9.88044,9.12252,7.18222,5.18706,5.99278,-0.0122402,-2.7681,-2.58471,4.9536,4.71025,1.51646,3.72321,-1.36736,-3.10027,-5.89987,-7.07599,36.112,-838.872,-490.928,7700,18620,-5320
10.2028,-0.167384,-0.530694,-0.707664,-1.95187,-1.90882,0.335024,-0.894256,13.9083,8.16811,8.07505,0.594046,1.62172,-3.37264,6.32952,0.0749827,35.136,-837.408,-496.784,8260,15820,-5180
2.30322,-7.16606,-5.95558,-8.03027,-7.65355,-3.04633,-4.74069,-0.37044,13.5215,8.687,10.4632,1.63487,5.72585,-0.0266529,4.87606,5.46658,43.432,-856.928,-497.76,5040,12880,-5180
2.06641,-6.02902,-2.17276,-12.2141,-7.40064,-2.82954,-11.9516,-2.83285,15.5404,14.5808,14.3894,8.81678,11.873,5.48368,-8.22314,6.37223,40.504,-853.024,-493.856,2520,11480,-5600
-6.2653,-12.8218,-5.45313,-16.66,-8.99287,-3.89412,-12.2338,-4.54367,6.76311,13.6073,16.4307,7.38717,15.5395,7.91154,-6.73173,10.6003,41.968,-874.984,-486.536,-700,10080,-5880
-21.9254,-24.0642,-13.1973,-16.994,-11.0373,-3.6324,-6.03931,-0.593121,-10.1161,2.86707,11.2439,-2.48696,12.2003,6.76891,6.08889,14.9733,42.944,-856.928,-492.88,1260,10640,-5880
-21.8012,-14.0872,-10.2114,-4.76756,-2.46441,-1.45724,2.36899,2.8965,-24.6664,-8.32238,-2.55355,-9.12438,0.494194,-0.350773,10.7458,7.62992,45.384,-861.32,-485.56,140,10500,-6440
-24.243,-6.97265,-3.43274,10.5472,13.5218,3.66588,18.4607,8.51021,-44.7259,-23.6774,-20.1,-15.791,-11.4664,-4.24488,16.2477,2.88553,49.776,-859.856,-493.368,-840,9100,-6440
-1.56918,7.65242,4.06282,11.2077,10.653,3.63823,11.0721,4.90735,-9.92684,-11.6064,-12.8542,-6.60454,-8.54279,-3.73176,2.62391,-3.72992,54.656,-850.096,-488.976,-700,8960,-6720
13.8758,10.5347,7.05739,1.67589,2.81194,2.60126,0.326497,2.93661,18.758,7.88154,2.62233,6.4068,3.26739,2.87013,-5.58332,-1.41861,51.728,-869.616,-493.856,-1540,7980,-6720
18.6825,11.2908,5.04989,-0.468923,-1.47597,-0.917295,-2.67947,1.57686,29.154,10.6172,3.62953,7.64843,3.91148,0.472777,-4.17621,-2.96877,49.776,-857.416,-483.12,-280,7700,-6440
13.7936,11.7262,3.66422,3.45426,0.333467,0.185265,-2.95323,1.41673,17.9124,2.28709,-2.70671,3.15886,-1.14098,-1.72362,-6.2603,-6.80099,47.824,-865.224,-488,-560,7280,-6160
7.70709,12.2132,2.55404,8.73879,5.75805,2.93634,5.01478,3.64083,4.63023,-4.62652,-9.68155,-3.07084,-6.83342,-2.82755,-2.14425,-5.96095,49.776,-865.712,-481.656,0,5880,-5460
1.46544,4.1815,0.190026,4.87297,2.18506,1.86651,6.03168,1.25136,-3.18626,-1.89364,-6.46774,-6.18524,-3.35832,-2.07252,4.47883,-1.99561,44.408,-849.12,-482.144,420,5180,-5180
0.938491,2.334,0.458492,7.38744,3.78122,1.63552,9.93408,1.42356,-6.23904,-3.75653,-8.11319,-8.27251,-7.32858,-4.81937,7.77106,-2.80465,43.92,-855.952,-485.072,-1820,5320,-5180
-7.04926,-8.82374,-4.6934,-2.92353,-6.87188,0.171447,-1.64002,-1.25959,-7.49468,0.766791,0.153447,-5.31,-0.91165,-1.58051,1.46056,1.50357,45.872,-861.808,-479.216,-2240,4480,-5040
-11.1908,-6.52776,-3.25862,-0.214352,-4.52421,1.0987,-1.23623,-2.16556,-16.5482,-3.47856,-2.52561,-4.95907,-2.91275,-2.77322,-1.35601,-1.8672,45.384,-862.784,-481.656,-2660,4760,-4760
-1.95737,5.04422,2.15913,1.59922,-1.96536,-0.60935,-3.69397,-5.82183,-4.9295,0.144335,-0.791477,2.60828,-2.74304,-2.81441,-5.09008,-7.2084,46.36,-861.808,-483.608,-2100,5320,-4760
5.66863,11.1365,4.71871,5.57869,2.31436,-0.551503,2.09519,-5.7944,4.19504,-1.24918,-3.85582,2.70901,-5.70644,-3.30808,-0.281695,-7.4764,42.456,-862.784,-481.168,-1820,6020,-5040
-0.00678937,0.616462,0.533999,-0.827376,-1.21517,-1.18259,-0.281,-5.11337,3.42089,-1.10956,1.77868,2.71273,-0.115448,0.668958,2.38309,0.224231,39.528,-872.544,-484.584,-1680,7280,-4900
3.20289,0.946063,-0.662753,-3.47531,-2.64186,-2.51627,-2.51167,-2.727,7.9081,1.90544,5.32524,6.10055,3.72582,1.46893,2.06322,2.86455,37.576,-869.128,-475.8,-1400,7140,-4480
1.59383,-3.91175,-3.53533,-7.83773,-7.05008,-3.96752,-6.67074,-0.235118,9.34358,5.37244,7.4509,6.8732,6.06427,3.89347,0.292231,6.85632,42.944,-886.696,-495.808,-2520,6580,-4340
-11.524,-20.943,-8.78231,-17.5879,-13.5801,-4.63489,-12.4909,-0.37702,2.17838,8.13881,13.5585,4.61649,13.7677,10.4916,-1.49761,13.2565,34.16,-881.816,-482.144,-280,6300,-4340
-5.20391,-11.7794,-4.38846,-8.68366,-5.0787,-3.00948,-3.49451,0.831728,3.49888,3.33867,5.49222,0.887487,7.43428,5.55617,1.90954,8.26,32.696,-868.64,-470.432,980,6440,-4200
3.60458,1.61272,-0.276489,1.26326,2.20246,-0.972338,2.4295,2.3012,2.7625,-2.18749,-0.76435,-1.57779,-1.77048,-1.47905,2.2283,0.252124,34.16,-876.448,-474.824,-980,6020,-4200
6.94222,1.38928,0.218939,-4.02611,-1.92393,-0.572507,-6.65165,-2.20194,11.7627,5.90549,7.95426,4.11055,5.15208,1.79475,-4.287,-1.96634,30.256,-876.448,-476.288,-840,5880,-4060
4.65842,-3.51672,-0.543884,-11.2716,-5.7654,-1.21643,-14.7232,-6.42329,12.926,13.2857,13.5642,10.5049,11.7999,6.61353,-9.17447,1.75462,27.816,-874.008,-478.728,-840,6020,-4340
1.13566,-1.22469,-0.692844,-0.967182,1.72091,-0.627547,0.0993068,-0.244457,-3.84553,0.597399,0.986879,2.96926,-0.0286608,0.449111,-2.71201,-0.433711,26.352,-877.912,-475.312,-1400,5460,-4200
-6.13152,-3.59315,-0.117424,4.16578,5.90428,1.10569,6.16702,2.80898,-17.6197,-8.72132,-7.56621,-2.24336,-4.25536,-1.65185,1.84286,-1.03105,23.912,-876.448,-481.168,-840,5040,-4200
-7.85324,2.64342,4.89546,15.0466,16.4355,5.83448,13.7259,4.47373,-29.6076,-19.3953,-19.1947,-8.08965,-12.8518,-5.83745,5.26692,-5.63737,20.496,-857.904,-479.216,-560,5880,-4340
12.6511,17.9783,13.6543,18.4062,18.2685,6.08943,8.69092,0.996135,-2.33825,-8.75875,-12.3478,-0.804763,-12.3447,-6.87077,-3.078,-12.0602,20.984,-861.808,-480.192,-2800,6160,-4340
25.7742,22.6756,13.8414,14.125,12.0488,3.70208,6.20611,0.640686,25.792,3.71385,-2.84026,2.58499,-7.19293,-5.51124,-2.19727,-10.2282,17.568,-863.76,-482.144,-4340,6440,-4060
13.3687,17.5051,8.00008,17.0144,13.2448,5.08832,16.5331,7.12368,6.58542,-9.34034,-12.8867,-8.51448,-13.7721,-7.12132,4.81531,-6.79756,17.568,-859.856,-488,-5880,5740,-3920
-5.92235,-0.279543,0.454925,9.36132,7.2115,4.68512,13.2237,8.48198,-17.6582,-12.0808,-10.2222,-11.2341,-9.1344,-2.6626,5.4683,0.959887,16.592,-865.712,-492.88,-7140,5180,-3500
-23.4725,-25.805,-10.8049,-10.9768,-10.4328,0.787934,-0.117942,5.93536,-20.8951,-2.00198,7.27893,-7.52808,8.02733,5.90103,8.66586,12.857,12.2,-861.808,-492.392,-7980,5460,-3360
-16.1717,-15.9104,-10.4419,-9.98295,-11.6598,-2.99492,-4.05365,2.87508,-6.44875,-1.19238,6.41593,-5.3996,6.63212,1.06587,2.9627,7.36348,11.712,-864.248,-494.832,-8680,5740,-3220
-4.09824,-5.46275,-7.17271,-8.89222,-10.8841,-4.97455,-6.56394,-0.043652,9.19115,6.51572,8.56894,-0.609874,5.76604,-0.413311,-0.362101,4.50786,8.296,-864.248,-497.272,-9800,6020,-2940
-1.39659,-5.50733,-6.90311,-14.8666,-15.8399,-6.11936,-17.6913,-6.01557,15.8802,14.5792,15.5451,6.37077,11.2219,3.18246,-8.84574,2.27139,9.76,-865.224,-500.2,-10080,6440,-2660
-5.93963,-7.42095,-7.79253,-16.7482,-15.7604,-5.29876,-21.1714,-5.98101,10.2706,12.7144,14.0131,7.46032,11.9109,5.43565,-15.3715,2.78093,4.392,-866.2,-500.688,-10080,7000,-2660
-4.23223,1.47236,-3.01854,-5.65971,-3.68183,-1.98879,-8.45107,-3.82429,1.04388,3.16146,0.800892,4.12863,2.29575,2.04893,-11.9081,0.0619562,5.368,-866.688,-501.664,-10500,8400,-2520
-3.49183,2.94869,2.92873,3.21534,4.74986,1.00207,4.02928,-2.32944,-11.0381,-2.67163,-6.53702,0.320578,-2.39932,0.406046,-0.912841,-0.500687,4.88,-862.296,-503.128,-10500,8540,-2520
-5.53272,-7.61107,0.425422,-0.042137,-0.326382,0.669465,5.30507,-0.68581,-11.5641,-1.33423,-3.75257,-3.05394,-0.481725,1.38074,10.3459,4.19478,4.392,-863.272,-501.664,-11480,8540,-2520
8.86922,4.06896,2.32174,2.75033,-1.62723,-2.23888,1.78548,-3.70084,8.49072,3.05767,-2.77468,-0.121504,-3.38124,-2.44916,6.56718,-2.87223,6.344,-863.272,-498.736,-12320,7700,-2380
10.2685,9.6759,4.72719,6.13749,3.23652,0.0382954,1.44584,-3.89067,6.90327,1.54242,-3.97907,1.27918,-3.73998,-0.978302,1.46069,-5.89342,6.832,-867.664,-496.784,-12740,7000,-2520
11.0171,12.8446,7.76446,7.88965,6.81844,2.37763,1.3183,-2.94845,5.39878,2.33807,-4.44346,3.49042,-1.42196,0.225041,-2.2652,-6.69697,6.832,-870.104,-500.2,-13300,5880,-2660
5.57362,6.6923,4.92495,3.56193,3.53868,2.22801,2.46671,-0.479926,3.35865,2.70356,-1.09928,2.34079,1.24717,1.97125,-0.405506,-0.297754,11.712,-868.64,-496.296,-13160,4620,-2520
7.96512,11.5208,6.08673,8.14619,7.4045,2.36257,8.49109,1.30511,0.676106,-2.07742,-4.23114,1.18021,-4.20382,-1.56376,3.92906,-1.45676,17.08,-870.592,-495.32,-13020,2800,-2800
4.68164,6.19109,4.27551,4.63294,3.52146,2.03534,5.41738,1.73663,-2.64452,-1.78991,-0.977561,2.35408,-2.55996,-0.518003,2.03001,-0.722777,19.52,-867.664,-494.344,-12460,1680,-2940
-7.04213,-7.65777,-3.14617,-3.80639,-1.38077,0.337371,-1.09439,1.86615,-7.75548,-2.14933,2.94765,0.678052,2.45161,2.49605,0.688285,3.95363,24.4,-866.2,-495.32,-12320,700,-3080
-3.29891,-1.20247,-1.64513,0.818897,4.45698,0.318881,1.43341,1.9051,-3.728,-4.77764,-1.90326,-0.36564,-1.51556,-1.038,-0.131426,0.399543,29.28,-867.176,-495.32,-12320,-280,-3500
-3.83814,-4.20188,-3.38088,-1.63513,0.424616,-0.331616,-0.326527,0.387985,0.867334,-4.31985,-0.574827,-0.599224,0.860606,-1.79256,0.0137233,0.330764,33.672,-868.152,-493.856,-12180,-980,-3780
-2.1208,-6.4273,-3.26981,-7.67891,-6.14906,-1.69619,-8.26709,-1.6408,8.88812,4.50225,7.70063,3.27804,7.87146,1.16136,-4.56654,1.00331,36.6,-864.248,-492.88,-12040,-1960,-4200
-2.07944,-9.12224,-4.14837,-11.7837,-8.22226,-2.48454,-12.6252,-5.18256,9.44542,9.18693,12.2824,4.55125,10.21,4.35223,-7.44073,1.95077,38.064,-863.76,-494.832,-12180,-2940,-4620
-4.52019,-10.0414,-5.7495,-6.28971,-4.30021,-2.16025,-3.01175,-3.04632,-1.05347,0.551577,3.10837,-1.65066,1.47444,0.393653,3.14404,1.16852,43.92,-869.616,-489.952,-12180,-3360,-4900
-3.10267,-4.75671,-2.59623,1.64271,1.26774,-1.23419,4.95024,1.43761,-6.83732,-6.87412,-4.32751,-6.41578,-6.95662,-3.72317,6.97743,-2.75768,44.896,-865.224,-492.392,-12740,-3920,-5040
1.36635,2.78486,1.71476,5.83764,4.8698,0.506509,7.11744,3.70243,-4.4641,-6.15474,-7.03061,-4.67886,-8.88147,-4.28091,7.65953,-2.28277,51.24,-864.736,-492.88,-12880,-4340,-5040
3.73655,8.23003,3.39338,9.18348,6.88323,3.89932,11.4867,5.88978,-3.348,-5.48217,-8.44513,-3.20925,-9.58511,-3.42064,10.4071,-0.013192,51.24,-862.784,-491.904,-13580,-4760,-5180
2.37355,4.77923,2.17524,4.062,3.09769,1.83984,6.62478,6.05084,-2.07217,-0.734178,-1.74902,0.242147,-3.36274,0.311589,5.4993,2.55458,53.68,-863.272,-489.464,-14280,-4900,-5040
-0.506978,0.372608,-0.25801,-0.69806,-0.692069,1.70755,1.38351,6.39278,-1.60802,0.216855,-0.263266,0.644514,0.87053,2.47055,-0.948766,3.52399,52.216,-862.296,-492.392,-14840,-5040,-4900
6.76767,8.71651,4.13053,3.62323,5.58664,3.34243,2.50314,4.34197,3.47119,0.0391758,-2.2426,1.66638,-0.878766,0.801289,-3.15189,-0.494372,55.632,-861.808,-494.832,-15260,-4760,-4620
9.97154,13.9958,7.01424,8.62106,9.23314,2.88827,5.15219,2.18454,3.38085,0.18328,-3.61591,1.10665,-3.58055,-2.38025,-4.33181,-4.22885,54.168,-859.368,-491.416,-16100,-4620,-4200
-2.46639,1.60235,1.64597,4.18391,2.94024,-0.468952,2.03387,0.180479,-6.25332,-1.51052,-1.49808,-3.49971,-1.51782,-1.56441,-3.80005,-3.47491,55.632,-862.784,-493.856,-16520,-4060,-3920
-9.1555,-8.44968,-4.32846,-3.48121,-6.14648,-4.22097,-7.81798,-3.79219,-4.89154,0.652491,2.26497,-2.86817,2.54949,0.302915,-8.3804,-2.01601,54.168,-861.808,-494.344,-16660,-3360,-3360
-10.8652,-18.4962,-11.0973,-13.1617,-16.0707,-5.28469,-14.1085,-5.23364,2.75457,6.72795,10.0591,-2.44656,10.6748,1.7251,-9.13727,3.71846,52.704,-862.296,-498.248,-16800,-2800,-2800
-9.6832,-19.1584,-8.31116,-11.5181,-13.0496,-3.39558,-8.94086,-1.32969,-3.26082,4.06073,8.31536,-4.40255,9.88178,0.929038,-3.10433,5.69145,53.68,-857.904,-497.272,-16660,-2100,-1960
0.208197,-4.63414,-1.56346,-3.44481,-5.32856,-1.49046,-3.38908,-1.51577,0.994584,1.19346,1.66927,-2.22408,2.93732,-1.32178,-0.0745916,0.778049,50.752,-854.976,-498.248,-17080,-1680,-1680
3.64527,5.73064,1.6001,3.02262,0.86199,-0.410659,2.83824,-3.28526,3.001,-2.69728,-3.91748,-2.60138,-2.96789,-2.55876,5.07442,-1.19348,48.8,-857.904,-503.616,-17780,-1120,-980
2.86426,4.87694,1.48577,0.135096,-0.916124,-0.967665,-2.01608,-4.61745,5.85698,0.933712,0.57126,1.65459,-0.923342,0.411132,-0.0109292,-0.507467,48.8,-853.512,-503.616,-18060,-280,-560
4.33065,4.73294,3.1766,-0.157179,-1.01417,-0.629817,-3.15022,-3.90127,8.91041,2.54001,2.04417,6.01478,-0.615301,1.14631,-2.16552,-0.372717,45.384,-851.56,-504.592,-18480,420,-140
6.84519,9.62425,7.27647,6.26644,5.32105,1.01198,1.97558,-2.65906,5.50132,-2.80491,-4.02275,6.18135,-4.84257,-1.32358,-1.09644,-3.66909,44.896,-854,-503.128,-19040,980,420
4.27644,5.86095,4.97271,2.70638,4.79142,1.11475,-1.34834,-3.05414,5.19747,1.48048,1.33708,7.27183,0.30797,0.721148,-2.71893,-2.30826,40.992,-854.488,-504.104,-19740,1400,840
-1.82789,-0.635377,0.0688946,0.069535,2.25735,1.24252,-0.0712434,-1.37801,-0.938664,0.0842146,1.25466,3.57974,1.90964,1.02293,1.4242,0.710329,42.456,-854.976,-508.008,-20020,1820,1120
-3.20893,-0.433416,0.601206,0.269529,4.17263,1.66253,3.84918,2.65624,-5.20256,-0.604721,-1.20825,3.46844,1.45438,3.64298,4.47401,4.31402,40.504,-854,-510.448,-20300,2380,1820
2.21709,6.22009,4.49629,4.37865,9.18062,3.16712,6.11352,3.24836,-3.82894,-2.44713,-4.72458,3.932,-1.45917,3.37081,2.03669,1.4486,38.064,-853.512,-511.912,-20300,2940,2100
0.404431,2.81167,2.20763,2.55989,7.82645,3.80616,6.49238,4.93349,-5.96153,-3.08342,-5.30299,1.23533,-1.31279,2.4849,3.01505,2.51043,37.576,-854,-510.936,-20300,3360,2520
-6.55977,-4.38719,-2.48721,-3.62678,0.954511,1.7599,1.4158,3.8608,-9.36303,0.422536,0.305429,-0.291864,1.99775,3.69312,3.00895,4.51171,40.016,-853.512,-508.008,-20160,3780,2800
-6.41508,-6.79891,-6.07371,-6.16436,-5.62375,-1.0524,-3.65245,0.540591,-5.94006,1.56444,2.45251,-2.01872,1.66966,1.06805,1.29203,0.0125171,33.184,-852.048,-516.304,-18620,3640,2660
-3.54705,-6.21954,-5.15469,-4.95942,-5.10283,-0.599861,-5.54375,0.370277,-1.52744,1.27015,1.80485,-2.5553,0.932948,0.835746,-0.779291,-2.75177,38.064,-851.56,-511.424,-19320,4200,3080
2.00908,-0.649849,-2.19315,-0.552258,-2.26312,-0.372595,-3.49353,0.0507458,2.42,-0.956894,-0.431549,-3.44468,-2.25112,-1.55263,-1.46584,-4.83794,34.648,-854,-508.496,-20440,3640,3500
4.48275,4.18581,1.4205,3.95716,1.2836,1.49729,3.97753,2.70873,1.29484,-3.15624,-4.02287,-3.99694,-5.10622,-3.12014,0.782299,-3.34971,33.184,-853.512,-508.496,-20860,2940,3500
7.49223,7.24833,3.59342,8.06649,4.75214,2.22803,9.44229,4.91536,1.10759,-5.00201,-6.62509,-5.39104,-8.08836,-3.94626,2.41197,-2.37304,34.16,-855.464,-506.056,-21560,2240,3780
4.33514,2.00175,0.788344,2.26601,0.578371,0.48622,4.67361,1.15152,3.5382,-1.40318,-0.937122,-3.02039,-2.8519,-1.1428,2.61393,1.16366,34.16,-856.44,-502.152,-21840,1540,3780
-2.0267,-7.16622,-3.6126,-8.91433,-9.50448,-4.4291,-8.92257,-8.08243,6.40774,6.83756,10.0848,2.70081,5.98177,2.18323,-2.95357,2.68127,35.136,-854.976,-503.616,-21700,1120,3780
-1.2572,-5.8965,-2.63812,-6.50927,-8.27048,-4.77706,-8.54469,-6.97304,3.3805,6.7769,8.66502,2.27392,3.57179,1.91305,-5.60984,1.19049,31.72,-854.976,-505.08,-21280,280,3780
2.84172,1.022,2.55671,1.39709,0.329118,-1.73016,-0.751613,-0.613412,-0.193244,3.23075,2.89244,-0.706265,0.025067,-0.0588113,-3.92045,-1.31849,32.696,-855.464,-507.032,-21280,-280,3920
2.3229,3.87097,3.11405,6.38902,3.65187,-0.3851,3.85801,0.948096,-3.90763,-2.16492,-3.75486,-4.90192,-3.18493,-4.24783,-1.04258,-3.19417,30.256,-854.976,-506.544,-21840,-840,4060
4.09501,7.75113,5.68102,6.90997,4.54795,2.06191,5.96891,2.34417,-3.56241,-1.36056,-3.99544,-1.94181,-0.641604,-1.71951,-0.568456,-2.59762,30.744,-855.464,-508.496,-22540,-1260,4200
4.03862,5.94926,3.97735,4.8665,3.63955,1.1818,6.01462,1.52337,-3.08623,0.536659,-1.72477,0.213887,0.991008,-0.641005,1.36761,-1.80378,32.696,-854,-507.52,-22820,-1400,4060
-3.17678,-1.03624,-1.24531,0.23789,-0.360647,-1.17183,1.10711,-2.81975,-3.67012,-0.22245,0.425292,1.1134,3.53048,0.0128707,1.59188,-0.572937,33.184,-851.56,-510.448,-22680,-1260,4060
-9.46837,-6.68585,-6.33634,-4.85212,-5.37206,-3.43825,-1.76039,-3.33214,-1.99341,-0.985905,1.90917,-0.399432,4.32128,-0.130839,2.5823,2.18551,34.648,-853.512,-511.424,-22960,-1400,4200
-6.45184,-3.16324,-4.75044,-0.686402,-2.53823,-1.6125,1.07962,1.94278,-0.63696,-4.75178,-2.36215,-2.94254,-0.353843,-3.88156,2.2064,1.7502,37.088,-852.048,-515.816,-22680,-1400,4340
-5.1997,-3.2882,-2.04295,-0.745862,-0.30454,1.0035,0.377603,3.11356,0.400702,-4.14201,-1.65106,-0.458071,2.13167,-2.32526,1.83245,3.07847,33.184,-854,-517.768,-22680,-1400,4340
-4.01827,-4.76582,-2.09858,-3.25793,-0.990914,1.44216,-1.98556,0.590451,4.80144,0.67161,0.460946,3.51339,5.64257,0.939435,2.71641,4.55251,33.672,-852.536,-514.84,-22400,-1960,4480
-0.599416,-2.15929,-1.9526,-1.86671,-1.72057,0.652832,-0.136481,2.31125,6.7274,0.601553,-1.18977,2.59694,2.35064,-0.517698,4.48037,4.02938,33.184,-855.952,-511.424,-22120,-1960,4620
4.1566,-0.818701,-0.100341,-1.54869,-1.39986,-0.0457875,-2.26186,0.673817,8.5761,3.54416,0.10249,2.61753,0.767085,-0.968302,1.39464,1.44523,33.184,-855.464,-510.448,-21980,-2240,4760
7.94867,2.99697,2.15718,1.01889,0.831995,-0.0607409,-4.02749,-0.953961,9.28527,3.15475,-0.214098,1.28627,-0.70647,-2.36233,-2.32522,-1.50262,35.136,-856.928,-514.84,-21840,-2380,4760
-1.03637,-2.4329,-1.21488,-3.41292,-1.38673,-1.06815,-6.83376,-2.70866,0.609168,0.624189,2.93602,-0.703762,1.74197,1.23025,-3.09408,0.378546,32.696,-860.344,-514.352,-21560,-2380,4620
