9571.553418,10304.958857,1341.439943,-342.093449,8038.246100,8626.141682,9273.984644,-20069.005498,13457.337136,10188.841544,8704.395140,-5424.276641,33693.556034,2817.146816,27726.735500,7150.904197,-256.200012,-836.919983,-479.704010,2800.000000,1680.000000,-5880.000000
9548.464066,10310.993828,1319.892862,-332.616309,8019.068303,8630.992011,9287.842725,-20075.107524,13452.062124,10152.050573,8710.497166,-5411.893774,33696.506464,2809.681333,27752.574116,7161.789496,-252.783997,-835.944031,-478.727997,2660.000000,1680.000000,-5180.000000
8801.625228,9828.151444,1104.399694,-1421.459189,7621.877804,8295.648789,7792.622780,-20092.497181,13345.556062,9987.139402,8624.286488,-5698.040807,33700.350964,2543.896740,27090.403687,6741.286128,-268.888000,-845.703979,-470.920013,4900.000000,-3780.000000,2520.000000
8808.017827,9797.127223,1090.608667,-1445.643776,7603.258801,8288.071548,7768.237027,-20115.497126,13346.204263,9994.940161,8623.370066,-5716.615107,33695.321822,2546.266025,27063.738056,6717.056837,-267.912018,-842.776001,-469.455994,4620.000000,-3920.000000,2800.000000
8842.551272,9870.329186,1150.176066,-1399.442720,7685.781441,8299.873269,7797.227239,-20072.291204,13385.342167,10066.242226,8633.562462,-5661.205132,33722.434488,2570.092984,27098.807943,6776.959512,-270.839996,-841.799988,-467.992004,4480.000000,-3640.000000,2800.000000
8890.875744,10038.257842,1264.862867,-1285.426472,7844.970565,8332.752685,7887.081252,-19965.293403,13455.124313,10164.187570,8653.030831,-5545.177227,33776.704523,2601.251316,27200.329566,6909.438301,-272.791992,-842.288025,-470.920013,4620.000000,-3640.000000,3080.000000
8901.604581,10137.209015,1316.137769,-1214.414980,7918.954840,8358.166618,7950.180227,-19906.307150,13491.959988,10190.026187,8668.542942,-5472.511705,33810.478009,2614.036514,27273.911509,6987.155317,-272.304016,-841.799988,-465.063995,4760.000000,-3640.000000,3080.000000
8852.877778,10050.618357,1236.900835,-1269.064995,7819.556632,8344.062667,7912.048151,-19966.969784,13447.435313,10111.325694,8663.402040,-5523.384276,33785.444055,2589.539002,27241.769700,6928.370229,-274.743988,-841.312012,-467.992004,4620.000000,-3360.000000,3080.000000
8826.525071,9952.203626,1169.152697,-1337.662499,7728.137997,8321.733275,7857.129914,-20034.293238,13402.128327,10059.335537,8649.923939,-5593.434643,33752.229363,2569.914170,27181.934080,6845.087629,-274.743988,-838.384033,-470.432007,4480.000000,-3500.000000,3080.000000
8819.864252,9900.772262,1139.335470,-1372.330054,7688.441299,8310.535051,7828.117350,-20058.008439,13375.909731,10030.881766,8638.144569,-5640.239196,33726.077822,2557.888932,27137.834089,6787.800108,-275.720001,-841.312012,-469.944000,4900.000000,-3080.000000,2940.000000
8807.593144,9851.620776,1109.741760,-1401.476729,7650.532740,8301.169670,7804.424501,-20079.041431,13352.507454,9999.857545,8627.035752,-5680.897019,33703.882540,2545.215493,27102.026594,6740.190892,-277.671997,-838.872009,-466.040009,4900.000000,-3220.000000,2940.000000
8794.830298,9799.138880,1078.069339,-1437.753610,7608.846737,8289.993798,7773.646149,-20108.724547,13331.787387,9980.232713,8617.692723,-5717.062142,33687.610470,2537.973528,27068.186053,6703.556383,-278.160004,-839.359985,-467.992004,4900.000000,-2800.000000,2660.000000
8819.663086,9832.733552,1115.307345,-1420.721581,7648.878711,8294.866478,7781.782184,-20088.831495,13357.089562,10028.803054,8624.286488,-5690.061234,33703.703726,2553.530342,27079.339573,6735.877006,-276.696014,-841.312012,-466.040009,5040.000000,-2800.000000,2520.000000
8878.626988,9996.303618,1234.352736,-1313.768484,7797.204888,8324.303725,7866.428240,-19988.092183,13431.565575,10137.164311,8644.157188,-5581.722329,33757.146747,2589.427243,27172.255775,6864.131315,-275.720001,-841.312012,-463.600006,5180.000000,-2800.000000,2380.000000
8912.780453,10141.053515,1319.222309,-1214.638497,7911.534060,8353.830380,7950.314337,-19905.211914,13488.763689,10196.664655,8665.391346,-5485.676883,33802.789009,2610.080255,27268.144759,6972.492572,-274.743988,-842.776001,-468.480011,5040.000000,-2380.000000,1960.000000
8881.800935,10111.951543,1274.675283,-1228.474227,7861.957891,8351.796371,7944.435828,-19933.889202,13470.167037,10145.076829,8668.207665,-5498.305619,33795.971727,2594.881069,27272.726866,6957.159276,-277.183990,-839.848022,-465.063995,5040.000000,-2240.000000,1680.000000
8838.080923,9988.771080,1188.419901,-1310.013391,7749.662727,8326.762417,7878.989920,-20013.640227,13411.963095,10072.590121,8655.154247,-5576.939056,33758.018465,2569.824764,27207.906807,6867.417022,-276.696014,-839.359985,-466.040009,4900.000000,-1960.000000,1400.000000
8826.167444,9922.878137,1156.546313,-1351.811153,7701.338256,8314.983048,7847.093981,-20044.575041,13380.134211,10043.555205,8643.285470,-5627.029315,33736.024348,2558.827705,27164.834996,6810.710646,-276.208008,-842.776001,-464.576019,4760.000000,-1120.000000,1120.000000
8820.981839,9879.314587,1133.613424,-1377.023921,7668.436488,8307.495213,7828.229109,-20064.266928,13360.174103,10018.700065,8632.556633,-5662.412126,33717.874732,2551.853961,27131.441490,6764.867218,-276.696014,-838.384033,-466.040009,4760.000000,-980.000000,700.000000
8807.794310,9817.467310,1099.571717,-1418.464055,7616.893365,8295.469975,7792.756890,-20100.968492,13337.889414,9988.748728,8623.995915,-5704.992200,33696.439409,2542.421525,27086.268614,6711.714770,-275.231995,-840.335999,-465.552002,4480.000000,-420.000000,280.000000
8814.924516,9807.856060,1109.987630,-1427.471808,7619.374409,8291.737234,7779.882286,-20108.769251,13343.745571,10009.669961,8624.934688,-5709.082569,33697.668755,2549.104696,27072.723457,6709.792520,-275.720001,-838.384033,-462.136017,4480.000000,-140.000000,140.000000
8872.323796,9935.596280,1211.643363,-1342.624586,7748.075753,8314.334847,7842.131894,-20030.918125,13409.012664,10108.889354,8643.732505,-5621.799007,33741.589933,2582.609961,27142.840879,6811.560012,-275.720001,-840.824036,-466.528015,4200.000000,420.000000,-140.000000
8924.023381,10105.022503,1319.915214,-1229.860035,7893.630313,8348.689478,7930.689505,-19926.311961,13483.578084,10196.239972,8668.006500,-5510.174395,33794.071829,2611.130787,27241.926162,6945.156389,-276.696014,-838.872009,-463.600006,4200.000000,700.000000,-280.000000
8922.905794,10156.230349,1333.080391,-1191.482090,7912.226965,8361.921711,7965.088840,-19902.932036,13503.381730,10191.054367,8681.216381,-5473.003444,33808.712221,2611.980154,27290.027117,6990.128099,-273.279999,-841.799988,-463.600006,4200.000000,1120.000000,-280.000000
8876.257703,10049.925452,1245.618015,-1258.336158,7799.507117,8341.559272,7917.010238,-19981.923101,13454.677278,10110.632790,8672.342738,-5540.483360,33774.849328,2591.416549,27252.990276,6912.902822,-273.279999,-841.312012,-464.088013,3640.000000,1260.000000,-420.000000
8857.839865,9982.110260,1201.093340,-1302.994943,7740.096180,8326.114217,7884.197877,-20029.197041,13421.730807,10076.434621,8667.470058,-5592.361759,33749.837726,2582.274685,27213.539447,6851.413173,-275.231995,-839.848022,-463.600006,3780.000000,1540.000000,-420.000000
8853.056592,9940.893643,1178.518078,-1328.341821,7708.200241,8318.045237,7864.908321,-20047.547823,13401.122499,10055.401630,8658.104677,-5628.817454,33732.336310,2574.228057,27178.849540,6806.955553,-271.816010,-842.288025,-464.576019,3500.000000,1680.000000,-420.000000
8849.636775,9888.232933,1144.990461,-1362.607045,7663.161476,8309.305705,7837.013344,-20072.067687,13386.437403,10026.009086,8645.051258,-5667.597731,33713.493790,2564.192124,27139.689283,6758.608730,-268.399994,-842.288025,-463.600006,3360.000000,1820.000000,-700.000000
8856.118781,9854.727668,1129.634813,-1388.356255,7638.060467,8304.410673,7812.471129,-20093.123030,13385.990368,10024.109188,8640.692668,-5685.590885,33705.514217,2566.516705,27114.252998,6732.703058,-271.328003,-844.728027,-464.576019,3080.000000,1960.000000,-700.000000
8891.099261,9929.561309,1191.057407,-1344.412725,7716.515090,8315.832414,7839.963775,-20049.894756,13425.977638,10098.316979,8645.341831,-5633.779542,33731.643406,2588.734339,27147.825318,6795.623218,-269.864014,-844.239990,-463.112000,2940.000000,1680.000000,-700.000000
8938.596718,10094.628941,1301.407969,-1232.564596,7870.071574,8348.108333,7928.074351,-19948.619002,13495.871543,10194.787108,8664.854904,-5523.876014,33785.242890,2617.054000,27246.105939,6929.286650,-269.376007,-842.776001,-463.112000,2660.000000,1820.000000,-560.000000
8945.793980,10191.769623,1347.631377,-1162.827154,7942.871206,8369.118973,7988.558172,-19896.025347,13527.968648,10221.475091,8680.501125,-5456.843133,33814.769544,2623.714819,27318.235018,7008.858861,-269.376007,-844.239990,-465.063995,2660.000000,1400.000000,-420.000000
8890.249895,10106.497718,1265.734585,-1218.415942,7845.574063,8351.729316,7947.319203,-19961.694772,13478.392479,10139.600651,8672.119221,-5509.302677,33785.578166,2597.272706,27285.690878,6953.225369,-268.888000,-845.703979,-463.112000,2380.000000,1400.000000,-280.000000
8853.235406,10001.757443,1194.700741,-1290.947353,7752.076715,8328.438798,7888.020025,-20026.224259,13427.944592,10081.419060,8655.243654,-5582.616399,33750.374168,2578.117261,27219.663825,6872.423812,-270.351990,-844.239990,-463.112000,2100.000000,1120.000000,-420.000000
8838.371496,9939.351373,1160.122592,-1331.538121,7702.634657,8316.726484,7855.364127,-20049.447721,13396.160411,10048.919624,8640.245633,-5633.846597,33725.541380,2564.952083,27171.719333,6816.924431,-267.912018,-844.239990,-466.528015,1960.000000,980.000000,-140.000000
8825.161615,9884.902523,1126.706735,-1368.574961,7658.244092,8307.159937,7825.591603,-20072.559425,13366.834923,10017.180147,8627.594546,-5680.740557,33701.535607,2550.512856,27128.312245,6767.303558,-267.424011,-848.632019,-465.063995,1960.000000,700.000000,140.000000
8809.314228,9821.200051,1090.407502,-1410.819758,7609.874917,8294.307684,7789.627646,-20106.712890,13339.275222,9990.872144,8617.983296,-5724.438217,33682.246051,2540.566330,27085.776876,6721.974221,-265.959991,-844.239990,-467.015991,1820.000000,280.000000,140.000000
8825.385132,9843.149465,1120.112970,-1399.420369,7643.648403,8295.693492,7793.673312,-20091.446649,13355.033202,10028.534833,8618.318572,-5706.556822,33694.941842,2553.619749,27091.633033,6749.399811,-265.472015,-846.192017,-468.480011,1680.000000,140.000000,280.000000
8883.119688,10002.785623,1235.671489,-1297.809338,7790.320550,8324.214318,7870.228037,-19993.724822,13431.230298,10134.146826,8638.882177,-5600.207222,33747.244924,2587.884973,27176.323792,6873.161420,-266.447998,-844.728027,-471.895996,1540.000000,-420.000000,560.000000
8917.988410,10144.965070,1318.037667,-1200.869823,7906.683732,8353.450400,7949.397916,-19908.698786,13492.138802,10195.547068,8660.652776,-5503.223002,33791.702544,2609.074427,27267.295392,6981.634436,-263.032013,-844.239990,-472.384003,1680.000000,-700.000000,700.000000
8885.019587,10116.913631,1274.004730,-1214.079704,7857.174618,8352.042240,7943.050020,-19935.297362,13474.592683,10143.825131,8663.536151,-5515.404703,33785.511110,2591.260086,27269.731733,6968.938645,-264.496002,-843.752014,-471.895996,1820.000000,-840.000000,840.000000
8838.371496,9996.013045,1188.308142,-1291.908478,7743.136018,8326.583603,7880.308673,-20016.344788,13414.846470,10069.863209,8647.577005,-5593.054663,33746.104985,2565.600284,27204.263473,6878.749356,-264.984009,-843.264038,-470.432007,1960.000000,-1120.000000,1120.000000
8828.737894,9934.702210,1152.880627,-1333.750943,7693.716311,8313.060798,7848.859769,-20048.441893,13384.068118,10041.543548,8633.696572,-5638.875739,33721.249845,2555.385537,27158.665914,6818.243184,-264.007996,-839.848022,-471.895996,1820.000000,-1540.000000,1120.000000
8828.447321,9897.307741,1130.953566,-1359.544856,7661.775668,8305.774129,7828.743199,-20062.210567,13368.198379,10020.577612,8626.499310,-5673.230371,33706.944729,2547.316557,27124.691263,6772.019776,-266.936005,-843.264038,-472.384003,1680.000000,-1820.000000,1120.000000
8818.679609,9839.081447,1094.207298,-1399.532127,7612.467720,8295.268809,7795.260286,-20092.675995,13350.361687,9992.034434,8620.821967,-5716.771569,33691.522025,2539.113467,27086.469780,6718.330886,-266.936005,-841.312012,-472.384003,1680.000000,-2380.000000,1120.000000
8816.600897,9822.407046,1095.593106,-1414.328982,7609.629048,8288.652693,7778.764698,-20098.375690,13349.579376,10001.958609,8620.129063,-5726.829854,33689.957403,2543.382650,27074.064562,6711.267735,-263.519989,-841.799988,-474.335999,2100.000000,-2240.000000,1400.000000
8861.863179,9943.866425,1190.297447,-1333.750943,7731.624869,8308.322228,7836.923937,-20019.474032,13406.241048,10094.807755,8633.160130,-5644.776600,33729.944674,2572.551676,27142.773824,6809.995390,-265.472015,-843.264038,-474.824005,2520.000000,-2520.000000,1540.000000
8916.401436,10113.113834,1300.580955,-1215.532567,7879.727528,8341.961603,7932.835273,-19917.393615,13484.561561,10187.656902,8652.784962,-5526.602927,33783.991192,2603.374732,27251.224488,6942.518883,-266.447998,-842.776001,-475.312012,2660.000000,-2800.000000,1680.000000
8913.272192,10159.516056,1309.432245,-1180.574439,7899.620581,8353.338641,7966.474648,-19896.382975,13503.717006,10181.733690,8663.849075,-5486.749767,33798.028087,2603.039456,27292.932843,6982.573209,-267.912018,-843.752014,-470.432007,3080.000000,-2940.000000,1540.000000
8863.606615,10044.382220,1215.398457,-1256.257445,7781.513963,8332.082132,7908.337761,-19971.149560,13448.418790,10098.920476,8652.092058,-5555.794305,33760.611267,2577.156136,27235.444157,6900.430548,-265.959991,-840.335999,-473.360016,3080.000000,-2800.000000,1540.000000
8840.360801,9959.177370,1165.263494,-1311.935641,7716.112759,8315.094807,7865.668281,-20018.825831,13404.609371,10055.155761,8639.575081,-5614.646448,33731.688110,2563.320406,27187.097333,6828.815559,-267.424011,-842.776001,-470.432007,3220.000000,-2800.000000,1680.000000
8833.252947,9904.572058,1135.043935,-1348.592502,7679.321787,8301.192022,7839.404981,-20046.519643,13377.697870,10026.903156,8631.081418,-5660.601635,33712.242092,2549.283510,27145.478385,6773.472640,-269.376007,-841.799988,-471.408020,3500.000000,-2520.000000,1680.000000
8821.160653,9844.311755,1096.151900,-1390.010284,7630.684391,8289.770280,7806.793786,-20081.701288,13354.049725,9992.794394,8622.006610,-5709.730769,33692.550205,2535.850112,27099.187922,6721.102502,-270.351990,-839.848022,-472.872009,3640.000000,-2520.000000,1540.000000
8820.579507,9809.644200,1081.623266,-1416.742971,7606.253935,8282.841239,7782.005701,-20101.840210,13347.590071,9990.067481,8618.407979,-5735.099999,33684.637688,2538.152342,27072.835216,6697.946095,-270.839996,-840.824036,-468.968018,4060.000000,-2520.000000,1680.000000
8856.364650,9888.277637,1146.152752,-1370.273694,7686.966084,8296.721673,7811.018266,-20051.571137,13388.359653,10060.430772,8626.342848,-5685.076795,33711.638595,2560.660548,27110.117925,6762.475581,-272.791992,-839.359985,-472.384003,4480.000000,-2240.000000,1540.000000
8907.930125,10060.475476,1261.979492,-1255.877466,7842.467170,8328.818778,7899.531174,-19945.802682,13463.953252,10160.253663,8644.045430,-5571.775803,33762.824090,2591.237735,27211.170162,6896.608400,-269.864014,-836.919983,-472.384003,4760.000000,-1820.000000,1680.000000
8922.168186,10166.825076,1317.903557,-1176.886401,7925.034514,8352.265758,7967.905160,-19885.207103,13500.945389,10190.786146,8660.943349,-5496.428072,33794.988250,2604.894651,27295.592701,6983.154354,-272.304016,-836.432007,-469.944000,4900.000000,-1540.000000,1540.000000
8876.257703,10086.023520,1243.516951,-1224.428561,7832.274775,8339.860539,7936.165683,-19946.652048,13458.789999,10113.337351,8658.350546,-5541.153913,33774.268183,2585.158060,27276.012573,6933.600537,-275.720001,-836.432007,-469.455994,5180.000000,-1120.000000,1540.000000
8846.775752,9986.267684,1178.361616,-1290.746187,7742.890149,8318.984010,7882.990883,-20011.427404,13413.617124,10060.542531,8646.727639,-5607.918573,33742.148726,2566.539057,27218.523886,6857.537551,-274.256012,-838.384033,-467.992004,5320.000000,-840.000000,1260.000000
8832.560042,9926.499120,1147.337395,-1332.856874,7698.790157,8304.477728,7849.843246,-20039.054160,13382.078812,10032.245223,8632.534281,-5654.298443,33716.667738,2551.317519,27168.478330,6803.133405,-276.208008,-835.944031,-467.992004,5600.000000,-280.000000,1120.000000
8821.853557,9876.386509,1117.721333,-1369.133755,7660.747488,8295.246457,7824.921051,-20061.405904,13359.928234,10003.500879,8621.648982,-5692.966961,33696.238243,2540.745144,27127.485231,6756.239445,-275.720001,-838.384033,-463.112000,6020.000000,140.000000,840.000000
8816.109159,9823.792854,1086.898278,-1409.746875,7618.346228,8285.009359,7790.566419,-20094.441783,13343.924385,9986.334739,8616.575136,-5728.439179,33680.524967,2536.252443,27086.425076,6711.647715,-277.183990,-835.944031,-466.040009,6160.000000,420.000000,840.000000
8838.013868,9851.173741,1117.788388,-1396.313476,7653.639633,8286.976312,7796.489632,-20081.231902,13366.410240,10027.394894,8619.413807,-5708.836700,33692.863130,2551.473981,27098.293853,6736.502854,-277.671997,-837.895996,-465.063995,6160.000000,700.000000,560.000000
8893.915581,10008.865298,1235.313861,-1293.137824,7804.737425,8314.536013,7876.084194,-19985.298215,13439.880424,10129.899994,8636.848168,-5603.023541,33742.439299,2586.007427,27188.505493,6858.789248,-278.160004,-835.944031,-464.088013,6300.000000,1260.000000,140.000000
8922.101131,10154.576320,1323.066810,-1192.309104,7924.967459,8344.129723,7959.880884,-19897.969949,13494.575142,10188.506268,8658.864636,-5506.218136,33786.539291,2605.967534,27284.103904,6973.006662,-277.671997,-835.944031,-458.720001,6580.000000,1400.000000,-280.000000
8880.884514,10128.178910,1282.319579,-1203.194404,7880.040452,8342.676859,7957.019860,-19918.801775,13468.557712,10136.247890,8662.597378,-5519.003334,33779.766712,2588.510822,27288.753067,6964.624758,-277.183990,-837.895996,-463.600006,6720.000000,1680.000000,-560.000000
8841.746609,10009.848775,1196.310067,-1281.671379,7765.241893,8318.000533,7891.529249,-19998.686910,13415.360560,10065.974005,8646.593529,-5593.345236,33741.209953,2564.572104,27223.441270,6875.597760,-275.720001,-837.895996,-464.088013,7000.000000,1820.000000,-980.000000
8840.092580,9947.263890,1161.821325,-1323.536196,7715.196337,8303.918934,7856.191141,-20035.790805,13392.181801,10040.515368,8634.568290,-5639.434533,33716.243054,2556.167848,27178.737781,6815.471568,-276.208008,-836.432007,-464.576019,7000.000000,1820.000000,-1260.000000
8838.684420,9897.955942,1135.289804,-1357.041461,7677.690110,8295.425271,7830.441932,-20058.142550,13372.378155,10014.229717,8623.817101,-5681.165240,33695.947670,2546.511894,27142.215030,6763.436706,-271.328003,-833.015991,-464.576019,7140.000000,1680.000000,-1680.000000
8829.050819,9837.874453,1098.677647,-1400.359142,7627.108112,8284.539972,7794.008588,-20092.698347,13348.305326,9988.748728,8617.513909,-5726.226357,33677.753350,2535.559539,27099.523199,6710.664238,-270.351990,-835.455994,-460.183990,7280.000000,1260.000000,-2240.000000
8830.816606,9826.296249,1099.102330,-1412.429084,7624.560013,8281.611893,7778.563533,-20100.901437,13347.075981,10004.372597,8616.508081,-5734.988241,33677.999220,2539.538150,27086.380373,6710.194851,-270.351990,-836.432007,-459.208008,7140.000000,980.000000,-2660.000000
8871.452078,9941.251271,1190.073930,-1338.355403,7738.978593,8302.823699,7833.817045,-20027.788881,13399.401414,10091.544401,8626.946345,-5660.266359,33715.594854,2567.678996,27149.345237,6805.614448,-269.376007,-835.455994,-461.160004,7000.000000,420.000000,-3220.000000
8915.462663,10105.871869,1300.335085,-1220.159378,7887.841211,8336.843054,7928.409627,-19924.680284,13469.116505,10176.659844,8646.012383,-5551.033384,33766.892107,2597.451520,27258.712323,6936.863892,-267.912018,-837.408020,-456.279999,6860.000000,560.000000,-3220.000000
8911.819328,10152.452904,1315.377809,-1177.914581,7909.589459,8351.796371,7967.346366,-19900.674510,13484.472154,10173.105916,8656.428296,-5511.604907,33785.064076,2599.351418,27310.210742,6981.120346,-264.984009,-836.919983,-457.256012,6720.000000,-140.000000,-3500.000000
8863.539560,10039.889519,1225.657907,-1247.182637,7791.058158,8330.919842,7915.557374,-19979.464409,13429.956249,10090.627979,8648.359316,-5577.788422,33751.827032,2574.719796,27260.299296,6901.972819,-263.032013,-838.384033,-452.376007,6440.000000,-560.000000,-3640.000000
8845.881682,9960.183198,1175.344130,-1299.955106,7723.824110,8312.479652,7873.871371,-20025.061968,13392.673539,10053.702897,8636.892871,-5633.913652,33721.316900,2562.515743,27203.212941,6832.727114,-263.519989,-841.799988,-453.839996,6020.000000,-840.000000,-3920.000000
8838.997345,9912.082244,1146.823305,-1337.506036,7685.133241,8301.728463,7843.629461,-20043.882137,13368.220731,10029.317144,8625.314668,-5675.867877,33697.780513,2550.848132,27151.625115,6780.379329,-262.056000,-843.264038,-454.816010,5740.000000,-1120.000000,-4060.000000
8826.837996,9846.412819,1103.349162,-1385.517584,7626.594022,8288.339768,7800.825870,-20080.829570,13342.024486,9993.308484,8615.122272,-5723.097113,33673.417112,2536.207740,27102.451277,6717.950907,-259.615997,-842.776001,-452.864014,5460.000000,-1400.000000,-3920.000000
8828.670839,9816.774406,1089.535783,-1403.577793,7609.718455,8281.343672,7779.457602,-20102.130783,13335.564832,9992.682635,8611.434235,-5741.917281,33667.784472,2535.604243,27083.876977,6692.916953,-263.032013,-846.192017,-453.352020,5040.000000,-1540.000000,-3920.000000
8860.857351,9888.255285,1149.125534,-1353.264016,7689.111851,8293.681835,7815.198042,-20061.785884,13375.127420,10058.687336,8619.413807,-5692.341112,33694.383048,2559.341795,27127.060548,6757.692308,-259.615997,-848.143982,-451.399994,5040.000000,-1680.000000,-3500.000000
8912.311067,10061.503656,1269.735547,-1232.698707,7852.346641,8328.774074,7913.366903,-19952.150578,13452.218586,10159.180779,8639.597433,-5573.966274,33749.077767,2597.295057,27236.181764,6900.274086,-261.080017,-852.048035,-451.399994,4620.000000,-1820.000000,-3080.000000
8920.558860,10163.718183,1321.211615,-1159.474392,7932.589404,8351.259929,7980.109212,-19890.929150,13487.802564,10185.108803,8652.896721,-5503.312409,33778.291497,2609.812034,27314.189352,6987.267075,-262.544006,-851.559998,-453.352020,4200.000000,-2100.000000,-2660.000000
8874.648377,10083.229552,1244.522780,-1210.928108,7835.716943,8337.893586,7943.541758,-19952.105874,13450.341040,10109.537555,8650.326270,-5547.904140,33755.068035,2585.739206,27287.858997,6935.925118,-263.032013,-852.536011,-452.376007,4200.000000,-2100.000000,-2100.000000
8848.563891,9980.925617,1175.411186,-1278.676245,7742.174893,8318.156996,7885.069595,-20019.742253,13408.364464,10061.883636,8639.664488,-5611.114873,33723.932055,2567.075499,27228.917447,6853.134257,-264.496002,-851.072021,-453.352020,4060.000000,-2380.000000,-1540.000000
8843.288880,9925.470939,1141.794162,-1316.003658,7700.868869,8307.137586,7852.190179,-20043.904489,13384.112821,10039.420133,8630.768494,-5652.398545,33704.083705,2555.273778,27182.470522,6799.311256,-263.032013,-854.488037,-454.816010,4200.000000,-2940.000000,-840.000000
8833.074133,9871.066793,1104.511452,-1354.113383,7655.271310,8293.301856,7818.617859,-20070.570120,13363.370402,10008.485318,8620.821967,-5698.286676,33683.162473,2541.907435,27138.526993,6744.169503,-264.984009,-853.023987,-456.279999,3920.000000,-3220.000000,-280.000000
8824.871042,9820.998886,1072.615513,-1390.323209,7615.529909,8282.684777,7784.665559,-20100.364995,13344.840806,9991.252123,8614.049389,-5734.921185,33668.499728,2535.872464,27102.227760,6700.851822,-264.496002,-852.048035,-457.744019,3920.000000,-3920.000000,420.000000
8843.087714,9846.323412,1101.896298,-1374.900505,7650.756258,8288.943266,7791.728710,-20084.472905,13364.197417,10031.485263,8617.379799,-5714.223470,33682.938955,2550.110525,27112.286045,6726.086941,-269.376007,-853.023987,-461.648010,4060.000000,-4340.000000,1260.000000
8892.954456,10000.259876,1215.398457,-1271.903666,7799.373007,8318.939307,7869.892761,-19988.583921,13432.750217,10133.342163,8638.502197,-5612.277164,33735.622017,2584.174583,27202.944720,6849.647385,-266.936005,-851.559998,-463.112000,4200.000000,-4340.000000,1820.000000
8919.441273,10143.087523,1302.257335,-1174.830040,7918.574860,8347.549540,7950.090820,-19903.177905,13486.081479,10193.088376,8657.791753,-5518.109264,33780.973706,2602.614773,27296.911454,6962.143715,-265.472015,-849.119995,-461.648010,4480.000000,-4760.000000,2380.000000
8897.335398,10129.587070,1270.517858,-1178.316912,7884.980188,8349.695307,7957.578654,-19920.098176,13478.191314,10151.000041,8656.204779,-5518.936279,33778.023276,2589.427243,27314.099945,6958.835657,-264.007996,-849.119995,-459.208008,4900.000000,-5040.000000,2800.000000
8857.772810,10010.564030,1184.374235,-1257.375033,7771.545085,8324.951926,7897.541868,-19997.390508,13424.256554,10074.892351,8639.262156,-5591.758262,33739.153592,2565.957912,27253.549070,6871.306225,-269.376007,-850.583984,-461.160004,5040.000000,-5320.000000,3220.000000
8848.742705,9947.755629,1149.326700,-1302.234984,7719.934907,8309.886850,7860.460324,-20033.242706,13393.522906,10046.215063,8628.689781,-5639.434533,33715.326633,2555.117316,27204.151714,6809.749521,-268.888000,-847.168030,-464.576019,5460.000000,-5180.000000,3500.000000
8842.215996,9898.402977,1120.828226,-1337.126057,7678.226552,8298.308646,7833.794693,-20057.047314,13372.244045,10021.114054,8622.475996,-5682.439289,33696.126484,2546.310728,27160.252888,6756.306500,-267.912018,-843.264038,-464.088013,5600.000000,-5320.000000,3640.000000
8827.530900,9833.471159,1085.467766,-1380.913124,7625.923470,8285.970484,7801.451719,-20089.569102,13348.148864,9993.532001,8617.290392,-5727.947441,33676.859281,2539.225225,27118.008091,6705.277467,-265.472015,-843.264038,-465.063995,5740.000000,-5320.000000,3920.000000
8832.649449,9820.216575,1090.251039,-1391.977238,7625.387028,8284.070585,7789.091204,-20096.766364,13351.948661,10009.133519,8617.670371,-5732.127217,33677.172205,2545.193141,27106.161667,6702.371741,-267.424011,-843.752014,-460.183990,5740.000000,-4900.000000,4060.000000
8880.929217,9936.132721,1180.753253,-1319.602289,7740.878492,8302.376664,7842.087190,-20027.878288,13410.666694,10097.042930,8631.640212,-5653.024394,33714.767839,2572.506973,27166.421970,6795.354998,-268.399994,-838.872009,-465.063995,6300.000000,-4620.000000,4060.000000
8926.079741,10103.457880,1289.896821,-1204.647267,7887.349473,8335.948984,7934.824578,-19926.714292,13480.270026,10180.057309,8652.181465,-5541.310375,33767.227384,2599.150252,27271.653983,6928.191415,-269.864014,-837.895996,-464.576019,6160.000000,-4060.000000,4060.000000
8919.642439,10153.123457,1303.956068,-1164.436479,7913.121034,8348.510665,7972.107288,-19900.607455,13494.485735,10176.324567,8662.217398,-5502.463043,33784.393523,2598.792624,27320.537248,6973.878381,-269.864014,-836.919983,-462.623993,5880.000000,-3500.000000,4200.000000
8871.161505,10042.594080,1210.637535,-1235.984413,7794.142699,8326.002458,7916.898479,-19979.196188,13441.981488,10093.064319,8653.321404,-5568.624207,33751.514107,2572.395214,27269.977602,6892.786252,-273.768005,-835.455994,-463.600006,5740.000000,-2940.000000,4340.000000
8852.833075,9962.060745,1158.692081,-1290.612077,7721.208956,8306.936420,7869.803354,-20029.331151,13404.139984,10050.774819,8641.810255,-5625.576451,33723.172095,2557.687766,27216.556933,6821.171262,-277.671997,-830.088013,-466.528015,5040.000000,-1820.000000,4340.000000
8847.111028,9913.021018,1130.662993,-1324.229100,7686.831973,8297.258114,7844.009440,-20047.033733,13378.927216,10025.115016,8632.087246,-5667.865952,33701.043868,2546.221321,27177.106104,6770.209285,-278.160004,-829.600037,-468.480011,4340.000000,-980.000000,4340.000000
8833.252947,9850.614947,1092.843842,-1364.708109,7640.228586,8285.523449,7813.566364,-20075.576910,13351.099295,9992.056786,8622.587755,-5715.229298,33678.602717,2533.726696,27135.889487,6716.229822,-279.136017,-825.695984,-470.920013,3780.000000,-140.000000,4480.000000
8819.238403,9810.672380,1072.056719,-1392.714845,7615.216984,8278.415594,7787.861858,-20097.056937,13333.016733,9980.858562,8619.369104,-5745.001822,33669.974943,2531.536225,27106.474591,6691.128813,-279.623993,-826.671997,-468.480011,3080.000000,980.000000,4620.000000
8851.760191,9880.007491,1131.624118,-1351.028842,7687.010787,8293.078338,7813.074626,-20054.298050,13372.400507,10047.466761,8623.370066,-5694.978618,33693.153702,2556.324310,27136.850612,6752.216131,-282.552002,-825.695984,-472.384003,2520.000000,1400.000000,4620.000000
8918.480148,10060.698993,1257.755012,-1227.401343,7854.358298,8329.846958,7907.801319,-19946.272069,13461.762781,10156.073887,8642.994898,-5570.412346,33747.133165,2594.702255,27251.112729,6889.433490,-286.944000,-827.160034,-469.455994,1820.000000,1960.000000,4760.000000
8942.374163,10173.262378,1316.920080,-1146.152752,7939.473741,8354.389173,7977.427003,-19887.419926,13509.617866,10194.429480,8660.853942,-5491.689502,33780.951355,2607.398046,27335.959951,6973.543104,-288.407990,-832.040039,-470.920013,1260.000000,2100.000000,4620.000000
8896.642494,10098.495793,1242.958157,-1191.683256,7848.233920,8342.296880,7946.134561,-19948.596650,13472.379860,10122.725084,8656.785924,-5534.023706,33758.219631,2583.414624,27308.176733,6925.442150,-289.872009,-835.944031,-466.528015,560.000000,2380.000000,4480.000000
8860.544427,9994.895458,1173.153659,-1261.778326,7753.507227,8322.381475,7889.629351,-20011.449756,13422.133138,10065.169342,8644.850093,-5604.744626,33727.083650,2566.851982,27242.149680,6846.875769,-288.895996,-834.479980,-464.576019,420.000000,2240.000000,4200.000000
8851.603729,9941.407733,1142.621177,-1301.698542,7712.916459,8311.742045,7857.532246,-20029.197041,13394.081699,10038.101380,8633.875386,-5651.571530,33708.844627,2558.805353,27190.830075,6795.198535,-289.384003,-838.384033,-463.600006,140.000000,1820.000000,3500.000000
8833.968202,9876.431212,1103.125644,-1351.297063,7659.719307,8297.682798,7817.656734,-20058.813102,13361.872835,10002.226830,8622.386589,-5703.516984,33686.448179,2541.885083,27136.917667,6732.323078,-287.920013,-842.288025,-460.183990,140.000000,1400.000000,2800.000000
8826.569775,9825.379828,1074.470708,-1388.423310,7619.240298,8284.361158,7783.793841,-20088.675033,13345.019620,9989.084004,8615.524604,-5740.620880,33671.293696,2532.653812,27101.557207,6686.032615,-286.455994,-845.216003,-462.136017,140.000000,560.000000,1960.000000
8848.899168,9852.425438,1102.745664,-1375.213429,7653.304357,8285.568152,7789.873515,-20078.728506,13367.818399,10029.317144,8620.665505,-5723.655906,33684.481226,2545.282548,27112.978949,6708.473767,-286.455994,-846.192017,-460.183990,140.000000,0.000000,1260.000000
8903.213907,10008.239449,1215.845491,-1269.109698,7804.960943,8314.379551,7872.150287,-19984.717069,13438.964002,10129.385904,8638.792770,-5621.486082,33733.565656,2581.067691,27206.252778,6832.794170,-282.063995,-849.119995,-462.136017,420.000000,-1120.000000,280.000000
8934.685163,10158.666689,1306.459463,-1159.228523,7932.745866,8346.163731,7964.507695,-19892.873751,13496.407985,10192.753100,8656.651814,-5519.584479,33778.045628,2605.945183,27311.954178,6956.242854,-277.671997,-848.143982,-463.112000,700.000000,-1960.000000,-420.000000
8905.426729,10146.552044,1276.195201,-1159.072060,7900.022912,8346.946042,7971.704956,-19908.788193,13482.080517,10147.043782,8659.870465,-5519.696238,33775.475177,2594.791662,27328.740338,6958.612139,-276.208008,-848.143982,-464.576019,1400.000000,-2800.000000,-1540.000000
8859.404488,10025.047961,1183.658979,-1240.879445,7781.290445,8320.973315,7907.555450,-19991.824924,13425.955287,10070.176133,8647.688764,-5596.474480,33737.656026,2569.824764,27262.266250,6867.484077,-273.279999,-848.632019,-464.576019,2100.000000,-3640.000000,-2380.000000
8848.027450,9958.730335,1141.972976,-1289.025103,7727.556852,8303.896583,7865.936502,-20029.934648,13396.205115,10041.051810,8638.546901,-5647.257644,33712.555017,2558.224208,27208.286787,6802.194631,-269.864014,-849.119995,-464.576019,2520.000000,-3920.000000,-2800.000000
8836.158673,9910.741140,1114.480330,-1323.871472,7690.587066,8293.570077,7838.108580,-20051.727599,13367.237254,10012.598039,8631.461398,-5689.256571,33693.265461,2544.746106,27164.343257,6753.311366,-266.936005,-846.192017,-464.576019,3220.000000,-4480.000000,-3500.000000
8828.447321,9849.475008,1076.996455,-1365.311607,7636.160569,8281.835411,7805.966771,-20086.998652,13348.595899,9985.530077,8617.849185,-5732.708363,33674.065313,2534.285490,27121.427908,6702.461148,-265.472015,-849.608032,-467.015991,3780.000000,-4480.000000,-3780.000000
8844.831150,9843.238871,1077.756414,-1370.631322,7637.121694,8281.790707,7796.757853,-20093.748879,13363.057478,10000.550449,8612.685932,-5732.976584,33675.339362,2543.315595,27116.219952,6699.398959,-264.007996,-844.728027,-470.432007,4340.000000,-4760.000000,-4060.000000
8888.573514,9951.913053,1161.575456,-1301.139748,7746.712297,8301.706112,7846.043449,-20024.123195,13412.566592,10087.744604,8622.945383,-5657.025356,33710.655118,2567.678996,27175.049743,6787.889515,-264.007996,-845.703979,-472.384003,5040.000000,-4200.000000,-4060.000000
8935.266308,10117.673590,1271.702501,-1185.692988,7895.865488,8333.937327,7940.725439,-19920.031121,13481.275854,10178.515038,8644.783037,-5544.260805,33763.159366,2595.775139,27279.611204,6919.161310,-263.032013,-839.359985,-466.528015,5320.000000,-3920.000000,-4060.000000
8933.187596,10174.089393,1288.421606,-1143.202322,7928.119055,8347.057801,7981.785593,-19891.733812,13498.084366,10179.185591,8659.736354,-5502.753616,33781.979535,2598.122072,27331.355492,6966.234084,-260.104004,-839.848022,-473.847992,6020.000000,-3360.000000,-3780.000000
8882.963226,10059.067316,1197.561764,-1216.694858,7808.581925,8326.158920,7926.375619,-19972.468313,13443.456703,10094.360720,8653.902549,-5570.278236,33745.635598,2571.612903,27280.706439,6885.454879,-258.640015,-837.408020,-470.920013,6160.000000,-3080.000000,-3500.000000
8866.557046,9974.220094,1148.142057,-1272.954198,7739.045648,8308.478690,7880.353377,-20023.251477,13405.883420,10055.759258,8643.061953,-5625.509396,33718.478229,2555.430240,27226.235238,6812.208213,-261.080017,-838.872009,-470.920013,6580.000000,-2520.000000,-2800.000000
8860.812647,9922.118178,1120.671764,-1310.639240,7703.484023,8298.755681,7851.676089,-20044.418579,13381.676481,10027.685467,8632.690744,-5668.201228,33697.780513,2544.589644,27181.084714,6757.111163,-261.080017,-837.408020,-466.040009,6440.000000,-2100.000000,-2100.000000
8849.189740,9861.276729,1084.238420,-1354.873342,7652.186770,8288.675045,7818.059065,-20074.481675,13355.703754,9993.621408,8622.699514,-5714.201118,33675.339362,2535.268967,27134.190754,6703.310514,-259.615997,-837.895996,-465.552002,6440.000000,-1820.000000,-1540.000000
8841.903072,9818.786063,1063.987740,-1384.578810,7621.229603,8283.221219,7791.527544,-20098.867428,13341.689210,9984.367786,8616.105749,-5739.436238,33666.666885,2534.196083,27104.507638,6676.533124,-262.056000,-836.432007,-470.920013,6300.000000,-1540.000000,-420.000000
8864.970072,9875.738308,1118.503644,-1346.558493,7688.731872,8294.218277,7816.025056,-20061.808236,13371.886417,10044.158702,8618.475034,-5696.766758,33688.571595,2554.379708,27138.325827,6733.597128,-259.615997,-837.895996,-470.432007,5880.000000,-1680.000000,140.000000
8921.497634,10048.740810,1239.538341,-1227.781323,7848.368031,8328.282336,7909.857680,-19950.518900,13449.268156,10149.882454,8638.412790,-5578.973064,33742.394595,2589.315485,27244.630724,6874.368414,-262.544006,-838.384033,-471.408020,5880.000000,-1680.000000,1260.000000
8941.882425,10162.041803,1297.474062,-1143.939929,7934.399895,8352.466923,7981.785593,-19883.798943,13496.676206,10185.935817,8657.300014,-5498.775005,33775.296363,2603.553546,27328.092137,6964.602407,-262.056000,-836.919983,-467.015991,5740.000000,-1960.000000,2240.000000
8894.340264,10088.392805,1224.450913,-1187.168203,7846.959871,8340.687554,7955.008203,-19939.678304,13459.013517,10113.225593,8653.611976,-5538.739924,33752.162308,2583.571086,27309.048451,6917.887261,-262.544006,-837.895996,-470.432007,5460.000000,-2380.000000,2940.000000
8862.712546,9988.525210,1158.245046,-1255.743355,7757.307024,8318.581679,7900.380540,-20003.984273,13413.527717,10062.040098,8642.927842,-5602.241230,33719.640520,2566.114374,27252.744407,6837.488036,-264.007996,-836.432007,-467.992004,5460.000000,-2380.000000,3780.000000
8856.610519,9937.272660,1128.070191,-1291.148518,7715.375151,8307.070530,7868.574008,-20030.314628,13388.896094,10036.290888,8632.735447,-5643.100219,33700.350964,2553.150362,27208.867932,6781.251047,-263.519989,-836.919983,-470.432007,5040.000000,-2800.000000,4480.000000
8845.009964,9882.242666,1090.385150,-1326.777199,7670.671662,8298.174536,7840.790789,-20052.845186,13361.314042,10003.456176,8621.961906,-5684.696816,33682.715438,2544.813161,27165.326734,6729.126779,-262.544006,-839.848022,-469.944000,4900.000000,-3220.000000,5180.000000
8831.844787,9822.429397,1055.583484,-1372.039482,7623.822406,8285.523449,7804.715074,-20082.550655,13339.901071,9981.350300,8612.708284,-5723.410037,33666.935106,2536.475961,27119.013920,6683.819793,-265.472015,-840.335999,-467.503998,4760.000000,-3780.000000,5740.000000
8853.034240,9841.718953,1081.712673,-1368.194982,7646.397668,8284.428213,7801.295257,-20076.806256,13363.571568,10019.124749,8616.329267,-5705.171013,33677.418074,2542.108600,27117.918684,6698.817813,-269.864014,-841.799988,-467.503998,4340.000000,-3780.000000,6160.000000
8913.495709,10000.148118,1196.444177,-1262.940617,7794.366216,8315.206565,7882.074461,-19984.672366,13440.819197,10126.368418,8636.758761,-5594.149899,33729.140011,2577.558467,27210.656072,6822.065332,-267.424011,-839.848022,-465.552002,4200.000000,-3780.000000,6300.000000
8945.190483,10149.681288,1286.722873,-1154.601712,7923.067561,8347.817760,7973.873076,-19894.192504,13500.073671,10190.897905,8657.679994,-5490.214287,33777.017448,2603.128863,27316.022195,6943.524712,-268.399994,-843.752014,-463.600006,4340.000000,-3780.000000,6580.000000
8917.094340,10141.142922,1257.732661,-1156.367499,7895.396101,8348.197740,7978.186962,-19908.296455,13489.255427,10148.451942,8663.402040,-5488.694368,33778.112683,2591.215383,27328.405062,6945.223444,-269.376007,-841.799988,-462.136017,4200.000000,-3640.000000,6580.000000
8871.765002,10023.483339,1171.521982,-1236.967890,7780.709300,8323.767283,7914.260973,-19989.612101,13432.929031,10074.400613,8652.427334,-5563.058622,33743.087500,2567.857810,27261.953326,6857.112867,-271.816010,-840.335999,-463.112000,4200.000000,-3640.000000,6580.000000
8856.230540,9952.002460,1132.205264,-1283.839498,7725.724009,8308.769263,7878.408775,-20027.207735,13396.987426,10040.694182,8641.385572,-5614.802911,33716.846552,2553.820914,27211.997177,6795.399701,-272.304016,-840.824036,-466.528015,4620.000000,-3640.000000,6300.000000
8840.740781,9900.146413,1103.863252,-1317.322411,7689.245962,8298.599219,7854.112429,-20048.128968,13368.287786,10009.647609,8634.657697,-5658.768792,33696.104133,2540.901606,27173.105141,6745.577663,-278.160004,-843.752014,-459.696014,5040.000000,-3640.000000,6160.000000
8832.269470,9839.573185,1071.050891,-1356.527371,7642.731982,8286.663388,7819.824853,-20082.170675,13347.992402,9986.602960,8623.682991,-5700.924182,33676.769874,2531.268004,27133.296684,6697.387302,-275.720001,-843.264038,-461.648010,5600.000000,-3780.000000,5880.000000
8846.127551,9825.089255,1073.420176,-1365.870400,7640.899139,8283.668254,7804.782129,-20091.446649,13354.362649,10002.763272,8619.033828,-5703.852261,33677.038095,2537.057106,27121.472612,6693.878078,-275.231995,-843.752014,-460.671997,5880.000000,-3360.000000,5320.000000
8893.647360,9934.433989,1159.340281,-1297.496414,7751.562625,8302.086091,7854.939443,-20023.519698,13409.616162,10092.729043,8632.131950,-5626.694039,33714.544322,2565.041490,27180.458865,6781.899247,-277.671997,-846.192017,-458.720001,6300.000000,-3640.000000,4760.000000
8942.351811,10109.112872,1270.070823,-1184.329532,7900.514650,8335.792522,7947.118038,-19922.020426,13482.304035,10183.387719,8655.467171,-5512.297811,33766.959163,2593.115281,27288.596605,6913.059284,-277.671997,-844.239990,-459.208008,6580.000000,-3500.000000,4200.000000
8941.658907,10176.101050,1291.953181,-1137.212054,7933.349363,8351.997537,7989.318131,-19892.717289,13504.208744,10185.421727,8670.644006,-5465.895589,33785.712276,2595.395159,27345.928829,6963.507171,-278.648010,-843.752014,-455.791992,7280.000000,-3640.000000,3640.000000
8890.093433,10068.656214,1199.484014,-1207.709456,7816.785016,8332.752685,7937.193863,-19969.227310,13450.810427,10096.819412,8659.378726,-5532.839064,33751.648218,2572.439918,27298.990166,6885.611342,-279.136017,-844.728027,-458.231995,7280.000000,-3500.000000,3080.000000
8866.713508,9984.032510,1143.403488,-1265.891047,7746.712297,8314.960696,7890.702235,-20017.082395,13410.800804,10052.115923,8643.285470,-5594.865155,33722.702709,2558.783002,27245.413035,6813.750483,-282.063995,-843.264038,-458.231995,7700.000000,-3360.000000,2380.000000
8858.577473,9934.076361,1116.067304,-1297.518766,7711.217727,8303.538955,7862.315519,-20036.304895,13385.476278,10027.193728,8633.316592,-5639.121609,33704.888368,2546.266025,27202.922368,6761.179180,-279.623993,-840.824036,-457.744019,7980.000000,-3080.000000,1680.000000
8845.144075,9876.565322,1080.773900,-1334.197978,7662.915607,8293.368911,7829.167882,-20065.652736,13359.101219,9993.554353,8623.526528,-5684.138022,33684.168301,2535.872464,27158.732970,6708.674933,-277.671997,-842.288025,-456.768005,8120.000000,-2940.000000,1260.000000
8841.187816,9843.060058,1066.424080,-1358.315511,7640.094476,8287.892734,7803.061045,-20086.082230,13349.221748,9988.748728,8617.670371,-5705.975676,33673.104188,2535.894815,27131.530897,6683.305703,-278.648010,-842.288025,-456.768005,8120.000000,-2520.000000,560.000000
8868.479296,9905.868459,1122.795179,-1318.685868,7710.860099,8297.414577,7829.883138,-20049.246555,13380.715356,10049.366659,8626.298145,-5660.735746,33694.986545,2555.005557,27166.869005,6737.463979,-276.208008,-838.384033,-457.256012,7980.000000,-2240.000000,140.000000
8919.128349,10079.273293,1244.142800,-1198.433482,7873.200819,8330.763379,7925.235680,-19945.489758,13451.860959,10148.496646,8649.543959,-5543.724363,33750.865907,2587.974380,27274.604413,6875.933036,-277.183990,-838.872009,-459.696014,8120.000000,-1820.000000,-420.000000
8935.735695,10187.343977,1307.845272,-1123.421028,7954.829389,8352.578682,7991.173326,-19884.469495,13491.401195,10184.929989,8664.184351,-5470.120069,33782.873605,2599.194956,27350.063902,6964.758869,-274.743988,-837.895996,-454.816010,8260.000000,-1540.000000,-840.000000
8897.693026,10112.555040,1240.432410,-1171.544334,7865.042432,8342.229824,7957.556302,-19940.192394,13458.253557,10113.002075,8659.222264,-5510.666133,33761.550040,2577.647874,27319.956102,6918.155482,-276.208008,-837.408020,-458.231995,7840.000000,-1120.000000,-1120.000000
8876.503572,10013.223888,1173.935971,-1241.952329,7770.651015,8320.459225,7894.032645,-20004.006625,13424.211851,10063.425906,8646.794694,-5573.832163,33728.692976,2559.475906,27250.263363,6838.806789,-276.208008,-838.384033,-458.720001,7560.000000,-840.000000,-1260.000000
8869.060441,9958.015079,1143.068211,-1278.743300,7724.561718,8308.478690,7860.348566,-20032.795672,13399.826097,10036.782627,8634.389476,-5619.832053,33705.067182,2545.997804,27209.985520,6778.524134,-276.696014,-836.919983,-457.256012,7280.000000,-420.000000,-1400.000000
8858.264549,9903.923858,1110.546423,-1313.388504,7681.802831,8299.560344,7835.627536,-20063.283451,13374.702737,10007.434786,8628.019229,-5665.586074,33686.939917,2533.771400,27174.088618,6719.962564,-273.768005,-838.384033,-459.696014,7000.000000,-280.000000,-1260.000000
8852.050764,9853.565377,1083.679626,-1349.933606,7644.810694,8288.809155,7809.341885,-20097.012233,13359.749420,9990.916847,8622.431293,-5701.885307,33673.193595,2527.915243,27138.035254,6678.388319,-270.839996,-839.848022,-458.720001,6860.000000,0.000000,-1120.000000
8867.987557,9871.335014,1107.327772,-1339.294176,7676.349005,8291.469013,7815.019228,-20086.730431,13376.714394,10024.779740,8623.839453,-5686.887287,33683.095417,2540.566330,27146.350103,6701.298857,-271.328003,-840.335999,-457.744019,6160.000000,420.000000,-1120.000000
8917.854299,10016.397836,1215.443160,-1243.718117,7815.600373,8318.022885,7889.584647,-19994.551837,13441.333287,10123.507395,8640.491502,-5587.623189,33729.788212,2572.708139,27230.638532,6817.349114,-272.791992,-837.895996,-461.648010,5600.000000,140.000000,-700.000000
8949.191445,10171.071907,1308.493472,-1138.128476,7942.379468,8347.370726,7979.550419,-19899.914551,13500.967741,10186.829887,8657.456476,-5484.380482,33774.737570,2595.126938,27333.501260,6937.735610,-270.839996,-841.799988,-461.648010,5460.000000,140.000000,-140.000000
8922.592869,10170.736631,1282.610152,-1132.741706,7918.574860,8351.774019,7992.246210,-19908.631731,13493.144631,10146.663802,8662.195046,-5478.993711,33774.983439,2587.817918,27358.781082,6944.217616,-272.791992,-843.752014,-458.720001,5040.000000,140.000000,140.000000
8881.420956,10059.179075,1195.818328,-1208.134140,7807.486690,8329.846958,7936.076276,-19987.913369,13443.121426,10073.126563,8649.946290,-5551.301605,33739.377110,2567.366072,27301.940596,6858.945711,-274.743988,-842.288025,-458.231995,4760.000000,140.000000,560.000000
8871.429726,9995.923638,1160.480220,-1252.681166,7754.893035,8315.720655,7901.520479,-20023.229125,13414.868821,10044.561034,8638.390438,-5598.597896,33716.779496,2555.318481,27254.733712,6796.897268,-273.279999,-844.239990,-461.648010,4480.000000,-140.000000,980.000000
8860.700889,9947.487408,1131.355897,-1288.846289,7714.883413,8304.567135,7874.698386,-20045.066779,13388.717280,10017.180147,8628.622726,-5640.663879,33697.288775,2542.354470,27209.314967,6740.637927,-275.720001,-844.239990,-456.279999,4060.000000,-140.000000,1680.000000
8847.133380,9886.802421,1092.620324,-1331.828693,7663.899084,8293.413614,7838.376801,-20079.041431,13362.185760,9986.781774,8619.994953,-5688.451909,33675.495824,2531.558577,27160.252888,6686.993740,-273.768005,-844.728027,-460.183990,3920.000000,-420.000000,1960.000000
8851.715487,9871.066793,1091.346275,-1341.797571,7656.970043,8291.156088,7824.429312,-20088.093887,13361.358745,9998.516440,8617.268040,-5698.309028,33674.311182,2536.878292,27147.244173,6683.529220,-271.816010,-843.264038,-458.720001,3500.000000,-280.000000,2520.000000
8892.753290,9975.985882,1175.992331,-1272.216591,7762.894960,8309.417463,7874.810144,-20024.302009,13413.348903,10083.207200,8627.683953,-5624.503568,33709.693993,2566.628464,27205.939854,6771.259817,-274.256012,-846.679993,-462.136017,3500.000000,-560.000000,2940.000000
8943.737619,10147.177893,1287.192260,-1153.707642,7914.305677,8343.548577,7968.665119,-19920.232286,13489.255427,10174.312910,8651.041526,-5507.223965,33764.344008,2596.624505,27311.685957,6902.755130,-274.256012,-845.216003,-461.160004,3080.000000,-560.000000,3080.000000
8943.335288,10205.806518,1308.225251,-1107.886566,7949.464971,8358.971281,8006.216050,-19892.538475,13509.573163,10178.358576,8663.849075,-5463.191028,33785.533462,2598.591459,27361.195071,6952.331299,-274.743988,-845.216003,-460.183990,3500.000000,-560.000000,3500.000000
8891.881572,10092.393767,1214.280869,-1181.736729,7833.861748,8336.977164,7950.023764,-19972.334203,13452.352697,10092.349063,8654.461343,-5530.581538,33749.904782,2571.009406,27307.774402,6874.681339,-276.208008,-841.312012,-463.600006,3360.000000,-560.000000,3780.000000
8867.182895,10005.937219,1154.087621,-1242.108791,7761.911483,8318.112292,7904.023874,-20021.508041,13404.989350,10046.170359,8641.117351,-5590.171288,33718.031194,2554.156191,27254.577250,6805.212117,-274.256012,-841.799988,-463.112000,3360.000000,-700.000000,3920.000000
8849.189740,9951.734239,1118.168368,-1278.005693,7722.125378,8306.154109,7878.185258,-20040.484672,13370.835885,10012.061597,8629.807368,-5638.182835,33694.114827,2540.856903,27215.931084,6756.105334,-273.279999,-840.335999,-463.600006,3640.000000,-560.000000,4060.000000
8827.687362,9886.511849,1076.325903,-1323.715010,7667.274197,8290.753757,7841.193121,-20072.246501,13339.923422,9976.835248,8616.552784,-5693.682217,33670.243164,2525.076571,27165.796121,6701.321209,-275.231995,-841.312012,-464.576019,3640.000000,-840.000000,4200.000000
8832.001249,9849.027973,1060.947902,-1355.186266,7638.060467,8282.349501,7810.682989,-20097.101640,13337.688248,9974.644777,8608.662618,-5720.928993,33660.922487,2524.249557,27132.156745,6673.761508,-276.208008,-839.848022,-461.160004,3640.000000,-840.000000,4200.000000
8872.480258,9918.139567,1120.403543,-1313.768484,7706.903840,8294.553553,7834.644059,-20060.042448,13382.503496,10040.649479,8616.262211,-5672.224542,33684.592984,2547.540074,27165.170272,6729.283241,-277.183990,-840.824036,-463.600006,3640.000000,-980.000000,4340.000000
8932.785265,10092.125546,1242.511123,-1201.093340,7860.929711,8327.432970,7922.151139,-19953.692848,13465.361412,10150.776523,8637.742238,-5554.162628,33740.494697,2580.017159,27263.853224,6863.930150,-276.696014,-837.408020,-466.040009,3780.000000,-840.000000,4200.000000
8957.103963,10210.008646,1309.186376,-1120.314136,7946.805113,8351.908130,7989.251076,-19886.950539,13514.222326,10192.574286,8659.669299,-5471.841153,33776.570413,2594.232868,27344.207745,6956.064040,-280.600006,-839.359985,-464.088013,4060.000000,-700.000000,4200.000000
8914.501538,10144.428628,1243.405192,-1160.882552,7867.568179,8342.140417,7963.658328,-19939.477138,13479.644177,10122.412160,8658.171732,-5507.514537,33759.493680,2574.295112,27330.819050,6913.796891,-280.112000,-839.848022,-464.576019,3780.000000,-700.000000,4200.000000
8881.555066,10040.917699,1170.158526,-1227.870730,7777.490649,8320.906260,7913.009276,-20010.086299,13431.364409,10065.817543,8643.553691,-5575.061509,33728.581217,2556.279606,27278.560672,6835.498731,-280.112000,-840.335999,-464.576019,3780.000000,-980.000000,3920.000000
8869.798049,9982.423184,1134.149865,-1267.232152,7734.575300,8308.121062,7885.315464,-20039.814119,13398.619103,10034.502749,8631.193177,-5623.274222,33704.374278,2543.449705,27235.913543,6783.061538,-283.040009,-841.799988,-464.088013,3640.000000,-980.000000,3640.000000
8853.973014,9922.028771,1095.458996,-1308.113493,7687.301360,8297.034597,7853.866560,-20063.685782,13366.812571,9999.723434,8619.749083,-5672.023376,33681.754313,2529.971603,27190.763019,6731.093732,-280.600006,-839.359985,-461.160004,3640.000000,-980.000000,3780.000000
8846.820455,9870.776221,1065.418251,-1342.579882,7645.682412,8287.222181,7823.490539,-20089.323233,13347.925347,9982.914923,8611.702455,-5708.926107,33668.075045,2526.887062,27153.547365,6687.932514,-281.088013,-841.312012,-463.600006,3360.000000,-1120.000000,3360.000000
8865.551217,9890.110480,1089.133452,-1329.079429,7673.331520,8288.652693,7829.234937,-20079.890797,13367.170199,10015.056731,8612.462415,-5692.005836,33678.826234,2539.940481,27161.906917,6706.953848,-284.503998,-843.264038,-461.160004,3500.000000,-1400.000000,3220.000000
8921.095302,10037.877862,1201.942706,-1229.144779,7816.919126,8315.564193,7904.023874,-19990.975558,13436.393551,10116.980686,8630.544976,-5590.461861,33726.681319,2574.742147,27248.184651,6823.562899,-283.528015,-840.824036,-456.768005,3500.000000,-1400.000000,2800.000000
8957.796867,10184.706472,1298.725760,-1128.696040,7940.256052,8343.369763,7984.445451,-19906.709481,13496.318578,10186.427556,8653.880197,-5490.303694,33773.977610,2594.121110,27342.687826,6937.221520,-281.088013,-842.776001,-456.279999,3360.000000,-1820.000000,2660.000000
8930.550090,10176.101050,1270.607265,-1130.081848,7910.394121,8344.397944,7989.765166,-19920.478156,13483.756898,10146.149712,8658.596415,-5490.191935,33774.245831,2581.805299,27358.445806,6939.389639,-282.063995,-841.312012,-460.183990,3220.000000,-1960.000000,2240.000000
8878.872857,10050.931281,1178.003988,-1212.135102,7790.968751,8318.648734,7926.442674,-20000.698567,13421.395531,10066.644557,8644.626575,-5570.054718,33736.851363,2555.653758,27293.826913,6851.010841,-277.183990,-843.264038,-458.720001,3500.000000,-2100.000000,2100.000000
8865.238293,9979.852734,1137.592034,-1260.347815,7735.312907,8303.427196,7888.020025,-20036.237840,13389.097260,10036.514406,8633.294241,-5622.111931,33712.420906,2543.025022,27242.328494,6788.828288,-279.623993,-841.799988,-457.256012,3500.000000,-2380.000000,1820.000000
8855.627043,9928.935460,1106.053723,-1297.988152,7694.431567,8295.827603,7859.901531,-20057.337887,13368.935987,10010.586382,8621.358409,-5666.927179,33691.164397,2530.731562,27195.188665,6733.820645,-283.040009,-844.239990,-453.839996,3640.000000,-2660.000000,1540.000000
8835.890452,9864.584787,1066.155859,-1340.076487,7646.621185,8284.964655,7825.792769,-20090.977262,13342.985611,9975.225922,8613.468243,-5715.341057,33670.109054,2521.634402,27150.395769,6678.701243,-278.160004,-846.679993,-456.768005,3780.000000,-2660.000000,1260.000000
8831.665973,9844.714087,1062.445469,-1352.660519,7645.704764,8282.461260,7811.599411,-20100.968492,13335.564832,9982.244370,8610.294296,-5726.204005,33667.337438,2527.289394,27139.242248,6672.576865,-278.160004,-843.752014,-454.328003,3920.000000,-2660.000000,980.000000
8878.135249,9949.253195,1144.096392,-1285.694693,7752.367288,8299.493289,7856.615824,-20035.790805,13389.276074,10068.164476,8615.681066,-5652.331490,33700.485075,2555.385537,27193.936967,6758.027584,-275.231995,-842.776001,-455.304016,4060.000000,-2800.000000,980.000000
8933.947555,10123.015657,1256.905646,-1170.113822,7902.235735,8331.344525,7947.140389,-19931.430510,13468.468305,10158.376117,8637.071685,-5536.772971,33754.688055,2585.001598,27298.878407,6891.780423,-277.183990,-844.239990,-454.328003,4480.000000,-2520.000000,980.000000
8937.523834,10190.584980,1284.174774,-1121.521130,7938.870244,8348.041278,7991.285085,-19898.998129,13495.446860,10164.209922,8649.767476,-5488.493203,33775.162253,2588.287304,27354.623658,6947.905653,-276.208008,-842.776001,-454.816010,4760.000000,-2240.000000,840.000000
8889.378177,10089.197467,1196.399474,-1186.855279,7823.825815,8331.925670,7940.479569,-19976.201055,13450.363392,10083.765994,8643.665450,-5548.664099,33742.707520,2564.035662,27309.562541,6875.798926,-274.743988,-844.239990,-456.768005,4620.000000,-1960.000000,700.000000
8869.351014,10006.384254,1143.135267,-1242.734640,7748.187512,8313.686647,7894.323217,-20029.822890,13413.415958,10045.656269,8634.009496,-5603.716445,33715.348985,2549.931711,27255.851299,6804.563916,-273.768005,-844.239990,-455.791992,5320.000000,-1540.000000,560.000000
8859.851522,9955.042297,1116.559043,-1274.183544,7711.061264,8304.164804,7872.463211,-20047.301954,13384.045766,10019.616487,8622.475996,-5644.977766,33694.450104,2538.509970,27218.635645,6755.255968,-274.743988,-841.312012,-454.328003,5460.000000,-1120.000000,560.000000
8847.066325,9893.642055,1079.745719,-1312.986173,7662.088592,8293.592428,7843.137722,-20077.029774,13358.497722,9987.340568,8613.423540,-5689.681255,33671.427807,2527.043525,27176.189682,6702.639962,-275.720001,-842.288025,-452.864014,5880.000000,-840.000000,700.000000
8846.127551,9856.828732,1061.774917,-1340.903502,7634.059505,8285.299931,7817.589678,-20100.946140,13353.826207,9984.166620,8609.690798,-5712.189461,33660.587211,2524.204853,27144.025522,6673.202714,-273.279999,-843.264038,-453.839996,6160.000000,-420.000000,840.000000
8875.453040,9915.904393,1114.435627,-1303.464330,7698.276067,8295.447623,7844.501179,-20063.909300,13389.343129,10042.370563,8615.770473,-5667.173048,33682.022534,2545.841342,27174.334487,6725.036410,-273.279999,-841.312012,-457.256012,6300.000000,-280.000000,840.000000
8925.051561,10084.749470,1229.413000,-1189.872764,7854.715926,8328.617612,7936.947994,-19956.777389,13458.566482,10142.528730,8633.897738,-5553.805000,33736.471383,2580.620656,27275.878462,6862.119658,-273.279999,-844.239990,-452.864014,6580.000000,280.000000,980.000000
8939.423733,10197.044634,1288.868641,-1111.351086,7942.893558,8351.170522,8005.634905,-19890.459763,13497.167945,10179.163239,8649.253386,-5474.076328,33770.177814,2592.981171,27355.718893,6954.432363,-273.279999,-843.752014,-456.768005,6440.000000,560.000000,1260.000000
8894.899058,10133.744494,1223.936823,-1149.818438,7867.143496,8341.715734,7981.204448,-19938.895993,13464.132066,10109.269334,8645.922976,-5504.899383,33751.603514,2573.870429,27338.575105,6916.546156,-270.839996,-842.776001,-453.839996,6580.000000,840.000000,1680.000000
8862.220807,10027.216080,1151.517171,-1227.311936,7764.906617,8319.095769,7916.630258,-20006.398261,13416.254630,10052.205330,8633.830682,-5575.285026,33718.210008,2552.457458,27265.529605,6829.396704,-272.791992,-846.192017,-455.304016,6300.000000,980.000000,1960.000000
8849.234444,9967.514571,1118.302479,-1267.768594,7716.850366,8305.684722,7881.649778,-20033.689741,13386.213885,10021.918717,8625.806406,-5622.894242,33695.075952,2539.135818,27221.206095,6767.236503,-274.743988,-845.216003,-453.839996,6300.000000,1260.000000,2100.000000
8833.007077,9911.344637,1083.299647,-1303.866661,7673.487982,8292.720710,7853.911263,-20063.082285,13357.938928,9990.335702,8616.709246,-5669.341167,33672.053656,2525.098923,27183.968089,6709.904279,-276.696014,-843.752014,-454.328003,5740.000000,1260.000000,2380.000000
8830.928365,9859.667404,1055.851705,-1339.964728,7633.947746,8281.164858,7826.083341,-20095.738184,13341.376286,9974.778888,8605.354560,-5702.980543,33656.161565,2519.890966,27147.825318,6672.532162,-276.208008,-849.119995,-453.352020,5880.000000,1260.000000,2660.000000
8856.387002,9879.113421,1082.047949,-1329.302946,7662.267406,8283.131812,7826.776245,-20086.328100,13364.577396,10011.413397,8609.579040,-5682.193420,33668.298563,2533.637289,27153.413254,6697.208488,-276.696014,-844.239990,-455.304016,5320.000000,980.000000,2800.000000
8913.987447,10026.746693,1191.504442,-1232.810465,7803.619838,8310.110368,7896.044302,-19993.635415,13435.946517,10117.718293,8627.236918,-5582.258771,33717.651214,2565.220304,27233.991293,6815.225698,-278.160004,-844.728027,-458.720001,4900.000000,1120.000000,3080.000000
8943.178826,10175.050518,1283.034835,-1128.807798,7930.086008,8341.246348,7983.171401,-19899.065184,13489.635407,10184.192381,8644.850093,-5483.799336,33763.740511,2588.689636,27331.802527,6938.406162,-275.720001,-844.728027,-458.720001,4760.000000,840.000000,2940.000000
8916.781416,10174.827000,1261.107774,-1120.761170,7908.583630,8344.554406,7996.202468,-19906.910647,13480.314729,10147.066134,8649.566311,-5477.920828,33766.042741,2580.017159,27355.294210,6951.347822,-276.696014,-845.216003,-458.231995,4620.000000,700.000000,3080.000000
8870.803877,10057.078011,1170.292636,-1199.729884,7789.091204,8317.844071,7932.477645,-19991.310834,13423.697761,10069.080897,8637.429313,-5553.670890,33729.296473,2554.893798,27292.485808,6862.812562,-277.671997,-844.239990,-451.888000,4480.000000,700.000000,3080.000000
8855.381174,9993.956684,1131.400601,-1241.907625,7736.743419,8300.856745,7894.010293,-20027.699474,13390.214847,10038.235490,8623.884156,-5604.297591,33705.514217,2541.169827,27245.748311,6801.837003,-277.183990,-845.216003,-461.648010,4340.000000,700.000000,3080.000000
8847.960394,9945.453399,1105.383170,-1272.082480,7698.566639,8293.234800,7868.529304,-20049.112445,13367.393716,10013.201536,8615.211679,-5645.648318,33686.358772,2529.613975,27207.504476,6753.847808,-276.696014,-843.264038,-457.744019,4340.000000,420.000000,2800.000000
8835.264604,9879.985139,1067.474612,-1317.568280,7644.386011,8282.573018,7836.052219,-20077.879140,13341.644507,9982.736109,8606.427444,-5694.352769,33664.163490,2518.952193,27162.644525,6701.634133,-278.160004,-845.216003,-458.231995,4200.000000,280.000000,2660.000000
8838.438551,9860.226197,1062.959559,-1337.997775,7631.623165,8277.074489,7815.488614,-20087.266873,13339.051704,9993.196725,8604.438139,-5706.087435,33660.967190,2520.494464,27142.080920,6689.899467,-277.671997,-844.728027,-460.671997,3920.000000,-140.000000,2660.000000
8880.191610,9965.994652,1145.213979,-1274.138841,7733.189491,8293.324207,7860.057993,-20022.893849,13392.405318,10074.802944,8614.697589,-5636.707620,33693.153702,2546.578949,27197.401488,6773.651454,-277.183990,-844.728027,-456.768005,3780.000000,-280.000000,2380.000000
8930.863015,10145.121532,1259.029062,-1154.668767,7889.428185,8328.237632,7955.209369,-19915.694882,13471.597549,10170.691928,8636.065857,-5518.913927,33748.988360,2577.960798,27306.857980,6908.521880,-278.160004,-847.656006,-454.816010,3920.000000,-420.000000,2100.000000
8928.940765,10209.874536,1279.838536,-1103.282106,7933.327011,8344.487351,7999.979913,-19878.769801,13491.155325,10174.134096,8647.912282,-5469.494220,33770.870718,2581.693540,27364.927812,6964.088316,-276.696014,-847.656006,-456.279999,3780.000000,-140.000000,1680.000000
8878.090546,10100.820375,1186.855279,-1171.253761,7819.489577,8327.052990,7949.152046,-19952.776426,13440.103941,10090.203296,8639.016287,-5532.079104,33737.611322,2557.933635,27317.989149,6888.159441,-279.136017,-848.143982,-455.304016,3640.000000,-560.000000,1400.000000
8860.097392,10018.901231,1134.708659,-1226.060239,7748.880416,8311.339713,7903.710950,-20003.783107,13403.782356,10049.165493,8628.756837,-5588.070224,33709.783400,2546.735411,27262.132139,6816.589155,-279.623993,-845.703979,-452.864014,3640.000000,-700.000000,980.000000
8853.593034,9971.113202,1110.144092,-1258.582027,7714.548137,8302.019036,7879.571066,-20024.860802,13380.938873,10027.417246,8620.889022,-5627.655164,33691.879653,2536.721830,27222.278979,6765.917750,-279.623993,-843.752014,-454.816010,3360.000000,-1260.000000,700.000000
8842.193644,9918.005457,1075.454184,-1296.110606,7671.185752,8291.848992,7851.273757,-20050.162977,13358.676536,9999.209344,8614.943458,-5669.318815,33674.244127,2525.434199,27183.409295,6716.833319,-277.183990,-844.728027,-452.864014,3500.000000,-1400.000000,140.000000
8829.654316,9875.648901,1048.274463,-1326.307812,7641.010897,8283.601199,7826.262155,-20073.252329,13341.108065,9983.160792,8611.098958,-5702.086473,33663.224717,2522.819045,27156.363685,6689.720653,-280.112000,-846.192017,-456.279999,3500.000000,-1680.000000,-140.000000
8852.922482,9927.616707,1091.323923,-1296.602344,7698.030197,8290.217315,7844.501179,-20042.943364,13369.405373,10037.184958,8613.311781,-5667.910655,33683.497749,2539.627557,27178.804836,6739.229767,-278.160004,-844.239990,-455.791992,3080.000000,-2240.000000,-560.000000
8912.489881,10095.701825,1205.764855,-1189.313971,7851.117295,8319.743969,7926.889709,-19943.187528,13447.994107,10141.388791,8630.209700,-5554.050869,33735.152630,2571.545848,27270.536395,6868.087574,-275.231995,-844.239990,-456.768005,3220.000000,-2660.000000,-700.000000
8936.585061,10214.724864,1270.473155,-1107.283069,7943.564110,8344.800275,7994.391977,-19875.394687,13494.932770,10184.348844,8646.817046,-5472.265836,33769.864889,2585.962723,27351.405007,6958.679194,-274.256012,-842.776001,-455.791992,3080.000000,-2800.000000,-700.000000
8900.665808,10154.576320,1210.279907,-1139.424877,7871.055051,8339.346449,7975.549457,-19919.002941,13465.763744,10122.210994,8645.163017,-5501.680732,33752.989322,2568.617769,27342.419606,6924.011639,-275.720001,-841.312012,-454.816010,3080.000000,-3220.000000,-560.000000
8870.178028,10047.399705,1138.173179,-1208.223547,7777.356538,8319.006362,7923.112264,-19988.405107,13419.875612,10066.175171,8635.797636,-5567.372509,33719.573464,2550.624615,27284.752105,6841.623109,-273.279999,-842.288025,-451.399994,2520.000000,-3220.000000,-420.000000
8861.304386,9991.833269,1104.310287,-1247.987300,7733.614175,8308.366931,7892.356264,-20018.088224,13392.450022,10038.615470,8625.560537,-5612.321867,33695.835912,2537.884121,27239.534526,6785.296713,-273.279999,-842.288025,-451.888000,2240.000000,-2940.000000,-280.000000
8846.418124,9935.216300,1065.150030,-1288.756882,7684.887372,8297.727501,7859.230978,-20046.586698,13364.979728,10005.221964,8615.278735,-5658.791144,33675.004086,2524.003687,27193.668746,6730.870215,-273.768005,-844.239990,-454.328003,2100.000000,-2800.000000,-280.000000
8837.231557,9878.889904,1031.108323,-1327.783028,7638.306336,8285.545800,7823.624649,-20078.326175,13349.266452,9985.887705,8608.640266,-5699.627781,33658.977885,2516.694667,27153.167385,6686.636113,-273.768005,-840.824036,-451.888000,1540.000000,-2940.000000,0.000000
8849.346203,9887.830602,1047.626263,-1323.580900,7657.618243,8287.043367,7821.277716,-20071.330079,13363.057478,10012.933315,8608.036769,-5689.591848,33666.175147,2526.752952,27154.754359,6703.668142,-270.839996,-843.264038,-452.376007,1400.000000,-3080.000000,-140.000000
8902.006912,10030.770007,1158.446212,-1224.205044,7799.954152,8314.893641,7894.993770,-19982.168970,13430.939726,10114.432587,8622.297182,-5589.858364,33712.867941,2562.515743,27240.585058,6821.551242,-270.839996,-846.192017,-453.839996,1260.000000,-3360.000000,-280.000000
8939.423733,10186.606370,1259.073765,-1111.976935,7932.388238,8347.571891,7985.428928,-19888.604568,13493.993997,10186.695777,8642.167883,-5484.425185,33760.141881,2588.019084,27346.062940,6945.961052,-266.936005,-846.679993,-455.304016,1120.000000,-3920.000000,-140.000000
8910.589982,10185.466431,1239.940672,-1105.673743,7910.461177,8350.477618,7997.253000,-19896.517086,13482.259331,10152.229387,8647.755819,-5478.412566,33761.840613,2577.625522,27368.682905,6954.030031,-267.424011,-849.119995,-457.744019,1120.000000,-4200.000000,-140.000000
8862.444325,10059.357889,1147.136229,-1191.862070,7786.587809,8323.029676,7929.571918,-19980.000851,13423.943630,10071.494886,8635.328249,-5555.324919,33722.590950,2549.998766,27300.375974,6860.912664,-269.864014,-850.096008,-454.816010,1400.000000,-4340.000000,140.000000
8856.409354,9991.140365,1107.774807,-1242.287605,7729.657916,8307.338751,7886.991845,-20017.194154,13400.831926,10043.912833,8627.303973,-5603.515280,33699.926281,2536.185388,27243.334322,6794.840907,-270.351990,-849.119995,-458.720001,1820.000000,-4760.000000,-280.000000
8850.776714,9945.028716,1084.394882,-1276.865754,7695.169174,8297.347521,7860.527380,-20034.717922,13380.782411,10018.968286,8617.849185,-5643.346088,33680.904946,2524.495426,27198.899054,6745.443552,-269.864014,-848.632019,-454.328003,2100.000000,-5040.000000,-140.000000
8838.483255,9882.108555,1046.933359,-1323.022106,7644.542473,8285.344635,7824.719885,-20068.312593,13356.374306,9989.396928,8610.406054,-5689.636551,33660.095472,2514.012458,27149.546403,6690.413557,-269.864014,-847.168030,-454.328003,2660.000000,-4900.000000,0.000000
8844.875854,9863.914235,1045.569902,-1332.745115,7642.463761,8282.930646,7812.940516,-20079.130838,13358.922405,10000.393987,8610.137833,-5697.102034,33659.022589,2523.757818,27140.337484,6682.746909,-268.399994,-848.143982,-454.816010,3500.000000,-5040.000000,0.000000
8881.309197,9963.401850,1124.359801,-1263.566466,7748.098105,8299.694455,7862.047298,-20017.708244,13405.726958,10077.149877,8620.821967,-5630.627946,33692.103170,2550.915188,27201.581264,6765.515419,-267.912018,-845.216003,-457.744019,3780.000000,-4900.000000,0.000000
8923.464587,10132.448093,1232.989279,-1146.979767,7898.838270,8332.350353,7956.170494,-19912.476231,13471.351680,10164.120515,8640.715020,-5520.076218,33744.406252,2579.570124,27309.204913,6900.296438,-270.839996,-841.799988,-454.328003,4200.000000,-4480.000000,140.000000
8928.024343,10202.811385,1260.236056,-1094.520222,7941.418343,8352.533979,8006.305457,-19873.584196,13491.870581,10173.284730,8646.057087,-5468.398984,33766.981514,2585.672150,27371.074542,6962.344880,-268.888000,-842.776001,-455.304016,4620.000000,-4060.000000,280.000000
8880.996273,10099.389863,1171.857258,-1163.251837,7827.715019,8335.948984,7957.042212,-19949.535423,13442.093246,10090.806793,8636.736409,-5531.006221,33736.359624,2560.414679,27326.371053,6890.349911,-268.888000,-839.359985,-454.816010,4760.000000,-3780.000000,560.000000
8860.767944,10014.095606,1116.983726,-1227.021364,7751.942605,8317.441740,7907.264877,-20004.721881,13406.643380,10054.574615,8624.711171,-5590.998303,33708.442296,2542.063897,27268.547090,6815.516271,-269.864014,-842.776001,-454.816010,5180.000000,-3360.000000,980.000000
8857.795162,9964.452382,1087.032388,-1262.582989,7713.385846,8307.875193,7880.308673,-20027.185384,13387.487935,10033.474569,8617.402150,-5635.254757,33690.516197,2527.781132,27223.463622,6763.056727,-271.816010,-839.848022,-455.791992,5040.000000,-2940.000000,1260.000000
8847.155732,9900.012302,1045.234626,-1308.381713,7658.512313,8293.994760,7841.371935,-20060.221262,13362.364574,10000.505745,8609.847261,-5687.379025,33669.840833,2511.866690,27171.317002,6704.808081,-275.231995,-838.872009,-455.791992,4900.000000,-2240.000000,1540.000000
8845.032316,9867.758735,1028.604928,-1331.381658,7638.328688,8288.652693,7820.696571,-20078.326175,13351.434571,9996.437728,8604.952229,-5711.116578,33660.922487,2514.303030,27147.266525,6683.752737,-274.743988,-837.895996,-454.816010,4900.000000,-1820.000000,2100.000000
8866.311177,9921.514681,1078.650484,-1294.993019,7700.600648,8300.342655,7844.992917,-20043.122177,13377.206132,10047.355002,8608.416749,-5671.151658,33680.592022,2537.995879,27178.022525,6738.670974,-278.648010,-838.872009,-461.160004,4620.000000,-1120.000000,2380.000000
8918.457796,10084.928284,1198.522889,-1182.831965,7855.542941,8331.813911,7933.684639,-19939.924173,13449.983412,10145.747381,8627.058104,-5559.683509,33732.693938,2574.116298,27282.718096,6868.713423,-282.552002,-840.824036,-457.256012,4480.000000,-140.000000,2660.000000
8943.737619,10207.169975,1269.489678,-1093.983781,7954.449410,8354.836208,8010.194660,-19872.310146,13500.990093,10189.936780,8644.358354,-5475.484487,33767.629715,2587.393235,27374.226138,6960.176761,-284.503998,-841.312012,-456.279999,4340.000000,280.000000,2940.000000
8903.862107,10147.334355,1207.642401,-1128.785447,7878.721700,8343.325060,7987.194715,-19925.283781,13470.681127,10121.786311,8643.620747,-5505.212308,33748.764843,2565.287359,27359.518690,6919.898918,-287.432007,-839.848022,-458.720001,4200.000000,1400.000000,2800.000000
8868.747517,10039.934223,1133.814589,-1203.350866,7777.714166,8319.408693,7924.967459,-19997.479915,13420.032074,10063.671775,8633.160130,-5574.726233,33715.170171,2545.595473,27294.676279,6834.112922,-287.920013,-839.359985,-460.183990,4200.000000,1820.000000,2940.000000
8863.003118,9986.982940,1106.031371,-1239.337175,7735.335259,8308.813966,7896.290171,-20018.468203,13393.098222,10038.101380,8623.951211,-5618.155672,33695.120656,2534.687821,27251.649171,6778.792355,-290.847992,-840.335999,-460.671997,4060.000000,2100.000000,2940.000000
8853.973014,9931.416503,1072.481402,-1276.441071,7687.256657,8297.883963,7866.204723,-20041.624611,13368.645414,10006.518365,8612.842394,-5663.619121,33672.992429,2520.740333,27204.509342,6720.990744,-290.360016,-840.335999,-462.136017,4060.000000,2240.000000,2660.000000
8845.993441,9876.632378,1042.395954,-1316.808321,7639.580386,8286.216353,7830.330173,-20074.280509,13348.640603,9984.412489,8605.667484,-5704.075778,33654.082853,2512.313725,27161.705752,6671.928665,-289.384003,-838.872009,-456.768005,4060.000000,1960.000000,2660.000000
8859.963281,9888.769375,1062.065490,-1313.075580,7657.171209,8284.629379,7825.613955,-20071.799466,13363.280995,10013.939144,8611.367179,-5694.464528,33662.487109,2522.193196,27161.303420,6684.646807,-289.872009,-839.359985,-462.623993,4060.000000,1260.000000,2520.000000
8900.486994,10022.566917,1164.928218,-1225.724962,7788.666521,8308.344580,7892.132746,-19986.639319,13420.054426,10107.481194,8627.348677,-5603.403521,33706.408287,2550.959891,27238.416939,6798.461890,-287.432007,-838.384033,-457.256012,3920.000000,560.000000,2100.000000
8938.149683,10173.128268,1261.174829,-1121.878758,7919.915965,8340.642850,7979.796288,-19890.280949,13482.102869,10180.638454,8642.503159,-5497.746825,33752.162308,2574.473926,27340.720873,6923.989287,-285.480011,-836.919983,-458.720001,3780.000000,-420.000000,1820.000000
8921.162357,10183.141849,1244.031041,-1109.942926,7906.661380,8347.214263,7998.147070,-19891.175019,13480.739412,10147.870797,8645.922976,-5483.128784,33756.118567,2568.170734,27369.934603,6940.954261,-284.015991,-838.872009,-456.768005,3780.000000,-1400.000000,1120.000000
8878.247008,10069.393822,1156.211037,-1185.558878,7790.231143,8325.130740,7940.121942,-19971.484837,13426.894060,10070.936092,8632.221357,-5553.357965,33721.339252,2546.288377,27311.864771,6856.084687,-280.600006,-839.359985,-455.304016,3500.000000,-2380.000000,700.000000
8866.333528,10000.639856,1116.782560,-1231.938747,7734.552948,8311.563231,7902.436900,-20011.047424,13392.561781,10039.598947,8623.258307,-5604.632867,33697.400534,2532.698516,27260.589869,6790.661131,-277.671997,-840.824036,-455.791992,3500.000000,-3080.000000,0.000000
8860.075040,9947.979146,1091.122757,-1265.175791,7697.694921,8301.862574,7876.285359,-20032.415692,13367.706641,10016.084911,8615.077569,-5648.576397,33676.926336,2521.969679,27217.451002,6736.368744,-276.696014,-839.848022,-460.183990,3360.000000,-3640.000000,-420.000000
8848.228615,9886.489497,1056.678719,-1307.979382,7648.454028,8290.574943,7840.075533,-20064.959832,13344.416123,9988.055824,8606.382740,-5695.045673,33657.256801,2512.291373,27171.965202,6679.952941,-272.791992,-840.824036,-458.720001,3360.000000,-4060.000000,-1400.000000
8853.391868,9873.860761,1057.461030,-1320.965746,7640.362697,8286.328111,7823.177615,-20078.773210,13348.931175,9998.561144,8606.360389,-5705.640400,33656.675655,2518.214586,27159.627039,6668.464144,-274.743988,-845.216003,-458.231995,3360.000000,-4340.000000,-2100.000000
8892.462718,9975.471792,1138.553159,-1253.530533,7742.465465,8304.477728,7867.612883,-20017.194154,13397.076833,10077.753374,8617.044522,-5638.763981,33690.493845,2544.880217,27217.227485,6750.584453,-272.304016,-844.239990,-460.183990,3360.000000,-4340.000000,-2520.000000
8939.490788,10146.194416,1252.211780,-1136.697964,7896.178412,8339.569967,7959.746773,-19909.503449,13467.060145,10167.920311,8633.897738,-5524.300697,33741.992264,2572.819897,27323.353568,6888.718234,-271.816010,-842.776001,-457.744019,3360.000000,-3920.000000,-2940.000000
8941.547148,10219.105806,1280.509088,-1086.160670,7940.300756,8357.898397,8006.864251,-19869.762048,13493.524610,10175.117573,8645.453590,-5473.830458,33762.622924,2576.753804,27381.132827,6951.861912,-270.351990,-844.239990,-461.160004,3220.000000,-3500.000000,-3220.000000
8879.744575,10109.783424,1186.385892,-1157.753308,7825.323382,8337.245385,7955.008203,-19941.377037,13436.013572,10083.207200,8635.819988,-5542.651480,33727.128354,2549.819952,27333.344797,6880.604551,-268.888000,-846.192017,-459.208008,3080.000000,-3500.000000,-3500.000000
8852.810723,10018.811824,1127.533749,-1218.080666,7751.629681,8318.022885,7905.901421,-19992.674290,13393.321740,10040.135388,8621.917203,-5606.510413,33696.148836,2534.374897,27277.085457,6808.408416,-270.351990,-846.679993,-457.256012,3220.000000,-2800.000000,-3360.000000
8854.956490,9973.974225,1099.348199,-1250.289530,7720.270183,8309.171594,7879.638121,-20014.579000,13378.211961,10019.348266,8608.863784,-5647.212940,33675.205252,2525.836530,27234.035997,6757.021756,-269.376007,-845.703979,-456.768005,3220.000000,-2660.000000,-3360.000000
8853.101296,9919.435968,1064.300664,-1286.164079,7676.863095,8298.152184,7850.022060,-20045.938497,13361.179931,9993.487298,8602.649999,-5687.311970,33656.943876,2516.538205,27190.964185,6707.534994,-269.376007,-846.679993,-459.208008,3220.000000,-2240.000000,-3220.000000
8853.838903,9876.587674,1045.793420,-1314.439036,7645.168322,8288.831507,7823.781112,-20074.124047,13353.602690,9992.392062,8599.118423,-5714.670505,33648.271400,2513.565423,27159.984667,6679.975293,-269.864014,-846.679993,-456.279999,2940.000000,-2380.000000,-2800.000000
8878.671691,9924.420407,1093.916725,-1286.007617,7698.186660,8294.911181,7840.299051,-20043.591564,13383.285807,10048.897272,8607.008589,-5681.969903,33666.242202,2532.095019,27178.514263,6726.846901,-272.791992,-847.168030,-454.328003,3360.000000,-2100.000000,-2380.000000
8932.695858,10093.511354,1214.638497,-1172.661921,7856.191141,8326.293031,7929.415456,-19938.516013,13456.778342,10155.693907,8629.472092,-5570.255884,33721.205142,2565.354415,27280.058239,6860.845609,-270.839996,-847.168030,-454.816010,3080.000000,-2240.000000,-1820.000000
8952.879483,10218.077626,1281.872545,-1083.076129,7955.902273,8351.908130,8005.679608,-19869.270309,13502.711177,10199.235105,8645.811218,-5485.721586,33759.560735,2577.491412,27371.007487,6954.588825,-273.279999,-849.119995,-457.256012,3080.000000,-2240.000000,-1260.000000
8907.527793,10157.727916,1215.376105,-1117.721333,7879.459307,8343.034487,7986.881791,-19920.589914,13467.328366,10128.447131,8643.397229,-5516.432883,33740.002959,2556.614883,27360.524519,6917.015543,-273.279999,-845.703979,-456.279999,3360.000000,-1960.000000,-700.000000
8870.222732,10049.210197,1137.100296,-1191.482090,7778.809402,8319.855728,7927.493206,-19991.199075,13415.695836,10067.046889,8632.221357,-5585.522125,33704.396630,2538.331156,27301.471210,6836.437504,-271.328003,-847.168030,-456.279999,3360.000000,-2240.000000,0.000000
8861.036165,9991.185068,1099.437606,-1231.603471,7732.608346,8305.997647,7893.205630,-20016.121270,13388.314949,10037.140255,8621.112540,-5632.013754,33680.368505,2527.892891,27257.371218,6781.295750,-271.816010,-845.216003,-455.304016,3080.000000,-2100.000000,560.000000
8851.469618,9939.418428,1072.056719,-1267.209800,7689.760052,8295.380568,7862.829609,-20038.115387,13365.247949,10008.239449,8610.808386,-5674.862048,33660.855432,2518.438103,27216.244008,6729.082075,-272.791992,-845.216003,-455.791992,2940.000000,-2380.000000,1400.000000
8843.937080,9883.226142,1045.189922,-1303.866661,7647.559958,8285.389338,7830.844263,-20066.591509,13347.523015,9988.055824,8603.432310,-5712.971772,33645.991522,2513.185443,27179.587147,6686.479650,-270.839996,-844.239990,-455.304016,3220.000000,-2240.000000,1820.000000
8856.856389,9889.305817,1065.150030,-1299.865699,7668.123563,8286.909257,7828.340868,-20061.450608,13359.503550,10019.147100,8605.041636,-5704.545165,33652.339417,2523.333135,27179.676554,6700.427139,-270.351990,-843.752014,-458.231995,2940.000000,-2100.000000,2520.000000
8907.058407,10027.283135,1170.918485,-1206.904794,7805.072702,8312.993743,7898.905325,-19970.858988,13424.256554,10118.947639,8620.978429,-5611.114873,33698.294604,2556.793696,27258.689971,6812.208213,-273.768005,-842.288025,-455.791992,2800.000000,-2240.000000,2940.000000
8941.100114,10179.945550,1263.968797,-1100.756359,7933.550529,8343.973260,7987.239419,-19874.098286,13483.488677,10187.321626,8638.748066,-5507.738055,33744.786232,2578.832517,27360.502167,6932.371191,-273.279999,-842.776001,-461.648010,2940.000000,-2240.000000,3500.000000
8920.312991,10194.027149,1249.596626,-1085.803042,7924.207500,8350.075287,8004.070282,-19872.064277,13484.092174,10159.113724,8644.894796,-5492.538868,33749.033064,2570.182391,27387.927757,6947.436267,-273.279999,-841.312012,-455.304016,2660.000000,-2520.000000,3780.000000
8876.928255,10077.306339,1163.385947,-1162.044842,7806.927896,8326.449493,7943.206482,-19955.302174,13432.481996,10085.129450,8635.819988,-5563.617416,33712.756182,2546.914225,27328.203896,6858.565731,-271.816010,-840.335999,-456.768005,2520.000000,-2520.000000,3920.000000
8868.009909,10007.501841,1128.271357,-1210.346962,7745.684117,8311.406769,7900.916982,-19998.128116,13403.670598,10056.899197,8627.303973,-5614.601745,33688.862167,2532.407943,27277.599547,6792.024588,-273.768005,-840.824036,-457.744019,2100.000000,-2520.000000,4060.000000
8865.618272,9959.110315,1104.086769,-1244.858056,7703.998113,8301.460242,7872.038528,-20021.150413,13382.123516,10031.909946,8619.100883,-5657.494743,33670.310220,2518.751027,27232.829002,6737.508683,-275.720001,-840.824036,-459.208008,2100.000000,-2800.000000,4060.000000
8852.117819,9897.508907,1067.318149,-1286.141728,7652.522046,8289.502059,7838.063876,-20052.509910,13355.122609,10000.036359,8607.299162,-5704.902793,33649.858373,2505.965830,27187.074982,6684.043310,-275.720001,-837.895996,-457.256012,1960.000000,-2660.000000,4200.000000
8851.357860,9875.246570,1061.886676,-1303.240812,7642.284947,8285.255228,7821.277716,-20061.987050,13349.557024,10005.356074,8602.761758,-5718.403246,33646.416205,2510.235013,27169.864138,6673.962673,-273.279999,-838.872009,-457.744019,1680.000000,-3080.000000,4060.000000
8895.815479,9973.661300,1145.504552,-1238.085477,7745.795875,8303.181327,7867.791697,-19999.044537,13400.966036,10087.565790,8614.652886,-5647.928196,33681.799016,2539.739315,27223.888305,6757.625253,-277.671997,-838.384033,-455.791992,1680.000000,-3360.000000,3780.000000
8944.788151,10144.093352,1262.091251,-1120.761170,7901.542831,8337.178330,7963.323052,-19890.727984,13475.754973,10179.923198,8634.769456,-5529.575709,33733.722119,2569.601246,27330.819050,6894.864964,-277.671997,-839.359985,-456.279999,1260.000000,-3360.000000,3360.000000
8944.363468,10216.468300,1295.060074,-1066.222914,7949.040288,8355.037374,8014.083864,-19848.773759,13499.023139,10186.963998,8646.034735,-5476.378557,33754.285723,2574.026891,27391.772257,6957.695718,-279.136017,-842.776001,-454.328003,1120.000000,-3500.000000,3220.000000
8888.953494,10112.420930,1203.686142,-1129.455999,7837.438028,8337.155978,7967.815753,-19920.142880,13445.647174,10099.881601,8638.792770,-5537.555282,33724.155572,2550.244635,27352.410835,6888.897048,-279.623993,-842.288025,-458.231995,840.000000,-3920.000000,2520.000000
8858.599825,10020.711722,1143.224674,-1188.017570,7759.430439,8319.408693,7920.340648,-19972.647127,13400.407243,10052.026516,8630.969659,-5601.995361,33697.422886,2535.380725,27298.543131,6816.790320,-283.040009,-843.752014,-456.279999,840.000000,-3920.000000,2100.000000
8857.057554,9971.671995,1112.781598,-1223.668602,7721.477177,8308.232821,7892.602133,-19996.183514,13380.693004,10030.479435,8615.882232,-5644.910710,33676.881632,2523.266080,27254.756064,6764.353128,-282.063995,-842.288025,-457.744019,700.000000,-3920.000000,1820.000000
8852.810723,9911.612858,1073.867211,-1266.807469,7674.538514,8296.296989,7857.956929,-20027.073625,13356.866045,9998.181164,8603.052330,-5690.172993,33654.596943,2510.480882,27206.319834,6709.501947,-284.015991,-842.288025,-455.791992,700.000000,-3780.000000,1260.000000
8857.772810,9872.296139,1055.494077,-1297.339952,7647.895235,8289.792632,7832.721809,-20046.653753,13351.367515,9994.627237,8599.565458,-5714.357580,33647.511440,2510.905565,27174.870929,6679.885886,-279.623993,-843.264038,-456.279999,840.000000,-3780.000000,840.000000
8886.226581,9920.151224,1101.337505,-1271.590742,7700.578296,8296.252286,7846.915167,-20020.122232,13387.130307,10049.992508,8607.410921,-5678.818307,33669.527909,2529.144589,27193.489932,6718.576755,-280.600006,-846.192017,-456.768005,700.000000,-3640.000000,420.000000
8936.026268,10084.704767,1221.858111,-1163.117726,7855.632348,8325.801292,7930.153064,-19917.572429,13458.611185,10155.380983,8626.275793,-5567.573675,33722.121563,2560.593493,27287.031983,6847.054582,-280.600006,-844.239990,-454.816010,840.000000,-3640.000000,-140.000000
8954.354698,10210.008646,1292.400216,-1073.286065,7952.616567,8353.718621,8007.467748,-19841.844719,13502.420605,10199.078643,8643.710154,-5481.139479,33757.839651,2575.591514,27377.400086,6947.771543,-284.503998,-848.143982,-451.399994,980.000000,-3360.000000,-420.000000
8915.730884,10156.811494,1235.470323,-1099.974048,7883.214400,8347.571891,7992.939114,-19883.910702,13473.586854,10136.046724,8644.984203,-5507.581593,33742.506354,2558.626540,27374.717876,6919.295421,-284.015991,-841.799988,-454.328003,1540.000000,-2800.000000,-560.000000
8878.179953,10044.784551,1155.719299,-1176.729939,7779.435251,8323.521414,7931.427113,-19957.604403,13420.635572,10070.869037,8631.059066,-5580.872963,33706.944729,2537.660603,27312.468268,6836.236338,-281.575989,-845.703979,-454.816010,1540.000000,-2800.000000,-840.000000
8872.569665,9989.776908,1122.392848,-1217.432465,7734.463541,8311.183251,7897.117185,-19985.231159,13393.679368,10042.839949,8621.514871,-5624.682382,33685.263537,2525.925937,27266.535433,6778.747651,-284.992004,-845.703979,-456.279999,2100.000000,-2520.000000,-840.000000
8866.467639,9938.747876,1089.759301,-1256.525666,7689.022444,8300.856745,7867.121144,-20010.131003,13372.132286,10015.615525,8614.518775,-5667.374214,33664.856394,2514.526548,27223.441270,6721.326020,-283.040009,-844.728027,-455.304016,2380.000000,-2240.000000,-1120.000000
8857.392831,9885.126041,1059.316225,-1295.976495,7646.107095,8287.848030,7834.912280,-20041.199927,13351.903957,9994.761347,8605.667484,-5707.003857,33647.936123,2508.849205,27185.845636,6673.247418,-280.600006,-846.192017,-456.279999,2800.000000,-2100.000000,-1120.000000
8866.847618,9893.396186,1074.403652,-1291.640257,7666.491886,8289.591466,7835.381667,-20036.461358,13361.872835,10019.348266,8602.560592,-5699.046636,33653.479356,2517.991068,27191.142999,6686.658464,-278.160004,-845.216003,-454.816010,3220.000000,-1680.000000,-840.000000
8909.092415,10026.858452,1174.003026,-1203.507328,7797.316646,8313.396074,7902.883935,-19952.418798,13422.379008,10111.616267,8616.955115,-5610.869004,33696.461761,2547.920054,27268.390628,6792.918657,-280.112000,-844.239990,-456.768005,3500.000000,-1540.000000,-700.000000
8940.518968,10187.031053,1270.719024,-1093.916725,7932.477645,8343.034487,7991.799175,-19855.993373,13485.075651,10184.460602,8638.904528,-5506.039322,33745.836764,2570.852944,27370.761618,6915.652086,-278.160004,-843.264038,-460.183990,3780.000000,-1260.000000,-560.000000
8926.884404,10205.247725,1258.693786,-1076.057682,7925.369790,8352.712792,8010.976972,-19855.926318,13491.714119,10161.170085,8643.196063,-5486.548601,33751.514107,2564.125069,27403.216350,6935.612194,-278.648010,-843.752014,-456.279999,3920.000000,-980.000000,-280.000000
8888.327645,10086.939941,1166.828116,-1154.936988,7805.810309,8330.741028,7950.046116,-19940.214746,13442.361467,10083.743642,8632.780151,-5557.381279,33714.946653,2540.968661,27342.240792,6850.541455,-276.696014,-843.264038,-455.304016,4200.000000,-700.000000,-140.000000
8883.007930,10018.968286,1124.762133,-1202.456796,7748.411029,8314.804234,7909.008313,-19981.610177,13416.098167,10057.301528,8623.034790,-5604.789329,33691.209101,2530.843321,27292.463457,6786.235486,-280.600006,-840.824036,-455.791992,4620.000000,-560.000000,280.000000
8875.073060,9969.414469,1099.057627,-1235.023288,7711.530651,8304.522431,7884.555505,-20002.509058,13390.907751,10030.300621,8612.708284,-5644.709545,33671.204289,2519.779208,27253.280849,6733.418314,-276.208008,-840.335999,-457.256012,4480.000000,-560.000000,420.000000
8855.157656,9902.046311,1061.193772,-1279.458556,7658.601720,8290.932571,7850.156170,-20036.416654,13358.944757,9992.861449,8600.213659,-5693.928086,33649.634856,2506.144644,27208.465601,6680.958769,-276.208008,-839.848022,-461.160004,4900.000000,-560.000000,560.000000
8854.531807,9877.884075,1052.856571,-1298.949277,7643.313127,8285.814021,7831.224243,-20050.028867,13357.089562,9996.504783,8597.330284,-5709.306086,33644.650417,2509.050370,27189.511322,6671.593389,-278.648010,-841.312012,-460.183990,4480.000000,-420.000000,840.000000
8891.613351,9967.983957,1127.511397,-1243.628710,7737.570433,8303.069568,7871.591493,-19996.697604,13403.312970,10073.685357,8607.120348,-5647.056478,33674.311182,2535.939519,27237.299351,6749.824494,-275.720001,-838.872009,-456.279999,4480.000000,-280.000000,840.000000
8941.301279,10142.081695,1246.936768,-1122.258737,7901.140499,8339.346449,7971.816715,-19886.727022,13478.347776,10173.642358,8627.862767,-5530.335668,33730.034081,2570.160040,27352.053207,6891.780423,-279.136017,-839.359985,-457.256012,4620.000000,-420.000000,1120.000000
8948.096210,10223.397341,1283.347760,-1061.752565,7959.210331,8358.703060,8025.349143,-19839.341323,13510.243715,10188.170992,8643.531340,-5472.623464,33757.660837,2577.223191,27415.509810,6962.166066,-276.208008,-840.824036,-456.768005,4480.000000,-560.000000,1120.000000
8904.040921,10127.821282,1201.272154,-1124.650374,7852.346641,8342.296880,7977.583465,-19907.625903,13467.909511,10110.342218,8640.312688,-5529.285136,33730.726985,2554.759688,27371.946260,6894.484984,-276.208008,-840.335999,-455.304016,4060.000000,-700.000000,1260.000000
8879.409299,10034.122769,1145.862180,-1187.257610,7771.321567,8322.001496,7925.973287,-19968.065020,13424.770644,10067.337461,8628.354505,-5592.652332,33699.792170,2538.577025,27317.765631,6813.728132,-276.696014,-838.872009,-457.744019,3920.000000,-700.000000,1540.000000
8869.149848,9980.702100,1115.776731,-1221.724000,7733.547119,8309.573926,7901.006389,-19995.892941,13394.729900,10040.872996,8614.719941,-5637.691097,33679.116807,2525.769475,27279.901776,6755.680651,-272.304016,-841.799988,-454.328003,3640.000000,-420.000000,1260.000000
8855.045897,9920.464149,1078.158746,-1264.237018,7684.417985,8297.146356,7871.233865,-20027.252439,13367.728992,10006.496013,8604.572249,-5685.769699,33657.726187,2513.699533,27235.555915,6702.885831,-279.136017,-839.359985,-455.304016,3080.000000,-840.000000,1400.000000
8847.066325,9875.917122,1056.499905,-1297.876394,7649.862188,8288.071548,7843.093019,-20050.341791,13353.133303,9994.001388,8599.230182,-5719.610240,33645.388024,2512.939574,27201.491857,6675.370833,-277.671997,-841.312012,-454.816010,2800.000000,-980.000000,1120.000000
8870.960339,9917.111387,1099.817586,-1271.948370,7699.170136,8294.307684,7856.772287,-20020.748081,13377.496705,10044.091647,8603.812290,-5689.725958,33663.023551,2530.642155,27219.619122,6715.291049,-276.208008,-841.799988,-454.816010,2660.000000,-1120.000000,1120.000000
8930.483035,10088.526915,1220.025268,-1158.133287,7858.180446,8325.756589,7943.765276,-19913.996150,13453.582043,10151.849407,8624.599412,-5575.173268,33717.628863,2564.281531,27319.062033,6849.222702,-273.279999,-843.264038,-457.256012,2520.000000,-1540.000000,1120.000000
8953.639442,10217.049446,1291.260277,-1067.943998,7959.813828,8351.304633,8017.794254,-19836.815576,13501.861811,10200.397396,8642.816084,-5488.828479,33757.303209,2579.704235,27406.971444,6951.548988,-276.696014,-841.799988,-455.304016,1960.000000,-1540.000000,980.000000
8906.857241,10159.806628,1231.201140,-1100.957525,7888.735281,8342.922728,7997.320056,-19880.513237,13465.853151,10132.649259,8639.619784,-5519.360962,33741.053491,2560.191162,27395.661461,6920.994153,-273.279999,-842.288025,-454.816010,1820.000000,-1820.000000,980.000000
8868.479296,10048.137313,1152.970034,-1177.601657,7786.632512,8318.067589,7935.651593,-19958.096142,13412.231316,10070.042022,8625.359371,-5590.215992,33706.296528,2539.918129,27331.266085,6833.598832,-277.183990,-845.703979,-456.279999,1680.000000,-1960.000000,980.000000
8861.863179,9990.201591,1119.911804,-1215.800788,7743.627756,8303.516603,7902.928639,-19988.986252,13386.303292,10040.604775,8616.843357,-5633.019582,33685.352944,2530.083362,27286.428486,6777.093622,-276.696014,-845.216003,-454.816010,1680.000000,-2520.000000,980.000000
8847.491008,9936.982088,1089.893411,-1251.831800,7702.031160,8290.552591,7873.357281,-20016.322436,13359.414143,10007.300676,8611.970676,-5676.359615,33667.449196,2516.895833,27242.686122,6724.030581,-276.696014,-843.264038,-456.279999,1820.000000,-2520.000000,980.000000
8836.493949,9876.252398,1055.248207,-1293.696617,7652.589101,8279.041443,7840.008478,-20049.850053,13339.297573,9983.965455,8601.040673,-5716.838624,33648.114937,2508.580984,27201.022470,6677.941284,-278.160004,-846.679993,-457.256012,1960.000000,-2660.000000,980.000000
8857.303424,9883.561418,1070.380338,-1290.053283,7670.157572,8278.907332,7839.784961,-20043.725675,13358.318908,10012.083949,8598.112595,-5706.154490,33653.971094,2517.789902,27201.491857,6692.827546,-275.231995,-843.264038,-452.864014,1820.000000,-2940.000000,980.000000
8914.389779,10021.382275,1173.108956,-1199.998105,7806.592620,8304.477728,7908.963610,-19956.889147,13428.905717,10112.152709,8612.261249,-5610.265507,33700.418019,2551.295167,27280.393515,6803.960419,-276.696014,-845.216003,-456.768005,1960.000000,-2940.000000,1120.000000
8953.907663,10181.219599,1270.562562,-1090.161632,7942.982965,8338.832359,7998.750567,-19859.346135,13495.290398,10191.859030,8631.081418,-5502.932430,33750.441223,2579.100737,27383.993850,6928.370229,-277.671997,-847.168030,-458.231995,1960.000000,-3080.000000,1260.000000
8936.853282,10202.185536,1260.124297,-1070.626208,7938.579671,8346.610766,8019.738855,-19854.428751,13496.363282,10170.714279,8641.922014,-5484.380482,33757.906706,2574.675092,27416.381528,6952.308947,-275.720001,-845.703979,-455.791992,2380.000000,-2800.000000,1260.000000
8889.825212,10083.229552,1169.510325,-1151.137191,7817.433216,8324.661353,7954.695279,-19935.431473,13441.199176,10091.991436,8633.316592,-5557.202465,33720.914569,2549.283510,27350.913268,6866.880580,-275.720001,-848.143982,-458.720001,2380.000000,-2660.000000,1400.000000
8879.386947,10016.464891,1131.691174,-1198.522889,7761.956187,8310.289182,7913.702180,-19975.731668,13411.806632,10060.967214,8622.543052,-5606.130434,33696.998202,2537.459438,27299.727774,6803.222812,-277.671997,-847.168030,-457.256012,2660.000000,-2800.000000,1400.000000
8874.827191,9970.062670,1107.663048,-1229.725925,7730.060247,8302.086091,7889.830517,-19994.305968,13390.058385,10036.894385,8611.277772,-5645.760077,33679.116807,2529.345754,27261.729808,6753.199608,-277.183990,-850.096008,-459.208008,2800.000000,-2520.000000,1680.000000
8858.868046,9907.634247,1069.888600,-1271.836611,7680.193505,8289.323245,7859.610958,-20023.720863,13359.995289,10003.009141,8600.459528,-5693.816327,33658.508498,2517.946365,27219.060328,6702.304685,-279.136017,-845.216003,-459.208008,3080.000000,-2520.000000,1820.000000
8858.398659,9882.980273,1059.226818,-1294.300114,7664.994319,8284.070585,7836.968641,-20035.679047,13354.474408,10005.490184,8595.385682,-5709.775473,33654.239315,2519.287469,27191.075944,6689.519488,-278.160004,-846.192017,-459.208008,3500.000000,-2380.000000,2100.000000
8894.429671,9971.135553,1131.042973,-1237.571387,7756.457657,8298.040426,7873.603150,-19980.783162,13398.127365,10083.408366,8605.891002,-5648.174065,33685.621165,2542.801504,27232.292561,6762.475581,-282.552002,-842.776001,-458.720001,3640.000000,-2240.000000,2100.000000
8943.379991,10143.981593,1248.523742,-1117.140188,7913.657476,8332.484464,7973.627207,-19873.070106,13468.177732,10180.102012,8626.387552,-5534.135465,33738.907723,2575.904438,27347.448748,6897.100138,-281.088013,-844.728027,-457.744019,3640.000000,-2100.000000,2520.000000
8944.251709,10220.692780,1282.453690,-1056.902237,7966.497000,8349.516493,8029.506568,-19831.317047,13492.921113,10189.646207,8637.317555,-5479.999540,33760.275991,2581.179450,27415.621569,6961.674328,-279.623993,-845.216003,-456.768005,3920.000000,-1960.000000,2660.000000
8895.815479,10119.260564,1196.064198,-1117.184891,7855.162961,8332.015077,7985.987721,-19902.820278,13447.971755,10107.369436,8630.321459,-5538.784628,33728.961197,2555.832571,27375.902519,6895.043778,-281.575989,-840.824036,-457.256012,3920.000000,-1820.000000,2660.000000
8874.380156,10029.875938,1142.554121,-1174.181840,7777.088318,8312.099673,7937.104456,-19955.346877,13410.890211,10064.767011,8618.229165,-5598.039102,33698.987508,2540.208702,27320.626655,6821.998277,-282.063995,-842.776001,-456.279999,4200.000000,-1680.000000,2940.000000
8866.780563,9975.740013,1113.720371,-1209.139968,7738.978593,8300.186193,7909.142424,-19977.698621,13385.006891,10038.682525,8607.276810,-5644.061344,33677.038095,2527.825836,27275.252613,6767.728241,-281.088013,-841.799988,-458.231995,3780.000000,-1400.000000,3220.000000
8852.006060,9908.483614,1073.755452,-1254.737527,7687.636636,8288.540934,7872.373804,-20012.455584,13354.027373,10001.846850,8597.151470,-5693.302237,33653.099376,2512.179615,27224.961188,6709.121967,-284.503998,-840.824036,-455.304016,3920.000000,-1400.000000,3220.000000
8844.093543,9861.343784,1049.615568,-1288.332199,7654.310185,8278.817925,7841.282528,-20037.936573,13337.263565,9986.960588,8593.217563,-5720.973697,33641.029434,2509.810330,27192.193531,6675.817868,-284.015991,-840.824036,-460.183990,3640.000000,-1120.000000,3360.000000
8866.132363,9911.769320,1093.335580,-1258.716137,7711.463596,8285.881077,7858.560426,-20008.387567,13365.247949,10038.324897,8601.130080,-5685.277961,33660.810728,2528.049353,27217.920389,6718.710866,-285.480011,-841.799988,-457.744019,3080.000000,-1260.000000,3080.000000
8921.810558,10081.374357,1210.861052,-1148.030299,7866.718813,8316.592373,7946.112209,-19903.893161,13443.032019,10144.830959,8614.228203,-5573.429832,33712.867941,2561.040528,27315.709271,6850.116771,-283.528015,-843.264038,-456.768005,3080.000000,-1120.000000,3220.000000
8948.029154,10210.120405,1284.778271,-1059.606798,7965.133544,8343.302708,8024.164501,-19827.807823,13494.485735,10191.411995,8628.242746,-5487.733243,33750.307113,2576.999673,27402.232874,6951.683098,-285.968018,-841.799988,-454.816010,2940.000000,-1260.000000,3080.000000
8918.770721,10164.656957,1234.799771,-1085.266600,7899.508822,8339.368801,8010.507585,-19868.487998,13474.123296,10137.544291,8631.282584,-5509.280325,33739.086537,2559.900589,27396.041440,6925.486854,-285.480011,-842.288025,-458.720001,2660.000000,-1400.000000,2940.000000
8889.646398,10055.781610,1162.715395,-1157.082755,7795.483803,8317.620554,7952.214235,-19944.930964,13427.721075,10082.894276,8623.347714,-5577.855477,33708.956386,2540.812199,27332.227210,6838.717382,-286.944000,-840.335999,-458.720001,2660.000000,-1540.000000,2800.000000
8881.510363,10000.371635,1133.948700,-1192.711436,7753.909559,8304.835356,7925.749770,-19975.128171,13400.228429,10057.681508,8613.155319,-5624.414161,33688.281022,2531.625632,27288.104867,6783.285056,-282.063995,-841.312012,-455.304016,2520.000000,-1540.000000,2520.000000
8868.412241,9947.375649,1100.421083,-1229.033021,7711.597706,8293.815946,7898.391235,-19998.038709,13373.451039,10022.164586,8600.928915,-5671.509286,33666.957458,2519.645097,27242.909639,6728.567985,-284.015991,-842.288025,-453.352020,2380.000000,-1540.000000,2380.000000
8850.374383,9884.299026,1064.255960,-1273.960027,7661.775668,8281.857763,7862.002595,-20031.588677,13344.282012,9993.219077,8589.864801,-5719.073799,33646.036225,2510.346772,27196.797990,6679.192982,-284.992004,-841.799988,-455.791992,2240.000000,-1400.000000,1960.000000
8856.632871,9883.449660,1079.611609,-1276.150498,7677.131316,8283.400033,7856.816990,-20028.437081,13349.668783,10016.219022,8589.194249,-5715.698685,33649.053711,2519.555690,27195.322775,6689.944171,-286.944000,-843.752014,-456.279999,2660.000000,-1260.000000,1680.000000
8910.053540,10022.097531,1186.117671,-1182.161412,7814.102806,8311.071493,7924.833348,-19944.662743,13418.556859,10115.036084,8606.338037,-5617.954507,33694.360697,2551.965720,27276.370201,6799.691236,-284.503998,-843.264038,-457.744019,2660.000000,-1260.000000,1540.000000
8952.633614,10186.874591,1288.332199,-1070.246228,7953.711802,8344.487351,8015.693190,-19848.617297,13489.300131,10194.049501,8627.303973,-5507.626296,33745.300322,2577.983150,27379.612908,6926.447979,-284.015991,-844.239990,-455.791992,2380.000000,-1120.000000,1400.000000
8934.841625,10206.789995,1282.990132,-1052.186018,7949.353212,8352.712792,8036.256794,-19843.185823,13490.194200,10171.809515,8635.060028,-5489.655493,33754.464537,2571.836421,27407.351423,6951.303119,-284.992004,-843.752014,-457.256012,2380.000000,-980.000000,980.000000
8884.505497,10082.670758,1193.650209,-1133.032278,7826.955059,8330.472807,7974.275407,-19921.863964,13431.006781,10089.219819,8622.543052,-5567.193695,33717.807677,2546.623653,27341.346722,6869.339272,-282.063995,-845.216003,-456.279999,2380.000000,-840.000000,700.000000
8871.072098,10007.837118,1151.807744,-1183.726035,7766.985329,8314.915993,7933.774046,-19964.376982,13397.255647,10056.228644,8612.730636,-5619.876757,33692.416095,2533.257310,27293.402230,6805.122710,-280.600006,-846.192017,-452.864014,2520.000000,-420.000000,560.000000
8866.758211,9958.350355,1127.086714,-1216.247823,7731.155483,8305.684722,7906.907249,-19991.668462,13372.512266,10031.664077,8603.722883,-5661.272187,33673.215946,2521.746161,27253.683180,6751.970262,-280.112000,-845.703979,-456.279999,2520.000000,-560.000000,420.000000
8856.543464,9900.995779,1094.050836,-1254.514009,7685.267351,8293.972408,7878.073499,-20027.028921,13349.154693,10002.159775,8595.162165,-5706.109787,33652.071196,2511.151434,27213.450040,6702.237630,-283.528015,-844.728027,-453.352020,2800.000000,-420.000000,280.000000
8856.252892,9868.608101,1083.701978,-1278.408024,7662.870903,8285.501097,7852.368993,-20049.045390,13341.376286,10005.110205,8591.585885,-5724.661735,33643.532830,2512.514891,27191.701793,6684.132717,-283.040009,-844.239990,-453.839996,3080.000000,-420.000000,140.000000
8893.245029,9959.356184,1159.563799,-1219.779398,7756.167085,8299.672103,7891.462194,-19990.573226,13385.431574,10081.396709,8599.923086,-5663.015623,33673.618278,2538.889949,27240.987389,6761.916788,-280.112000,-848.143982,-454.328003,3360.000000,-280.000000,280.000000
8947.515064,10136.270241,1277.759824,-1100.622249,7914.104511,8333.266775,7986.300646,-19880.580292,13462.075706,10179.051480,8622.610107,-5544.439619,33728.916494,2571.277627,27347.158175,6899.648237,-278.648010,-843.752014,-455.304016,3220.000000,-560.000000,280.000000
8956.388707,10224.760798,1314.349629,-1042.172437,7972.040233,8351.595205,8039.386039,-19835.250954,13492.407023,10197.491669,8638.636308,-5483.776985,33755.291552,2574.943313,27409.787763,6967.888113,-280.112000,-845.216003,-455.304016,3500.000000,-560.000000,420.000000
8906.700779,10127.642468,1227.401343,-1107.059551,7862.002595,8334.585528,7992.447375,-19907.447089,13444.730752,10116.019561,8632.646040,-5541.265671,33723.619130,2548.791772,27369.733437,6903.492737,-279.136017,-844.728027,-453.352020,3780.000000,-840.000000,560.000000
8882.516191,10034.838025,1166.492840,-1171.544334,7781.871591,8316.145339,7941.641860,-19966.433342,13402.038920,10069.662043,8622.096017,-5601.347160,33693.176054,2533.793751,27312.982358,6830.693106,-280.600006,-843.752014,-457.256012,4060.000000,-980.000000,700.000000
8867.562874,9980.679748,1135.267453,-1208.402360,7739.917366,8304.455376,7913.366903,-19993.724822,13369.494780,10037.810807,8614.630534,-5647.145885,33673.081836,2520.807388,27268.748256,6776.735994,-279.136017,-843.264038,-453.839996,4060.000000,-1400.000000,700.000000
8852.810723,9921.917012,1098.990571,-1246.757954,7689.424776,8292.899524,7883.549676,-20023.385587,13342.091542,10003.143251,8605.868650,-5696.945572,33653.881687,2508.111597,27225.296465,6723.829415,-277.183990,-845.703979,-454.816010,4200.000000,-1540.000000,1120.000000
8856.901092,9874.084279,1078.941057,-1279.682074,7653.907854,8285.925780,7855.252368,-20048.486596,13337.151806,9993.844926,8596.905601,-5726.472226,33640.962379,2507.105769,27191.858255,6688.692473,-277.671997,-842.776001,-457.256012,4200.000000,-1400.000000,1260.000000
8889.579343,9922.252288,1126.706735,-1248.501390,7711.329485,8295.224106,7875.614807,-20014.891924,13371.260568,10046.058601,8600.593638,-5689.010702,33660.408397,2527.937594,27218.590941,6735.295860,-275.231995,-845.216003,-457.744019,4340.000000,-2100.000000,1540.000000
8948.230320,10089.376281,1249.618977,-1135.178046,7866.629406,8326.561251,7964.060660,-19907.089461,13446.384781,10153.794009,8618.407979,-5574.279198,33714.410211,2563.208647,27319.129088,6866.545304,-271.816010,-845.703979,-455.304016,4620.000000,-2380.000000,1820.000000
8968.279835,10218.368199,1323.402086,-1045.882827,7968.843933,8353.428048,8040.168350,-19827.003160,13492.988168,10202.610219,8633.808331,-5484.715758,33753.212840,2577.580819,27408.334900,6968.335148,-274.743988,-843.752014,-457.744019,4620.000000,-2380.000000,2100.000000
8924.381009,10171.250721,1269.064995,-1075.096557,7901.118148,8345.716696,8022.979858,-19864.263518,13460.689898,10139.041858,8634.165959,-5510.800244,33739.310055,2555.720813,27400.578845,6942.317717,-274.256012,-846.192017,-455.791992,4480.000000,-2800.000000,2240.000000
8886.919485,10059.179075,1189.448081,-1150.377232,7793.248629,8321.420350,7961.892541,-19937.487833,13409.549106,10072.992453,8623.235956,-5583.443413,33703.368450,2533.547882,27337.703387,6857.023461,-272.791992,-844.728027,-457.256012,4480.000000,-2940.000000,2380.000000
8878.738746,10002.450347,1154.042918,-1188.911639,7749.238044,8308.612801,7930.533043,-19965.271052,13381.631777,10043.510502,8611.814214,-5627.275184,33682.111941,2522.751990,27291.703497,6802.261687,-272.304016,-844.728027,-454.816010,4340.000000,-3360.000000,2660.000000
8874.402508,9956.115181,1124.762133,-1220.338192,7712.536480,8299.247420,7906.661380,-19986.907540,13360.107048,10014.900269,8601.822984,-5666.882475,33662.330647,2511.710228,27251.805634,6752.372593,-272.791992,-844.239990,-457.744019,4480.000000,-3500.000000,2940.000000
8865.797086,9900.615800,1094.520222,-1256.548018,7667.743584,8289.323245,7875.704214,-20016.411843,13340.839844,9991.967379,8595.363330,-5705.305124,33646.952647,2504.937649,27212.779488,6705.188060,-274.743988,-842.776001,-454.816010,4200.000000,-3780.000000,3080.000000
8876.190648,9906.248439,1107.506586,-1256.369204,7682.652197,8289.345597,7870.742127,-20015.406014,13352.328641,10019.504728,8596.190345,-5697.146737,33654.775757,2518.683972,27209.426726,6713.882889,-273.279999,-844.239990,-453.839996,3920.000000,-4060.000000,3360.000000
8920.558860,10036.112074,1202.143872,-1173.310122,7810.928859,8309.462167,7932.142369,-19936.146729,13411.940743,10113.493814,8607.455624,-5613.841786,33693.377220,2549.059993,27279.164169,6816.790320,-272.791992,-847.656006,-453.839996,3920.000000,-4340.000000,3500.000000
8959.875579,10195.591771,1302.391446,-1061.976083,7948.257977,8340.017002,8022.443416,-19839.676599,13478.861866,10192.216658,8626.409903,-5510.867299,33739.354758,2574.675092,27381.959841,6942.183607,-276.208008,-845.703979,-454.816010,3500.000000,-4760.000000,3640.000000
8948.185617,10224.760798,1299.865699,-1035.489265,7952.191884,8351.125819,8049.824303,-19832.591096,13487.310825,10174.827000,8635.372953,-5484.648703,33748.027235,2571.434089,27420.494249,6970.793840,-275.720001,-845.703979,-455.791992,3500.000000,-5040.000000,3640.000000
8902.319837,10109.515203,1210.212852,-1112.356915,7834.152321,8330.070475,7987.753509,-19916.276028,13435.052447,10097.400558,8626.298145,-5554.319090,33714.320804,2546.131914,27360.859795,6886.438356,-279.136017,-845.216003,-458.720001,3220.000000,-5320.000000,3780.000000
8887.634741,10035.150949,1164.771755,-1165.129383,7770.896884,8312.814929,7943.072372,-19961.605365,13397.143888,10064.275272,8614.876403,-5609.550251,33691.477322,2532.139722,27303.840495,6816.030361,-275.720001,-847.168030,-456.279999,2940.000000,-5600.000000,3780.000000
8876.525924,9983.719585,1138.731973,-1199.908698,7731.289593,8300.230897,7916.674962,-19986.013470,13367.460771,10036.156778,8604.438139,-5652.756173,33673.193595,2520.069780,27258.533509,6759.905131,-277.183990,-846.679993,-452.864014,2940.000000,-5740.000000,3780.000000
8859.672708,9917.111387,1100.734007,-1244.902759,7678.137145,8287.423347,7883.326159,-20020.859840,13338.269393,10003.255010,8593.642246,-5701.147699,33651.422995,2508.826853,27211.661900,6702.751720,-277.671997,-844.239990,-455.791992,2380.000000,-5740.000000,3920.000000
8863.248988,9895.027863,1096.554231,-1261.152477,7667.542418,8283.221219,7867.322310,-20034.159128,13338.045876,10009.759368,8592.412900,-5715.318705,33648.003179,2513.520719,27196.932101,6689.385377,-279.136017,-845.216003,-454.328003,2240.000000,-5600.000000,3780.000000
8902.319837,9980.523286,1167.677482,-1207.351828,7750.959128,8297.146356,7902.325142,-19986.169933,13383.151696,10082.044909,8603.544069,-5656.913597,33676.121673,2535.604243,27239.176898,6758.675785,-279.136017,-846.192017,-455.791992,2520.000000,-5740.000000,3920.000000
8953.840608,10153.682250,1282.945428,-1089.356970,7905.700255,8332.149188,7993.944942,-19875.975832,13457.426543,10178.336224,8624.331191,-5540.908043,33731.151668,2568.461307,27342.844289,6897.547173,-278.648010,-844.239990,-455.304016,2520.000000,-5880.000000,4060.000000
8965.910550,10245.436161,1325.771371,-1020.312431,7972.107288,8353.360993,8052.238292,-19823.628047,13493.725776,10200.173879,8640.871482,-5476.445612,33761.773558,2578.318426,27421.388319,6969.519790,-281.088013,-845.216003,-455.304016,2380.000000,-5600.000000,3780.000000
8917.429616,10149.658936,1243.338137,-1075.722405,7866.472944,8337.178330,8011.781634,-19894.594836,13448.642307,10120.042875,8634.389476,-5531.319145,33733.476249,2553.776211,27390.207635,6902.129281,-282.063995,-842.776001,-453.352020,2100.000000,-5460.000000,3780.000000
8886.450098,10055.334575,1183.279000,-1137.502627,7785.403166,8317.486443,7963.680680,-19954.206938,13402.418900,10070.690223,8624.532357,-5596.206259,33701.066220,2539.560502,27333.098928,6829.776684,-278.160004,-843.752014,-453.352020,2100.000000,-5040.000000,3640.000000
8874.290749,10002.875030,1156.970996,-1169.577380,7749.327451,8307.361103,7939.093761,-19972.513017,13372.981652,10042.839949,8614.809348,-5640.038030,33682.626031,2529.412810,27291.994070,6782.614503,-282.552002,-842.776001,-457.256012,1960.000000,-4900.000000,3500.000000
8868.680461,9946.213358,1124.382153,-1207.977677,7703.707540,8297.280466,7909.745921,-19997.234046,13353.178007,10014.430882,8602.381778,-5684.428595,33664.476414,2517.655792,27248.810500,6729.551462,-284.015991,-845.216003,-451.888000,2100.000000,-4340.000000,3360.000000
8869.038089,9901.018131,1103.393865,-1241.482942,7670.626959,8288.540934,7881.426261,-20023.609105,13341.286879,10003.925562,8593.508135,-5714.156415,33652.361769,2518.236937,27216.556933,6694.772148,-280.600006,-840.824036,-454.328003,1820.000000,-4200.000000,3220.000000
8896.061348,9941.139512,1146.532732,-1215.398457,7721.611288,8295.604085,7895.686674,-19998.351633,13367.371365,10057.234473,8597.397339,-5681.232295,33670.198461,2536.677126,27236.584096,6733.999459,-283.040009,-841.312012,-454.328003,1680.000000,-3780.000000,3080.000000
8948.990279,10103.167308,1264.773460,-1108.579470,7874.363109,8324.527243,7978.052852,-19898.685205,13441.556804,10162.310024,8617.379799,-5574.770936,33722.881523,2568.573066,27332.584838,6863.684280,-281.575989,-843.752014,-455.791992,1540.000000,-3780.000000,2940.000000
8971.967873,10235.690801,1338.668327,-1018.613698,7977.874038,8350.164694,8054.473466,-19820.565858,13490.395366,10212.936725,8634.948270,-5488.448499,33762.846442,2584.353397,27423.019996,6970.167991,-284.015991,-844.728027,-455.304016,1680.000000,-3220.000000,2800.000000
8936.249785,10196.418786,1284.308885,-1042.530065,7917.658438,8345.783752,8039.095466,-19855.993373,13469.183561,10154.308099,8636.959927,-5509.973229,33752.229363,2567.008444,27419.019034,6949.872607,-282.552002,-843.752014,-455.791992,1680.000000,-2940.000000,2520.000000
8895.033168,10080.592046,1203.954363,-1119.308307,7809.990085,8321.174481,7975.482401,-19931.698731,13416.031112,10088.213991,8626.566366,-5585.477422,33716.131296,2544.008499,27355.025989,6864.310129,-284.503998,-841.799988,-455.791992,1540.000000,-2800.000000,2520.000000
8879.319892,10013.782682,1167.431613,-1163.609465,7755.898864,8306.176461,7938.736133,-19963.549967,13382.145868,10055.200464,8611.143662,-5638.182835,33688.772760,2528.384629,27304.846323,6802.418149,-280.112000,-842.288025,-454.816010,1820.000000,-2100.000000,2380.000000
8870.245084,9960.741992,1134.149865,-1200.735712,7711.754168,8295.492327,7909.880031,-19987.108706,13358.207149,10025.494996,8597.486746,-5683.646284,33666.309257,2515.666487,27259.159357,6746.427029,-281.088013,-839.359985,-456.279999,1680.000000,-1960.000000,2100.000000
8863.293691,9903.454471,1100.130510,-1240.454762,7664.301415,8284.539972,7876.888857,-20019.608142,13339.476387,9998.985827,8588.456641,-5722.985354,33647.265571,2507.217527,27214.232351,6695.822679,-281.575989,-840.824036,-458.720001,1400.000000,-980.000000,1960.000000
8874.693081,9905.756701,1113.586261,-1243.382841,7675.387880,8282.863591,7867.836400,-20023.229125,13349.534672,10023.148063,8591.094147,-5717.777397,33654.418129,2516.158225,27206.945682,6700.136566,-277.183990,-845.216003,-457.256012,1400.000000,-280.000000,1540.000000
8920.782378,10033.608679,1210.458721,-1158.692081,7800.132966,8303.695417,7929.504863,-19946.249717,13407.760967,10116.041913,8603.141737,-5629.890338,33697.065258,2546.556598,27278.270099,6802.261687,-276.208008,-838.872009,-460.671997,140.000000,1680.000000,560.000000
8960.166152,10195.658826,1311.756827,-1046.262806,7941.574805,8337.625365,8020.945850,-19845.979791,13472.424563,10196.105861,8623.817101,-5519.249203,33747.759014,2572.529325,27383.122132,6928.951374,-281.088013,-845.216003,-459.208008,-1540.000000,5460.000000,-280.000000
8948.565596,10226.727751,1311.555661,-1019.775989,7948.526197,8348.689478,8048.684364,-19836.033265,13483.667491,10180.727861,8635.574119,-5491.577743,33759.918363,2571.992883,27423.310569,6957.047517,-283.528015,-839.848022,-460.671997,-2520.000000,5880.000000,-700.000000
8899.369407,10110.498680,1217.588927,-1099.571717,7828.206757,8324.571946,7987.820564,-19920.478156,13428.101054,10100.328636,8623.772397,-5566.389032,33723.932055,2545.215493,27364.681943,6869.763955,-286.455994,-838.384033,-455.304016,-2520.000000,5040.000000,-280.000000
8882.091508,10037.274365,1172.125479,-1150.980729,7767.074736,8308.948077,7949.487323,-19962.030049,13392.941760,10064.588197,8611.791862,-5620.659068,33699.188673,2532.363240,27315.351643,6805.703855,-284.503998,-838.872009,-454.328003,-1820.000000,3220.000000,840.000000
8875.475392,9992.347359,1149.013775,-1183.122538,7731.714276,8300.230897,7928.253165,-19979.956148,13371.506437,10037.497883,8601.890040,-5659.662862,33679.295621,2522.394362,27276.370201,6757.513494,-282.552002,-839.359985,-451.399994,-1120.000000,1960.000000,1400.000000
8858.488066,9928.287259,1109.384133,-1230.709401,7676.930151,8286.417518,7892.758595,-20014.020206,13340.862196,10001.198650,8589.887153,-5707.383836,33656.049807,2507.977487,27228.112784,6702.595258,-282.063995,-840.335999,-448.472015,-140.000000,1120.000000,1820.000000
8855.828208,9894.603180,1096.867156,-1256.883294,7653.706688,8278.996739,7866.472944,-20037.467186,13330.781559,9999.812841,8585.081528,-5729.467360,33648.181993,2505.787016,27202.497685,6679.885886,-284.015991,-840.335999,-447.496002,1120.000000,700.000000,2100.000000
8886.450098,9977.461097,1167.319854,-1202.233279,7741.258471,8294.218277,7903.599191,-19984.828828,13368.824228,10068.589159,8595.117461,-5675.107917,33677.574537,2529.770437,27249.861032,6753.110201,-280.600006,-840.335999,-453.839996,2660.000000,700.000000,1820.000000
8937.255613,10154.486913,1290.097986,-1079.075167,7900.648761,8328.684667,8000.404596,-19874.187693,13441.981488,10169.619044,8613.758816,-5556.800134,33732.917456,2563.700386,27362.782045,6896.831917,-278.648010,-843.752014,-453.352020,3500.000000,1260.000000,1260.000000
8947.738582,10243.335097,1332.029859,-1010.857643,7963.568922,8348.175388,8058.765001,-19822.756329,13474.503276,10188.618027,8621.067836,-5493.991732,33758.890183,2573.870429,27435.268752,6972.090241,-282.063995,-840.824036,-452.864014,3360.000000,2240.000000,840.000000
8903.906811,10147.602576,1248.859018,-1069.620379,7862.248464,8333.825568,8017.369570,-19889.252769,13429.397455,10110.163404,8613.714112,-5549.379355,33730.548171,2551.339871,27401.025880,6907.560755,-284.992004,-840.335999,-455.304016,2940.000000,2240.000000,840.000000
8881.040976,10049.746639,1185.402415,-1139.424877,7777.848277,8313.373722,7959.165628,-19949.557775,13385.856257,10069.259711,8601.264191,-5615.249946,33699.479246,2531.960908,27337.882201,6828.770856,-285.480011,-838.384033,-454.816010,2800.000000,1820.000000,1120.000000
8874.849543,9995.767176,1156.345148,-1182.496689,7733.614175,8301.750815,7921.525290,-19976.826903,13365.203245,10044.963365,8594.201040,-5661.741574,33678.178034,2518.214586,27282.293413,6771.952721,-284.015991,-838.384033,-453.839996,2660.000000,560.000000,2240.000000
8863.696022,9937.339716,1120.761170,-1224.517968,7685.937904,8288.898562,7887.170659,-20010.175706,13343.946736,10011.368693,8585.886191,-5709.328438,33653.993446,2504.669428,27239.467471,6711.759473,-283.528015,-841.799988,-452.376007,2380.000000,140.000000,3080.000000
8859.180970,9896.257209,1100.130510,-1250.267178,7660.211046,8279.153201,7865.869447,-20036.595468,13334.022562,9999.566972,8579.135964,-5737.223415,33640.358882,2503.931821,27217.294540,6676.890752,-283.528015,-840.824036,-454.816010,1960.000000,700.000000,3220.000000
8882.382081,9937.853806,1136.787371,-1221.098151,7708.647276,8286.149297,7887.125955,-20016.948285,13362.498684,10045.186883,8582.958112,-5704.254592,33655.535716,2523.243728,27244.496613,6717.772093,-281.575989,-842.288025,-451.399994,2240.000000,700.000000,3500.000000
8934.260480,10098.026407,1249.149591,-1113.586261,7856.861693,8316.212394,7974.007186,-19917.706539,13431.453816,10146.820265,8600.615990,-5596.407425,33706.229473,2556.905455,27341.011446,6849.669737,-284.015991,-842.776001,-453.839996,2660.000000,420.000000,3500.000000
8958.445067,10229.342905,1322.731533,-1023.978117,7961.087878,8343.839150,8052.439457,-19835.049788,13480.538247,10199.950361,8619.011476,-5507.626296,33748.183697,2573.266932,27430.463127,6957.785125,-284.015991,-844.239990,-452.864014,3360.000000,-420.000000,3640.000000
8923.844567,10193.825983,1273.803565,-1047.447449,7901.967514,8340.128760,8042.045896,-19866.655155,13460.622842,10146.976727,8621.581927,-5527.117017,33739.690034,2555.564351,27426.775089,6936.461560,-282.063995,-842.776001,-455.304016,3920.000000,-1400.000000,4060.000000
8886.941837,10082.179020,1196.243012,-1124.225691,7796.288466,8318.112292,7983.126698,-19940.035932,13410.890211,10082.514296,8612.574174,-5599.313152,33705.491865,2536.207740,27364.078446,6847.613376,-283.528015,-839.848022,-456.768005,3920.000000,-1820.000000,4340.000000
8875.274226,10019.638839,1160.815497,-1167.185744,7747.181683,8302.756644,7948.705011,-19969.987270,13383.509324,10053.054697,8600.459528,-5650.520998,33680.524967,2524.651888,27316.938617,6785.006140,-284.992004,-840.824036,-456.768005,3780.000000,-1400.000000,4480.000000
8867.629929,9967.603978,1131.847636,-1199.729884,7706.613267,8292.318379,7920.027723,-19990.774392,13363.213940,10025.874975,8592.547010,-5692.586981,33662.978847,2515.688838,27275.520834,6732.077209,-284.992004,-840.335999,-455.791992,3640.000000,-1120.000000,4340.000000
8857.124610,9906.986047,1099.772882,-1240.477114,7659.093459,8282.394204,7883.192048,-20020.815137,13343.119722,10003.344417,8585.215638,-5733.893005,33645.320969,2506.681085,27229.520944,6681.338749,-285.480011,-842.776001,-456.768005,3780.000000,-1260.000000,4340.000000
8867.674633,9902.448643,1112.625135,-1245.618015,7667.832991,8281.209562,7873.983130,-20024.346712,13350.741667,10027.238432,8585.372101,-5734.742371,33647.556144,2510.458530,27219.909694,6680.981121,-280.600006,-841.799988,-456.768005,3220.000000,-1680.000000,4340.000000
8916.669657,10030.971173,1214.079704,-1159.340281,7796.690797,8305.707074,7940.323107,-19942.874604,13412.007798,10118.433549,8598.514926,-5647.771734,33690.046810,2540.476923,27291.882311,6784.045015,-284.503998,-840.335999,-459.208008,2380.000000,-1540.000000,4480.000000
