10139.913576,13018.035950,241.264730,1271.881315,7906.370807,6651.610929,12343.393248,-15854.427618,12529.046837,7205.174232,10068.991490,-4517.891052,13472.133991,3504.373551,18341.506224,4854.597730,-305.000000,-836.919983,-461.160004,4340.000000,-1540.000000,1540.000000
29347.728711,24903.285492,61528.406921,104034.786407,-98118.570223,169970.107969,62926.352075,90454.112345,-146456.251616,73281.512950,-117205.171848,165579.979489,159681.667052,162669.312974,153827.566365,151977.557180,-305.000000,-836.919983,-461.160004,4340.000000,-1540.000000,1540.000000
9381.384776,12331.658582,313.259699,-46.022242,8004.047931,6207.794691,11596.062672,-16267.085524,12523.436549,7378.824935,9909.601201,-4805.781520,13909.222354,3234.386830,17141.508119,4878.357634,-286.455994,-856.440002,-421.144012,7280.000000,-3920.000000,6580.000000
9429.061047,12555.064268,454.209799,101.722789,8185.164116,6254.487485,11714.683379,-16136.417226,12600.594771,7478.066680,9934.612803,-4661.188085,13980.747936,3273.167106,17271.058830,5050.108439,-287.432007,-855.952026,-425.048004,7280.000000,-4480.000000,6860.000000
9415.985276,12616.464510,458.546038,143.475848,8190.841459,6268.412622,11756.369383,-16115.540697,12613.357617,7450.641090,9944.916957,-4622.653678,13998.964608,3265.947493,17321.171441,5102.322114,-288.895996,-857.903992,-424.071991,7420.000000,-4760.000000,7000.000000
9370.253607,12502.068281,361.338301,67.815193,8063.369461,6242.953985,11700.825298,-16196.386957,12560.004003,7360.943539,9934.031657,-4696.302676,13957.770343,3237.091391,17266.253205,5022.571090,-285.968018,-856.440002,-424.071991,7840.000000,-5040.000000,7140.000000
9342.582147,12402.781833,297.591126,-0.983477,7978.723404,6220.043447,11648.701030,-16251.528710,12511.657180,7307.098187,9915.435006,-4768.342348,13917.604258,3213.465597,17201.321387,4940.897815,-291.335999,-856.928040,-426.024017,7980.000000,-5320.000000,7000.000000
9326.667705,12316.057064,242.248206,-55.789954,7912.986924,6202.117348,11607.529117,-16292.991196,12475.648519,7261.120649,9899.565268,-4835.084657,13881.841467,3192.477309,17145.218509,4864.097221,-291.824005,-858.880005,-425.048004,8120.000000,-5740.000000,6580.000000
9309.009827,12205.818260,176.042339,-123.895720,7830.352525,6182.023130,11553.862578,-16349.898738,12443.953746,7213.667895,9889.350520,-4909.895946,13846.860987,3173.634788,17083.393584,4780.658159,-294.264008,-859.367981,-422.608002,8260.000000,-6300.000000,6300.000000
9312.630810,12144.999164,156.864543,-164.710005,7802.681065,6170.042595,11514.657618,-16387.047337,12441.048019,7223.234442,9887.361215,-4942.462437,13835.774521,3179.267428,17049.351877,4741.654365,-294.264008,-859.367981,-423.584015,8260.000000,-6440.000000,6160.000000
9358.876569,12253.740401,254.206390,-98.727655,7924.609831,6188.795708,11553.259081,-16321.936705,12495.094537,7331.148664,9901.286352,-4866.310044,13878.175781,3217.801835,17099.129212,4825.674573,-297.192017,-862.296021,-420.656006,8120.000000,-6440.000000,5740.000000
9418.220451,12488.009034,409.573365,55.231161,8125.440255,6237.924843,11671.611568,-16180.517218,12582.445154,7456.944282,9926.923803,-4714.809920,13957.435066,3265.165182,17232.479719,4999.593496,-296.704010,-862.296021,-423.096008,8400.000000,-6720.000000,5320.000000
9427.831701,12630.881385,473.029968,156.216342,8212.097968,6273.218247,11758.917482,-16099.961531,12620.934858,7480.659483,9942.994707,-4620.574966,14002.719701,3277.279827,17331.296781,5112.313344,-300.119995,-859.367981,-422.119995,8820.000000,-6580.000000,4760.000000
9371.661767,12537.674610,381.723092,96.403074,8094.259571,6255.716831,11720.226612,-16165.206273,12570.710489,7382.736490,9932.757608,-4673.727414,13968.722697,3241.941719,17296.137487,5054.154104,-298.167999,-862.783997,-421.632019,8820.000000,-6860.000000,4200.000000
9342.045706,12425.737074,305.727161,19.088390,7996.314227,6228.380648,11660.726268,-16229.959277,12522.386017,7323.794940,9915.546765,-4747.644633,13927.751950,3216.237213,17227.897612,4966.624673,-296.216003,-862.783997,-422.119995,8680.000000,-6860.000000,3780.000000
9330.758075,12340.107541,253.200561,-37.908559,7932.611755,6208.733464,11616.425111,-16271.891150,12489.394842,7282.555971,9905.130852,-4812.352933,13895.274865,3195.628905,17168.933710,4889.779376,-298.167999,-864.736023,-421.632019,9100.000000,-6720.000000,3500.000000
9309.032179,12233.534424,189.833366,-106.103731,7852.413696,6187.007569,11564.256139,-16326.161185,12447.373563,7230.141131,9893.709110,-4888.684140,13857.992155,3174.148878,17108.941628,4804.730988,-299.631989,-861.807983,-419.192017,9240.000000,-6720.000000,3220.000000
9297.945714,12139.657097,144.213455,-173.158964,7791.169917,6168.187400,11506.700397,-16379.581854,12425.178280,7210.449244,9885.707186,-4946.709269,13832.444111,3167.108079,17050.491816,4734.792380,-303.536011,-863.760010,-420.656006,9380.000000,-6720.000000,2800.000000
9334.155540,12188.674472,198.885822,-145.509856,7860.907359,6175.854048,11516.289296,-16354.503197,12464.405592,7285.059367,9893.463241,-4905.425597,13853.164179,3196.813547,17068.395563,4768.431755,-296.704010,-861.320007,-418.216003,9660.000000,-6440.000000,2520.000000
9401.635456,12408.660341,356.152696,-1.184642,8062.967129,6222.368028,11625.388160,-16223.164347,12556.248910,7421.941450,9917.469015,-4756.987662,13927.506081,3250.256568,17190.145515,4930.012516,-300.119995,-863.272034,-418.216003,9800.000000,-6580.000000,2380.000000
9434.850149,12608.574344,472.046491,137.910263,8213.439073,6265.752764,11742.623060,-16105.594171,12622.946515,7491.813003,9938.837283,-4623.815968,13990.269779,3280.006740,17320.411482,5083.591352,-298.167999,-861.320007,-415.287994,9800.000000,-6160.000000,2240.000000
9387.799726,12578.198323,419.050505,123.068705,8146.361488,6261.707099,11744.858235,-16132.572726,12590.983521,7414.632429,9941.363030,-4639.238672,13980.144439,3255.062193,17329.508642,5075.723538,-298.656006,-861.320007,-413.335999,9800.000000,-5880.000000,2240.000000
9343.319755,12457.543606,326.938966,37.975614,8023.985687,6231.733409,11679.591141,-16214.313056,12535.774712,7334.456722,9929.069570,-4723.236528,13936.580889,3225.781408,17258.318336,4981.801508,-297.679993,-860.343994,-416.752014,9660.000000,-5740.000000,2240.000000
9332.657973,12373.590454,274.278256,-17.143788,7954.717631,6212.175633,11635.893480,-16262.279899,12503.118813,7291.541373,9910.495271,-4785.597895,13902.203906,3208.771731,17198.192143,4904.240954,-298.167999,-862.783997,-417.727997,9380.000000,-5460.000000,2100.000000
9323.985496,12281.680081,217.951860,-77.560553,7882.186220,6193.936609,11590.452384,-16309.777356,12470.351156,7247.664898,9895.273733,-4851.893169,13869.168028,3190.264486,17133.215622,4821.248927,-299.144012,-861.320007,-417.239990,9240.000000,-5320.000000,2380.000000
9308.272220,12170.837780,155.858714,-152.371842,7803.418672,6172.970673,11531.220261,-16370.127066,12438.544624,7214.360799,9884.768413,-4921.049466,13837.607364,3176.875791,17063.656993,4736.960499,-298.656006,-858.392029,-414.312012,9100.000000,-5320.000000,2520.000000
9322.398522,12146.899062,161.401947,-171.415528,7811.241783,6167.382737,11506.700397,-16386.555599,12451.396877,7250.414163,9888.098823,-4925.408056,13841.295402,3191.896163,17044.099217,4725.963441,-301.096008,-858.880005,-412.847992,8540.000000,-5320.000000,2800.000000
9385.564552,12315.610029,292.561983,-63.948341,7979.863343,6200.306857,11577.913055,-16288.923179,12529.113892,7379.674301,9909.958829,-4809.737779,13902.919162,3240.690022,17128.789977,4850.283843,-299.631989,-857.416016,-409.432007,8120.000000,-5040.000000,2660.000000
9429.485730,12538.009887,434.383802,84.444891,8162.477095,6248.743087,11697.450185,-16155.706782,12603.567553,7477.172610,9932.109407,-4665.412565,13975.160000,3277.950380,17261.559339,5017.564299,-298.656006,-856.440002,-412.847992,7700.000000,-5180.000000,3080.000000
9411.559631,12597.197306,441.245787,127.650813,8172.937712,6266.602131,11741.505473,-16125.934258,12609.066082,7448.987061,9941.027753,-4624.106541,13992.929637,3270.395490,17316.812851,5071.879038,-299.144012,-856.928040,-412.847992,7420.000000,-4900.000000,3080.000000
9357.803685,12470.798191,333.689193,44.658785,8037.955527,6239.780037,11680.194638,-16210.245038,12547.062343,7351.756972,9926.566175,-4704.505766,13946.840340,3233.716277,17256.597251,4985.310732,-296.704010,-854.000000,-409.432007,6720.000000,-4760.000000,3220.000000
9331.272165,12367.510780,266.343387,-22.955242,7954.449410,6216.534223,11630.171434,-16268.113705,12499.073148,7298.023379,9909.869422,-4779.339406,13905.601371,3212.683286,17196.292245,4901.692856,-298.656006,-858.880005,-408.455994,6440.000000,-4480.000000,3360.000000
9313.547231,12277.187380,217.504825,-86.657713,7892.579781,6195.858860,11584.305654,-16306.871630,12458.303566,7257.656128,9896.346616,-4850.015622,13871.224388,3190.979742,17131.360427,4823.417046,-297.192017,-857.903992,-408.455994,5740.000000,-4340.000000,3500.000000
9294.749414,12171.508333,150.851923,-157.356281,7810.168899,6174.311778,11528.850976,-16363.466247,12426.854661,7208.862270,9886.020110,-4924.871615,13835.707466,3168.113907,17064.908691,4735.529987,-296.216003,-855.463989,-408.455994,5320.000000,-4340.000000,3500.000000
9298.862135,12112.075044,128.366068,-190.593325,7784.687911,6165.594598,11492.082356,-16401.218343,12426.228812,7214.897241,9883.226142,-4953.392440,13824.173966,3176.026425,17033.437435,4695.788586,-297.679993,-855.952026,-407.968018,5040.000000,-4200.000000,3640.000000
9354.406220,12227.566508,232.078163,-110.439969,7916.831424,6189.421557,11540.429180,-16334.297220,12492.904066,7322.789111,9898.604142,-4868.522867,13871.403202,3220.931079,17092.043709,4782.647465,-298.167999,-856.440002,-407.968018,4340.000000,-4060.000000,3640.000000
9419.449797,12464.316185,397.503423,48.749155,8120.969906,6240.249424,11660.815675,-16192.475401,12586.155544,7451.289290,9925.493291,-4711.568917,13951.020116,3271.535429,17226.869431,4959.762688,-295.239990,-855.463989,-410.407990,3920.000000,-3920.000000,3640.000000
9427.339962,12605.132175,464.916285,148.594397,8207.225288,6276.414547,11750.312060,-16109.282209,12621.627763,7477.083203,9941.877120,-4617.915108,13996.505916,3285.572324,17331.587354,5076.885829,-294.264008,-858.392029,-409.920013,3080.000000,-3780.000000,3500.000000
9367.973729,12510.070206,373.363539,88.244687,8086.659978,6258.779020,11714.817490,-16175.085744,12567.693003,7379.026101,9932.221166,-4676.454327,13964.006479,3249.742478,17300.898409,5019.464197,-295.727997,-857.416016,-412.360016,2940.000000,-3500.000000,3360.000000
9334.334354,12388.096736,292.003190,-2.615154,7976.711747,6224.379685,11646.577614,-16246.723085,12512.931229,7316.642382,9915.770282,-4761.614473,13921.001723,3217.421856,17217.191126,4922.614088,-285.480011,-864.736023,-416.264008,2520.000000,-2940.000000,3080.000000
9331.540386,12324.103692,251.412422,-46.022242,7928.364924,6205.425406,11610.457195,-16278.909597,12491.786479,7286.981617,9904.639114,-4813.939907,13891.408013,3200.702751,17162.474056,4854.865951,-286.944000,-862.296021,-419.192017,280.000000,280.000000,1400.000000
9323.694923,12261.071773,209.637011,-84.400187,7880.867467,6192.126118,11578.181276,-16314.895906,12467.870112,7250.950605,9893.575000,-4864.611312,13865.927025,3188.901030,17115.021302,4792.281066,-287.432007,-865.712036,-418.704010,-1680.000000,4060.000000,-140.000000
9312.563755,12186.126374,169.627389,-131.562368,7827.938536,6178.111574,11536.584680,-16361.052258,12447.418266,7227.145997,9884.835468,-4913.114597,13844.759923,3183.804832,17068.663784,4738.435714,-286.455994,-868.152039,-424.071991,-4340.000000,7420.000000,-1960.000000
9342.537444,12237.937717,225.216177,-97.498309,7897.318351,6187.253438,11554.711944,-16329.312781,12481.527028,7294.424748,9889.171706,-4874.960169,13866.463466,3211.476292,17092.021357,4781.887505,-284.503998,-871.567993,-423.096008,-6300.000000,9520.000000,-2660.000000
9407.670427,12455.755467,383.399473,45.910483,8096.830022,6232.850997,11664.391954,-16198.286855,12568.229445,7426.054171,9913.624515,-4730.612603,13939.128988,3263.667615,17213.838364,4945.144647,-288.895996,-868.640015,-423.096008,-7980.000000,12320.000000,-3080.000000
9448.618823,12662.531455,503.540099,184.536002,8245.446771,6277.800355,11780.352805,-16083.287130,12640.492635,7499.993742,9938.345544,-4593.484651,14004.373730,3294.222450,17341.288011,5099.684608,-286.455994,-863.272034,-423.584015,-8820.000000,14420.000000,-3220.000000
9408.162166,12643.107789,449.091250,171.728453,8179.620883,6276.548657,11783.347938,-16107.829345,12615.235164,7427.484682,9938.166730,-4604.414654,13996.237695,3267.221542,17351.011020,5095.840108,-288.407990,-860.832031,-413.824005,-9660.000000,15260.000000,-3080.000000
9365.738555,12520.396712,351.347071,84.824870,8057.222731,6246.999651,11720.047798,-16184.406422,12557.791180,7347.666603,9922.296992,-4688.390158,13948.449665,3234.498588,17283.844028,5006.611944,-292.800018,-862.296021,-413.335999,-9940.000000,15540.000000,-2940.000000
9344.996136,12424.150100,290.595030,18.641355,7981.338558,6225.050238,11670.024594,-16230.093387,12514.384093,7299.252725,9906.382550,-4763.916703,13907.165993,3212.996210,17219.694521,4924.737504,-290.847992,-858.880005,-413.335999,-10360.000000,14840.000000,-2520.000000
9327.673534,12331.032733,236.324994,-44.345861,7913.299848,6206.051255,11622.415378,-16270.527693,12478.107211,7254.996271,9892.479765,-4835.934023,13872.699603,3194.131338,17155.589718,4842.885416,-287.920013,-860.343994,-408.944000,-10080.000000,14140.000000,-2380.000000
9305.053568,12216.547098,169.269761,-119.224205,7830.620745,6183.096013,11562.177427,-16332.732598,12441.562109,7210.605706,9880.052195,-4910.901774,13836.288611,3177.792213,17086.075793,4756.451220,-289.384003,-857.416016,-404.063995,-8680.000000,12740.000000,-2520.000000
9317.123510,12188.696824,172.019025,-141.643005,7832.408885,6175.898752,11533.097808,-16349.831682,12448.446446,7244.513302,9879.113421,-4918.836644,13834.634582,3187.247001,17061.220653,4740.112095,-292.800018,-855.952026,-403.088013,-7140.000000,11760.000000,-2520.000000
9378.590808,12357.519550,304.296649,-31.650070,8001.745701,6210.789825,11610.926582,-16247.751265,12525.023523,7371.582970,9898.671198,-4803.769863,13896.995949,3234.677402,17154.583890,4867.382928,-291.824005,-857.416016,-400.160004,-5040.000000,10500.000000,-2520.000000
9426.043561,12586.244951,451.102907,122.688725,8190.260314,6260.433049,11737.482159,-16109.841002,12601.444137,7472.389337,9921.313515,-4656.807143,13972.298976,3276.832792,17296.942150,5042.352383,-292.800018,-859.367981,-399.183990,-3500.000000,9520.000000,-2520.000000
9417.348733,12658.374030,465.966817,170.342644,8206.375922,6278.292093,11785.314892,-16080.537865,12618.140890,7451.155180,9933.137588,-4609.577907,13994.628369,3272.273037,17355.973107,5102.813852,-292.312012,-861.320007,-401.136017,-1960.000000,7840.000000,-2100.000000
9366.029127,12537.987535,363.193496,86.948286,8072.153696,6248.385459,11723.758188,-16165.966233,12560.272224,7356.473190,9919.793596,-4685.976170,13950.997764,3234.453885,17296.316301,5017.519595,-292.800018,-857.416016,-405.528015,-1120.000000,6300.000000,-1960.000000
9344.571453,12441.986792,295.557117,19.960108,7988.826393,6224.826720,11670.292815,-16221.599724,12517.401578,7307.098187,9904.840279,-4752.919644,13913.692702,3213.823225,17234.849004,4934.773437,-293.287994,-857.416016,-406.992004,-840.000000,5460.000000,-1540.000000
9330.221633,12361.319347,244.371622,-31.091277,7927.694372,6208.621706,11628.897384,-16261.095257,12483.873961,7264.875742,9891.652750,-4813.045837,13883.584903,3198.221707,17180.735431,4860.409184,-293.287994,-860.343994,-407.480011,140.000000,4480.000000,-980.000000
9303.757167,12251.125246,175.751767,-98.012399,7849.172693,6188.415729,11574.984977,-16316.326417,12442.746752,7211.879755,9878.442869,-4887.499498,13850.660783,3180.921457,17120.296314,4777.104232,-290.847992,-859.367981,-411.384003,1120.000000,4200.000000,-700.000000
9302.326656,12183.645330,149.086136,-140.950101,7816.449740,6174.870571,11530.817930,-16353.854996,12435.035400,7214.874889,9874.508962,-4924.625745,13839.194338,3183.156631,17081.136058,4736.133484,-291.335999,-862.783997,-412.847992,2660.000000,4340.000000,-560.000000
9346.516054,12281.501267,242.985814,-75.459489,7931.114189,6194.674217,11568.950006,-16291.024243,12485.282121,7315.435388,9887.294160,-4853.569550,13877.773449,3220.059361,17130.309895,4815.728046,-291.824005,-862.783997,-411.872009,4200.000000,4760.000000,-700.000000
9411.671390,12517.893316,409.014572,86.076568,8138.068990,6244.384497,11689.761184,-16149.582404,12578.734765,7441.588633,9915.256192,-4697.979057,13955.088133,3266.930970,17268.778952,4991.792737,-286.944000,-863.760010,-417.727997,5740.000000,5040.000000,-700.000000
9431.050352,12664.163132,488.184451,181.250296,8229.621736,6278.917942,11771.322700,-16069.004365,12628.020361,7474.244532,9936.467998,-4602.447701,14003.524363,3279.045615,17360.912843,5101.249230,-291.335999,-863.760010,-415.776001,7420.000000,5460.000000,-980.000000
9382.211790,12576.410183,402.621973,120.565310,8114.398493,6261.483581,11734.732894,-16130.561069,12583.987425,7381.104813,9929.941288,-4658.662338,13973.997709,3243.260472,17324.837127,5046.509808,-288.407990,-865.712036,-416.264008,8680.000000,5600.000000,-1120.000000
9347.007793,12464.897330,322.446266,49.710280,8014.665009,6234.974412,11684.486173,-16191.983663,12530.924384,7317.737617,9913.557460,-4735.105304,13931.752912,3217.041876,17266.946109,4965.462382,-286.944000,-863.272034,-416.752014,9940.000000,6160.000000,-1400.000000
9326.332429,12374.372765,263.907047,-8.247794,7945.419305,6213.695552,11640.721457,-16234.340219,12487.830220,7270.597788,9896.592485,-4805.200375,13894.023167,3196.277105,17205.657626,4886.493669,-289.872009,-863.272034,-415.287994,10780.000000,6860.000000,-1820.000000
9307.959295,12272.292348,200.919831,-78.678140,7866.942330,6193.355464,11583.143363,-16288.789068,12451.374525,7225.022581,9882.823811,-4882.380948,13857.165141,3174.998245,17135.495500,4799.746549,-285.480011,-863.760010,-414.312012,11200.000000,7280.000000,-2240.000000
9292.871868,12176.582179,151.991862,-144.392269,7803.239859,6173.194191,11526.816967,-16344.131988,12425.647667,7203.095520,9873.793706,-4943.714135,13830.857138,3167.532762,17078.230331,4732.043115,-287.432007,-861.807983,-412.360016,10920.000000,7840.000000,-2660.000000
9319.023409,12207.204069,198.371732,-127.226129,7859.163923,6176.770470,11532.024924,-16327.211717,12451.821560,7269.748422,9878.219352,-4916.981449,13850.526673,3192.052626,17090.769659,4763.022633,-285.968018,-860.832031,-413.335999,10920.000000,7980.000000,-2660.000000
9388.917314,12423.613658,355.549199,14.618041,8054.965205,6223.373857,11638.642745,-16203.584218,12542.502587,7407.658685,9902.806270,-4772.969159,13924.555650,3243.729859,17209.569181,4924.625745,-286.944000,-858.392029,-414.800018,9940.000000,8400.000000,-3080.000000
9429.843358,12633.898870,475.466308,157.557447,8210.086311,6270.021948,11757.151694,-16086.215208,12614.743425,7484.213410,9926.163843,-4635.058896,13991.141497,3276.765737,17341.109197,5081.959675,-286.455994,-861.807983,-410.407990,9100.000000,8400.000000,-3080.000000
9395.533430,12623.058274,432.238034,154.964644,8154.765744,6269.440802,11767.321738,-16105.057729,12597.174954,7417.404046,9929.181329,-4637.405829,13985.754727,3252.603501,17359.527035,5083.747814,-284.992004,-857.903992,-410.407990,7980.000000,8260.000000,-3080.000000
9348.773581,12500.011921,340.841751,74.855992,8035.653297,6239.400058,11707.352007,-16184.875808,12537.294631,7334.121446,9915.010323,-4718.654420,13940.872424,3222.361591,17295.310473,4993.647932,-285.968018,-857.416016,-410.407990,6440.000000,7560.000000,-2800.000000
9325.907746,12407.341588,281.274352,13.142826,7961.199637,6216.444816,11660.860379,-16235.010771,12494.423985,7283.159469,9900.347579,-4792.683398,13904.081452,3199.093425,17231.920926,4909.091283,-288.895996,-854.976013,-408.455994,5320.000000,6720.000000,-2520.000000
9309.032179,12312.503137,218.443599,-47.363347,7892.870354,6197.490537,11615.441634,-16279.155466,12455.688412,7236.846654,9881.393299,-4862.376137,13869.056269,3179.446242,17169.961890,4829.899052,-287.920013,-860.832031,-407.968018,4200.000000,5460.000000,-1960.000000
9292.134260,12199.380958,150.404888,-124.834493,7811.554707,6175.071737,11552.342660,-16340.108674,12422.116092,7194.825374,9868.049308,-4933.186463,13837.316792,3165.543457,17096.469354,4749.924511,-290.847992,-861.320007,-409.920013,3220.000000,4200.000000,-1540.000000
9312.362589,12174.682280,160.329063,-145.532208,7812.694646,6168.634435,11521.988991,-16360.627575,12437.136464,7231.817512,9871.603235,-4939.355545,13838.724952,3176.920495,17070.809552,4734.233586,-286.944000,-861.320007,-407.968018,2100.000000,3080.000000,-1120.000000
9380.200133,12347.081285,297.568774,-31.940643,7983.551381,6205.157185,11600.845945,-16262.749286,12520.799043,7367.045565,9893.686759,-4823.037067,13900.862801,3226.675478,17161.647041,4860.051556,-287.920013,-860.343994,-411.384003,1120.000000,1540.000000,-700.000000
9438.046448,12587.071966,448.867732,127.002612,8180.827878,6258.130820,11729.144958,-16124.861374,12609.714283,7482.000587,9923.794559,-4670.419356,13980.077384,3270.753118,17305.301703,5036.585633,-289.872009,-862.296021,-408.944000,840.000000,560.000000,-280.000000
9422.422579,12660.385687,462.926979,176.668188,8202.844346,6275.498125,11781.559799,-16090.797316,12617.045655,7460.319395,9935.372762,-4623.167768,14001.870334,3263.153525,17367.148980,5099.729311,-289.384003,-861.807983,-410.895996,700.000000,-700.000000,420.000000
9368.241950,12541.876738,360.667749,98.302972,8072.913655,6248.966604,11727.714447,-16169.676622,12556.517131,7361.502333,9923.124006,-4700.817728,13956.853921,3226.340202,17313.057758,5021.185281,-288.895996,-864.247986,-407.968018,700.000000,-2100.000000,980.000000
9349.153560,12446.926528,299.021637,32.253567,7990.234553,6227.508930,11679.412327,-16223.946658,12518.630924,7313.133158,9910.919954,-4770.242246,13919.951191,3205.106044,17248.304754,4940.651946,-291.824005,-860.832031,-409.432007,1120.000000,-3220.000000,1540.000000
9331.495682,12353.607995,241.935282,-31.493608,7919.647744,6209.091092,11634.172396,-16271.310004,12481.303511,7269.189628,9898.671198,-4842.080753,13885.171877,3183.961294,17181.204817,4858.598692,-295.239990,-864.247986,-408.455994,1260.000000,-4200.000000,2240.000000
9307.400502,12240.619927,173.136613,-105.097902,7839.181464,6189.309798,11579.388270,-16327.412883,12437.695257,7220.552232,9884.388433,-4918.814292,13849.319678,3166.549285,17114.663674,4776.143107,-291.824005,-862.296021,-408.944000,2100.000000,-5320.000000,2800.000000
9297.409272,12167.730888,141.061859,-151.902455,7802.904582,6175.362310,11537.791674,-16364.516779,12420.886746,7215.433683,9878.331110,-4957.415754,13832.354704,3166.415175,17077.380964,4733.384220,-290.360016,-864.247986,-406.992004,3220.000000,-6720.000000,3500.000000
9338.067095,12261.876436,226.445523,-96.201908,7911.645819,6189.823889,11568.972357,-16308.235086,12468.987700,7311.009742,9889.082299,-4887.253629,13866.262301,3202.177966,17120.050445,4806.899107,-289.872009,-861.320007,-406.015991,4480.000000,-7700.000000,3920.000000
9407.066930,12500.749528,389.233278,60.752041,8117.550089,6239.109485,11688.062452,-16166.659137,12566.530712,7441.745095,9915.770282,-4729.003278,13945.275717,3253.475219,17256.239624,4983.187316,-290.360016,-860.832031,-405.528015,5880.000000,-8260.000000,4200.000000
9427.921108,12657.703478,472.225305,169.269761,8218.468215,6275.721642,11782.207999,-16078.190932,12616.799786,7479.296026,9935.462169,-4624.151245,13997.310579,3272.854182,17364.757343,5103.596163,-292.800018,-863.272034,-406.992004,7140.000000,-8680.000000,4200.000000
9378.277883,12575.314948,389.903830,114.351525,8104.384912,6258.287282,11747.920423,-16138.205366,12571.984538,7388.838516,9928.868404,-4672.051033,13967.627462,3237.963109,17334.090750,5052.813000,-292.312012,-859.367981,-406.992004,8120.000000,-8820.000000,4060.000000
9347.141903,12463.712688,314.801969,37.282710,8002.371550,6230.414656,11690.029405,-16206.288780,12522.430721,7325.694838,9913.244535,-4746.683508,13925.650886,3211.900975,17265.515598,4965.305920,-291.824005,-862.296021,-408.944000,8680.000000,-8680.000000,3780.000000
9327.248851,12372.763440,257.536800,-24.184588,7933.550529,6210.298086,11645.437675,-16249.628812,12480.722365,7278.666768,9896.748948,-4813.492872,13890.245723,3191.560887,17201.634312,4885.554896,-291.824005,-864.736023,-407.480011,9380.000000,-8260.000000,3500.000000
9302.371359,12264.871569,187.687598,-93.676161,7855.364127,6190.293275,11591.927599,-16303.585923,12438.097589,7227.615384,9882.734404,-4888.885306,13853.700620,3170.393785,17132.857994,4799.567735,-288.895996,-861.807983,-407.968018,9660.000000,-7420.000000,3080.000000
9290.279065,12163.551112,131.540016,-159.300883,7789.672350,6170.668444,11538.506930,-16358.884139,12413.287152,7203.386093,9875.313625,-4949.682051,13827.034989,3163.464745,17076.151618,4728.444484,-291.824005,-863.760010,-407.480011,9800.000000,-6440.000000,2800.000000
9327.695886,12203.337217,180.199764,-135.831551,7850.893778,6177.329263,11543.580776,-16339.169900,12453.564996,7274.375233,9883.337901,-4914.567460,13848.380905,3192.231440,17090.479087,4758.596988,-293.776001,-862.296021,-407.480011,9520.000000,-6300.000000,2520.000000
9395.041692,12418.204536,336.907844,3.352762,8047.253853,6221.250441,11644.498902,-16211.094405,12543.553119,7412.710179,9905.354369,-4774.131450,13921.873441,3244.266301,17205.635274,4915.841510,-295.239990,-859.856018,-408.944000,9240.000000,-5600.000000,2520.000000
9431.586794,12623.393550,461.585875,141.397135,8200.944448,6267.183276,11756.972880,-16093.211304,12609.133137,7489.555477,9925.247422,-4642.859655,13987.922846,3272.474202,17333.956639,5069.442698,-291.824005,-858.880005,-408.455994,8540.000000,-5600.000000,2520.000000
9396.472203,12618.699684,422.447970,144.951063,8151.345927,6270.513686,11769.981595,-16110.846831,12590.737652,7424.958935,9927.192024,-4644.670146,13986.805259,3253.095240,17356.889529,5074.941227,-295.239990,-856.928040,-405.528015,7840.000000,-5460.000000,2520.000000
9353.959185,12502.872944,328.213016,65.445908,8034.245137,6243.445723,11709.609534,-16189.010881,12536.802892,7346.817237,9912.015189,-4721.738961,13946.058028,3223.814455,17291.801249,4986.048339,-291.824005,-860.832031,-407.968018,6860.000000,-5600.000000,2520.000000
9334.647278,12411.029626,265.896352,1.385808,7962.205465,6224.223223,11659.385164,-16239.078789,12497.977912,7298.626876,9896.078395,-4790.068244,13910.295237,3201.619172,17227.338818,4903.771568,-294.752014,-853.023987,-406.992004,6160.000000,-5880.000000,2660.000000
9315.022447,12309.709169,203.914965,-67.703434,7888.467060,6204.419578,11607.797338,-16286.196266,12458.772952,7248.514265,9881.393299,-4862.756117,13872.699603,3179.178021,17161.445875,4819.952526,-294.752014,-855.463989,-404.063995,5180.000000,-6440.000000,2800.000000
9299.152708,12200.118566,140.436010,-140.726583,7806.547917,6182.693682,11546.307689,-16345.540147,12431.280307,7208.191718,9872.944340,-4934.080533,13838.724952,3161.788364,17092.803668,4736.044077,-296.704010,-856.928040,-410.407990,4200.000000,-6860.000000,2800.000000
9312.787272,12172.737679,145.800429,-159.032662,7807.307876,6177.418670,11521.541956,-16360.158188,12441.003316,7240.512340,9875.425383,-4940.584891,13836.534481,3173.992416,17070.854255,4721.716609,-297.192017,-855.952026,-407.968018,3220.000000,-7140.000000,2800.000000
9375.282750,12337.090056,277.765128,-49.419707,7972.800192,6210.298086,11596.889686,-16259.128303,12516.283991,7366.598531,9895.251381,-4824.936965,13894.269037,3225.088504,17159.657736,4845.411163,-297.192017,-856.928040,-406.992004,1960.000000,-7560.000000,2660.000000
9428.323439,12570.621082,430.896930,107.400132,8164.734622,6260.365994,11722.774711,-16119.318142,12597.711396,7473.641035,9921.358218,-4670.933446,13969.795581,3270.261380,17301.837182,5021.699372,-295.239990,-854.976013,-406.015991,980.000000,-7980.000000,2660.000000
9415.806462,12648.919242,454.589779,163.748880,8190.305017,6280.080233,11780.643377,-16080.224941,12610.608352,7455.446715,9930.790655,-4617.445721,13990.090965,3267.109784,17370.792314,5092.017960,-296.216003,-854.976013,-406.992004,0.000000,-7560.000000,2940.000000
9368.912502,12535.528843,354.923350,90.412806,8060.061402,6254.286320,11729.077903,-16159.104247,12559.780486,7362.530513,9917.647829,-4689.597152,13944.471055,3232.196359,17318.891563,5016.267898,-298.656006,-858.880005,-408.455994,-980.000000,-7560.000000,2800.000000
9348.460656,12436.510615,289.186870,20.362439,7972.710785,6229.297069,11675.903103,-16219.588067,12518.586221,7311.389722,9902.739215,-4760.251017,13905.422557,3208.168233,17252.283365,4932.337097,-297.679993,-857.903992,-406.992004,-1820.000000,-7420.000000,2800.000000
9329.528729,12345.740181,236.235587,-41.216617,7904.984999,6208.286429,11629.098550,-16263.889225,12478.956578,7266.730936,9887.137698,-4829.541424,13871.269092,3188.766919,17189.184390,4851.133210,-295.727997,-858.392029,-408.455994,-2100.000000,-7000.000000,2800.000000
9307.914592,12239.636450,176.891706,-112.384571,7826.664487,6189.846240,11572.146305,-16319.634476,12442.255013,7220.686343,9874.643072,-4903.860975,13835.908632,3172.696015,17121.793881,4768.901142,-296.704010,-857.416016,-410.407990,-2240.000000,-6860.000000,2800.000000
9300.762034,12159.997184,147.655624,-166.006406,7784.844373,6175.809345,11521.474900,-16364.449723,12426.519385,7217.825320,9871.759697,-4947.983318,13820.821204,3172.427794,17073.782334,4718.922641,-297.679993,-858.880005,-406.992004,-1960.000000,-6440.000000,2800.000000
9342.425685,12250.231177,234.469799,-109.434141,7892.043339,6192.059063,11555.024869,-16307.139851,12473.234531,7314.094283,9883.069680,-4883.073852,13859.243853,3208.324696,17121.235087,4793.398654,-299.631989,-858.880005,-408.455994,-1820.000000,-6020.000000,2520.000000
9413.705398,12493.395805,400.230336,53.018338,8101.747406,6240.428238,11677.043042,-16166.681488,12574.644396,7448.182398,9911.344637,-4722.051885,13939.732485,3260.963054,17261.536987,4972.547885,-300.119995,-859.367981,-408.455994,-1120.000000,-5460.000000,2520.000000
9433.307878,12655.244786,480.406044,163.637121,8208.320523,6276.325140,11772.909674,-16078.034470,12627.461568,7486.582695,9933.048181,-4616.149320,13991.543828,3278.173897,17370.211169,5096.577715,-297.679993,-858.880005,-407.968018,-700.000000,-4900.000000,2100.000000
9385.341035,12580.411146,396.721112,115.692629,8102.775586,6263.159962,11746.802836,-16134.070293,12586.468468,7394.158232,9928.041390,-4662.015100,13964.609976,3244.556873,17349.222881,5050.153142,-295.239990,-858.392029,-409.920013,0.000000,-4340.000000,1960.000000
9353.735668,12467.378374,317.908861,38.467352,7998.929381,6236.762552,11689.649426,-16202.086652,12535.506491,7328.913489,9912.439872,-4740.603833,13922.968676,3215.097274,17281.854723,4960.924978,-296.704010,-858.880005,-407.480011,700.000000,-3360.000000,1400.000000
9330.445150,12371.511742,260.151954,-29.370192,7924.922755,6214.768435,11638.888614,-16250.813454,12488.567828,7277.929160,9892.658578,-4814.588107,13885.417746,3192.454957,17211.424376,4875.876591,-295.727997,-857.416016,-406.992004,1260.000000,-2940.000000,1260.000000
9307.467557,12266.123267,197.745883,-101.342809,7844.098847,6193.847203,11584.216247,-16305.329359,12447.485321,7228.777674,9877.504096,-4890.114652,13849.722010,3173.791250,17139.407055,4784.904991,-295.239990,-859.367981,-406.015991,1960.000000,-1960.000000,560.000000
9295.263504,12173.832914,149.711984,-159.189124,7785.202001,6175.697586,11534.595374,-16358.526511,12422.898403,7207.051779,9870.508000,-4948.206836,13826.498547,3168.896218,17086.500476,4719.056752,-296.704010,-859.856018,-406.992004,2520.000000,-980.000000,0.000000
9322.309115,12203.717196,192.828499,-139.877217,7839.114408,6180.033824,11539.535110,-16342.634421,12449.452275,7270.977768,9875.827715,-4921.675315,13844.290536,3191.784405,17097.139907,4750.885636,-296.216003,-861.320007,-407.480011,2940.000000,-140.000000,-140.000000
9385.184572,12411.029626,348.821324,-0.938773,8034.043972,6223.843244,11642.040210,-16217.129376,12534.433607,7404.864717,9898.671198,-4781.865154,13914.430310,3245.763868,17211.938466,4909.650077,-296.704010,-861.320007,-409.432007,3220.000000,560.000000,-700.000000
9421.796730,12617.045655,470.593628,140.614824,8192.607247,6270.312520,11757.397563,-16096.876990,12600.840640,7480.547724,9920.106521,-4647.642928,13977.126953,3277.570400,17339.410465,5066.805192,-296.216003,-860.343994,-408.944000,3500.000000,1400.000000,-980.000000
9388.000892,12611.256553,428.102962,142.022984,8141.421752,6270.670148,11767.947587,-16111.204459,12585.842620,7417.091121,9922.229936,-4650.548655,13970.086154,3254.726917,17359.839959,5073.287198,-293.287994,-862.296021,-410.895996,4200.000000,1820.000000,-1260.000000
9348.527711,12493.820488,333.778600,63.769527,8021.862271,6241.143494,11706.368531,-16191.536628,12532.891337,7337.921242,9907.611896,-4729.942051,13926.276735,3223.590937,17299.154973,4985.646008,-294.752014,-859.367981,-411.872009,4340.000000,2380.000000,-1400.000000
9334.870796,12401.932466,274.054739,0.201166,7945.821636,6217.696514,11652.992565,-16244.890242,12494.915723,7293.173050,9893.642055,-4798.114872,13890.469240,3199.629867,17232.837347,4901.469338,-295.239990,-860.832031,-408.455994,4480.000000,2660.000000,-1540.000000
9320.230403,12305.730558,218.801226,-64.842411,7872.686729,6198.406958,11603.662265,-16289.817249,12460.069354,7249.073058,9880.320416,-4865.863009,13857.343955,3179.245076,17166.072686,4816.845634,-294.264008,-862.296021,-411.872009,4760.000000,3220.000000,-1680.000000
9294.771766,12191.557847,155.769307,-137.887912,7793.941533,6176.546952,11544.519549,-16348.132950,12422.227850,7202.559078,9865.434154,-4938.930862,13826.096216,3163.397689,17099.844468,4733.339516,-296.704010,-861.320007,-409.432007,4900.000000,3080.000000,-1680.000000
9295.039987,12155.437428,152.952987,-159.747918,7794.477975,6168.656787,11521.497252,-16365.254386,12417.757501,7220.574584,9860.874398,-4954.510028,13822.229364,3173.545381,17082.566569,4719.392028,-294.264008,-862.296021,-408.944000,4760.000000,3220.000000,-1820.000000
9354.942662,12314.268925,279.575620,-56.684024,7956.304605,6200.955057,11594.386291,-16269.387754,12491.294741,7345.207911,9881.661520,-4844.628852,13878.622815,3222.674516,17168.330213,4841.521959,-295.727997,-862.296021,-412.847992,4620.000000,3220.000000,-1680.000000
9414.755930,12552.762038,435.501389,101.387513,8149.826008,6252.520532,11719.466653,-16130.337552,12582.199285,7461.884017,9910.137643,-4687.697254,13956.742162,3265.992196,17307.000435,5018.659534,-291.824005,-863.272034,-412.360016,4620.000000,3080.000000,-1540.000000
9409.883250,12641.721981,460.736508,163.123031,8180.045567,6274.224076,11778.296444,-16088.986825,12602.919352,7448.092991,9922.989896,-4627.504006,13982.379613,3264.718147,17376.492009,5091.235649,-291.824005,-858.880005,-411.384003,4480.000000,2800.000000,-1260.000000
9358.720107,12528.353933,358.365519,87.954114,8049.600786,6248.676032,11724.808720,-16170.458933,12548.001116,7351.622862,9911.165823,-4698.940182,13940.201871,3229.178873,17322.892526,5014.345648,-296.216003,-863.760010,-406.503998,4340.000000,2940.000000,-1120.000000
9335.362534,12425.647667,289.432739,16.987326,7962.004299,6223.373857,11667.409440,-16231.076864,12503.297627,7299.565649,9894.804346,-4773.706767,13900.147545,3205.128396,17255.502016,4931.510083,-292.800018,-862.783997,-409.920013,4060.000000,2660.000000,-1260.000000
9324.566641,12344.846111,241.264730,-36.567454,7902.816880,6206.364179,11622.795358,-16270.594748,12472.608682,7262.394698,9883.136735,-4838.906805,13869.458600,3184.855364,17195.889914,4856.899960,-291.335999,-863.760010,-410.895996,4060.000000,2380.000000,-980.000000
9304.584182,12236.395447,177.316389,-105.232013,7823.892870,6186.135851,11569.061764,-16326.742330,12435.862414,7214.897241,9871.603235,-4913.382818,13834.634582,3163.867076,17129.013494,4771.940979,-295.239990,-863.272034,-410.407990,4200.000000,2380.000000,-700.000000
9301.521993,12160.690088,144.347566,-157.043357,7781.469259,6170.444926,11519.507947,-16369.009479,12424.530080,7211.879755,9867.915197,-4955.873484,13817.803719,3162.458916,17079.996119,4720.755484,-294.264008,-862.783997,-406.503998,4200.000000,2100.000000,-560.000000
9348.840636,12254.545063,228.635994,-95.687818,7892.065691,6188.281618,11559.361107,-16310.179688,12475.939092,7307.142890,9880.029843,-4887.745367,13854.259414,3199.607515,17131.561593,4795.924401,-293.776001,-864.247986,-409.920013,3920.000000,1960.000000,-420.000000
9414.644172,12488.679586,389.322685,62.383719,8100.540412,6238.841264,11683.435641,-16169.296642,12566.776582,7439.331107,9905.823756,-4730.836121,13930.836490,3251.843542,17268.577787,4973.307845,-289.872009,-862.296021,-410.407990,4200.000000,1960.000000,-140.000000
9427.876404,12648.002821,472.471174,171.281418,8205.615962,6276.056919,11778.922293,-16077.408621,12609.334303,7476.658520,9922.811082,-4625.849977,13980.859695,3268.473240,17374.480352,5098.298800,-293.776001,-865.712036,-408.944000,3640.000000,1960.000000,0.000000
9375.573322,12572.766849,390.999066,120.542958,8099.221659,6261.751802,11750.423819,-16132.013933,12564.608462,7385.373996,9916.820814,-4670.128783,13953.143531,3233.805684,17349.155825,5053.707070,-291.335999,-864.736023,-408.455994,3640.000000,2100.000000,-140.000000
9342.984479,12457.320089,312.008001,37.193303,7993.944942,6233.588604,11686.944865,-16201.706672,12511.008979,7321.850338,9901.219297,-4749.812752,13910.429348,3205.955411,17277.630243,4963.495429,-290.360016,-862.296021,-409.432007,3780.000000,2100.000000,140.000000
9323.449054,12364.470943,254.943997,-27.470294,7922.642877,6210.901584,11638.285117,-16250.858158,12468.563016,7274.688157,9884.075509,-4823.774674,13871.582016,3182.910762,17211.111452,4879.676387,-291.824005,-863.272034,-408.944000,3360.000000,2100.000000,280.000000
9305.232382,12265.497418,196.404779,-91.396283,7848.099810,6191.075586,11587.479602,-16304.055310,12433.537833,7229.761151,9871.379718,-4896.753120,13837.562661,3163.800021,17144.413846,4795.343255,-290.847992,-866.200012,-409.920013,3080.000000,2240.000000,420.000000
9284.601722,12164.333423,144.973415,-157.110412,7781.692777,6172.009548,11530.728523,-16360.739334,12403.631199,7201.396787,9859.957976,-4959.963853,13810.427643,3153.115887,17083.393584,4725.695220,-292.312012,-863.272034,-412.847992,3080.000000,2240.000000,700.000000
9308.808662,12188.361548,184.983037,-139.452534,7833.012382,6176.524601,11533.522491,-16346.367162,12429.201594,7261.500628,9864.405973,-4934.460513,13825.582126,3178.552172,17094.122421,4752.338499,-290.360016,-862.296021,-408.455994,3080.000000,2100.000000,840.000000
9384.581075,12403.251219,343.211036,4.380942,8032.568757,6220.646944,11641.146140,-16218.559887,12525.649372,7404.015351,9892.278599,-4788.391863,13900.304008,3234.677402,17217.794623,4912.421693,-292.800018,-863.760010,-408.455994,2800.000000,1680.000000,1120.000000
9427.362314,12614.162280,469.073709,142.984109,8191.221439,6265.395137,11757.375211,-16098.732185,12600.706530,7487.566172,9917.804291,-4651.174504,13966.331061,3265.165182,17345.825415,5068.213352,-292.312012,-863.760010,-409.920013,2800.000000,1680.000000,1120.000000
9394.058215,12609.244896,430.718116,136.747973,8139.767723,6265.730413,11764.997156,-16114.378406,12584.546218,7426.948241,9919.905355,-4650.705117,13962.039526,3240.622966,17357.269509,5074.717709,-289.384003,-864.736023,-408.944000,2800.000000,1400.000000,1680.000000
9351.053459,12486.489116,336.751382,50.760812,8013.055684,6235.801427,11701.428795,-16194.822335,12529.516224,7344.894987,9905.287314,-4730.210272,13916.889002,3207.341219,17284.626339,4984.908400,-297.192017,-865.223999,-407.968018,2660.000000,1120.000000,2100.000000
9328.500548,12391.494202,276.871059,-11.421741,7937.752657,6212.376799,11654.199559,-16243.504434,12482.935188,7292.927181,9886.154221,-4801.333523,13879.136906,3187.202297,17220.633295,4905.515004,-294.264008,-863.760010,-408.944000,2520.000000,840.000000,2100.000000
9309.456862,12301.595485,225.037363,-65.021225,7872.686729,6195.545935,11613.675846,-16285.123382,12443.506711,7248.603672,9871.044442,-4870.087489,13846.369248,3171.086689,17165.804466,4829.943756,-293.287994,-868.152039,-407.480011,2100.000000,140.000000,2380.000000
9287.105118,12193.860077,162.072499,-134.937481,7793.516850,6177.239856,11556.790657,-16347.104770,12407.721568,7205.822433,9858.303947,-4943.937653,13812.260486,3153.741736,17101.051462,4748.650461,-291.824005,-864.247986,-410.407990,2240.000000,140.000000,2660.000000
9295.330560,12161.561806,161.446650,-158.026833,7791.616951,6171.696624,11529.432121,-16369.076534,12413.264801,7229.716448,9858.371002,-4956.588740,13811.656989,3164.314111,17077.604482,4730.545548,-294.264008,-866.200012,-408.944000,2240.000000,-280.000000,3080.000000
9356.551988,12319.163957,289.924477,-56.862838,7950.470799,6203.860784,11596.666169,-16274.215731,12487.696110,7353.053373,9877.079413,-4850.328547,13869.995042,3210.738684,17158.763666,4846.662861,-290.847992,-866.687988,-406.992004,1540.000000,-980.000000,3220.000000
9418.600430,12560.093410,446.453744,102.169824,8142.941671,6254.263968,11717.767920,-16135.210232,12581.640492,7468.366023,9904.572058,-4693.732225,13949.299031,3255.330414,17295.489287,5017.877223,-293.287994,-866.687988,-409.920013,1680.000000,-1400.000000,3500.000000
9410.687913,12650.439161,473.566410,165.760537,8175.239942,6275.542829,11775.122497,-16092.116069,12603.545201,7459.492381,9917.714884,-4634.097771,13976.098773,3252.268225,17363.259776,5086.206506,-293.776001,-864.736023,-408.455994,1540.000000,-1680.000000,3500.000000
9358.183665,12537.294631,372.737691,90.859841,8047.700888,6251.000613,11721.567717,-16170.168360,12547.911709,7362.955196,9906.382550,-4704.081083,13935.262136,3212.996210,17311.739005,5006.522537,-294.752014,-864.247986,-408.455994,1680.000000,-1960.000000,3780.000000
9333.574394,12435.840063,304.073132,23.737553,7964.418288,6226.123122,11671.320995,-16226.003018,12500.749528,7307.299353,9892.703282,-4774.287912,13897.666502,3190.398597,17251.501054,4923.150530,-293.776001,-865.223999,-407.968018,1400.000000,-2520.000000,3640.000000
9319.984534,12351.261062,249.356061,-27.112666,7905.566145,6207.526470,11634.217099,-16263.464542,12465.612586,7265.680404,9879.783974,-4839.085619,13863.736554,3173.455974,17199.577951,4850.105029,-293.287994,-862.296021,-407.968018,1400.000000,-2800.000000,3780.000000
9299.063301,12242.497473,182.122014,-96.917164,7827.357391,6185.912333,11574.426183,-16323.166051,12428.799263,7220.999267,9868.205770,-4914.746274,13828.241983,3153.629977,17127.940610,4761.502714,-293.287994,-864.247986,-407.480011,1400.000000,-3080.000000,3920.000000
9291.977798,12168.937882,150.628406,-149.197894,7787.593637,6171.808382,11524.917069,-16366.953119,12412.124862,7214.986648,9863.131924,-4957.751031,13812.506355,3152.735907,17078.476200,4708.976115,-293.287994,-865.223999,-409.920013,1120.000000,-2940.000000,3780.000000
9332.680325,12256.422610,231.809942,-95.956039,7890.188144,6188.393377,11556.567139,-16316.773452,12457.364793,7305.131233,9871.178552,-4895.903754,13847.397428,3188.610457,17120.408073,4775.897238,-293.776001,-863.760010,-407.480011,1260.000000,-3220.000000,3920.000000
9400.227296,12493.194639,390.976714,60.483820,8097.344112,6238.282470,11675.545475,-16180.248997,12550.236291,7438.414686,9897.933590,-4740.268557,13927.148453,3241.852312,17255.971403,4949.235016,-294.752014,-863.760010,-408.455994,700.000000,-3360.000000,3780.000000
9418.958058,12659.133990,475.488660,176.422319,8208.476986,6277.196858,11774.340185,-16084.807048,12600.773585,7479.765413,9916.127910,-4632.197873,13979.138610,3262.550028,17370.635852,5078.562209,-291.335999,-861.320007,-409.920013,840.000000,-3220.000000,4060.000000
9367.146715,12587.541352,395.380008,132.344679,8105.256630,6263.383480,11749.216825,-16138.026552,12559.176989,7387.475060,9908.148337,-4675.895533,13951.198930,3231.704620,17352.597994,5041.167741,-295.727997,-857.903992,-406.992004,700.000000,-3360.000000,4060.000000
9331.361572,12468.942996,312.455036,48.927969,7995.353102,6232.962755,11688.420080,-16208.434547,12503.185869,7320.598641,9892.993855,-4756.093592,13910.071720,3202.312076,17281.050060,4953.794772,-295.727997,-858.880005,-408.455994,700.000000,-3220.000000,4060.000000
9318.174042,12379.468963,256.687433,-13.500454,7923.536947,6210.633363,11641.816693,-16252.981574,12465.433772,7278.800878,9881.639168,-4822.947660,13878.779278,3177.814564,17215.447690,4874.155506,-295.239990,-859.367981,-406.992004,700.000000,-3080.000000,4060.000000
9300.426757,12279.623721,194.147252,-78.700492,7847.719830,6187.499307,11590.094756,-16305.530525,12429.201594,7231.370477,9867.490514,-4894.942629,13843.441170,3156.915683,17147.677201,4788.950657,-293.287994,-856.440002,-405.040009,420.000000,-2940.000000,4060.000000
9291.709577,12185.209952,144.280510,-139.519589,7785.984312,6167.382737,11537.344639,-16360.448761,12411.744882,7207.767035,9860.896750,-4952.431315,13817.759015,3150.456029,17091.797840,4716.508653,-293.776001,-861.320007,-404.552002,280.000000,-2800.000000,4200.000000
9320.789197,12210.959162,187.151156,-119.894757,7839.404981,6171.271941,11542.530244,-16345.338982,12443.529063,7271.111878,9868.652805,-4926.369181,13836.266260,3176.182887,17106.259418,4742.459028,-294.752014,-859.367981,-405.040009,420.000000,-2520.000000,4200.000000
9393.857049,12431.481472,352.084679,31.001870,8045.510417,6217.987087,11655.518312,-16214.938905,12538.836901,7414.341857,9894.178497,-4778.937075,13911.435176,3235.504417,17236.257164,4908.957173,-293.776001,-860.343994,-406.015991,140.000000,-2520.000000,4060.000000
9438.918166,12650.550920,485.368131,179.484508,8211.405064,6267.607959,11776.821229,-16090.730261,12616.665675,7500.932515,9921.671143,-4635.885910,13983.810125,3270.507249,17373.519227,5073.689529,-293.287994,-856.440002,-409.432007,280.000000,-2380.000000,4340.000000
9414.241840,12657.926996,452.466363,187.642895,8171.864828,6274.313483,11793.853258,-16100.341511,12610.138966,7448.517674,9930.880061,-4627.615765,13988.727509,3252.625853,17399.693119,5087.614666,-295.727997,-859.367981,-405.528015,280.000000,-2240.000000,4340.000000
9377.853200,12544.089561,358.633740,107.489539,8049.198455,6246.552616,11732.564775,-16181.567750,12558.595843,7372.789964,9919.279506,-4704.349304,13946.393305,3223.926213,17336.750607,4998.095929,-294.752014,-857.903992,-404.552002,280.000000,-1960.000000,4200.000000
9362.095220,12457.856531,302.173233,46.111649,7975.191829,6225.161997,11687.481306,-16232.574431,12522.520128,7327.594737,9903.521526,-4770.756337,13909.177650,3204.010809,17275.305662,4916.735580,-294.752014,-857.903992,-407.968018,280.000000,-1960.000000,4200.000000
9349.242967,12371.332928,249.668986,-10.795893,7911.914040,6208.733464,11646.912890,-16273.992213,12492.680549,7284.120594,9887.785898,-4835.554044,13875.001833,3185.414158,17217.995789,4839.443247,-291.335999,-857.416016,-412.360016,280.000000,-1680.000000,4060.000000
9331.115703,12263.575168,185.519479,-80.823908,7834.867577,6189.108633,11591.681730,-16332.330267,12462.148066,7242.389887,9876.252398,-4905.671466,13839.663725,3172.964236,17154.405076,4757.211179,-295.239990,-857.416016,-408.944000,420.000000,-1680.000000,4060.000000
9342.068057,12230.449883,182.457290,-107.131911,7832.453589,6182.559572,11562.132724,-16353.072685,12467.490133,7268.653186,9878.442869,-4918.747237,13837.160329,3184.028349,17128.186480,4735.574691,-293.776001,-857.903992,-407.480011,420.000000,-1680.000000,3780.000000
9401.434291,12385.079251,306.218899,-3.397465,7990.972160,6213.583793,11633.814768,-16259.709449,12538.859253,7390.112566,9897.531259,-4811.034180,13893.039691,3231.346992,17214.061882,4852.764887,-294.264008,-858.880005,-410.407990,700.000000,-1260.000000,3640.000000
9450.228149,12616.017475,454.992110,152.304787,8181.833706,6262.578817,11755.050630,-16119.698122,12619.079664,7500.217259,9920.844128,-4661.501010,13966.822799,3275.402281,17349.334639,5027.510825,-292.800018,-856.440002,-406.015991,1120.000000,-1400.000000,3500.000000
9428.502253,12697.534287,479.355512,207.066561,8211.136843,6281.019006,11809.432424,-16074.055859,12624.198213,7480.324206,9925.023904,-4610.427274,13989.934503,3269.747289,17409.974922,5098.499965,-294.752014,-858.880005,-408.455994,1260.000000,-1400.000000,3220.000000
9367.124363,12576.521942,375.576362,127.024964,8074.925312,6252.364070,11755.832941,-16151.504654,12559.579320,7374.131068,9908.371855,-4689.217173,13948.002630,3230.207053,17354.900224,5021.118226,-295.727997,-858.880005,-411.872009,1400.000000,-1400.000000,3220.000000
9336.390714,12468.920644,303.179062,53.420669,7984.847782,6224.334982,11699.372435,-16210.177983,12509.466709,7314.563670,9888.679968,-4767.895313,13907.590676,3202.937925,17287.867342,4938.215606,-295.239990,-858.880005,-406.503998,1540.000000,-1260.000000,2940.000000
9317.682304,12376.518533,245.288044,-10.550023,7917.747845,6203.525508,11649.863321,-16254.702658,12469.434735,7267.200323,9873.056099,-4839.152675,13872.319624,3177.591047,17220.745053,4857.235236,-291.824005,-860.343994,-408.944000,1400.000000,-1260.000000,2660.000000
9296.269333,12264.804514,175.863525,-90.032827,7832.118312,6179.720900,11586.272608,-16317.421653,12433.090798,7218.048837,9861.008508,-4918.814292,13834.165196,3154.099364,17142.469244,4764.721366,-291.335999,-859.367981,-409.432007,1540.000000,-1260.000000,2800.000000
9292.178964,12188.182734,140.346603,-148.996729,7785.559629,6163.784106,11535.131816,-16363.309784,12422.116092,7213.444378,9857.476933,-4965.127106,13816.574373,3149.986643,17090.747308,4711.859490,-291.824005,-857.416016,-406.992004,1820.000000,-1120.000000,2240.000000
9333.261470,12274.371061,224.433866,-98.258269,7887.282418,6179.564438,11566.223093,-16312.951304,12467.333671,7304.639495,9868.384584,-4901.983428,13851.621908,3186.017655,17132.232145,4780.434642,-292.800018,-859.856018,-409.920013,2100.000000,-980.000000,2240.000000
9396.159279,12505.979837,390.552031,56.885190,8093.298446,6227.687744,11684.553228,-16176.784477,12553.656108,7434.883110,9893.463241,-4744.895368,13930.255345,3238.924234,17264.353307,4954.398269,-294.752014,-861.807983,-406.992004,2100.000000,-840.000000,1820.000000
9415.091206,12668.029984,483.870564,168.755671,8205.347741,6264.523418,11781.336281,-16085.701118,12601.622951,7477.463183,9913.289239,-4635.774152,13982.737241,3258.213789,17370.457038,5080.685625,-295.239990,-860.832031,-408.455994,1960.000000,-840.000000,1540.000000
9367.012604,12598.091376,406.421769,126.063839,8106.597734,6251.961738,11758.939834,-16137.512462,12563.759096,7388.883220,9907.522489,-4676.208457,13958.396191,3225.088504,17355.235500,5040.966575,-297.192017,-862.783997,-409.432007,2100.000000,-700.000000,1400.000000
9333.105008,12487.383185,323.273280,50.872570,8001.857460,6222.882119,11702.300513,-16207.585181,12514.719369,7320.866861,9891.764509,-4749.388069,13916.620781,3197.908783,17293.701147,4955.448801,-293.287994,-861.807983,-412.360016,2380.000000,-840.000000,1260.000000
9308.473385,12396.746862,265.248151,-7.353724,7933.706991,6202.385569,11661.419172,-16249.517053,12468.697127,7269.435497,9877.928779,-4818.633773,13883.026109,3177.479288,17237.955897,4878.827021,-294.264008,-859.367981,-411.384003,2240.000000,-560.000000,980.000000
9288.401519,12288.117383,201.277459,-76.241800,7855.766458,6184.034787,11610.099567,-16299.316740,12429.760388,7220.798102,9860.673232,-4894.205021,13848.045629,3157.116849,17172.934672,4794.002151,-294.752014,-857.903992,-412.360016,2520.000000,-560.000000,840.000000
9278.723214,12189.859115,145.643967,-141.061859,7789.225315,6166.734536,11554.108447,-16352.692706,12407.363940,7192.970180,9848.268014,-4956.029946,13819.502451,3147.483247,17112.003817,4721.761313,-293.287994,-858.392029,-411.872009,2520.000000,-700.000000,560.000000
9315.156557,12214.177813,181.183241,-128.835455,7833.481769,6172.523638,11550.710982,-16340.622764,12444.199615,7255.331547,9855.733497,-4931.152455,13836.087446,3171.958407,17116.518869,4740.804999,-297.679993,-858.392029,-410.407990,2800.000000,-560.000000,420.000000
9392.426538,12425.334743,334.493856,8.516015,8029.148940,6216.042485,11647.672850,-16218.984570,12541.161482,7401.176679,9882.689700,-4785.508488,13909.334112,3227.256623,17226.154176,4893.869745,-295.727997,-859.367981,-408.455994,2800.000000,-420.000000,140.000000
9429.798654,12638.592737,464.558657,151.500124,8192.115509,6263.003500,11764.617177,-16095.066499,12609.133137,7484.235762,9906.807233,-4645.787733,13979.630349,3262.214752,17355.257852,5056.009299,-295.727997,-859.856018,-410.407990,3220.000000,-560.000000,140.000000
9396.226334,12642.236071,432.036869,156.775136,8150.474209,6266.579779,11778.989348,-16106.197668,12594.179820,7425.987116,9910.271753,-4640.423315,13978.848038,3240.242987,17377.989576,5070.426174,-296.704010,-859.856018,-408.944000,3080.000000,-280.000000,140.000000
9350.427610,12517.915668,330.649356,74.677178,8023.851576,6236.762552,11718.505528,-16189.413212,12536.914651,7341.676336,9895.541954,-4721.224871,13931.998781,3205.128396,17315.628209,4981.376825,-300.608002,-859.367981,-409.432007,3220.000000,-280.000000,-280.000000
9332.099179,12423.680714,267.639788,10.795893,7948.548549,6214.075531,11670.315167,-16238.654106,12498.514354,7294.402396,9881.482706,-4791.386997,13891.832696,3181.681416,17253.065676,4900.172937,-297.192017,-858.392029,-408.944000,3220.000000,-280.000000,-140.000000
9315.849461,12331.747989,211.469854,-49.754983,7883.750842,6196.440005,11624.538794,-16281.815324,12464.092668,7249.475390,9868.429287,-4861.459716,13856.919272,3164.448221,17190.659605,4821.070113,-297.679993,-857.903992,-410.895996,3220.000000,140.000000,-280.000000
9296.470499,12223.900822,149.466115,-118.732467,7806.950248,6177.284560,11567.653604,-16339.035790,12430.922679,7208.549346,9857.409877,-4931.823007,13824.911574,3152.043003,17127.515927,4739.329784,-300.119995,-857.903992,-413.824005,3360.000000,280.000000,-140.000000
9299.644446,12182.885371,144.325214,-147.633272,7796.802556,6167.718013,11535.712962,-16360.962851,12427.748731,7229.917613,9855.420572,-4949.592644,13820.664742,3159.732003,17101.610255,4717.983868,-300.119995,-858.880005,-410.407990,3080.000000,280.000000,-140.000000
9352.394563,12327.210585,267.863306,-52.884227,7949.353212,6195.590639,11599.817765,-16271.533522,12489.797174,7350.326461,9872.072622,-4847.825151,13872.029051,3204.815472,17180.131934,4829.854349,-300.119995,-859.367981,-412.847992,3080.000000,280.000000,-140.000000
9405.524660,12559.065230,423.252633,104.337943,8145.154493,6246.552616,11725.926307,-16129.510537,12573.347994,7462.196942,9897.106576,-4692.525231,13948.673183,3251.262397,17318.556287,5004.957915,-299.144012,-856.440002,-413.335999,2800.000000,560.000000,0.000000
9408.184517,12661.816199,462.368186,174.745938,8189.545058,6275.006387,11791.752194,-16076.983938,12602.226448,7460.632320,9913.043369,-4620.306745,13984.413622,3256.224484,17392.339396,5087.324093,-300.119995,-857.416016,-411.872009,2660.000000,840.000000,140.000000
9357.088430,12550.415105,365.495725,100.381684,8056.373364,6251.447648,11739.359705,-16154.902119,12548.582262,7362.910493,9901.845145,-4689.977132,13946.750933,3220.752266,17338.695209,5011.059941,-301.584015,-860.343994,-411.872009,2660.000000,840.000000,140.000000
9336.010735,12452.112133,299.356913,32.544140,7967.972215,6225.050238,11684.441469,-16214.469518,12507.231534,7310.026265,9887.204753,-4762.262674,13907.389511,3195.248925,17273.718688,4928.045562,-301.096008,-857.416016,-411.872009,2240.000000,700.000000,140.000000
9317.861118,12361.051126,243.388145,-24.184588,7901.006389,6204.531336,11643.090742,-16257.384867,12467.803057,7262.327643,9869.949206,-4833.676497,13870.017394,3175.758204,17217.884030,4848.160428,-302.559998,-857.903992,-411.384003,2240.000000,980.000000,140.000000
9293.251847,12251.393467,177.942238,-93.139719,7822.395304,6184.347711,11591.480564,-16310.716130,12428.061656,7211.767997,9856.135828,-4909.560670,13834.366361,3159.396727,17155.790884,4763.469668,-301.096008,-860.832031,-408.944000,2100.000000,840.000000,140.000000
9286.836897,12176.716289,145.822781,-142.849999,7782.072757,6170.891961,11545.480674,-16351.888043,12413.689484,7207.677628,9851.844293,-4949.905568,13819.949486,3160.179038,17107.891096,4715.748693,-304.024017,-860.343994,-409.432007,1680.000000,980.000000,-140.000000
9327.740589,12259.171874,226.847854,-88.222335,7883.035586,6187.476955,11577.868352,-16302.669502,12458.884711,7300.146794,9863.467200,-4887.678312,13854.326469,3197.506451,17148.101884,4784.502659,-302.071991,-858.880005,-408.455994,1400.000000,840.000000,-140.000000
9399.154413,12494.803964,391.289638,66.563495,8091.420900,6236.337869,11697.897219,-16161.764105,12557.724125,7436.984174,9891.630398,-4733.808903,13932.535223,3249.295443,17281.497095,4959.159191,-301.584015,-860.832031,-409.920013,1540.000000,840.000000,-420.000000
9426.356486,12660.832722,483.267067,175.036511,8201.480889,6272.927674,11790.724014,-16066.366859,12619.392588,7484.414576,9913.423349,-4623.726562,13983.519552,3266.618045,17385.209189,5082.987855,-301.096008,-861.807983,-410.407990,1400.000000,560.000000,-560.000000
9376.690909,12590.625893,405.594755,133.864598,8099.847507,6261.148305,11770.071002,-16114.981903,12580.120573,7393.800604,9906.494308,-4664.965530,13958.083267,3232.308117,17371.641680,5044.654613,-303.536011,-861.320007,-407.480011,1120.000000,280.000000,-700.000000
9339.810531,12474.441525,320.903995,51.967806,7993.430852,6233.700363,11711.911763,-16182.350061,12524.040046,7325.583080,9889.506983,-4744.694203,13914.832641,3203.630829,17306.598104,4958.734507,-299.631989,-862.296021,-413.335999,700.000000,140.000000,-840.000000
9318.375208,12379.938350,261.269541,-15.467407,7920.877090,6212.063874,11663.229664,-16225.377169,12477.101383,7274.688157,9871.714994,-4818.522014,13876.342938,3177.144012,17239.855795,4876.435384,-297.192017,-859.856018,-411.872009,840.000000,-280.000000,-980.000000
9299.599743,12279.869590,202.998543,-80.890963,7846.490484,6191.723787,11608.132614,-16276.942644,12440.332763,7226.698962,9858.996851,-4888.572382,13842.278879,3157.295663,17170.118352,4789.263581,-295.727997,-855.952026,-412.360016,420.000000,-560.000000,-1400.000000
9287.462746,12181.521914,152.841229,-144.861656,7780.083451,6172.344824,11550.398058,-16333.783130,12417.578687,7201.128566,9851.352555,-4946.083420,13816.753187,3148.690241,17108.986331,4716.441598,-293.287994,-859.856018,-412.847992,280.000000,-700.000000,-1680.000000
9310.842670,12198.308074,182.770214,-133.216397,7822.305897,6173.618874,11548.207587,-16327.211717,12440.265708,7255.622119,9854.012412,-4925.497463,13829.471329,3169.320902,17116.988256,4733.831255,-294.752014,-857.416016,-411.384003,280.000000,-1120.000000,-1820.000000
9380.200133,12406.872202,335.611443,3.442169,8020.096483,6218.009438,11649.595100,-16204.701806,12527.795139,7394.828784,9878.040538,-4784.010921,13901.823926,3222.741571,17232.703237,4888.393568,-295.727997,-856.928040,-414.800018,0.000000,-1540.000000,-2100.000000
9421.886137,12626.411036,470.101889,148.527342,8189.120375,6266.825648,11771.076831,-16075.531074,12600.594771,7482.648788,9901.845145,-4638.165788,13972.611901,3258.414955,17364.578529,5054.243511,-291.824005,-859.856018,-410.895996,-280.000000,-1960.000000,-2100.000000
9390.146660,12634.189443,441.871636,158.943255,8151.547092,6272.368881,11791.640436,-16082.437764,12589.865934,7424.936584,9905.399073,-4628.979221,13974.042413,3239.192455,17391.311215,5071.566113,-289.872009,-860.343994,-410.407990,0.000000,-2240.000000,-2380.000000
9345.063191,12512.148918,344.954472,73.648998,8023.851576,6240.852921,11727.379170,-16165.027459,12531.080846,7339.195292,9891.071605,-4711.099531,13928.668371,3204.189623,17323.138395,4980.460403,-291.824005,-862.296021,-410.895996,140.000000,-2380.000000,-2520.000000
9318.755188,12411.320199,279.106233,5.699695,7944.055849,6216.333057,11677.020690,-16214.670684,12481.124697,7285.171126,9874.352500,-4787.922476,13889.418708,3179.066262,17258.944185,4898.988294,-293.287994,-862.296021,-407.480011,0.000000,-2660.000000,-2520.000000
9302.080786,12321.287372,225.372639,-50.112611,7879.906342,6198.384607,11634.775893,-16257.586033,12445.361906,7239.730029,9860.717936,-4855.827076,13853.275937,3160.335500,17201.924885,4822.567680,-289.384003,-864.247986,-406.503998,140.000000,-3080.000000,-2520.000000
9289.072071,12218.469348,165.559371,-119.626536,7804.066873,6176.971635,11574.180314,-16317.712226,12419.009199,7200.122738,9853.163046,-4925.005725,13818.362512,3148.019689,17133.863823,4738.636880,-290.847992,-860.832031,-406.503998,560.000000,-3080.000000,-2380.000000
9297.789252,12181.767783,159.904380,-145.822781,7795.729672,6167.494496,11541.725581,-16343.081456,12425.737074,7223.793235,9855.577034,-4941.300147,13812.819280,3158.212085,17105.812383,4713.044132,-289.384003,-860.832031,-405.528015,560.000000,-3220.000000,-2520.000000
9352.975709,12328.439930,276.848707,-50.291425,7946.581596,6196.104729,11606.299771,-16253.272146,12492.211162,7343.419772,9873.905465,-4839.800875,13867.424591,3204.770768,17184.065841,4826.255718,-290.360016,-861.320007,-404.552002,980.000000,-2940.000000,-2240.000000
9409.324456,12565.904864,429.399363,106.260193,8142.449932,6246.731430,11729.971973,-16112.500860,12576.723108,7455.804343,9898.760605,-4684.858583,13943.532281,3252.491743,17321.931401,5003.415645,-294.264008,-865.223999,-405.528015,1400.000000,-2660.000000,-2100.000000
9409.033884,12668.253501,466.771479,177.092871,8189.232134,6272.771212,11798.010683,-16060.756571,12606.383873,7455.066735,9912.797500,-4615.098788,13975.830552,3255.732746,17400.318968,5085.871230,-294.752014,-862.783997,-403.088013,1400.000000,-2380.000000,-1680.000000
9356.842560,12559.176989,368.267342,103.555632,8061.111934,6249.525398,11748.881549,-16136.059598,12554.460770,7361.614092,9900.057006,-4681.774042,13936.066799,3217.488911,17351.212186,5017.206671,-296.216003,-866.200012,-403.576019,1680.000000,-2240.000000,-1260.000000
9328.522900,12452.156836,297.546422,28.923157,7967.234608,6223.373857,11692.353987,-16196.945750,12504.146994,7304.728902,9880.387471,-4754.797191,13895.386624,3188.409291,17284.425173,4937.746219,-295.727997,-866.200012,-405.528015,1820.000000,-1540.000000,-700.000000
9311.826147,12363.398059,246.673852,-29.660765,7900.760520,6204.374874,11648.186940,-16241.537481,12464.740868,7260.919483,9866.641148,-4820.757189,13860.227330,3167.353948,17221.437957,4859.291596,-297.679993,-869.127991,-406.503998,1820.000000,-1260.000000,-280.000000
9298.459804,12264.089258,191.152119,-92.938553,7827.267984,6185.241781,11596.532058,-16297.595656,12436.801188,7221.043971,9860.650880,-4887.901829,13829.113701,3153.004128,17154.539186,4773.371491,-300.119995,-866.687988,-405.528015,1680.000000,-980.000000,280.000000
9290.994321,12180.851362,152.125973,-147.342699,7778.608236,6168.992063,11548.565215,-16345.048409,12418.718626,7213.600840,9856.985194,-4934.795789,13812.171079,3152.132410,17103.979540,4717.022743,-303.536011,-866.687988,-408.944000,1680.000000,-280.000000,700.000000
9326.555947,12257.339031,227.138427,-98.861766,7876.061842,6183.520697,11578.360090,-16297.059214,12459.287043,7302.024341,9865.612968,-4877.731786,13847.486835,3188.141070,17141.128140,4781.574581,-303.048004,-870.104004,-410.407990,1400.000000,-280.000000,840.000000
9388.537334,12482.331691,383.377121,51.029033,8075.886437,6229.319421,11691.705786,-16161.451180,12548.448151,7429.652802,9888.456451,-4729.651478,13924.019208,3237.896054,17266.968461,4946.999842,-300.608002,-868.640015,-408.455994,1400.000000,0.000000,980.000000
9409.011532,12650.059181,470.325407,169.090947,8194.060110,6266.512724,11792.579209,-16064.958699,12599.298370,7472.903427,9906.404901,-4620.887890,13976.612863,3257.163257,17382.884608,5077.824602,-302.559998,-865.712036,-413.824005,1540.000000,0.000000,1260.000000
9361.782296,12590.648245,397.145795,136.412696,8103.267324,6256.499142,11774.921331,-16114.020778,12565.279015,7385.329292,9903.007436,-4653.543789,13955.423409,3230.497626,17374.525055,5047.739154,-303.048004,-865.223999,-412.360016,1540.000000,-280.000000,1120.000000
9329.036990,12479.962406,316.545405,61.310835,7997.632980,6229.006497,11716.203298,-16183.802925,12515.568735,7319.682219,9888.367044,-4727.952746,13912.686874,3204.413140,17309.213258,4963.338967,-301.584015,-864.736023,-414.800018,1680.000000,-280.000000,1260.000000
9317.458787,12393.774080,261.671872,1.341105,7928.856662,6206.297124,11667.655309,-16230.406312,12481.079993,7277.526829,9874.240741,-4793.689226,13876.633510,3183.827184,17244.996696,4883.252666,-301.096008,-862.783997,-415.287994,1680.000000,-700.000000,980.000000
9306.394673,12300.343788,205.166662,-58.673329,7858.716888,6187.991045,11619.263782,-16282.038841,12452.670926,7236.109046,9864.115401,-4860.051556,13844.514053,3167.800983,17182.769440,4801.422930,-299.631989,-860.832031,-415.287994,2100.000000,-840.000000,700.000000
9295.665836,12205.013598,156.082232,-120.162978,7793.449794,6168.612083,11567.452439,-16337.739389,12431.548528,7212.483253,9858.013375,-4917.406132,13820.396521,3160.246093,17127.314762,4729.629127,-299.144012,-860.343994,-412.360016,2100.000000,-840.000000,560.000000
9315.111853,12213.417854,186.882935,-113.032772,7829.659620,6170.109650,11562.400945,-16328.798691,12449.787551,7262.640567,9860.896750,-4902.765739,13833.472292,3179.602704,17133.573250,4745.074182,-297.679993,-858.392029,-415.287994,1820.000000,-980.000000,0.000000
9380.267189,12413.845946,338.964205,22.262337,8022.219899,6213.002648,11661.776800,-16206.512297,12535.439436,7396.259295,9882.019148,-4768.074127,13904.193211,3231.637565,17250.450522,4898.585963,-297.679993,-856.440002,-411.872009,1960.000000,-700.000000,-140.000000
9418.041637,12629.160300,469.565448,163.480659,8189.835631,6260.433049,11780.218694,-16078.816781,12606.294466,7482.648788,9903.566230,-4628.845111,13973.707136,3266.059252,17383.376346,5061.507828,-297.192017,-854.488037,-412.847992,1820.000000,-700.000000,-420.000000
9381.720052,12640.336173,440.619938,171.862563,8155.928034,6265.484544,11800.804651,-16080.068479,12590.044748,7426.389447,9906.650771,-4620.239689,13975.607035,3246.054440,17413.819422,5083.032558,-297.679993,-853.023987,-414.312012,1680.000000,-140.000000,-700.000000
9340.436380,12520.195546,342.138152,87.149452,8028.478387,6235.913186,11737.325697,-16165.496846,12536.512320,7343.956213,9895.139622,-4699.722493,13929.741255,3211.520995,17348.529976,4992.530345,-297.679993,-852.048035,-415.287994,1540.000000,140.000000,-700.000000
9324.499586,12427.636972,278.726253,20.474198,7952.840084,6212.689723,11686.900161,-16217.822280,12496.078014,7295.274114,9881.527410,-4768.610569,13891.966807,3189.996265,17282.257054,4910.678257,-298.167999,-848.632019,-415.776001,1400.000000,980.000000,-700.000000
9306.774653,12333.647887,220.365849,-44.859951,7882.588551,6191.723787,11636.988716,-16262.726934,12457.364793,7249.877721,9868.384584,-4841.253739,13856.963975,3171.243152,17215.380635,4827.261547,-299.144012,-849.119995,-415.776001,1120.000000,1680.000000,-560.000000
9290.279065,12227.834729,162.877162,-116.117312,7806.749082,6171.182534,11580.483506,-16317.600467,12427.972249,7212.863232,9858.750982,-4912.287582,13824.509242,3156.245131,17148.057180,4743.956595,-301.096008,-849.608032,-415.287994,560.000000,2240.000000,-420.000000
9295.352911,12181.745432,154.875237,-148.437935,7793.181574,6161.481877,11545.883005,-16343.573194,12431.816749,7230.789331,9857.432229,-4933.387629,13816.864946,3162.011881,17115.848317,4714.273478,-303.048004,-850.583984,-415.776001,280.000000,3080.000000,-280.000000
9351.612252,12323.209622,273.518297,-55.544085,7941.328936,6190.449737,11608.959628,-16259.709449,12500.727177,7348.135990,9873.905465,-4834.324698,13869.682118,3209.062303,17190.413736,4819.863119,-303.536011,-853.512024,-416.752014,0.000000,3780.000000,0.000000
9408.609201,12559.914596,429.175845,103.555632,8138.784246,6242.149322,11734.352915,-16119.429901,12587.608407,7465.281482,9897.330093,-4679.717681,13948.024982,3255.576283,17327.496985,4996.888935,-306.463989,-851.072021,-415.287994,-420.000000,4760.000000,140.000000
9410.620858,12668.342908,471.018311,179.216287,8190.416776,6269.239637,11803.933895,-16066.053935,12618.163242,7466.510828,9911.903430,-4607.253326,13984.503029,3258.437307,17405.795146,5084.485422,-309.391998,-852.536011,-417.727997,-840.000000,5460.000000,140.000000
9357.513113,12560.786314,374.995217,106.595469,8063.660033,6245.703250,11754.357726,-16139.769988,12561.881550,7366.643234,9900.638151,-4675.359091,13948.136741,3221.713391,17359.057648,5013.786854,-307.928009,-857.903992,-417.239990,-1260.000000,5740.000000,280.000000
9328.455845,12454.570824,304.229594,36.723916,7972.084936,6219.730523,11701.562905,-16199.449146,12512.797119,7307.589925,9883.315549,-4751.220912,13907.881249,3198.065245,17299.266732,4930.548958,-308.903992,-857.416016,-414.312012,-1540.000000,5880.000000,140.000000
9314.284839,12369.298919,254.273445,-15.132131,7909.924735,6202.139700,11661.843856,-16239.525824,12478.464839,7266.015681,9870.262131,-4815.996267,13872.632548,3178.954503,17244.080275,4854.642433,-306.951996,-858.392029,-413.824005,-1820.000000,5880.000000,-140.000000
9294.458842,12258.769543,188.447558,-86.367141,7828.653792,6181.464336,11605.852736,-16297.059214,12441.606813,7218.965258,9860.382659,-4890.159355,13838.032048,3158.122678,17175.035736,4769.169363,-305.000000,-864.736023,-412.847992,-2100.000000,5600.000000,-700.000000
9288.066243,12176.090440,149.868447,-143.252330,7778.697643,6163.985272,11553.437895,-16347.082418,12427.927545,7211.142148,9855.286462,-4937.187426,13820.687094,3155.596930,17121.324494,4712.038304,-301.096008,-865.223999,-413.824005,-2100.000000,4900.000000,-1120.000000
9327.405313,12250.968784,223.562148,-94.950210,7874.206647,6178.715072,11578.717718,-16307.586885,12473.614511,7300.035036,9864.987119,-4877.977655,13853.119475,3190.242134,17156.126160,4772.499773,-298.167999,-866.687988,-414.800018,-2240.000000,4620.000000,-1400.000000
9392.851221,12484.365700,387.132214,63.724823,8085.028301,6228.023020,11700.087690,-16169.676622,12566.351898,7432.960860,9890.177535,-4719.302621,13932.311706,3246.680289,17293.455278,4949.369126,-298.167999,-870.104004,-411.872009,-1960.000000,3500.000000,-1960.000000
9418.421616,12666.800638,488.072692,188.849889,8211.382712,6268.457326,11805.073834,-16065.405734,12624.220565,7484.660445,9910.674085,-4602.470053,13989.442764,3270.641359,17410.220791,5091.034483,-295.239990,-868.152039,-409.920013,-1820.000000,2520.000000,-2380.000000
9367.750212,12604.103995,412.076761,150.807220,8115.426673,6257.281453,11784.957264,-16113.797261,12582.713375,7393.800604,9905.488480,-4642.725544,13967.850979,3240.242987,17395.803916,5061.574884,-293.287994,-869.127991,-413.335999,-1540.000000,1260.000000,-3080.000000
9329.685191,12485.483287,324.189702,68.709262,8004.338503,6226.883081,11722.864118,-16188.005053,12526.722256,7323.191443,9888.612913,-4725.628164,13922.923973,3208.011771,17327.027598,4972.838458,-288.407990,-868.640015,-411.384003,-980.000000,140.000000,-3220.000000
9313.390769,12395.450460,266.701015,4.984439,7932.522348,6205.872441,11673.466763,-16233.379094,12486.556171,7280.141983,9873.123154,-4795.097386,13885.887132,3182.977817,17259.994717,4891.411053,-285.480011,-867.176025,-412.360016,-280.000000,-700.000000,-3640.000000
9293.564772,12295.560514,208.050037,-57.645149,7857.912225,6187.767528,11622.616544,-16284.899865,12448.178226,7234.410314,9861.321433,-4866.354748,13851.666612,3162.525971,17196.068728,4807.122625,-284.015991,-867.664001,-415.287994,560.000000,-2100.000000,-3640.000000
9273.716423,12187.199257,150.538999,-128.969566,7782.430384,6166.645130,11563.429125,-16346.009534,12414.985885,7202.492023,9852.201921,-4932.717077,13824.688056,3150.254864,17129.728750,4729.495016,-284.503998,-863.760010,-415.776001,980.000000,-2800.000000,-3780.000000
9298.482156,12194.709443,177.785775,-127.986089,7816.047408,6165.594598,11554.577834,-16345.674258,12438.544624,7256.873817,9857.588691,-4919.283678,13836.936812,3171.265503,17124.856070,4738.994508,-282.063995,-862.296021,-417.727997,1680.000000,-3360.000000,-3780.000000
9371.728822,12397.998559,330.023507,3.151596,8007.870079,6207.615877,11647.874015,-16230.115739,12530.276183,7398.449766,9883.740232,-4784.390901,13908.194173,3225.937870,17229.641048,4887.633608,-281.575989,-862.296021,-417.239990,2240.000000,-3920.000000,-3640.000000
9418.734541,12623.192385,471.040663,153.556484,8180.537305,6258.466096,11770.003947,-16101.861429,12607.121480,7490.136622,9907.857765,-4640.535073,13979.987977,3263.198228,17365.494950,5054.914064,-279.136017,-857.416016,-419.679993,3080.000000,-4200.000000,-3500.000000
9388.693796,12643.554824,451.080555,175.528249,8155.548055,6267.227980,11801.296389,-16099.603903,12595.811498,7435.955994,9909.623553,-4625.894681,13986.425279,3247.507304,17407.538582,5084.932457,-282.063995,-859.856018,-418.216003,3640.000000,-4200.000000,-3220.000000
9340.637546,12519.323828,350.207132,93.452644,8027.427855,6237.321345,11740.812569,-16179.623148,12535.975878,7345.833760,9893.709110,-4707.187975,13941.654735,3213.219728,17346.138340,4998.811185,-281.575989,-858.880005,-420.656006,4060.000000,-3920.000000,-3080.000000
9321.660915,12423.814824,285.454128,27.224425,7948.213273,6212.913241,11688.040100,-16230.585126,12495.832145,7298.090434,9879.873381,-4778.154764,13902.606237,3189.169251,17279.887769,4915.439178,-281.575989,-856.440002,-420.656006,4340.000000,-3360.000000,-2660.000000
9304.494775,12332.306782,226.713744,-35.583977,7879.638121,6193.400168,11641.012030,-16274.886283,12458.594138,7254.012794,9865.702375,-4850.037974,13865.435286,3167.666872,17215.134766,4832.670669,-283.528015,-856.928040,-423.584015,4760.000000,-2940.000000,-2380.000000
9283.774708,12221.106854,155.746955,-107.802464,7797.070777,6172.367176,11584.797392,-16334.565441,12423.010161,7207.454110,9854.347688,-4923.888138,13830.432454,3150.701898,17148.347753,4747.689336,-284.503998,-855.463989,-421.144012,4900.000000,-2240.000000,-2100.000000
9290.100251,12176.001033,142.693537,-136.636214,7783.257399,6163.113554,11553.750819,-16359.331174,12426.474682,7225.067285,9851.956052,-4943.222397,13824.464539,3159.977872,17121.011570,4722.342458,-284.992004,-854.976013,-418.704010,5320.000000,-1820.000000,-1680.000000
9349.354726,12321.600297,261.694224,-44.122344,7933.058790,6192.170822,11612.312390,-16275.333318,12500.056624,7347.577196,9871.402069,-4840.247910,13878.779278,3205.933059,17192.246579,4832.625965,-284.992004,-857.903992,-421.632019,5320.000000,-1540.000000,-1400.000000
9407.290448,12562.149771,417.351772,114.262118,8133.352772,6244.205683,11735.872833,-16134.629087,12590.089451,7463.873322,9898.045349,-4681.796394,13958.776171,3253.989310,17329.508642,5012.490453,-286.944000,-858.880005,-424.071991,5600.000000,-980.000000,-840.000000
9410.777320,12677.663586,462.994035,196.784758,8194.417738,6274.224076,11809.857107,-16073.653528,12619.660809,7470.690605,9913.311590,-4606.515718,13997.176468,3264.673443,17416.434576,5105.563117,-285.968018,-858.880005,-419.192017,5600.000000,-980.000000,-560.000000
9361.379965,12578.466544,368.423804,132.344679,8073.785373,6253.705174,11765.243025,-16148.040133,12569.905826,7377.170906,9902.292180,-4670.419356,13962.777133,3231.838731,17378.034279,5041.123037,-290.847992,-858.392029,-421.632019,5600.000000,-980.000000,140.000000
9339.519958,12475.872037,296.182966,62.137850,7983.171401,6228.782979,11711.241211,-16208.814527,12525.872889,7321.738579,9887.428270,-4743.107229,13925.002685,3207.542385,17313.214220,4958.779211,-290.847992,-858.392029,-421.144012,5600.000000,-1120.000000,560.000000
9322.107950,12384.229885,239.364831,0.089407,7911.556412,6207.615877,11663.855513,-16251.841635,12484.835086,7273.525867,9872.787878,-4816.040971,13887.384699,3183.067224,17247.231871,4873.931989,-290.360016,-858.392029,-420.656006,5740.000000,-1400.000000,980.000000
9298.549211,12273.253473,175.863525,-69.022187,7829.659620,6186.269961,11608.467890,-16308.637417,12443.305545,7220.351067,9859.063907,-4894.696760,13847.933870,3161.676605,17179.617844,4784.145031,-292.312012,-861.807983,-421.632019,5600.000000,-1680.000000,1400.000000
9289.899086,12188.048624,137.977319,-124.365106,7780.463431,6169.729670,11558.444686,-16358.794732,12424.127749,7208.169366,9852.648956,-4943.848246,13825.626829,3160.357852,17129.214660,4725.002316,-293.287994,-862.783997,-418.216003,5600.000000,-2100.000000,1680.000000
9329.640487,12258.300156,208.005334,-81.069777,7870.809182,6180.883191,11581.645796,-16319.701531,12467.713650,7295.408225,9862.237854,-4891.031073,13856.494588,3192.052626,17158.741314,4781.842802,-292.800018,-861.320007,-413.335999,5460.000000,-2520.000000,2240.000000
9397.567439,12492.345273,369.027301,73.626646,8078.501592,6230.347601,11697.785461,-16179.399631,12561.970957,7430.748037,9887.718843,-4735.574691,13935.887985,3244.601577,17287.353252,4956.633443,-297.192017,-860.832031,-417.239990,5040.000000,-3080.000000,2520.000000
9420.925012,12670.153400,465.877410,193.476700,8204.721892,6272.637102,11799.374139,-16077.296862,12615.861012,7481.374738,9908.036579,-4618.652716,13993.823706,3267.579170,17399.737823,5093.716692,-298.167999,-862.783997,-414.312012,5040.000000,-3360.000000,2800.000000
9370.879456,12611.256553,395.491766,157.333929,8113.862051,6263.383480,11784.487877,-16125.129595,12575.404355,7392.347740,9903.208602,-4652.605015,13972.813067,3238.253681,17390.372442,5065.978177,-297.192017,-860.343994,-412.360016,4620.000000,-3640.000000,3080.000000
9333.574394,12491.920589,308.252908,73.604294,8001.924515,6234.370915,11726.596859,-16198.912704,12521.581354,7321.515062,9886.444794,-4733.853606,13927.796653,3207.542385,17323.026636,4977.487621,-301.096008,-860.343994,-413.824005,4340.000000,-3920.000000,3080.000000
9320.923307,12402.960647,251.859457,9.410084,7926.800302,6212.376799,11679.367623,-16246.723085,12488.523124,7280.253742,9874.218389,-4801.758206,13891.631531,3183.782480,17257.424266,4893.333303,-299.631989,-861.320007,-412.360016,4200.000000,-4060.000000,3220.000000
9307.713426,12311.117329,197.455311,-50.447887,7854.559464,6193.914258,11633.703009,-16294.958150,12458.594138,7242.076962,9864.562436,-4868.165239,13859.556777,3165.521105,17194.951140,4811.727084,-303.536011,-861.320007,-410.407990,3780.000000,-4060.000000,2940.000000
9288.870906,12207.964028,139.541941,-117.100789,7783.279751,6173.976502,11580.304692,-16352.558595,12427.659324,7208.906973,9853.140694,-4933.812312,13830.365399,3157.027442,17137.104826,4738.256900,-303.048004,-858.392029,-410.895996,3640.000000,-4060.000000,2940.000000
9301.142013,12208.388711,161.156078,-117.950155,7816.136815,6175.295255,11573.196837,-16347.775322,12436.622374,7251.196474,9852.626604,-4926.749161,13838.680248,3177.099309,17134.735541,4747.801095,-302.071991,-857.903992,-413.335999,3360.000000,-4200.000000,2660.000000
9364.620967,12402.535963,309.191681,8.404256,8004.092634,6214.857842,11664.235492,-16229.467539,12517.490985,7383.854077,9873.525485,-4798.606610,13906.830717,3225.803760,17235.519556,4893.780338,-303.048004,-857.416016,-408.455994,3360.000000,-3640.000000,2240.000000
9412.967791,12627.595678,448.375994,154.070575,8179.173849,6263.003500,11783.191476,-16099.246275,12597.510230,7479.340730,9900.481689,-4652.202684,13981.373785,3262.952359,17365.651413,5060.010262,-302.559998,-858.392029,-417.239990,3220.000000,-3500.000000,1960.000000
9388.403224,12659.558673,434.160284,178.657493,8162.253578,6274.447593,11816.205003,-16092.473697,12594.872724,7435.173683,9907.209564,-4624.933556,13989.420413,3250.368327,17407.717396,5094.990742,-303.048004,-855.463989,-413.824005,2940.000000,-3360.000000,1680.000000
9344.437342,12538.769846,334.896187,97.341847,8035.854463,6246.798485,11755.922348,-16173.074087,12541.139131,7349.566501,9894.066738,-4700.683618,13944.649869,3215.387847,17346.920651,5008.713008,-304.024017,-859.367981,-411.872009,2940.000000,-2940.000000,1400.000000
9329.081694,12445.875996,271.439585,36.187474,7958.316262,6224.871424,11708.961333,-16224.080768,12505.756319,7301.644361,9880.432174,-4770.063432,13907.210697,3191.784405,17287.532066,4926.749161,-304.024017,-855.463989,-408.944000,2940.000000,-2660.000000,980.000000
9314.955391,12360.827608,218.734171,-16.964974,7893.026816,6206.878270,11665.330728,-16267.331394,12476.363775,7258.907826,9870.262131,-4836.626927,13872.811362,3172.204277,17229.462234,4847.333413,-304.511993,-855.463989,-410.895996,2800.000000,-2380.000000,560.000000
9295.263504,12252.309889,154.875237,-88.870536,7812.091149,6185.219429,11605.986846,-16328.865746,12444.065505,7216.059532,9860.025032,-4908.800710,13838.814359,3154.904026,17161.870558,4761.905046,-301.096008,-855.463989,-411.872009,2800.000000,-1960.000000,140.000000
9300.806737,12204.208935,143.989938,-120.833531,7798.568344,6177.351615,11573.755631,-16357.699496,12442.724400,7233.046857,9860.337956,-4930.146626,13832.935850,3161.900122,17131.963924,4734.568862,-305.976013,-856.440002,-412.360016,2940.000000,-1260.000000,-560.000000
9355.300290,12337.179463,257.782669,-35.136942,7940.323107,6203.860784,11630.640820,-16279.110763,12506.359816,7347.532493,9874.486610,-4837.923329,13883.741365,3205.709542,17200.449669,4837.230425,-303.536011,-853.023987,-413.335999,2800.000000,-1260.000000,-840.000000
9411.716093,12571.626910,413.753142,123.716906,8137.890177,6252.766401,11753.530711,-16141.558128,12589.016567,7462.152238,9897.888887,-4684.903286,13963.984128,3252.804667,17338.516395,5012.892784,-304.024017,-854.976013,-409.432007,2800.000000,-700.000000,-1260.000000
9413.168956,12689.107679,463.798697,206.708933,8201.346779,6281.309579,11830.912451,-16078.302691,12617.403283,7470.757660,9911.881079,-4605.822814,14002.876163,3259.689004,17425.732902,5109.742893,-301.096008,-854.000000,-413.335999,2520.000000,-420.000000,-1680.000000
9358.474238,12580.969939,367.261513,132.992880,8073.248932,6258.935482,11785.247837,-16150.409418,12563.222654,7370.867714,9899.989951,-4674.174449,13964.788790,3222.205129,17378.995404,5040.988927,-302.559998,-852.536011,-414.312012,2660.000000,0.000000,-2100.000000
9334.312002,12475.581464,296.853518,59.254475,7979.259846,6233.454494,11729.971973,-16212.211992,12520.664933,7314.161338,9884.299026,-4748.449296,13923.549822,3197.618210,17313.258924,4954.845304,-297.679993,-851.559998,-414.312012,2380.000000,560.000000,-2380.000000
9326.779464,12396.925676,249.914855,5.252660,7917.881956,6218.009438,11690.319978,-16249.181777,12496.927380,7277.392718,9874.643072,-4810.542442,13889.441060,3180.653236,17255.390257,4881.643341,-303.048004,-855.463989,-416.752014,2240.000000,560.000000,-2520.000000
9306.126452,12290.889000,190.749787,-64.283617,7841.573100,6199.233973,11639.201538,-16302.468336,12460.896368,7230.610517,9862.327261,-4885.063158,13853.231234,3162.883599,17190.078460,4797.176098,-300.608002,-854.000000,-412.360016,2380.000000,980.000000,-2660.000000
9291.731929,12197.883391,145.263987,-124.588624,7787.660693,6180.883191,11585.847924,-16355.307860,12433.560185,7213.824357,9854.861779,-4939.981394,13832.198242,3159.821410,17136.791901,4737.474589,-296.704010,-854.488037,-412.847992,2240.000000,840.000000,-2800.000000
9328.232327,12264.692755,211.916889,-83.126138,7875.726566,6192.483746,11605.942143,-16316.684045,12471.915778,7298.760986,9865.456505,-4888.818251,13864.094182,3191.806756,17167.816123,4793.085729,-297.679993,-853.512024,-412.847992,2240.000000,980.000000,-2800.000000
9393.812346,12490.221857,372.514173,65.870591,8079.395661,6241.299956,11717.969086,-16178.282044,12559.892244,7430.725685,9889.618741,-4738.391011,13943.442874,3244.623929,17295.288121,4964.076574,-297.192017,-852.536011,-413.335999,2100.000000,1120.000000,-2800.000000
9426.803521,12677.104792,478.528497,190.190994,8206.465329,6282.382462,11821.032980,-16074.592301,12624.801710,7487.677930,9912.708093,-4615.836396,14003.434956,3268.003853,17408.902038,5104.154957,-298.656006,-855.463989,-407.968018,2240.000000,1540.000000,-2800.000000
9389.230238,12631.484882,411.853243,162.698348,8122.378066,6274.939331,11807.331360,-16119.407549,12600.460661,7406.764615,9913.602163,-4640.825646,13988.079308,3238.253681,17400.028396,5077.668140,-297.679993,-854.000000,-411.872009,2240.000000,1540.000000,-2520.000000
9349.421781,12516.507508,322.267452,86.344789,8015.916707,6246.820837,11749.909729,-16189.904951,12543.530767,7332.467417,9897.888887,-4721.336630,13944.381648,3210.291649,17337.778787,4991.055130,-296.216003,-854.488037,-412.360016,2100.000000,1400.000000,-2380.000000
9320.409217,12421.333780,261.895390,23.983422,7940.680735,6223.910299,11703.663969,-16235.010771,12491.585313,7277.839753,9882.309721,-4796.840822,13904.506136,3187.023483,17278.658423,4911.482920,-296.704010,-854.488037,-413.335999,2240.000000,1680.000000,-2380.000000
9296.895182,12320.862689,204.317296,-42.088335,7864.103659,6202.854956,11653.730172,-16284.877513,12450.726324,7231.817512,9865.970596,-4868.925198,13868.765696,3167.376300,17213.659550,4827.663878,-296.216003,-856.928040,-411.872009,1960.000000,1960.000000,-2100.000000
9285.987530,12218.871679,148.706156,-109.568251,7794.075643,6182.559572,11596.867334,-16341.650944,12425.737074,7201.352084,9852.268976,-4930.146626,13839.261393,3158.726175,17151.901680,4753.679604,-297.192017,-856.440002,-410.895996,1960.000000,1960.000000,-1960.000000
9312.809624,12223.140862,174.298903,-109.881176,7823.624649,6182.894848,11585.892628,-16341.628592,12450.234586,7249.542445,9855.577034,-4916.780283,13847.688001,3177.702806,17148.951250,4761.748584,-297.192017,-856.440002,-415.287994,2380.000000,2240.000000,-1820.000000
9385.519849,12419.836214,322.870949,16.182663,8009.524108,6222.300973,11676.148972,-16228.193489,12542.614346,7390.291380,9879.269884,-4783.742700,13915.302028,3230.922309,17252.126903,4903.570402,-294.752014,-857.903992,-408.944000,2240.000000,2660.000000,-1820.000000
9432.279698,12644.515949,462.099965,165.179392,8185.231171,6270.938369,11796.177840,-16097.659301,12622.499481,7486.627398,9907.075454,-4637.137608,13989.822744,3266.953321,17383.935140,5069.465049,-295.239990,-857.416016,-410.895996,2380.000000,2520.000000,-1540.000000
9402.618933,12670.734545,446.923130,183.932505,8164.667566,6279.409680,11823.335209,-16091.221999,12614.698722,7437.855892,9912.283410,-4618.965640,13998.919904,3249.183684,17417.306294,5100.064588,-295.727997,-856.928040,-410.895996,2800.000000,2940.000000,-1680.000000
9348.170084,12538.322811,345.625025,95.173728,8031.719390,6249.570101,11760.549159,-16175.264558,12546.302384,7344.626766,9895.854878,-4704.282249,13952.987069,3213.242079,17350.362819,5010.970534,-296.704010,-858.880005,-410.895996,2940.000000,2800.000000,-1680.000000
9325.416008,12436.175339,284.917687,30.241910,7953.890616,6228.827683,11711.889411,-16225.287762,12499.140203,7294.849431,9878.353462,-4776.321921,13914.765586,3192.164384,17286.258016,4929.274908,-293.287994,-856.440002,-409.920013,3360.000000,2940.000000,-1680.000000
9306.998170,12339.816968,230.893520,-31.672422,7885.248409,6211.818005,11664.861341,-16266.794952,12463.153894,7249.475390,9864.674194,-4845.791143,13879.829810,3170.729061,17219.381597,4846.886378,-296.216003,-860.343994,-408.455994,3500.000000,2940.000000,-1680.000000
9287.552153,12227.208880,171.504935,-107.310725,7802.837527,6191.232048,11605.159832,-16324.708322,12429.000429,7206.247116,9856.024069,-4920.267155,13846.078676,3153.495866,17150.113541,4761.413307,-295.239990,-858.880005,-410.407990,3640.000000,2660.000000,-1820.000000
9293.654179,12181.745432,162.519534,-135.675089,7786.207829,6182.559572,11573.599168,-16353.966755,12430.877975,7223.122683,9856.024069,-4943.960004,13838.344972,3163.889428,17125.079587,4732.892481,-293.776001,-858.880005,-409.920013,4060.000000,2800.000000,-1540.000000
9347.968918,12315.162994,273.808870,-48.615044,7929.795436,6208.755816,11632.719533,-16275.020394,12496.748566,7335.708420,9871.491476,-4853.100163,13886.155353,3207.832957,17196.336948,4835.263471,-293.776001,-859.856018,-413.824005,4200.000000,2660.000000,-1540.000000
9408.229221,12552.315003,432.640366,111.736371,8135.498540,6259.963663,11758.425743,-16132.103340,12583.763907,7457.614834,9897.240686,-4696.459138,13963.626500,3255.799801,17336.482386,5017.519595,-295.239990,-861.807983,-413.824005,4480.000000,2520.000000,-1680.000000
9413.325419,12677.551827,483.423529,197.589421,8204.677189,6289.982055,11835.561614,-16064.846941,12617.313876,7470.735308,9912.730445,-4611.120178,14001.669169,3263.757022,17424.637666,5116.649582,-295.727997,-864.247986,-413.824005,4760.000000,2100.000000,-1400.000000
9358.295424,12575.694928,386.238144,127.941385,8078.836868,6266.915055,11790.567552,-16137.981848,12561.814494,7369.839534,9900.034654,-4675.850830,13964.721735,3226.094332,17380.157695,5046.778029,-291.335999,-860.343994,-409.920013,4760.000000,1820.000000,-1260.000000
9335.027258,12471.781668,313.013829,55.409975,7982.836125,6241.635232,11734.822301,-16200.320864,12517.714503,7313.334324,9886.310683,-4748.248130,13923.549822,3203.586126,17312.454261,4960.433240,-293.776001,-860.343994,-413.824005,5040.000000,1260.000000,-1120.000000
9320.722141,12385.995672,257.268579,-4.000962,7914.842119,6223.463264,11688.084804,-16244.443207,12483.069299,7272.989425,9873.145506,-4812.755264,13888.234066,3184.810660,17249.042362,4879.318759,-296.704010,-861.807983,-411.384003,4760.000000,980.000000,-980.000000
9295.397615,12275.734517,188.983999,-75.817117,7832.230071,6200.105691,11629.567937,-16303.183592,12441.293888,7221.714523,9858.393354,-4891.634571,13850.906652,3161.989529,17178.030870,4790.269409,-292.312012,-864.247986,-411.384003,4620.000000,280.000000,-840.000000
9283.372376,12183.153592,144.705194,-135.563330,7775.523695,6180.212638,11574.895570,-16358.928842,12420.730283,7203.833127,9851.151389,-4946.575158,13826.096216,3154.814619,17124.319628,4725.494054,-291.824005,-862.783997,-414.312012,4760.000000,-140.000000,-700.000000
9320.319810,12245.939642,211.022819,-94.257306,7859.946234,6190.740310,11595.146250,-16321.824947,12462.639804,7285.126422,9859.242721,-4898.027169,13853.119475,3185.704730,17155.388553,4776.098403,-290.847992,-861.320007,-413.824005,4620.000000,-1120.000000,-420.000000
9388.984369,12477.548418,374.816403,60.215600,8068.465658,6240.897625,11712.828185,-16181.590102,12556.427724,7424.020162,9885.237799,-4743.911891,13933.049313,3239.013641,17288.537894,4949.078554,-290.847992,-862.296021,-412.847992,4480.000000,-1540.000000,0.000000
9420.321515,12663.760801,478.014407,184.915982,8200.408006,6284.215305,11817.881384,-16075.285205,12616.732730,7484.235762,9909.489442,-4623.324230,13997.399985,3266.238066,17407.605637,5088.285218,-289.872009,-861.807983,-412.847992,4620.000000,-1680.000000,140.000000
9375.416860,12616.397454,412.993182,157.065708,8118.131234,6277.219209,11807.197250,-16114.624276,12584.792088,7404.082406,9907.097805,-4651.219207,13982.111392,3240.645318,17406.286884,5065.553494,-289.872009,-860.343994,-412.847992,4060.000000,-2660.000000,280.000000
9336.547176,12499.900162,327.900091,79.438100,8007.266582,6249.234825,11749.239176,-16187.714480,12531.304363,7334.009687,9890.713977,-4729.383258,13940.291278,3211.431588,17344.864290,4980.482755,-290.847992,-860.832031,-412.360016,3920.000000,-3080.000000,700.000000
9315.335371,12405.888725,269.763204,16.741457,7933.014087,6227.173654,11699.171269,-16233.982591,12487.718461,7283.852373,9872.162029,-4800.305343,13903.857935,3189.191602,17279.127810,4899.882364,-287.920013,-861.807983,-410.407990,3920.000000,-3500.000000,840.000000
9292.044853,12302.310741,207.737113,-50.023204,7857.509894,6207.615877,11646.175283,-16281.725917,12443.886691,7232.376305,9856.806380,-4875.295445,13867.491647,3169.209143,17212.251390,4816.376247,-289.384003,-862.296021,-412.847992,3220.000000,-3780.000000,1260.000000
9273.805830,12194.888257,146.113354,-123.314574,7780.686948,6186.001740,11585.110317,-16339.952211,12414.337684,7197.999322,9847.329241,-4944.295280,13834.835748,3154.345233,17143.497425,4736.647575,-288.407990,-865.223999,-410.407990,3080.000000,-3780.000000,1540.000000
9294.928228,12194.687092,166.028758,-127.650813,7805.475033,6183.230124,11569.888779,-16341.740351,12433.627240,7243.283956,9851.039630,-4936.650984,13841.876548,3171.645483,17131.963924,4740.603833,-288.895996,-860.832031,-412.360016,2800.000000,-4060.000000,1680.000000
9363.704546,12389.527248,311.292745,-1.654029,7991.508602,6222.748008,11656.792361,-16227.679399,12518.027427,7381.261275,9874.307796,-4805.110968,13909.579982,3220.975783,17230.713931,4882.716225,-290.360016,-863.272034,-411.384003,2660.000000,-4060.000000,1960.000000
9411.269058,12615.235164,448.264235,148.840266,8169.584950,6271.541866,11775.346014,-16097.189915,12597.018492,7477.798459,9897.665369,-4657.365937,13981.194971,3256.380946,17363.326831,5050.957805,-290.847992,-861.807983,-415.287994,2240.000000,-3920.000000,2100.000000
9385.944532,12647.801655,437.513046,176.042339,8155.995090,6282.650683,11806.549049,-16084.650586,12591.966998,7432.536177,9904.169727,-4631.884948,13992.639064,3243.372231,17406.041015,5089.469861,-293.287994,-864.247986,-413.335999,1960.000000,-3920.000000,2520.000000
9333.932022,12522.296610,338.941853,94.503176,8025.796178,6252.475828,11744.746476,-16165.742715,12527.549270,7339.932899,9888.881134,-4712.664153,13949.701363,3210.224594,17345.490139,5005.427302,-293.287994,-861.320007,-410.407990,1820.000000,-3780.000000,2660.000000
9311.580278,12425.670019,274.658236,29.325489,7943.295889,6226.659563,11693.382167,-16221.599724,12482.666967,7288.412128,9873.078450,-4786.223744,13908.372987,3186.934076,17283.508752,4922.055295,-295.727997,-864.247986,-413.824005,1680.000000,-3920.000000,2800.000000
9299.197411,12339.839320,223.159817,-30.197207,7875.860676,6207.973505,11648.298698,-16264.202149,12450.636917,7247.016698,9862.304910,-4854.575378,13874.688908,3168.113907,17221.572068,4842.483084,-297.192017,-863.272034,-411.872009,1680.000000,-3920.000000,3080.000000
9283.774708,12233.892051,165.089985,-99.733484,7798.076606,6188.728653,11593.022834,-16319.902697,12423.188975,7205.554212,9851.240796,-4925.117484,13842.703562,3152.914721,17155.410904,4762.285025,-296.704010,-861.320007,-411.384003,2100.000000,-3640.000000,3360.000000
9285.920475,12182.907722,152.304787,-131.115333,7780.329320,6179.407976,11562.512703,-16348.669392,12420.931449,7217.735913,9847.195130,-4949.927920,13834.142844,3161.073108,17126.532451,4734.300641,-294.264008,-861.807983,-411.384003,2100.000000,-3780.000000,3500.000000
9337.910633,12306.781090,257.782669,-50.202018,7911.802281,6203.123176,11616.447463,-16276.585016,12480.834124,7327.751199,9862.908407,-4861.303253,13881.260321,3205.664838,17188.066803,4827.574471,-299.631989,-861.320007,-413.824005,2240.000000,-3920.000000,3920.000000
9402.283657,12547.196453,419.721057,109.702362,8117.259516,6255.269796,11742.310136,-16133.869127,12574.197361,7453.837389,9890.781032,-4701.957667,13961.838360,3254.369289,17327.787558,5005.851985,-297.679993,-862.296021,-413.335999,2520.000000,-3640.000000,3920.000000
9403.915334,12666.510065,474.348721,192.537927,8184.180639,6284.192954,11819.356599,-16067.462095,12602.606428,7465.505000,9905.711997,-4621.647849,13998.562276,3259.398432,17415.272285,5103.886736,-299.631989,-860.343994,-411.872009,2800.000000,-3640.000000,3920.000000
9347.968918,12559.735782,378.549144,124.588624,8058.720298,6260.924788,11774.541351,-16143.502729,12545.318907,7367.716118,9895.407843,-4688.211344,13958.351488,3220.953431,17371.395811,5037.435000,-298.167999,-860.343994,-411.872009,3080.000000,-3780.000000,4060.000000
9320.543327,12456.358964,304.274297,57.645149,7968.910988,6238.193064,11723.847595,-16206.981684,12500.011921,7311.322667,9880.163953,-4763.179095,13917.671313,3199.942791,17312.610723,4956.588740,-300.119995,-858.880005,-408.944000,3220.000000,-3500.000000,3780.000000
9308.674551,12368.695422,249.512523,0.581145,7903.509784,6219.574060,11679.412327,-16252.288670,12469.010051,7269.949588,9867.825790,-4829.429666,13881.461487,3182.687245,17250.986964,4875.340149,-298.656006,-860.832031,-411.872009,3640.000000,-3500.000000,3780.000000
9294.145917,12261.384697,186.279438,-74.118385,7824.317554,6197.781110,11621.074274,-16310.760833,12438.365810,7223.435607,9857.812209,-4900.977600,13844.826978,3164.381166,17178.164980,4783.474479,-299.631989,-862.296021,-412.360016,3920.000000,-3080.000000,3360.000000
9289.139126,12180.001996,146.470981,-129.751877,7776.238951,6182.738386,11573.532113,-16356.537206,12423.568955,7213.824357,9850.883168,-4947.625690,13827.012637,3161.117811,17127.381817,4726.589289,-302.559998,-857.416016,-411.872009,4060.000000,-2660.000000,3220.000000
9320.699790,12237.200110,207.580651,-94.078492,7853.553635,6191.813194,11587.948988,-16323.456624,12459.287043,7291.831945,9857.946319,-4903.771568,13854.192359,3188.297533,17152.751047,4771.628055,-300.119995,-859.367981,-412.360016,3920.000000,-2520.000000,2800.000000
9382.323549,12458.594138,365.629836,54.560608,8052.573568,6236.360220,11696.734929,-16191.223704,12546.883529,7424.534252,9882.466183,-4757.546456,13928.869537,3239.125399,17280.088935,4937.656812,-297.679993,-858.880005,-412.847992,4340.000000,-2100.000000,2380.000000
9412.610163,12648.293394,468.805488,186.346494,8187.064014,6278.113279,11806.169070,-16084.337662,12607.590867,7484.302817,9903.789747,-4635.371820,13990.962683,3263.220580,17402.420032,5081.803212,-299.144012,-854.488037,-413.335999,4480.000000,-1960.000000,2240.000000
9373.136982,12610.898925,403.583098,165.760537,8107.827080,6272.435936,11801.497555,-16123.363808,12578.958282,7405.088235,9902.470994,-4658.282358,13977.573988,3235.124437,17401.302445,5063.094802,-297.679993,-856.440002,-413.824005,4480.000000,-1820.000000,1960.000000
9337.642412,12495.429813,314.399638,88.445853,7997.968256,6246.798485,11745.618194,-16196.878695,12525.291744,7333.272080,9888.031767,-4735.172359,13936.603241,3209.107007,17336.728255,4979.409871,-302.559998,-854.488037,-411.384003,4760.000000,-1260.000000,1820.000000
9318.643429,12403.877068,250.741869,27.336183,7929.281346,6226.078418,11702.993417,-16241.157501,12484.186886,7286.109899,9871.960863,-4804.552174,13899.924028,3187.381111,17275.462124,4901.156414,-299.631989,-856.928040,-413.335999,4620.000000,-1260.000000,1540.000000
9301.030254,12309.016265,191.152119,-36.790971,7858.940406,6206.051255,11654.311318,-16285.749231,12448.200577,7239.081828,9858.013375,-4877.240047,13866.396411,3164.180000,17210.351492,4819.058456,-297.679993,-856.440002,-410.895996,4620.000000,-1120.000000,1400.000000
9282.791231,12200.632656,133.752839,-110.887004,7780.396376,6184.459470,11591.637026,-16343.752008,12414.583554,7203.833127,9848.268014,-4947.223359,13836.355667,3150.858361,17142.536300,4740.626185,-299.144012,-854.488037,-416.752014,4340.000000,-840.000000,1260.000000
9294.816470,12187.288664,147.007423,-121.280565,7798.881268,6179.095051,11570.916959,-16348.334116,12423.636010,7241.339355,9847.083372,-4948.139781,13837.294440,3166.459878,17129.527584,4741.721420,-297.192017,-854.976013,-415.287994,4200.000000,-280.000000,1120.000000
9358.697755,12372.942254,292.494928,1.743436,7983.506678,6216.176595,11657.619376,-16234.764902,12505.085767,7372.924074,9869.099840,-4823.774674,13902.919162,3218.897071,17229.976324,4884.571419,-295.239990,-855.463989,-412.847992,4200.000000,-280.000000,980.000000
9411.179651,12604.886306,438.518874,158.742089,8169.070860,6266.937407,11784.264360,-16096.429956,12587.831925,7472.948131,9895.720767,-4672.632178,13978.758631,3259.241969,17372.736916,5059.451468,-299.631989,-855.463989,-413.824005,4060.000000,280.000000,980.000000
9394.058215,12652.093190,436.037831,196.047151,8161.091287,6282.762442,11823.871651,-16077.699194,12593.777489,7436.134808,9901.129890,-4639.149265,13989.353357,3248.513132,17423.408320,5105.429006,-300.608002,-858.392029,-411.384003,3780.000000,700.000000,980.000000
9344.236177,12530.030314,340.260606,116.609051,8032.211129,6256.454439,11765.555950,-16157.964308,12535.081808,7344.537359,9885.573075,-4717.603888,13944.627517,3216.550138,17363.639756,5023.733380,-300.119995,-858.880005,-411.384003,3500.000000,1120.000000,840.000000
9327.874700,12436.264746,282.794271,54.001815,7954.896445,6234.415619,11715.309228,-16212.234344,12496.770918,7298.023379,9875.000700,-4784.860287,13909.825851,3197.372341,17302.641845,4943.915301,-300.608002,-858.392029,-410.895996,3220.000000,1400.000000,700.000000
9313.055493,12344.667297,228.904215,-8.761884,7885.404871,6214.835491,11665.129562,-16260.692926,12458.996470,7253.945739,9862.930758,-4852.697832,13876.208827,3175.668797,17236.838309,4859.537466,-297.679993,-861.807983,-408.455994,3220.000000,1540.000000,560.000000
9295.531725,12239.032953,166.140517,-79.773376,7806.302048,6194.115423,11607.126785,-16319.008627,12425.334743,7211.633886,9852.112514,-4922.323516,13844.111722,3156.714518,17170.073649,4774.265560,-303.048004,-861.807983,-406.015991,3500.000000,1680.000000,560.000000
9295.554077,12179.644368,144.682842,-122.934595,7777.982387,6183.811269,11565.820761,-16350.457531,12418.070426,7219.367590,9850.547892,-4953.973586,13834.746341,3159.374375,17130.511061,4737.653403,-301.096008,-860.832031,-407.968018,3640.000000,1400.000000,420.000000
9343.565624,12294.845259,248.484343,-51.900751,7905.432034,6204.553688,11611.284210,-16277.166161,12472.340461,7325.739542,9863.936587,-4873.954341,13880.388603,3198.288762,17183.037660,4825.808683,-302.071991,-861.807983,-407.968018,3640.000000,1120.000000,140.000000
9402.931857,12535.841767,410.623897,108.763589,8111.425711,6253.615767,11735.112874,-16131.656305,12560.763962,7448.562378,9888.054119,-4718.699124,13958.619709,3245.227426,17322.736063,5004.466177,-299.631989,-864.736023,-404.063995,4480.000000,1120.000000,0.000000
9407.268096,12662.509103,467.710253,196.315372,8183.375976,6283.656512,11815.936782,-16061.449475,12593.553971,7461.973424,9903.119195,-4633.538977,13998.696387,3255.464525,17417.149832,5104.870213,-299.144012,-860.832031,-408.455994,5040.000000,840.000000,-140.000000
9357.177837,12565.390773,372.402414,132.612900,8061.536617,6262.064727,11773.960206,-16132.080988,12543.441360,7367.783173,9893.910276,-4693.888687,13965.973433,3220.416989,17379.174218,5040.631299,-298.167999,-862.783997,-407.968018,5180.000000,700.000000,-420.000000
9332.881490,12464.070316,298.798120,62.808402,7970.140334,6234.639136,11718.013789,-16197.258675,12501.062453,7311.926164,9880.208657,-4766.442450,13925.136796,3195.450091,17314.957656,4956.074650,-294.752014,-862.783997,-406.503998,5320.000000,700.000000,-560.000000
9316.944697,12380.027757,247.992605,7.286669,7910.550584,6214.813139,11675.612530,-16239.861100,12465.322014,7267.133268,9865.478857,-4833.452980,13886.512981,3175.400576,17255.256147,4877.932951,-296.216003,-862.296021,-411.872009,6020.000000,700.000000,-560.000000
9297.610438,12278.640244,186.882935,-58.270998,7837.505083,6195.210659,11624.337628,-16291.761850,12430.989734,7218.875851,9854.280633,-4906.811405,13853.745324,3157.049794,17191.352509,4793.488061,-295.239990,-863.760010,-409.920013,6160.000000,700.000000,-700.000000
9285.495792,12186.484001,139.094906,-118.665411,7777.065966,6177.284560,11570.738145,-16344.310802,12409.867336,7201.642657,9847.195130,-4961.349662,13831.728856,3150.768954,17138.065951,4729.450313,-293.776001,-864.247986,-407.480011,6300.000000,840.000000,-700.000000
9322.376170,12244.419723,201.791549,-83.908449,7856.124086,6187.700473,11586.183201,-16310.157336,12450.435752,7282.153640,9857.365174,-4915.729751,13857.835693,3180.697939,17165.849169,4779.652331,-293.287994,-863.760010,-406.015991,6440.000000,1120.000000,-980.000000
9396.069872,12475.156781,367.663845,68.753966,8066.990443,6238.349526,11701.026464,-16171.710631,12547.218805,7423.483720,9885.036634,-4759.379299,13937.117331,3234.632699,17299.154973,4954.957063,-292.800018,-863.272034,-405.528015,6720.000000,1120.000000,-980.000000
9427.608183,12668.767592,478.908477,202.171529,8210.578049,6283.075366,11814.193346,-16058.007307,12611.167146,7484.369872,9905.756701,-4629.962698,13999.992788,3261.365385,17425.822309,5106.412483,-290.847992,-863.272034,-405.528015,6300.000000,560.000000,-1120.000000
9381.496535,12626.880422,416.904738,176.914057,8131.743447,6276.079270,11808.068968,-16091.780793,12580.433497,7402.607191,9904.192079,-4652.359146,13986.782907,3234.163312,17425.509384,5091.347407,-289.872009,-866.687988,-406.503998,6020.000000,-140.000000,-1260.000000
9344.862025,12509.600819,326.961318,94.726693,8017.101349,6245.882064,11748.255700,-16166.145046,12529.538575,7333.920280,9890.311645,-4731.551377,13947.130912,3205.418969,17359.281166,5003.058017,-291.824005,-867.664001,-404.063995,6020.000000,-700.000000,-1260.000000
9332.166235,12422.227850,269.450279,35.136942,7945.754581,6226.056066,11704.781557,-16209.105099,12495.474517,7291.027283,9876.475915,-4799.567735,13912.262191,3186.397634,17299.378490,4923.038772,-291.335999,-866.200012,-407.480011,5740.000000,-1540.000000,-1540.000000
9314.374246,12325.444797,209.547604,-31.448904,7870.809182,6205.559517,11651.360887,-16259.038896,12456.269557,7246.524959,9862.059040,-4871.652111,13875.985310,3165.454050,17230.490414,4837.610404,-289.872009,-872.056030,-409.920013,5600.000000,-2240.000000,-1540.000000
9294.369435,12216.412987,147.610920,-104.628516,7793.762719,6183.632455,11587.747823,-16319.321551,12421.356132,7211.879755,9852.201921,-4939.869635,13844.067019,3151.260692,17158.607204,4755.020708,-291.335999,-873.031982,-409.432007,5880.000000,-2940.000000,-1680.000000
9306.014694,12203.068996,158.272702,-111.691667,7814.169862,6179.787955,11571.162828,-16325.021246,12428.106359,7248.201340,9850.011450,-4938.282661,13845.855158,3164.761146,17147.431332,4754.193694,-291.824005,-871.080017,-407.968018,6020.000000,-3640.000000,-1680.000000
9369.627758,12386.085079,298.328733,8.851291,7994.593143,6215.841319,11655.853588,-16218.850460,12507.767976,7380.121336,9869.502171,-4812.710561,13910.339941,3214.940812,17244.907289,4888.505326,-292.312012,-866.200012,-408.944000,5740.000000,-3780.000000,-1680.000000
9421.215584,12617.090358,440.619938,160.373766,8174.770555,6264.724584,11777.983520,-16085.790525,12592.771660,7482.313512,9898.805308,-4661.746879,13988.638102,3255.889208,17379.487143,5056.657500,-291.335999,-871.080017,-406.503998,5880.000000,-4200.000000,-1680.000000
9396.986293,12663.067897,435.926072,191.800319,8168.489715,6276.883933,11814.886250,-16067.126819,12591.519963,7443.265014,9905.041445,-4630.968527,14002.406776,3242.679327,17424.324742,5103.573811,-289.384003,-865.223999,-406.503998,5740.000000,-4340.000000,-1680.000000
9342.783313,12539.328639,333.622138,107.489539,8037.642603,6248.810142,11754.469485,-16147.973078,12530.075017,7350.415868,9888.612913,-4712.127711,13958.887930,3205.821300,17360.219939,5020.917060,-290.847992,-862.783997,-406.992004,6160.000000,-4480.000000,-1260.000000
9319.872775,12440.019839,265.806945,40.277844,7958.092744,6223.753837,11707.039083,-16200.477326,12483.896313,7298.470414,9872.631415,-4784.212087,13918.833604,3181.502602,17298.417365,4939.869635,-292.800018,-861.320007,-402.600006,6020.000000,-4340.000000,-840.000000
9305.277086,12348.288280,210.016991,-18.976631,7890.970456,6203.480804,11665.420135,-16244.264393,12446.747714,7254.795105,9859.153314,-4852.317852,13884.411917,3164.448221,17238.894670,4858.710451,-290.847992,-857.903992,-402.112000,5880.000000,-4060.000000,-420.000000
9284.713481,12236.328392,146.113354,-91.731559,7806.190289,6182.023130,11609.764291,-16304.703510,12412.035455,7209.354008,9847.038668,-4926.145664,13849.856120,3148.757297,17173.806390,4772.276255,-290.847992,-856.928040,-402.600006,5600.000000,-3780.000000,280.000000
9287.149821,12180.158458,127.136722,-128.209606,7780.932818,6171.696624,11572.570988,-16339.438121,12409.442652,7220.798102,9844.624680,-4953.906531,13838.635545,3153.451163,17139.518814,4735.418229,-293.776001,-858.392029,-400.160004,4900.000000,-3360.000000,840.000000
9338.625889,12300.947285,228.635994,-50.671405,7912.718703,6194.920086,11621.677771,-16265.699716,12472.295758,7331.953327,9859.086258,-4869.931027,13883.741365,3194.734835,17199.533248,4830.055515,-296.704010,-857.903992,-399.671997,4200.000000,-2660.000000,1400.000000
9400.473166,12538.479273,385.813461,105.634344,8113.482072,6245.099753,11742.287784,-16124.280229,12564.474352,7451.825732,9883.516715,-4714.072313,13962.553616,3239.952414,17335.275392,5006.768406,-301.096008,-858.392029,-403.088013,3500.000000,-2100.000000,2100.000000
9413.124253,12674.288472,447.012537,199.131691,8192.204916,6278.448555,11823.894003,-16049.915975,12605.847431,7472.523448,9900.973427,-4621.357277,14006.631256,3251.955301,17428.728036,5111.307515,-300.119995,-862.783997,-403.576019,3080.000000,-1260.000000,2520.000000
9363.838656,12582.042823,357.650263,138.893740,8075.349996,6261.036546,11786.924218,-16116.702988,12556.248910,7378.824935,9893.306779,-4675.113222,13976.165828,3219.634678,17392.764079,5051.673061,-304.511993,-860.832031,-401.623993,2380.000000,-280.000000,2940.000000
9338.312964,12483.538685,288.292800,71.950265,7986.188887,6237.254290,11738.800912,-16175.979814,12511.590125,7322.632649,9880.588636,-4742.391973,13935.999743,3196.768844,17335.722427,4970.625635,-305.976013,-860.832031,-406.503998,2240.000000,420.000000,3360.000000
9321.772673,12397.573876,232.614605,14.305116,7919.156005,6217.093017,11694.767975,-16218.112852,12475.134429,7278.622064,9864.473029,-4809.693075,13898.225295,3176.853439,17276.087973,4890.673446,-308.416016,-861.320007,-404.552002,1820.000000,1120.000000,3640.000000
9304.762996,12290.866648,164.374729,-58.986254,7835.873405,6193.981313,11635.044114,-16276.093277,12441.383295,7231.482235,9851.620776,-4885.510193,13861.121400,3157.250960,17201.656664,4801.065302,-311.343994,-861.320007,-407.480011,1820.000000,1540.000000,3920.000000
9296.314036,12204.365397,119.984164,-117.413714,7781.424556,6177.150449,11584.529172,-16325.445929,12422.808996,7218.473520,9845.943433,-4938.215606,13838.568489,3153.339404,17145.933765,4742.034345,-311.343994,-863.272034,-408.944000,1820.000000,1540.000000,3780.000000
9328.701714,12255.528540,177.785775,-83.595524,7855.945272,6186.962865,11602.522326,-16293.348824,12456.090743,7292.547201,9851.419610,-4898.340094,13861.568434,3182.061396,17169.626614,4788.414215,-311.832001,-860.832031,-404.552002,1540.000000,1400.000000,3640.000000
9391.711282,12472.698089,335.075001,60.863800,8058.519132,6233.096866,11713.498737,-16159.908910,12540.222709,7424.042514,9873.100802,-4753.433735,13936.960868,3232.710449,17293.455278,4954.241807,-310.368011,-862.783997,-405.040009,1400.000000,840.000000,3500.000000
9420.433273,12661.816199,445.403212,186.748825,8196.228230,6275.408718,11820.630648,-16050.273603,12599.521887,7488.884925,9895.318436,-4628.487483,13998.629331,3257.543237,17414.825250,5098.790538,-308.416016,-861.807983,-406.015991,1680.000000,280.000000,3080.000000
9375.930950,12623.237088,385.455833,159.837325,8116.454854,6269.396099,11810.572363,-16084.784697,12569.928178,7411.994924,9893.485593,-4648.738164,13985.173581,3229.380039,17415.562858,5083.278428,-304.024017,-857.903992,-405.528015,980.000000,-560.000000,2520.000000
9334.177892,12501.174212,293.880736,75.057158,7997.342407,6237.902491,11744.791179,-16163.887520,12512.081863,7336.423676,9876.766488,-4731.283156,13937.854938,3198.445225,17345.758360,4992.440938,-303.536011,-859.856018,-403.088013,1120.000000,-1260.000000,2240.000000
9316.251792,12407.296885,234.447448,11.824073,7920.519462,6212.689723,11693.896257,-16214.670684,12469.434735,7288.412128,9861.768468,-4804.239250,13899.275827,3174.953541,17279.306624,4908.018399,-303.048004,-861.320007,-406.992004,560.000000,-2100.000000,1400.000000
9301.298475,12313.799538,180.579743,-50.313777,7849.887949,6192.461394,11645.616489,-16262.503417,12434.923641,7242.389887,9850.838465,-4873.864934,13867.335184,3154.009957,17215.224172,4826.434532,-300.608002,-858.880005,-407.968018,140.000000,-2380.000000,700.000000
9283.528839,12205.751205,123.515740,-120.542958,7775.590751,6172.233066,11588.664244,-16321.154394,12404.949952,7206.560040,9841.562491,-4940.942519,13838.076751,3142.163532,17152.080494,4747.354060,-298.167999,-859.856018,-408.455994,0.000000,-3220.000000,-140.000000
9300.650275,12197.615170,139.854865,-124.521568,7797.696626,6169.997891,11577.443669,-16324.574211,12423.837176,7248.424858,9843.887072,-4935.488693,13844.245832,3160.111983,17148.504215,4748.851627,-296.704010,-857.416016,-406.503998,-420.000000,-3500.000000,-1120.000000
9366.118534,12380.228922,279.597971,-2.615154,7975.616512,6206.855918,11665.174266,-16212.189640,12506.471575,7380.814240,9864.294215,-4811.235346,13909.512926,3211.252774,17249.891728,4886.046634,-294.264008,-859.856018,-409.920013,-560.000000,-3640.000000,-1680.000000
9417.594602,12612.485899,421.464493,155.076403,8162.208874,6258.667261,11791.685139,-16076.581606,12588.547181,7480.011282,9890.356349,-4660.696347,13984.033642,3253.430516,17389.500724,5059.563227,-296.216003,-860.343994,-411.872009,-560.000000,-3780.000000,-2520.000000
9401.501346,12667.493542,423.274985,195.935392,8166.947444,6275.118145,11834.801654,-16053.715772,12593.777489,7446.215444,9899.721730,-4624.978259,14001.915038,3244.042783,17442.139082,5109.251155,-295.239990,-859.367981,-406.503998,-700.000000,-3640.000000,-2940.000000
9353.020412,12547.531730,321.663954,114.038600,8036.368553,6247.178465,11775.591883,-16137.110130,12534.992401,7354.573292,9886.265980,-4703.477586,13957.591529,3207.631792,17379.509494,5022.347572,-293.776001,-859.856018,-410.895996,-560.000000,-3500.000000,-3360.000000
9330.042819,12446.434789,252.909989,44.167047,7950.023764,6222.926822,11723.847595,-16196.431660,12490.221857,7303.678370,9869.703337,-4775.696072,13916.218450,3183.782480,17311.113156,4937.455647,-293.776001,-857.903992,-410.895996,-840.000000,-3080.000000,-3920.000000
9314.374246,12356.781942,195.354247,-15.400352,7882.007406,6204.441929,11683.502696,-16239.101140,12455.531949,7258.036108,9855.353517,-4844.092410,13878.689871,3163.084765,17251.433999,4862.376137,-292.800018,-859.856018,-408.455994,-840.000000,-2800.000000,-3920.000000
9298.795080,12250.342935,132.054106,-85.987161,7803.150452,6184.168897,11627.891556,-16294.846391,12425.960592,7215.992476,9845.451694,-4917.204966,13844.156425,3146.835047,17186.189256,4779.987607,-291.335999,-860.343994,-410.895996,-840.000000,-2240.000000,-4200.000000
9302.326656,12191.110813,117.190196,-126.801446,7776.797745,6173.484763,11589.111279,-16328.441063,12424.306562,7226.318982,9844.848197,-4945.949310,13833.762864,3153.831143,17149.353582,4742.928415,-292.312012,-860.343994,-410.407990,-980.000000,-1540.000000,-4200.000000
9355.926139,12310.469128,225.260881,-49.106783,7910.483528,6198.183441,11640.743809,-16255.462617,12487.338482,7333.428542,9858.907444,-4859.962149,13878.622815,3196.500623,17211.312617,4835.196416,-294.264008,-861.320007,-408.455994,-840.000000,-980.000000,-3920.000000
9418.667486,12550.012773,388.182746,111.266984,8113.996162,6250.039488,11764.594825,-16112.746729,12579.941759,7455.849046,9884.299026,-4703.455234,13957.055087,3245.205074,17348.217052,5011.797549,-294.264008,-862.296021,-406.015991,-560.000000,-280.000000,-3920.000000
9425.641230,12687.319539,454.925055,205.747808,8191.668474,6280.348454,11845.396381,-16039.991801,12617.693855,7475.943264,9900.749910,-4614.092960,13998.316407,3253.765792,17442.049675,5117.677762,-291.335999,-860.343994,-408.944000,-560.000000,280.000000,-3780.000000
9371.706470,12590.983521,365.428670,144.191103,8070.857295,6258.890779,11802.838660,-16108.835174,12566.508361,7378.064976,9891.809212,-4673.056862,13964.811142,3217.287745,17404.901076,5057.037480,-293.287994,-861.807983,-408.944000,-140.000000,1120.000000,-3500.000000
9343.163293,12482.242284,291.980838,71.257361,7973.962483,6233.052162,11744.210034,-16173.968157,12516.485157,7316.932954,9876.811192,-4747.979909,13924.399188,3192.700826,17338.874023,4971.050319,-290.847992,-859.367981,-409.920013,-140.000000,1540.000000,-3360.000000
9326.332429,12389.191972,233.531026,7.733704,7904.202688,6212.957944,11695.863211,-16218.805756,12476.654348,7270.553085,9861.321433,-4818.052628,13886.825906,3170.103213,17271.572920,4887.432443,-288.407990,-859.367981,-411.872009,560.000000,2240.000000,-3080.000000
9304.897106,12284.563456,168.487450,-63.501306,7828.340868,6191.969656,11643.269556,-16270.035955,12439.818673,7224.195567,9847.977441,-4891.701626,13851.688963,3150.590140,17204.562390,4802.339351,-288.407990,-861.320007,-409.432007,700.000000,2800.000000,-2800.000000
9295.151746,12193.614208,121.459379,-124.029830,7770.874533,6173.574170,11592.441689,-16320.908525,12418.696275,7206.716503,9842.411857,-4943.803542,13830.186585,3145.471590,17151.879329,4738.748638,-291.335999,-859.856018,-412.360016,1260.000000,2940.000000,-2520.000000
9326.801816,12243.302136,179.283342,-91.195117,7844.367068,6180.234990,11604.489279,-16292.611217,12451.195711,7280.700777,9849.385601,-4903.235126,13852.739495,3174.171230,17173.202893,4778.490040,-290.847992,-859.856018,-410.407990,1680.000000,3500.000000,-2100.000000
9392.515945,12463.846798,337.600748,57.198114,8047.656184,6224.424389,11711.643542,-16161.138256,12539.194529,7416.174700,9872.564360,-4756.138296,13929.137758,3226.116684,17295.176362,4942.931824,-289.384003,-856.928040,-409.432007,1820.000000,3640.000000,-1680.000000
9426.200023,12663.023193,454.142744,194.214308,8196.652913,6269.753727,11825.704494,-16045.937365,12604.841602,7485.040424,9895.966637,-4626.967564,13996.058881,3255.665690,17422.827175,5095.951867,-289.872009,-857.903992,-410.407990,2100.000000,3920.000000,-1260.000000
9385.765718,12633.138911,398.039865,179.171584,8124.881461,6267.876180,11825.950363,-16075.307557,12578.578303,7409.335066,9897.061872,-4642.591434,13987.632273,3229.894129,17429.733864,5087.681721,-290.847992,-857.903992,-410.407990,2240.000000,3920.000000,-840.000000
9345.353764,12511.701883,301.860309,97.073626,8004.114986,6237.120180,11764.505418,-16152.376372,12522.229555,7332.914452,9881.348596,-4720.911946,13944.381648,3197.618210,17360.286994,4998.632371,-289.872009,-860.832031,-411.384003,2380.000000,3920.000000,-700.000000
9328.008810,12418.003371,240.907102,31.985346,7928.141407,6213.807310,11716.471519,-16202.220762,12482.912836,7282.667730,9866.283520,-4790.649389,13908.194173,3174.260637,17292.963540,4916.109731,-288.407990,-858.880005,-411.384003,2520.000000,3640.000000,-140.000000
9312.541403,12322.494366,184.759520,-32.722954,7854.268891,6193.735444,11666.336556,-16253.450960,12448.513502,7235.460846,9853.386563,-4859.984500,13873.034879,3154.188771,17225.841251,4830.524901,-290.847992,-859.856018,-411.384003,2660.000000,3640.000000,-140.000000
9295.151746,12214.937772,128.366068,-101.365161,7778.854105,6173.305949,11609.808995,-16313.979484,12418.271591,7201.374436,9843.238871,-4926.033905,13839.350800,3142.498808,17163.949271,4752.226740,-289.384003,-860.832031,-412.360016,2660.000000,3780.000000,-140.000000
