-12001.232743,-4576.586732,11165.031632,-27169.059476,13289.386128,8053.065306,-20840.118330,-23991.043745,-17875.986442,-583.693455,-8011.334599,20708.511258,41306.426085,-10996.298313,-14497.967303,-18226.752368,22.936001,-901.335999,-427.488007,980.000000,-1120.000000,3220.000000
-136248.366386,68891.272711,87784.487043,-51217.636611,183136.939482,142008.433283,-26460.911508,99243.175893,-19045.273250,-1496.158719,-30680.831454,27993.369459,-65960.936661,98087.903629,112721.769538,-132202.164197,22.936001,-901.335999,-427.488007,560.000000,-1400.000000,3080.000000
-11910.484661,-4597.418558,11264.899226,-27520.160677,12969.219741,8116.208984,-20780.796800,-24068.291374,-17891.498553,-477.545020,-8068.331548,20542.258983,41338.746707,-11000.902772,-14415.467014,-18066.579767,0.000000,-905.239990,-431.880005,6300.000000,840.000000,560.000000
-11909.568239,-4598.290276,11265.390964,-27523.267570,12966.872807,8113.325609,-20784.104858,-24072.582909,-17891.207980,-474.728700,-8062.296577,20542.862480,41341.250103,-11003.294409,-14420.540860,-18071.586558,0.488000,-908.656006,-434.320007,6020.000000,840.000000,280.000000
-11909.635295,-4597.530317,11268.497857,-27522.909942,12967.878636,8115.069045,-20784.082506,-24073.991069,-17891.878532,-472.202953,-8056.842751,20544.985896,41345.832210,-11001.528621,-14421.434930,-18073.754677,1.464000,-907.192017,-431.880005,6440.000000,840.000000,420.000000
-11907.087196,-4594.110500,11271.113011,-27517.165544,12973.824200,8120.746389,-20776.237044,-24065.139778,-17890.671538,-470.370110,-8054.205245,20548.562175,41347.888571,-10995.717167,-14413.455357,-18065.819808,3.416000,-904.264038,-430.903992,6440.000000,840.000000,140.000000
-11904.337931,-4591.115366,11275.404546,-27515.600922,12976.417002,8123.048618,-20776.505265,-24066.302069,-17888.056384,-467.956122,-8053.601748,20552.294916,41351.598960,-10992.945551,-14413.008322,-18065.842159,3.904000,-908.656006,-427.000000,6160.000000,840.000000,-140.000000
-11904.852021,-4593.663465,11273.392889,-27519.288959,12972.997185,8120.902851,-20781.020317,-24069.677182,-17887.072907,-468.179639,-8054.808742,20550.171500,41350.034338,-10996.343016,-14417.813947,-18070.066639,4.880000,-908.168030,-427.488007,6160.000000,1260.000000,-420.000000
-11903.689731,-4592.814099,11272.297653,-27520.406547,12971.521970,8119.092359,-20782.897864,-24070.727714,-17884.569512,-468.246695,-8058.139152,20549.925631,41348.134440,-10997.751176,-14419.199755,-18070.848950,2.928000,-910.608032,-427.488007,6160.000000,1400.000000,-560.000000
-11904.695559,-4590.981256,11271.805915,-27516.137363,12976.215837,8121.863976,-20775.812361,-24062.926956,-17882.893131,-471.778270,-8065.001138,20550.864405,41345.116954,-10994.197249,-14413.209488,-18061.796494,5.368000,-908.168030,-428.951996,5740.000000,840.000000,-420.000000
-11914.329161,-4600.883079,11265.390964,-27524.966303,12969.331499,8118.131234,-20782.562588,-24065.765627,-17893.845486,-479.824898,-8071.617254,20542.951887,41340.490143,-10999.226391,-14421.323171,-18066.311546,3.416000,-905.728027,-427.488007,6020.000000,1120.000000,-280.000000
-11922.241679,-4610.516681,11259.847732,-27535.181050,12959.697897,8112.520947,-20792.263245,-24073.186406,-17905.535448,-484.138785,-8071.952530,20535.173480,41337.450306,-11006.267191,-14431.604973,-18075.431058,3.416000,-909.143982,-431.880005,5460.000000,1120.000000,-280.000000
-11923.672190,-4611.589564,11261.635871,-27536.477451,12959.183807,8112.722112,-20792.978500,-24074.303993,-17908.418823,-483.267067,-8065.761097,20534.458224,41340.534847,-11006.468356,-14434.063665,-18077.755639,3.904000,-908.656006,-428.464020,5040.000000,560.000000,-140.000000
-11917.301943,-4604.816986,11266.486200,-27527.492050,12967.275139,8118.868842,-20783.814285,-24066.391476,-17901.288617,-477.589724,-8057.893283,20540.850823,41345.094603,-10999.919295,-14424.497119,-18070.066639,5.856000,-907.679993,-426.511993,4620.000000,420.000000,-420.000000
-11915.089120,-4603.587640,11266.821476,-27527.402643,12967.498656,8120.008781,-20784.082506,-24066.145607,-17898.584056,-475.890991,-8057.870931,20542.013114,41345.385175,-10999.986351,-14424.251249,-18070.334860,8.784000,-908.656006,-429.928009,4340.000000,280.000000,-280.000000
-11911.266972,-4599.497271,11271.492990,-27524.340454,12971.879598,8121.551051,-20780.685041,-24064.446874,-17896.125364,-471.957084,-8055.613405,20547.422236,41348.179143,-10996.410071,-14421.054950,-18067.451485,7.320000,-909.632019,-428.951996,4620.000000,0.000000,-280.000000
-11915.983190,-4603.475881,11268.654319,-27526.888553,12969.331499,8119.628801,-20782.875512,-24066.190310,-17901.869762,-476.427433,-8061.871894,20543.845957,41345.340472,-10998.868763,-14424.005380,-18069.083162,5.856000,-909.632019,-428.951996,4200.000000,-140.000000,-280.000000
-11920.878222,-4605.129910,11265.525075,-27526.687387,12969.957348,8120.411112,-20781.377945,-24063.977488,-17904.417861,-483.781157,-8072.265455,20540.806120,41341.294806,-10997.885287,-14423.357180,-18066.624471,10.736000,-909.143982,-428.951996,4200.000000,0.000000,-420.000000
-11923.918059,-4608.303858,11262.127610,-27529.101375,12967.610415,8118.667676,-20783.479009,-24065.743275,-17906.965960,-486.955105,-8077.004025,20537.967448,41337.606768,-11000.053406,-14424.608877,-18067.876168,10.248000,-908.168030,-426.511993,4200.000000,140.000000,-280.000000
-11917.033722,-4603.811157,11263.759287,-27526.173297,12967.386897,8115.180804,-20785.267149,-24069.721886,-17900.059271,-480.026064,-8069.806763,20541.387265,41338.657300,-11001.819194,-14424.519470,-18070.781895,9.760000,-906.704041,-424.559998,4480.000000,140.000000,-420.000000
-11919.671228,-4604.369951,11262.708755,-27525.390986,12968.079802,8115.493729,-20784.596596,-24068.738409,-17902.160335,-481.836555,-8068.197437,20540.649657,41338.277321,-11001.886249,-14423.625400,-18070.536026,10.736000,-906.704041,-425.048004,4340.000000,-140.000000,-280.000000
-11912.093987,-4599.407864,11268.162581,-27521.837058,12969.577368,8115.761950,-20783.344899,-24070.124217,-17896.617102,-472.784099,-8055.948681,20546.483463,41344.625216,-11000.768662,-14422.172537,-18072.212407,10.248000,-908.168030,-421.144012,4200.000000,-420.000000,-280.000000
-11910.954048,-4598.111462,11270.040127,-27520.294788,12971.343156,8118.690028,-20782.450829,-24069.073685,-17896.572399,-473.298189,-8056.261606,20547.712809,41347.396832,-10998.533487,-14420.965543,-18072.659442,9.760000,-906.704041,-425.048004,3640.000000,-140.000000,-280.000000
-11906.997789,-4591.405939,11271.247121,-27509.677709,12982.139049,8125.820235,-20766.558739,-24053.338057,-17890.246855,-471.353587,-8057.714469,20552.786655,41345.809859,-10989.570438,-14405.118156,-18056.007392,10.736000,-907.192017,-420.656006,3920.000000,-140.000000,-560.000000
-11907.198954,-4593.261134,11273.616406,-27514.908018,12977.288720,8121.595755,-20775.991175,-24064.513929,-17891.878532,-469.632503,-8056.395716,20552.853710,41349.028510,-10993.593752,-14414.282371,-18065.819808,9.760000,-905.239990,-419.192017,4200.000000,0.000000,-420.000000
-11912.183394,-4597.172689,11271.381232,-27519.780698,12972.796020,8118.242993,-20783.568416,-24072.292336,-17896.415937,-474.393424,-8063.928254,20549.880928,41347.374481,-10997.058272,-14420.943191,-18072.659442,11.712000,-904.752014,-422.608002,4200.000000,140.000000,-420.000000
-11917.078426,-4601.240707,11266.709717,-27523.066404,12970.516142,8116.320743,-20784.060154,-24070.772418,-17900.551009,-480.450747,-8072.421917,20545.477634,41341.384213,-10999.092281,-14422.865441,-18071.586558,11.712000,-907.679993,-422.119995,3640.000000,420.000000,-420.000000
-11921.369960,-4606.895698,11262.574644,-27528.743747,12966.962214,8115.583136,-20786.049460,-24068.693706,-17905.580152,-484.429358,-8075.282940,20540.113215,41337.182085,-11001.618028,-14428.006342,-18071.474799,11.712000,-904.752014,-422.608002,3780.000000,280.000000,-560.000000
-11923.694542,-4611.768378,11260.339470,-27534.219925,12961.977775,8112.766816,-20791.458582,-24072.404095,-17909.201134,-484.831689,-8071.550199,20536.939268,41337.427954,-11005.440176,-14433.951906,-18077.129790,11.224000,-904.264038,-419.192017,4060.000000,700.000000,-840.000000
-11919.335952,-4608.326210,11262.798162,-27530.397776,12965.084668,8113.638534,-20788.530503,-24071.420618,-17905.088413,-478.863773,-8061.916597,20540.381436,41341.004233,-11003.875554,-14429.325095,-18076.503942,14.640000,-903.288025,-422.608002,4200.000000,700.000000,-840.000000
-11916.072597,-4606.426311,11264.854522,-27530.576590,12965.062316,8114.264383,-20791.011547,-24074.326345,-17902.607370,-475.332198,-8056.798048,20542.527204,41344.446402,-11003.070891,-14431.224994,-18080.616663,10.736000,-905.239990,-421.632019,3640.000000,560.000000,-840.000000
-11915.290286,-4603.028846,11267.424973,-27525.726262,12969.264444,8118.354752,-20786.876474,-24069.185444,-17901.154506,-477.232096,-8061.514266,20545.477634,41345.273417,-10999.338150,-14426.955810,-18075.453410,12.200000,-900.848022,-419.192017,3080.000000,280.000000,-840.000000
-11916.296114,-4603.453529,11266.195627,-27527.335587,12968.839761,8118.913545,-20787.412916,-24066.927918,-17900.148678,-479.690788,-8066.118725,20544.069474,41343.038242,-10999.539316,-14428.207508,-18074.604043,13.176001,-902.312012,-420.167999,3080.000000,140.000000,-980.000000
-11917.637219,-4607.074512,11265.189798,-27534.354035,12964.481171,8116.879537,-20792.822038,-24069.766589,-17902.942646,-479.422567,-8066.744574,20542.393093,41342.032414,-11002.221525,-14437.036447,-18078.135619,13.664001,-901.335999,-420.656006,3360.000000,0.000000,-980.000000
-11920.520594,-4608.728541,11264.183970,-27534.264628,12964.592929,8116.588964,-20791.615044,-24069.140741,-17905.915428,-482.730625,-8072.265455,20541.454320,41339.908998,-11001.595676,-14436.567061,-18076.012203,15.616000,-902.312012,-422.119995,2940.000000,-140.000000,-1400.000000
-11923.381617,-4607.789768,11261.725278,-27529.593114,12968.772706,8117.840662,-20783.523713,-24063.865729,-17907.480050,-486.575125,-8077.629873,20540.828471,41335.371594,-10999.874592,-14428.654543,-18069.016107,14.640000,-902.312012,-421.632019,2800.000000,-280.000000,-1680.000000
-11920.878222,-4608.125044,11262.753458,-27531.805936,12965.263482,8113.191499,-20789.648091,-24072.538206,-17907.591809,-481.590686,-8070.142039,20541.543727,41338.143210,-11003.584981,-14433.728389,-18075.587520,18.056000,-899.872009,-419.679993,2380.000000,-840.000000,-1960.000000
-11918.665399,-4605.129910,11266.173275,-27529.056672,12967.789229,8114.599659,-20789.066945,-24072.359392,-17906.049538,-478.483794,-8063.369461,20544.628268,41342.702966,-11001.126290,-14431.895546,-18076.056907,21.472000,-898.408020,-417.727997,2240.000000,-1400.000000,-2100.000000
-11919.224193,-4605.576945,11267.872008,-27529.704872,12967.923339,8115.717246,-20790.676271,-24072.202930,-17907.949437,-477.969703,-8058.675594,20544.918841,41345.407527,-10999.941647,-14433.907203,-18078.001508,25.375999,-896.455994,-415.287994,2380.000000,-1260.000000,-2520.000000
-11916.094949,-4603.922916,11267.156752,-27526.843849,12969.376203,8117.393627,-20787.681137,-24070.459493,-17903.501440,-475.823936,-8057.222731,20545.678800,41345.094603,-10998.980522,-14429.101578,-18075.520465,23.424000,-901.335999,-414.312012,2660.000000,-1260.000000,-2940.000000
-11908.137728,-4595.429253,11271.515342,-27518.797221,12975.969967,8119.919374,-20779.858026,-24066.100903,-17893.264341,-469.878372,-8054.518170,20552.496082,41347.463888,-10994.823098,-14418.439796,-18069.530197,24.888000,-902.312012,-416.264008,2940.000000,-1400.000000,-3220.000000
-11909.501184,-4595.362198,11271.090659,-27519.870105,12973.891255,8116.857185,-20784.395431,-24072.851130,-17891.342091,-471.420642,-8059.726126,20552.451378,41346.547466,-10997.572362,-14421.814909,-18075.319299,28.792000,-901.824036,-417.239990,2380.000000,-1960.000000,-3360.000000
-11914.664437,-4599.206698,11267.112049,-27522.082927,12972.371337,8116.320743,-20783.926044,-24069.185444,-17896.773564,-478.215573,-8069.471487,20548.159843,41341.205399,-10998.734653,-14423.066607,-18072.055944,28.304001,-902.799988,-420.167999,1820.000000,-2660.000000,-3500.000000
-11917.324295,-4601.754797,11264.005156,-27522.731128,12973.421868,8117.214813,-20779.880378,-24062.457569,-17899.545181,-482.171831,-8074.545333,20545.052951,41336.712699,-10998.287618,-14420.496156,-18065.819808,29.768000,-896.944031,-417.727997,1820.000000,-2800.000000,-3500.000000
-11921.995809,-4607.052160,11260.920615,-27528.117898,12968.057450,8112.677409,-20785.311852,-24067.151435,-17904.574323,-484.384654,-8074.724147,20540.962582,41334.879855,-11003.070891,-14426.620534,-18071.251282,31.232000,-894.504028,-411.872009,1960.000000,-2940.000000,-3640.000000
-11921.615830,-4605.889869,11261.948796,-27528.721396,12965.978738,8110.553993,-20789.581035,-24073.678145,-17903.814364,-482.149480,-8069.516190,20541.677838,41338.009100,-11005.618990,-14429.950944,-18078.135619,33.184002,-895.479980,-414.312012,2240.000000,-2800.000000,-3640.000000
-11919.313600,-4603.587640,11264.966281,-27525.659207,12969.689127,8114.510252,-20785.647128,-24068.269022,-17901.713300,-478.372035,-8062.251873,20545.052951,41341.965358,-11001.260400,-14427.291087,-18074.201712,34.647999,-894.992004,-414.800018,2800.000000,-2660.000000,-3780.000000
-11914.686789,-4603.922916,11267.492028,-27529.459003,12966.559883,8113.057388,-20790.810381,-24073.812255,-17900.036919,-472.158250,-8053.355879,20546.237593,41345.742803,-11002.959133,-14432.342581,-18080.706070,32.695999,-894.504028,-415.776001,2940.000000,-2380.000000,-3920.000000
-11915.513803,-4604.839337,11265.949758,-27530.107204,12967.051621,8114.376141,-20790.273939,-24070.168921,-17901.087451,-474.236962,-8056.932158,20544.695323,41343.373518,-11002.065063,-14431.873194,-18078.850875,39.040001,-893.040039,-414.800018,3500.000000,-2240.000000,-3780.000000
-11917.458405,-4605.398131,11265.413316,-27530.286018,12967.677470,8114.219679,-20791.190361,-24070.906528,-17903.076756,-476.069805,-8061.603673,20544.807082,41342.702966,-11002.355635,-14431.984953,-18079.297910,34.160000,-893.528015,-416.264008,3640.000000,-1820.000000,-3640.000000
-11921.057036,-4607.499195,11263.580473,-27529.570762,12968.057450,8113.705589,-20788.821076,-24069.230148,-17906.384815,-480.718968,-8069.382080,20542.817777,41339.864295,-11002.377987,-14428.207508,-18076.101610,35.624001,-889.135986,-419.679993,3920.000000,-1260.000000,-3640.000000
-11925.639144,-4609.510852,11260.115953,-27528.497878,12969.152685,8114.040865,-20784.641300,-24064.469226,-17910.586943,-487.178622,-8077.607522,20539.844995,41335.058669,-11001.595676,-14424.295953,-18070.580729,35.624001,-891.575989,-418.704010,4200.000000,-1260.000000,-3220.000000
-11925.370923,-4611.522509,11258.417220,-27531.694178,12965.308185,8109.838737,-20789.357518,-24070.012459,-17909.938742,-486.105738,-8075.886437,20538.034503,41333.762268,-11005.484880,-14430.040351,-18075.453410,33.672001,-887.671997,-419.679993,4340.000000,-1120.000000,-3080.000000
-11919.537117,-4606.918050,11261.501761,-27530.017797,12965.531703,8108.162356,-20790.966843,-24073.544034,-17903.233219,-479.355512,-8067.102202,20541.923707,41336.913864,-11005.931915,-14431.694380,-18078.672061,33.184002,-891.088013,-421.144012,4620.000000,-840.000000,-2800.000000
-11913.032760,-4600.838375,11266.732069,-27525.390986,12969.800886,8109.548165,-20789.782201,-24075.332174,-17898.047614,-472.717043,-8057.110972,20548.293954,41342.278283,-11003.294409,-14429.503909,-18080.057869,33.672001,-889.135986,-420.167999,4900.000000,-280.000000,-2380.000000
-11909.948219,-4596.882116,11271.023604,-27519.825401,12976.551113,8115.538432,-20782.517884,-24068.693706,-17895.991253,-468.716081,-8052.081830,20552.518434,41346.212190,-10997.348845,-14422.910145,-18073.397049,31.720001,-892.064026,-420.656006,4900.000000,0.000000,-2100.000000
-11908.093024,-4594.535183,11273.392889,-27516.472640,12980.350909,8119.539394,-20779.925082,-24064.938613,-17892.772602,-467.665549,-8054.249949,20555.491216,41347.329777,-10993.012606,-14419.289162,-18070.245453,29.280001,-891.575989,-421.632019,5040.000000,140.000000,-1680.000000
-11904.449690,-4591.830622,11274.957511,-27516.003253,12980.172095,8118.220641,-20779.679213,-24065.922089,-17888.212846,-464.513953,-8051.858312,20556.832320,41349.073213,-10993.951380,-14417.813947,-18070.647785,30.256001,-893.040039,-421.144012,5320.000000,420.000000,-1400.000000
-11898.548829,-4585.996817,11276.991520,-27511.331738,12984.284816,8119.159415,-20774.650070,-24063.128121,-17880.680308,-461.585875,-8052.417106,20560.498006,41348.581475,-10991.850316,-14412.270714,-18065.596290,28.304001,-891.575989,-421.632019,5740.000000,980.000000,-1120.000000
-11894.167887,-4582.889924,11278.086755,-27509.051860,12985.268293,8117.505386,-20775.097105,-24064.893909,-17876.254663,-457.428450,-8051.008946,20563.068457,41348.179143,-10991.917371,-14411.778976,-18065.886863,24.400000,-894.504028,-422.119995,5740.000000,1260.000000,-700.000000
-11896.760690,-4586.577962,11275.292787,-27512.806954,12980.932055,8114.040865,-20779.679213,-24070.347735,-17879.652128,-458.881314,-8051.679498,20559.670992,41346.256893,-10996.052444,-14416.182270,-18070.401915,21.960001,-894.015991,-422.608002,5320.000000,1540.000000,-700.000000
-11889.764594,-4581.459413,11276.253912,-27508.962453,12983.189581,8113.213851,-20776.549968,-24070.906528,-17871.784314,-452.913398,-8044.728106,20563.090809,41346.547466,-10996.119499,-14411.756624,-18069.194921,24.888000,-894.015991,-416.752014,5320.000000,1820.000000,-420.000000
-11877.962873,-4569.948264,11285.663996,-27498.434782,12992.756127,8117.438330,-20768.056305,-24066.547938,-17859.423799,-441.379898,-8031.294707,20574.311384,41354.370577,-10989.257513,-14402.100671,-18063.763447,20.496000,-895.479980,-422.119995,5460.000000,2380.000000,-280.000000
-11873.939559,-4562.594540,11293.978845,-27490.701078,13000.646293,8124.300316,-20761.730762,-24061.675258,-17854.282898,-437.557749,-8028.880719,20581.776867,41361.299617,-10980.920313,-14395.730423,-18058.667250,20.496000,-894.015991,-421.144012,5600.000000,2520.000000,-280.000000
-11867.681070,-4552.737421,11299.544430,-27479.055819,13011.173965,8130.871729,-20749.437302,-24053.472168,-17845.766884,-433.243863,-8029.618326,20590.270530,41364.451213,-10972.516057,-14382.677005,-18048.161930,17.080000,-893.040039,-421.144012,5740.000000,2940.000000,-420.000000
-11863.613053,-4547.685927,11301.913715,-27471.724447,13017.410102,8133.553938,-20740.742474,-24046.386665,-17841.631811,-430.293433,-8029.774789,20594.249141,41364.741786,-10968.068059,-14372.305795,-18039.578860,14.640000,-895.968018,-420.656006,6160.000000,2800.000000,-420.000000
-11874.163076,-4558.571226,11294.135308,-27482.296822,13008.447052,8129.016534,-20750.666648,-24051.684028,-17852.315945,-439.681165,-8038.156693,20584.682594,41358.840926,-10975.578246,-14383.168743,-18047.849005,11.712000,-895.479980,-426.024017,6300.000000,2940.000000,-420.000000
-11878.052280,-4561.812229,11291.788374,-27484.286128,13007.061244,8127.787188,-20751.694828,-24051.460511,-17855.556948,-443.883293,-8044.079905,20582.290957,41355.868144,-10977.366385,-14383.951054,-18047.960764,8.784000,-894.992004,-424.559998,6580.000000,3220.000000,-840.000000
-11888.825821,-4573.859820,11284.144078,-27495.216131,12996.064186,8121.528700,-20761.574300,-24056.936688,-17868.565663,-453.338081,-8053.311176,20571.897396,41350.302559,-10985.904752,-14394.925761,-18056.052095,7.320000,-898.408020,-420.656006,6860.000000,3080.000000,-980.000000
-11896.492469,-4582.018206,11277.147982,-27504.268587,12988.039909,8116.231336,-20769.442114,-24061.563499,-17877.193436,-459.618921,-8057.110972,20563.582547,41345.161658,-10992.900848,-14404.045272,-18062.221177,6.344000,-898.408020,-422.119995,7000.000000,2940.000000,-980.000000
-11899.509954,-4584.633360,11277.237389,-27507.733108,12987.458764,8118.175938,-20770.783218,-24060.132988,-17881.820247,-460.580046,-8053.512341,20562.733181,41347.329777,-10992.409109,-14408.716787,-18061.863549,5.368000,-899.872009,-421.144012,6720.000000,2940.000000,-1120.000000
-11901.946295,-4585.214506,11277.885589,-27507.531942,12989.783345,8122.087493,-20768.078657,-24054.321534,-17884.949492,-462.926979,-8051.992423,20562.554367,41349.296731,-10989.168106,-14407.085110,-18058.510787,3.904000,-899.872009,-422.119995,7000.000000,2940.000000,-1540.000000
-11903.041530,-4588.544916,11275.985691,-27512.292863,12985.111831,8119.897022,-20774.337146,-24058.657772,-17886.715279,-463.329311,-8051.545388,20559.536881,41349.676710,-10992.610275,-14412.985970,-18065.372773,1.464000,-900.359985,-425.048004,7140.000000,2660.000000,-1820.000000
-11908.651818,-4597.530317,11270.800086,-27523.915771,12973.980662,8114.107920,-20787.792896,-24068.850168,-17893.174934,-466.503259,-8054.764039,20552.674896,41346.726280,-11001.685083,-14427.715770,-18078.113267,3.416000,-901.824036,-423.096008,7000.000000,2380.000000,-2100.000000
-11917.011370,-4603.922916,11265.770944,-27528.050843,12971.857246,8114.420845,-20788.865780,-24066.145607,-17900.416899,-474.996921,-8064.330586,20546.818739,41341.965358,-11002.780319,-14430.308572,-18077.845046,1.952000,-904.752014,-422.608002,7140.000000,2520.000000,-2520.000000
-11918.888917,-4605.264021,11263.893397,-27529.503707,12970.583197,8112.632705,-20790.162181,-24066.838511,-17901.601541,-477.299151,-8068.219789,20544.918841,41338.746707,-11004.009665,-14431.046180,-18077.979157,1.952000,-903.288025,-423.584015,6860.000000,2240.000000,-2800.000000
-11921.012333,-4606.180442,11262.082906,-27529.034320,12970.471438,8111.202194,-20790.743326,-24067.598470,-17902.115631,-479.646084,-8071.997234,20544.002419,41336.131553,-11005.306066,-14431.470863,-18077.375660,0.000000,-907.192017,-421.144012,6580.000000,1960.000000,-3080.000000
-11919.693580,-4606.225146,11262.284072,-27530.151907,12968.951520,8108.788205,-20794.230198,-24072.359392,-17901.243913,-479.042587,-8070.857295,20544.270640,41335.840981,-11007.585944,-14434.622459,-18080.750773,4.880000,-905.239990,-420.656006,6720.000000,1680.000000,-3360.000000
-11921.459367,-4607.655657,11259.266586,-27530.889515,12968.616243,8109.458758,-20791.659748,-24068.157264,-17903.948474,-481.322465,-8070.522019,20541.566079,41333.494047,-11008.167089,-14432.990781,-18078.403840,5.856000,-909.143982,-423.584015,6300.000000,1120.000000,-3500.000000
-11922.509899,-4609.108521,11262.641700,-27533.214096,12967.409249,8110.352827,-20794.856047,-24069.967755,-17907.122422,-478.372035,-8063.190647,20543.085997,41339.171390,-11007.876516,-14436.410598,-18082.047174,4.880000,-906.704041,-425.048004,6160.000000,560.000000,-3920.000000
-11923.605135,-4611.567213,11262.954624,-27536.298637,12965.308185,8110.933973,-20798.655844,-24072.627613,-17910.497536,-477.746186,-8061.000176,20541.946059,41341.987710,-11008.725883,-14440.143340,-18086.405764,7.320000,-905.239990,-424.071991,5880.000000,280.000000,-4060.000000
-11916.989019,-4602.425349,11267.961415,-27525.703910,12974.561807,8115.717246,-20789.178704,-24068.380781,-17901.422727,-475.063977,-8062.676556,20548.986858,41344.200533,-11001.550973,-14428.363970,-18078.962633,8.784000,-906.704041,-428.464020,6020.000000,-420.000000,-4200.000000
-11911.065806,-4596.725654,11269.861313,-27519.467773,12979.635653,8118.175938,-20781.780277,-24061.563499,-17893.040823,-470.615980,-8059.793181,20553.188986,41344.312292,-10997.885287,-14420.026770,-18071.877130,13.664001,-908.656006,-428.464020,6160.000000,-840.000000,-4200.000000
-11911.736359,-4598.938477,11268.341394,-27523.133459,12975.210008,8114.934935,-20786.876474,-24064.893909,-17894.381928,-470.973607,-8061.134286,20551.311439,41342.747670,-11002.690912,-14426.061741,-18076.056907,15.616000,-909.143982,-427.488007,6720.000000,-1260.000000,-4340.000000
-11921.235850,-4605.688704,11262.954624,-27528.788451,12970.583197,8112.096263,-20791.413878,-24067.911395,-17903.344977,-480.137823,-8073.025414,20544.516509,41337.360899,-11006.960095,-14431.515566,-18078.739116,19.520000,-907.192017,-428.951996,7280.000000,-1680.000000,-4480.000000
-11925.236812,-4610.449625,11259.646566,-27532.901172,12966.604586,8109.615220,-20794.699585,-24070.101866,-17908.195306,-483.959971,-8077.227542,20541.119044,41333.941082,-11009.999932,-14435.583584,-18081.309567,21.960001,-906.216003,-430.903992,7700.000000,-1680.000000,-4340.000000
-11920.475891,-4607.275678,11260.898264,-27531.694178,12967.431601,8108.788205,-20794.744288,-24070.861825,-17902.540315,-478.483794,-8069.337376,20543.667143,41335.013966,-11009.955229,-14435.024790,-18081.756602,22.936001,-908.168030,-425.048004,8400.000000,-2100.000000,-4340.000000
-11917.950144,-4606.269849,11263.893397,-27532.945875,12967.610415,8108.497633,-20797.828829,-24073.991069,-17902.562666,-473.208782,-8059.077926,20545.991724,41340.311329,-11010.089339,-14438.310497,-18085.891674,25.864000,-907.192017,-427.976013,8400.000000,-2240.000000,-4480.000000
-11919.335952,-4607.298029,11265.055688,-27533.750538,12966.984566,8110.531641,-20799.236989,-24073.633441,-17905.647207,-473.298189,-8056.887455,20545.321172,41343.239408,-11009.776415,-14439.830415,-18087.389241,30.256001,-906.216003,-426.511993,8120.000000,-2240.000000,-4200.000000
-11915.424396,-4602.000666,11267.357918,-27527.804974,12971.723136,8113.258554,-20794.431364,-24070.995935,-17900.707471,-471.308884,-8057.401545,20549.344486,41344.647568,-11006.200135,-14432.789616,-18084.215293,29.768000,-904.264038,-429.440002,8120.000000,-1960.000000,-3780.000000
-11913.949181,-4597.172689,11268.699022,-27518.998387,12979.456839,8117.818310,-20782.070849,-24061.563499,-17896.974730,-472.202953,-8061.357804,20552.809006,41342.926484,-11000.366330,-14420.719674,-18073.106476,30.743999,-905.239990,-428.951996,7840.000000,-1400.000000,-3640.000000
-11916.206708,-4599.474919,11268.542560,-27521.591189,12976.975796,8116.253688,-20786.407088,-24064.983316,-17898.740518,-473.789927,-8065.381118,20552.049047,41342.658263,-11001.774490,-14425.502947,-18075.922796,33.184002,-903.776001,-430.416016,7420.000000,-840.000000,-3360.000000
-11915.089120,-4598.178518,11267.514380,-27520.048919,12977.892217,8115.672543,-20784.306024,-24063.709267,-17896.460640,-473.387596,-8069.158562,20552.585489,41339.864295,-11002.065063,-14422.507813,-18073.039421,33.672001,-900.848022,-428.951996,7000.000000,-140.000000,-3220.000000
-11915.178527,-4598.044407,11264.586301,-27518.819573,12977.825162,8113.772644,-20782.361422,-24061.407037,-17895.186591,-475.242791,-8072.019586,20550.730294,41336.153905,-11003.719092,-14420.093825,-18070.401915,34.160000,-903.288025,-428.951996,6160.000000,700.000000,-2940.000000
-11915.983190,-4599.921954,11264.541598,-27520.674768,12976.215837,8112.431540,-20784.820114,-24063.731618,-17896.862971,-476.136860,-8071.751365,20549.098617,41335.975091,-11005.753101,-14423.580697,-18073.240587,38.552002,-903.776001,-428.951996,5040.000000,1540.000000,-2800.000000
-11916.743149,-4601.598335,11266.217979,-27522.194686,12976.886389,8114.219679,-20784.753059,-24063.172825,-17899.433422,-474.661645,-8065.537580,20549.098617,41338.992576,-11004.724920,-14425.234726,-18074.089953,36.600002,-906.704041,-427.488007,4900.000000,2240.000000,-2520.000000
-11913.837423,-4599.586678,11268.564912,-27521.390023,12977.825162,8115.314915,-20786.138867,-24065.877386,-17897.511172,-470.861849,-8058.429725,20552.183157,41342.591207,-11004.076720,-14425.413540,-18076.682756,33.184002,-905.239990,-429.440002,4340.000000,3220.000000,-2240.000000
-11913.882126,-4599.430215,11268.207284,-27520.406547,12978.786287,8118.220641,-20785.445963,-24061.496444,-17898.315835,-470.995959,-8058.608539,20551.825530,41342.524152,-11002.780319,-14424.407712,-18074.648747,33.184002,-903.288025,-427.000000,3920.000000,3500.000000,-1960.000000
-11916.296114,-4603.811157,11264.899226,-27526.597980,12973.086592,8115.225508,-20792.598521,-24065.743275,-17901.601541,-473.052320,-8059.569664,20547.310477,41340.400736,-11007.787109,-14432.588450,-18081.577788,31.720001,-904.264038,-427.488007,3360.000000,4200.000000,-1540.000000
-11920.073559,-4607.454492,11264.139267,-27533.392910,12967.342194,8111.336304,-20801.516867,-24074.393400,-17906.585980,-475.220439,-8062.453039,20545.343524,41341.317158,-11011.385740,-14443.227880,-18090.294968,30.256001,-903.776001,-427.488007,2940.000000,4200.000000,-1260.000000
-11927.315524,-4614.629402,11259.065421,-27540.210192,12961.754258,8109.235240,-20805.115498,-24075.734505,-17912.956227,-483.334122,-8073.226580,20539.442663,41336.131553,-11015.029075,-14448.078209,-18092.328977,28.304001,-904.264038,-425.536011,2380.000000,4200.000000,-840.000000
-11932.523481,-4619.636192,11255.176217,-27543.697064,12959.966118,8108.944667,-20803.349710,-24071.174749,-17918.298294,-487.983285,-8078.702757,20534.525279,41331.683556,-11016.258420,-14448.033505,-18087.746869,29.768000,-903.288025,-418.704010,1960.000000,4620.000000,-560.000000
-11935.764484,-4622.094884,11252.829284,-27543.965285,12960.033174,8108.832909,-20802.522695,-24070.750066,-17921.874573,-491.939544,-8082.323740,20532.603029,41328.844884,-11016.146662,-14446.647697,-18086.629282,26.840000,-904.752014,-418.216003,1960.000000,4760.000000,-280.000000
-11932.344667,-4619.122102,11254.796237,-27540.567820,12962.380107,8108.296467,-20800.466335,-24070.884177,-17918.208887,-487.424491,-8076.065251,20535.888736,41330.811838,-11015.364351,-14443.138473,-18086.763392,28.304001,-902.312012,-415.287994,1400.000000,5320.000000,-140.000000
-11928.701333,-4616.059913,11257.098467,-27538.064425,12964.525874,8109.190537,-20798.007643,-24069.833645,-17915.303161,-481.881259,-8066.386946,20538.839166,41334.388117,-11014.313819,-14439.830415,-18085.936378,22.936001,-905.728027,-416.752014,1120.000000,5740.000000,-140.000000
-11924.655667,-4612.640096,11260.898264,-27535.315160,12967.431601,8111.470415,-20796.733594,-24068.716057,-17911.101033,-477.589724,-8061.268397,20542.013114,41338.746707,-11011.788072,-14438.019924,-18085.265825,26.352001,-902.312012,-417.727997,1120.000000,6020.000000,140.000000
-11922.509899,-4609.510852,11261.792333,-27531.560067,12969.845589,8112.990333,-20794.788992,-24067.553767,-17907.345940,-477.634427,-8063.861199,20544.069474,41338.299672,-11009.977580,-14434.711866,-18083.991776,19.032000,-900.359985,-415.287994,1540.000000,6440.000000,0.000000
-11926.153234,-4611.164881,11260.406525,-27530.755404,12970.292624,8114.599659,-20793.604349,-24064.826854,-17909.894038,-481.814203,-8070.298501,20542.750721,41336.064498,-11009.262324,-14434.018962,-18081.801305,20.984001,-902.799988,-414.312012,1820.000000,7140.000000,0.000000
-11921.615830,-4606.828643,11263.356955,-27526.910904,12973.690089,8114.309086,-20791.324471,-24066.369124,-17905.133117,-478.282628,-8069.091507,20547.265774,41337.137382,-11007.362426,-14431.023828,-18079.789648,16.104000,-903.776001,-415.287994,2100.000000,7280.000000,0.000000
-11925.907365,-4612.058951,11258.618386,-27532.811765,12968.437429,8110.464586,-20797.538256,-24071.264156,-17908.977617,-482.663570,-8075.104126,20542.348390,41332.801143,-11012.391569,-14436.924688,-18084.215293,15.616000,-904.264038,-416.264008,2520.000000,7700.000000,-140.000000
-11924.968591,-4611.142529,11258.305461,-27533.951704,12966.939863,8108.430577,-20799.706376,-24076.226244,-17907.815326,-482.507108,-8075.059423,20542.326038,41331.705908,-11014.135005,-14439.249270,-18087.031613,12.688000,-906.216003,-415.776001,2940.000000,7840.000000,0.000000
-11919.112434,-4608.125044,11260.160656,-27532.029454,12967.431601,8106.485976,-20799.572265,-24077.612052,-17902.808535,-476.136860,-8066.722222,20545.030599,41332.823495,-11014.626743,-14437.997572,-18087.612759,16.104000,-907.679993,-416.264008,3640.000000,7700.000000,-280.000000
-11917.704274,-4607.119215,11262.261720,-27529.548410,12969.778534,8108.609391,-20794.587826,-24073.655793,-17902.763832,-473.499355,-8060.016699,20547.019904,41335.639815,-11011.721016,-14434.108369,-18084.394107,15.616000,-907.679993,-413.824005,4060.000000,7560.000000,-560.000000
-11914.195051,-4602.984143,11267.335566,-27525.323930,12974.159476,8111.917449,-20792.017375,-24074.594566,-17900.327492,-468.470212,-8052.730030,20552.026695,41342.300635,-11008.323551,-14430.643848,-18084.952901,12.688000,-905.239990,-418.216003,4340.000000,7140.000000,-840.000000
-11914.887955,-4602.112425,11267.872008,-27523.848715,12975.880560,8114.934935,-20791.346823,-24071.979412,-17900.193381,-470.146593,-8056.440420,20553.077227,41341.607731,-11005.954266,-14429.861537,-18082.941244,16.104000,-906.704041,-415.287994,4900.000000,6720.000000,-1400.000000
-11917.145481,-4604.772282,11266.977938,-27525.815669,12975.031194,8114.957287,-20792.732631,-24071.308860,-17903.434384,-472.225305,-8059.860237,20551.266736,41340.177219,-11006.311894,-14431.917898,-18082.650671,18.056000,-905.239990,-418.216003,5740.000000,6160.000000,-1680.000000
-11920.028856,-4607.387436,11264.966281,-27527.492050,12973.421868,8113.817348,-20794.029032,-24073.655793,-17906.138945,-474.929866,-8063.660033,20548.919803,41338.456135,-11007.585944,-14432.767264,-18083.477686,19.032000,-902.799988,-419.192017,6720.000000,5600.000000,-2240.000000
-11926.175586,-4612.930669,11258.774848,-27532.252971,12967.699822,8109.682275,-20798.231160,-24077.522645,-17912.263323,-481.814203,-8072.287807,20542.683666,41332.331757,-11012.950362,-14436.142377,-18086.830448,22.448000,-900.359985,-422.119995,7280.000000,5180.000000,-2380.000000
-11927.583745,-4613.221242,11257.545502,-27530.911867,12969.063278,8109.458758,-20795.995986,-24076.136837,-17912.263323,-484.876392,-8077.339301,20542.773073,41329.515437,-11012.235106,-14433.817796,-18084.707032,21.960001,-900.359985,-422.119995,8400.000000,4480.000000,-2800.000000
-11925.594440,-4613.690628,11256.517322,-27531.515364,12968.169209,8108.117653,-20797.180628,-24077.500293,-17910.452832,-483.647047,-8075.618216,20542.013114,41328.129629,-11013.844432,-14436.790578,-18086.226950,23.912001,-897.432007,-422.608002,8540.000000,4060.000000,-3080.000000
-11917.078426,-4610.337867,11260.540636,-27532.744710,12966.716345,8105.144871,-20802.120364,-24083.803485,-17903.389681,-473.611113,-8062.497742,20546.192890,41333.605806,-11015.744330,-14441.260927,-18091.814887,26.840000,-893.528015,-426.024017,9100.000000,3780.000000,-2940.000000
-11908.271838,-4601.821852,11268.386098,-27525.547448,12974.584159,8110.241069,-20794.520771,-24077.746162,-17895.141887,-464.022215,-8050.383097,20554.463035,41340.736013,-11009.016455,-14434.778921,-18086.070488,26.352001,-892.064026,-425.536011,9380.000000,4060.000000,-2940.000000
-11912.183394,-4604.548765,11267.268511,-27527.402643,12973.801848,8112.520947,-20795.548951,-24078.215549,-17899.768698,-467.732604,-8053.422934,20552.406675,41341.205399,-11009.038807,-14435.360066,-18087.501000,27.328001,-889.624023,-427.976013,9380.000000,3920.000000,-2660.000000
-11918.419530,-4608.996762,11262.887569,-27529.637817,12971.611377,8113.750293,-20795.526599,-24076.002726,-17905.691910,-473.968741,-8060.843713,20547.891623,41337.182085,-11009.038807,-14435.360066,-18086.383413,23.912001,-887.671997,-432.856018,9240.000000,3780.000000,-2520.000000
-11921.548774,-4611.768378,11261.345298,-27532.118861,12969.689127,8112.364484,-20797.895884,-24077.589700,-17909.312893,-476.025102,-8063.391812,20545.812910,41336.600940,-11010.603429,-14439.204566,-18088.663291,23.912001,-884.744019,-433.832001,8680.000000,4200.000000,-1820.000000
-11920.230022,-4610.539032,11260.786505,-27531.180087,12970.359680,8111.246897,-20796.979463,-24077.567348,-17907.368291,-475.801584,-8065.381118,20546.461111,41335.013966,-11011.251630,-14437.595241,-18087.009261,24.400000,-882.791992,-438.712006,8120.000000,4200.000000,-1260.000000
-11919.000676,-4608.080340,11261.546464,-27529.637817,12971.253749,8110.062255,-20796.979463,-24080.338965,-17904.283751,-476.628599,-8069.851466,20547.757512,41333.315233,-11011.989237,-14436.008267,-18087.769221,20.984001,-880.840027,-437.248016,7140.000000,4900.000000,-560.000000
-11923.672190,-4612.595393,11256.606729,-27533.035282,12966.984566,8106.910659,-20801.002777,-24084.317575,-17908.329416,-481.434224,-8074.321815,20543.533032,41329.023698,-11016.101958,-14440.031581,-18092.038404,20.007999,-880.351990,-438.223999,6300.000000,5040.000000,0.000000
-11925.415626,-4615.411713,11255.444438,-27535.941009,12965.375240,8105.815423,-20801.785088,-24083.088229,-17912.822117,-481.501279,-8070.365557,20541.722541,41329.358975,-11017.823043,-14441.417389,-18091.792535,16.104000,-879.376038,-440.175995,5040.000000,6020.000000,840.000000
-11921.705237,-4613.109483,11259.288938,-27535.024588,12966.828104,8107.022417,-20801.002777,-24081.523607,-17910.139908,-475.801584,-8061.022527,20544.583564,41334.186951,-11015.990200,-14441.059761,-18091.367852,16.104000,-881.328003,-438.223999,4340.000000,6720.000000,1820.000000
-11915.133824,-4604.727579,11265.793296,-27526.754442,12974.695918,8113.012685,-20794.051384,-24076.740334,-17902.227390,-470.526573,-8056.619234,20552.339620,41338.411431,-11008.882345,-14434.667162,-18086.338709,11.712000,-881.816040,-441.152008,3360.000000,7140.000000,2380.000000
-11910.149385,-4597.731483,11270.733031,-27520.071270,12981.803773,8118.198290,-20787.301157,-24071.241805,-17896.684157,-467.799660,-8057.423896,20558.039315,41340.736013,-11002.690912,-14428.766302,-18080.080221,14.152000,-883.280029,-442.127991,1820.000000,8120.000000,3220.000000
-11908.987094,-4598.960829,11270.576569,-27523.424032,12979.009805,8116.723075,-20791.480934,-24074.773380,-17895.723032,-466.771479,-8057.222731,20557.704038,41341.451268,-11004.568458,-14433.348409,-18083.567093,11.224000,-888.160034,-442.127991,700.000000,8260.000000,3500.000000
-11913.412739,-4604.437006,11265.301557,-27527.872029,12974.382994,8113.526775,-20794.073736,-24075.756857,-17899.701643,-470.884200,-8062.095411,20552.540785,41337.070326,-11008.904697,-14436.142377,-18085.154067,10.248000,-891.575989,-440.664001,-140.000000,8960.000000,4340.000000
-11915.379693,-4607.186271,11260.920615,-27530.241314,12970.404383,8109.972848,-20797.046518,-24079.131970,-17901.087451,-472.851154,-8065.761097,20549.120968,41333.091716,-11013.844432,-14438.064627,-18087.679814,10.736000,-894.015991,-439.688019,-840.000000,9380.000000,4620.000000
-11916.229059,-4607.253326,11258.484275,-27529.548410,12969.934996,8108.721150,-20796.778297,-24079.243729,-17899.321663,-475.041625,-8069.806763,20548.137492,41329.448382,-11014.827909,-14436.544709,-18086.942206,8.784000,-895.968018,-440.175995,-1540.000000,9240.000000,4900.000000
-11917.570164,-4608.840300,11258.126647,-27530.397776,12968.906816,8107.827080,-20798.141753,-24080.607185,-17900.774527,-475.466308,-8067.839809,20546.952849,41330.163637,-11016.079607,-14438.355200,-18088.193904,13.176001,-897.432007,-437.735992,-1820.000000,9100.000000,4760.000000
-11918.620696,-4608.460320,11258.484275,-27529.101375,12969.778534,8108.542336,-20797.202980,-24079.668412,-17901.936817,-475.488660,-8063.056536,20546.684628,41331.191818,-11016.012551,-14437.259965,-18088.462125,13.664001,-902.799988,-436.272003,-1960.000000,8960.000000,4760.000000
-11915.089120,-4604.928744,11262.842865,-27525.838021,12973.086592,8111.537470,-20795.168971,-24078.237901,-17900.238085,-470.861849,-8057.110972,20550.864405,41335.840981,-11013.240935,-14434.801273,-18087.635110,13.664001,-901.335999,-433.832001,-2240.000000,8680.000000,4200.000000
-11913.502146,-4604.146433,11264.586301,-27525.323930,12973.824200,8112.945630,-20795.750117,-24079.355488,-17900.506306,-470.258352,-8057.222731,20552.563137,41338.612597,-11011.832775,-14434.443645,-18088.976215,17.568001,-907.192017,-431.880005,-1820.000000,7980.000000,3640.000000
-11914.038588,-4602.157128,11265.994461,-27522.172334,12976.931092,8114.800824,-20792.285596,-24077.120313,-17900.975692,-470.861849,-8058.832056,20553.747780,41338.791411,-11009.619952,-14430.666200,-18085.735212,17.568001,-909.632019,-435.295990,-1820.000000,7420.000000,2940.000000
-11916.430225,-4600.570154,11265.927406,-27517.813744,12980.864999,8117.237165,-20786.272977,-24072.515854,-17901.534486,-474.907514,-8066.163429,20554.775960,41336.042146,-11006.647170,-14424.005380,-18079.923758,20.496000,-911.583984,-431.391998,-700.000000,7140.000000,2240.000000
-11916.229059,-4602.157128,11264.854522,-27519.624236,12979.367433,8114.376141,-20786.720012,-24074.661621,-17901.266265,-475.041625,-8068.197437,20554.194814,41334.835152,-11008.904697,-14424.228898,-18080.683718,20.007999,-911.096008,-429.440002,-140.000000,6720.000000,1540.000000
-11920.162966,-4606.694532,11259.601862,-27523.714605,12975.947616,8111.693932,-20788.485800,-24075.399229,-17905.021358,-480.316637,-8073.718318,20549.076265,41329.515437,-11012.480976,-14426.240555,-18082.136581,22.448000,-909.632019,-429.440002,420.000000,6160.000000,840.000000
-11918.888917,-4605.755759,11260.562987,-27524.854544,12975.210008,8110.710455,-20790.810381,-24076.874444,-17903.143812,-478.819070,-8072.645434,20549.724466,41330.230693,-11012.860955,-14428.408674,-18082.874189,19.520000,-909.143982,-429.440002,980.000000,6160.000000,0.000000
-11925.773254,-4613.802387,11258.327813,-27532.096509,12970.136162,8110.062255,-20796.420669,-24078.461418,-17911.995102,-483.490584,-8071.527847,20544.203585,41330.387155,-11015.073778,-14437.751703,-18086.852799,21.472000,-909.632019,-434.808014,1820.000000,5740.000000,-560.000000
-11925.437978,-4615.121140,11259.378345,-27533.705835,12969.666775,8111.001028,-20797.650015,-24078.707287,-17913.962056,-481.143651,-8064.531751,20544.337695,41333.069364,-11014.604391,-14439.875119,-18089.177381,17.568001,-905.728027,-431.880005,3220.000000,5600.000000,-1120.000000
-11919.782987,-4611.276640,11262.887569,-27531.448308,12971.387860,8111.895098,-20797.650015,-24079.355488,-17909.715224,-473.901686,-8057.289786,20548.472768,41336.556236,-11013.710322,-14438.958697,-18090.183209,18.544001,-906.216003,-435.295990,3640.000000,5460.000000,-1400.000000
-11919.805338,-4610.851957,11263.066383,-27530.800108,12970.784363,8112.208022,-20799.728727,-24081.568310,-17907.748271,-475.131032,-8059.234388,20549.277431,41336.869161,-11013.844432,-14439.428084,-18091.926645,17.080000,-908.168030,-432.368011,4480.000000,5600.000000,-1680.000000
-11918.419530,-4609.801425,11262.082906,-27529.235486,12971.276101,8111.872746,-20798.477030,-24081.523607,-17905.311931,-475.019273,-8060.620196,20549.925631,41336.064498,-11014.157357,-14437.572889,-18090.585541,17.080000,-904.264038,-438.223999,5040.000000,5600.000000,-1680.000000
-11915.692617,-4607.074512,11261.881740,-27526.195648,12974.226531,8111.157490,-20794.476067,-24079.981337,-17902.361501,-474.661645,-8062.989481,20550.886756,41334.142248,-11013.129176,-14433.236651,-18086.673985,16.104000,-901.824036,-440.664001,5740.000000,5880.000000,-1960.000000
-11925.035647,-4616.819872,11254.840941,-27533.616428,12967.655118,8108.341170,-20799.214637,-24082.641194,-17912.039806,-484.563468,-8073.271283,20542.370742,41327.570835,-11017.934801,-14439.338677,-18089.870285,14.640000,-901.335999,-441.152008,6580.000000,6300.000000,-1680.000000
-11927.270821,-4619.055047,11252.002269,-27535.002236,12966.850456,8107.335342,-20799.125230,-24081.925938,-17913.939704,-487.178622,-8075.595865,20540.269678,41324.866274,-11019.566479,-14439.606898,-18089.065622,14.152000,-901.335999,-445.544006,6860.000000,6720.000000,-1680.000000
-11926.823786,-4620.172634,11253.723354,-27540.344303,12961.731906,8103.736711,-20807.216562,-24089.994918,-17915.660788,-483.669398,-8068.331548,20539.822643,41328.554312,-11023.299220,-14447.921747,-18097.805154,13.664001,-899.872009,-443.592010,7280.000000,7420.000000,-1680.000000
-11924.521556,-4615.836396,11258.260758,-27535.762195,12966.112848,8108.050598,-20802.612102,-24086.776267,-17912.889172,-480.160174,-8061.737783,20544.181233,41333.002309,-11018.739464,-14443.898433,-18095.525276,17.568001,-894.992004,-443.104004,7420.000000,7700.000000,-1540.000000
-11921.124091,-4610.471977,11262.574644,-27527.424994,12973.980662,8114.823176,-20794.364309,-24078.841398,-17909.089376,-477.455613,-8059.167333,20549.880928,41336.600940,-11011.452795,-14434.913031,-18087.836276,19.032000,-893.528015,-439.688019,7560.000000,7840.000000,-1400.000000
-11918.754806,-4606.068683,11264.251025,-27522.239390,12979.389784,8119.360580,-20787.994061,-24072.851130,-17905.043710,-476.807413,-8061.626024,20553.010172,41336.444478,-11007.384778,-14428.565136,-18081.354270,17.568001,-893.040039,-442.127991,7840.000000,8260.000000,-980.000000
-11914.016237,-4600.436044,11266.821476,-27517.612579,12984.642444,8122.109845,-20782.361422,-24069.341906,-17898.874628,-473.924038,-8062.095411,20557.525224,41336.511533,-11003.339112,-14424.206546,-18076.816866,19.032000,-891.088013,-441.152008,7420.000000,8400.000000,-700.000000
-11909.054149,-4597.262096,11269.995424,-27517.322006,12985.044776,8120.209947,-20785.267149,-24072.873482,-17895.521867,-468.604323,-8060.173161,20561.660297,41338.858466,-11003.249705,-14426.821700,-18078.895578,21.472000,-888.648010,-441.152008,6860.000000,8680.000000,-560.000000
-11913.032760,-4601.263058,11268.609615,-27522.820535,12979.948578,8115.761950,-20792.643224,-24080.875406,-17899.209905,-471.867677,-8065.090545,20558.933384,41337.562065,-11007.787109,-14433.236651,-18084.930549,23.424000,-891.088013,-443.592010,6580.000000,8540.000000,-140.000000
-11919.604173,-4609.712018,11261.904092,-27531.537715,12972.684261,8111.962153,-20799.281692,-24083.915244,-17905.289579,-478.796718,-8071.304330,20550.842053,41331.907073,-11014.090301,-14440.948002,-18089.490305,24.400000,-885.720032,-442.615997,5740.000000,8400.000000,0.000000
-11919.984152,-4614.249422,11257.299633,-27537.058596,12966.336366,8107.983542,-20804.355538,-24087.804447,-17907.122422,-479.176698,-8069.292673,20546.259945,41329.090754,-11019.231203,-14446.982973,-18094.877076,27.328001,-887.671997,-439.688019,4760.000000,8120.000000,560.000000
-11912.898649,-4606.828643,11262.440534,-27528.408471,12973.041889,8110.933973,-20795.392489,-24083.199988,-17899.723995,-472.247657,-8059.636719,20553.457207,41333.829324,-11014.358522,-14436.589412,-18088.372718,26.840000,-893.040039,-435.295990,3920.000000,7700.000000,840.000000
-11904.852021,-4598.066759,11268.743726,-27518.797221,12981.379090,8116.276040,-20787.390564,-24078.036735,-17891.029166,-465.095099,-8050.360745,20561.280317,41339.014928,-11008.010627,-14426.262906,-18082.762430,31.720001,-889.135986,-439.200012,2940.000000,7140.000000,1120.000000
-11902.393329,-4594.311666,11272.565874,-27514.595093,12985.581217,8119.338229,-20785.714184,-24078.640232,-17888.928102,-463.776346,-8051.478332,20565.124818,41342.233579,-11004.411996,-14423.223069,-18083.008299,29.280001,-890.112000,-438.712006,1960.000000,6720.000000,1540.000000
-11902.393329,-4593.551706,11273.728165,-27512.225808,12988.241075,8121.752217,-20782.227311,-24075.019249,-17888.749288,-463.821049,-8052.551216,20566.220053,41342.591207,-11001.796842,-14420.473805,-18078.381488,31.232000,-891.575989,-435.295990,840.000000,6300.000000,1820.000000
-11903.957952,-4595.295143,11272.185895,-27514.796259,12986.095308,8120.411112,-20785.423611,-24076.986203,-17889.621006,-465.251561,-8055.658109,20564.700134,41340.736013,-11003.584981,-14424.497119,-18080.191979,33.184002,-890.112000,-438.712006,140.000000,6020.000000,2240.000000
-11909.232963,-4598.558497,11268.542560,-27516.740861,12984.709499,8119.181766,-20785.490666,-24077.232072,-17893.063175,-472.649988,-8065.626987,20561.839111,41336.243312,-11005.171955,-14424.854746,-18079.856703,32.695999,-892.064026,-435.295990,-700.000000,5880.000000,2520.000000
-11906.483699,-4595.026922,11269.324871,-27511.599959,12988.464593,8120.053484,-20779.478047,-24072.962889,-17889.017509,-471.934732,-8066.565760,20564.431913,41334.768097,-11002.959133,-14418.618610,-18073.620567,34.647999,-891.088013,-434.320007,-1260.000000,5320.000000,2940.000000
-11908.741225,-4598.133814,11267.268511,-27515.086831,12985.268293,8117.438330,-20782.651995,-24075.980374,-17893.085527,-471.979436,-8065.492876,20561.570890,41333.024661,-11005.417824,-14421.658447,-18076.995680,34.647999,-894.992004,-433.832001,-2240.000000,5320.000000,3080.000000
-11912.608077,-4605.040503,11265.592130,-27524.094584,12977.981624,8113.705589,-20793.425535,-24084.652851,-17899.858105,-471.420642,-8058.340318,20556.742913,41334.276358,-11011.095168,-14433.728389,-18086.785744,32.208000,-893.040039,-431.880005,-2520.000000,5460.000000,3500.000000
-11913.524498,-4608.415617,11264.720412,-27528.900210,12973.801848,8112.364484,-20800.309873,-24089.793752,-17901.892114,-470.258352,-8052.730030,20554.843015,41336.265664,-11014.045598,-14440.053933,-18093.558323,32.695999,-895.479980,-429.928009,-2940.000000,5320.000000,3640.000000
-11912.541021,-4608.527375,11266.553255,-27528.229657,12975.277063,8114.689066,-20798.588788,-24087.223302,-17902.115631,-468.581971,-8051.210112,20555.781788,41338.947873,-11012.190403,-14438.936345,-18092.351328,29.280001,-899.384033,-432.856018,-3500.000000,5460.000000,3780.000000
-11914.284457,-4609.242631,11266.083868,-27527.939085,12976.037023,8116.633668,-20796.979463,-24084.921072,-17903.054405,-470.683035,-8055.188722,20555.424160,41338.076155,-11010.961057,-14438.109331,-18090.809058,25.375999,-899.872009,-431.880005,-4060.000000,5180.000000,4200.000000
-11912.272800,-4605.018151,11267.112049,-27522.082927,12980.909703,8119.584098,-20789.402221,-24078.774342,-17899.075794,-472.225305,-8059.793181,20558.419294,41336.019794,-11007.451833,-14431.247345,-18083.544741,24.400000,-897.919983,-429.440002,-4480.000000,5180.000000,4340.000000
-11911.110510,-4604.168785,11267.424973,-27521.904114,12979.836819,8116.879537,-20791.704451,-24083.356450,-17897.108841,-471.957084,-8062.922426,20559.000440,41335.796277,-11009.172918,-14431.716732,-18086.294006,25.375999,-901.335999,-432.368011,-5040.000000,5180.000000,4480.000000
-11913.390388,-4603.654695,11266.754421,-27517.366709,12983.994244,8117.617144,-20785.848294,-24080.204854,-17898.986387,-475.019273,-8069.471487,20559.022791,41333.315233,-11006.200135,-14424.139491,-18080.124924,23.424000,-900.848022,-429.440002,-5460.000000,5320.000000,4480.000000
-11915.849080,-4607.074512,11264.631005,-27520.786526,12982.183752,8115.359618,-20788.731669,-24082.261215,-17902.450908,-475.935695,-8069.180914,20557.167596,41331.080059,-11008.301199,-14427.961639,-18082.091878,23.424000,-900.359985,-429.928009,-5040.000000,5600.000000,4200.000000
-11914.932658,-4608.594431,11266.217979,-27526.307407,12977.623996,8112.632705,-20797.337091,-24090.106677,-17903.076756,-472.471174,-8061.961301,20556.988783,41333.806972,-11011.631609,-14437.304668,-18091.434907,20.496000,-904.264038,-432.368011,-4900.000000,6020.000000,3920.000000
-11910.685827,-4606.471015,11269.123706,-27524.876896,12979.881523,8114.152624,-20794.990157,-24087.826799,-17900.416899,-466.793831,-8051.478332,20560.028620,41337.964396,-11008.859993,-14435.851805,-18089.959692,18.056000,-899.384033,-433.343994,-4760.000000,6440.000000,3640.000000
-11906.684864,-4602.201832,11273.147020,-27519.624236,12984.821258,8118.600621,-20789.603387,-24083.267043,-17897.131192,-463.306959,-8047.678536,20564.566024,41341.630082,-11004.255534,-14430.107406,-18085.355232,18.544001,-898.408020,-430.903992,-4620.000000,6580.000000,3500.000000
-11905.813146,-4599.117291,11274.532828,-27515.891494,12987.637578,8121.796921,-20786.742364,-24081.702421,-17895.678329,-464.178677,-8052.081830,20566.980012,41342.144172,-11001.416862,-14425.726464,-18082.762430,19.520000,-894.015991,-429.440002,-4620.000000,6440.000000,3080.000000
-11903.957952,-4597.887945,11274.286958,-27514.371576,12988.956331,8122.109845,-20784.350727,-24079.199026,-17892.660843,-463.396366,-8052.260644,20567.203530,41340.534847,-11001.103938,-14423.245421,-18080.191979,21.472000,-894.504028,-427.488007,-4340.000000,6860.000000,2660.000000
-11903.779138,-4598.513794,11273.705813,-27515.377404,12988.151668,8120.053484,-20785.177742,-24079.467246,-17892.034995,-463.150497,-8053.959376,20566.823550,41339.126687,-11002.176821,-14423.468938,-18080.236683,18.544001,-894.504028,-430.416016,-3640.000000,7420.000000,2100.000000
-11908.562411,-4602.715922,11271.314176,-27520.227733,12983.256636,8116.097226,-20791.436230,-24086.530398,-17897.131192,-466.950293,-8059.301443,20563.224919,41337.182085,-11006.177784,-14429.928592,-18085.891674,19.520000,-894.015991,-428.464020,-3920.000000,6720.000000,1820.000000
-11912.026931,-4604.437006,11268.810781,-27518.417241,12986.117659,8118.064179,-20787.345861,-24080.473075,-17900.416899,-471.331235,-8064.978786,20561.414428,41332.577626,-11004.233182,-14427.224031,-18080.124924,21.960001,-895.968018,-433.832001,-4480.000000,5740.000000,1400.000000
-11914.530327,-4607.923878,11266.553255,-27524.407509,12980.887351,8114.644362,-20793.917274,-24086.508046,-17903.121460,-472.538230,-8063.548274,20558.888681,41332.152943,-11008.859993,-14434.153072,-18086.830448,20.007999,-891.575989,-432.368011,-4480.000000,5740.000000,700.000000
-11915.804376,-4611.522509,11266.039165,-27530.844811,12975.254712,8111.850394,-20801.963902,-24092.945348,-17905.267227,-472.627637,-8058.653242,20556.385285,41335.125725,-11012.816252,-14442.020886,-18095.435869,21.960001,-892.064026,-427.488007,-4620.000000,5740.000000,280.000000
-11912.406911,-4607.186271,11269.861313,-27524.698082,12980.194447,8115.761950,-20795.548951,-24088.519703,-17901.489783,-468.134936,-8052.953548,20561.548538,41338.567893,-11007.451833,-14436.522357,-18091.054927,23.912001,-892.552002,-432.856018,-4620.000000,5180.000000,-280.000000
-11904.762614,-4595.920991,11276.298615,-27512.069346,12991.996168,8123.540357,-20782.786105,-24079.400191,-17892.146753,-464.022215,-8054.182894,20570.399829,41341.361861,-10998.153507,-14422.150185,-18080.124924,25.375999,-891.088013,-434.320007,-5040.000000,5040.000000,-700.000000
-11893.899667,-4585.505078,11281.126592,-27502.145171,12999.819279,8125.484958,-20773.867759,-24075.846264,-17879.830942,-455.014462,-8048.170274,20578.200588,41343.284111,-10993.437289,-14410.683740,-18072.748849,25.375999,-888.648010,-433.343994,-5460.000000,4480.000000,-1400.000000
-11897.364187,-4588.679026,11278.891418,-27505.587340,12996.354758,8123.383894,-20778.114590,-24079.914281,-17883.340166,-458.836610,-8053.780562,20575.652489,41340.914827,-10996.186554,-14415.914049,-18077.085087,26.352001,-889.135986,-434.808014,-6160.000000,3920.000000,-1960.000000
-11899.867582,-4593.350541,11276.924464,-27511.622311,12992.085575,8120.031133,-20784.686003,-24085.189293,-17886.849390,-460.825915,-8055.188722,20572.612652,41340.132515,-10998.935819,-14423.066607,-18082.181285,29.280001,-889.624023,-436.760010,-6160.000000,3360.000000,-2240.000000
-11905.343760,-4597.709131,11272.275301,-27514.840962,12990.498601,8118.131234,-20785.133038,-24084.541092,-17890.068041,-466.235038,-8061.581321,20567.874082,41335.237483,-11001.193345,-14423.692456,-18080.616663,30.743999,-890.600037,-435.295990,-6580.000000,2940.000000,-2660.000000
-11907.377768,-4600.883079,11269.816610,-27519.221904,12985.380052,8113.705589,-20791.235064,-24090.732526,-17893.130230,-467.687901,-8061.693080,20565.080114,41334.701042,-11006.222487,-14429.615668,-18086.808096,34.647999,-889.624023,-432.856018,-7140.000000,2380.000000,-2800.000000
-11908.517707,-4601.687741,11270.241293,-27519.668939,12985.447107,8114.823176,-20790.206884,-24088.452648,-17895.186591,-467.084404,-8057.401545,20565.862425,41335.818629,-11004.769624,-14430.308572,-18085.735212,34.647999,-889.135986,-435.295990,-7420.000000,2100.000000,-3360.000000
-11905.768443,-4599.899602,11272.342357,-27517.277302,12987.436412,8116.656019,-20787.368213,-24086.552749,-17893.957245,-463.731642,-8050.450152,20567.561158,41338.053803,-11003.361464,-14427.760473,-18085.623453,37.088001,-891.088013,-432.368011,-7560.000000,1820.000000,-3500.000000
-11903.175640,-4597.239744,11277.215037,-27515.243294,12990.208029,8119.114711,-20787.658785,-24086.888026,-17893.107878,-460.267122,-8046.762114,20571.226844,41342.770021,-11000.053406,-14426.978162,-18085.444639,36.112000,-892.064026,-434.320007,-7700.000000,1960.000000,-3780.000000
-11907.534231,-4602.492404,11274.868104,-27521.546486,12985.447107,8117.192461,-20794.185495,-24090.799581,-17897.935855,-463.083442,-8050.248987,20567.359992,41342.434745,-11003.249705,-14434.398941,-18090.652596,37.576000,-891.575989,-432.856018,-7980.000000,1960.000000,-3640.000000
-11909.545888,-4604.772282,11273.459944,-27522.105279,12985.022424,8117.147758,-20793.738460,-24089.905511,-17899.478126,-465.497430,-8055.054612,20566.175349,41340.288978,-11003.652037,-14433.393113,-18089.289139,37.576000,-888.160034,-433.343994,-7840.000000,1960.000000,-3640.000000
-11912.831594,-4605.822814,11270.375403,-27519.445422,12987.190543,8118.108883,-20787.435268,-24083.669374,-17900.483954,-470.772442,-8062.877722,20563.962527,41335.416297,-11002.377987,-14427.872232,-18082.270692,38.552002,-890.112000,-432.856018,-7560.000000,1960.000000,-3500.000000
-11916.832556,-4607.812119,11267.603787,-27521.613541,12985.424755,8116.790130,-20788.776373,-24083.825837,-17903.568495,-475.578067,-8069.315025,20562.107332,41331.728260,-11003.070891,-14429.146281,-18081.622491,40.992001,-890.112000,-432.368011,-7280.000000,2100.000000,-3220.000000
-11914.843251,-4606.828643,11268.207284,-27522.239390,12985.089479,8115.493729,-20790.318643,-24085.613976,-17902.808535,-473.275837,-8066.163429,20563.247271,41332.264701,-11004.032016,-14431.314401,-18083.142410,43.920002,-889.624023,-432.856018,-7140.000000,2240.000000,-2800.000000
-11914.127995,-4608.080340,11266.419144,-27524.027529,12982.697842,8112.543298,-20792.509114,-24087.111543,-17902.160335,-470.973607,-8061.402507,20561.414428,41331.951777,-11006.960095,-14434.130720,-18086.025785,44.408001,-893.040039,-437.248016,-6580.000000,2240.000000,-2660.000000
-11912.742187,-4608.750893,11267.670842,-27525.033358,12982.764898,8113.884403,-20793.380832,-24087.312709,-17901.065099,-468.805488,-8055.859274,20561.637945,41333.918730,-11006.893040,-14434.711866,-18087.344538,49.776001,-894.992004,-431.880005,-6440.000000,2380.000000,-2100.000000
-11907.824803,-4603.766454,11274.845752,-27520.406547,12988.598703,8118.779435,-20789.379870,-24084.496389,-17898.472297,-462.994035,-8049.667841,20568.723448,41340.512495,-11000.768662,-14430.889717,-18084.371756,50.264000,-894.015991,-434.320007,-6160.000000,2380.000000,-1820.000000
-11909.165908,-4603.989971,11276.298615,-27519.445422,12990.230380,8120.858147,-20788.150524,-24082.462380,-17899.701643,-464.737471,-8052.819437,20569.930443,41342.546504,-10998.265266,-14429.861537,-18082.829485,46.360001,-894.504028,-436.760010,-5460.000000,2940.000000,-1820.000000
-11909.143556,-4603.252364,11275.069270,-27517.724337,12991.012691,8121.036961,-20786.787067,-24081.478903,-17898.472297,-466.391500,-8056.105144,20569.483408,41340.356033,-10998.332321,-14428.475729,-18081.689546,50.264000,-894.992004,-433.343994,-5180.000000,3360.000000,-1680.000000
-11911.311675,-4603.408826,11273.147020,-27517.478468,12990.990340,8119.449987,-20785.915349,-24081.814180,-17899.098146,-469.230171,-8061.514266,20568.879911,41337.003271,-10998.734653,-14427.872232,-18080.929587,50.264000,-894.992004,-434.808014,-4480.000000,3360.000000,-1400.000000
-11918.285420,-4609.622611,11267.022642,-27522.753480,12985.290645,8116.343095,-20791.637396,-24085.681031,-17905.267227,-476.673302,-8071.192571,20562.867291,41331.415335,-11003.003836,-14434.778921,-18085.623453,53.680000,-894.504028,-432.368011,-3780.000000,3220.000000,-980.000000
-11913.904478,-4605.152262,11269.704851,-27519.445422,12987.101136,8114.890231,-20791.100954,-24087.268005,-17900.483954,-472.113546,-8068.577417,20566.354163,41331.974129,-11002.892077,-14432.499043,-18084.952901,48.799999,-897.432007,-429.928009,-3220.000000,3360.000000,-700.000000
-11915.536155,-4607.253326,11268.386098,-27521.188858,12985.871790,8112.565650,-20792.173838,-24088.564406,-17902.719128,-471.331235,-8065.850504,20564.878948,41332.644681,-11004.635513,-14432.499043,-18086.271654,51.728001,-898.895996,-432.856018,-2660.000000,3360.000000,-420.000000
-11916.854908,-4608.527375,11267.469676,-27521.121802,12985.670624,8113.772644,-20790.408050,-24086.262177,-17904.775489,-472.180602,-8061.871894,20563.180216,41333.315233,-11004.255534,-14431.783787,-18085.511695,50.264000,-899.872009,-432.856018,-1960.000000,3500.000000,-280.000000
-11912.630428,-4605.599297,11270.934197,-27518.216076,12988.129316,8115.001990,-20789.849256,-24086.552749,-17902.607370,-467.732604,-8053.534693,20566.197701,41337.316196,-11002.735615,-14430.822662,-18086.383413,47.336002,-900.359985,-431.391998,-1260.000000,3780.000000,280.000000
-11906.416643,-4599.027884,11276.052746,-27511.734070,12994.521915,8118.131234,-20783.858989,-24083.691726,-17895.946550,-463.128145,-8050.450152,20573.082039,41340.825420,-10997.661769,-14422.954848,-18082.158933,45.383999,-901.335999,-429.928009,-980.000000,4060.000000,280.000000
-11903.019178,-4596.412730,11277.662072,-27510.169448,12995.930075,8119.293525,-20781.556759,-24082.462380,-17891.275035,-460.803564,-8050.584263,20575.585434,41341.630082,-10996.387720,-14420.049121,-18080.236683,42.456001,-900.359985,-436.272003,-840.000000,4340.000000,560.000000
-11907.243658,-4600.123119,11274.957511,-27514.572741,12992.331444,8117.505386,-20786.317681,-24084.608148,-17895.208942,-465.363320,-8057.937987,20572.076210,41339.081983,-10998.801708,-14425.078264,-18083.343575,40.015999,-901.335999,-437.248016,-840.000000,5180.000000,840.000000
-11914.306809,-4604.302896,11271.627101,-27517.322006,12991.236209,8116.700723,-20787.748192,-24084.138761,-17901.512134,-473.991093,-8068.800934,20567.829379,41334.611635,-10999.762833,-14427.738121,-18082.136581,36.600002,-902.799988,-440.664001,-280.000000,5460.000000,840.000000
-11920.185318,-4611.544861,11267.179104,-27525.458041,12983.256636,8110.755159,-20795.951282,-24090.441953,-17908.709396,-477.902648,-8072.064289,20562.330849,41331.929425,-11006.468356,-14436.164729,-18089.758526,33.184002,-904.264038,-440.175995,-140.000000,5880.000000,1260.000000
-11919.648876,-4609.957887,11267.827304,-27521.099451,12988.241075,8113.370313,-20789.379870,-24082.954119,-17907.792974,-477.947352,-8071.863123,20563.582547,41330.565969,-11003.249705,-14429.772130,-18082.069526,29.768000,-906.704041,-438.223999,-140.000000,6300.000000,1120.000000
-11925.415626,-4615.165843,11265.212150,-27524.966303,12984.664796,8111.895098,-20792.307948,-24084.161113,-17913.671483,-481.613038,-8070.231446,20559.872158,41330.007175,-11006.088377,-14433.795444,-18085.578750,28.304001,-902.799988,-436.760010,420.000000,6720.000000,1260.000000
-11923.046341,-4611.075474,11268.430801,-27521.300616,12988.621055,8115.359618,-20787.815248,-24080.897758,-17911.905695,-478.550849,-8064.218827,20563.426085,41334.231655,-11001.930952,-14428.967467,-18083.097706,25.375999,-904.752014,-432.368011,560.000000,7560.000000,1260.000000
-11915.536155,-4604.571117,11273.303482,-27515.690329,12993.583142,8118.064179,-20783.926044,-24078.640232,-17905.177820,-471.152421,-8057.513303,20569.326945,41338.545542,-10997.706473,-14424.005380,-18080.147276,19.520000,-906.216003,-434.320007,700.000000,7980.000000,1260.000000
-11915.066769,-4605.845166,11273.348185,-27517.970206,12990.789174,8116.231336,-20788.061117,-24083.535264,-17905.378986,-470.571276,-8058.161504,20569.326945,41339.193742,-10999.941647,-14427.805177,-18084.483514,19.032000,-905.239990,-434.320007,280.000000,8120.000000,1260.000000
-11914.105644,-4605.621649,11272.230598,-27517.098488,12991.884409,8116.879537,-20786.094163,-24080.584834,-17903.903771,-470.794793,-8059.949644,20568.209358,41337.249140,-10999.405205,-14427.112273,-18081.935415,18.056000,-905.239990,-435.783997,140.000000,8120.000000,1540.000000
-11915.267934,-4606.605125,11272.163543,-27519.020738,12990.498601,8115.761950,-20789.379870,-24083.378802,-17905.446041,-473.901686,-8065.001138,20567.985841,41335.997443,-11000.120461,-14430.845014,-18084.259997,14.640000,-904.264038,-437.735992,140.000000,8680.000000,1400.000000
-11919.872394,-4611.388399,11268.117877,-27524.832192,12985.402404,8111.716284,-20794.967806,-24087.513874,-17909.312893,-477.813241,-8070.522019,20563.604899,41332.085887,-11005.037845,-14436.120026,-18088.283311,13.176001,-903.776001,-435.295990,0.000000,9100.000000,1120.000000
-11917.927792,-4608.750893,11269.190761,-27522.194686,12987.749337,8111.448063,-20792.553817,-24087.558578,-17906.742442,-476.114509,-8069.404432,20565.571852,41331.907073,-11003.584981,-14434.063665,-18086.495171,13.176001,-904.264038,-438.712006,0.000000,9380.000000,840.000000
-11919.201841,-4611.455454,11268.475505,-27525.994483,12984.664796,8108.967019,-20796.711242,-24091.179561,-17909.938742,-474.818107,-8064.419992,20564.342506,41333.426992,-11005.931915,-14438.824587,-18089.669119,10.248000,-907.192017,-439.200012,-140.000000,8820.000000,840.000000
-11920.341780,-4612.126006,11269.101354,-27523.401680,12987.883447,8113.973810,-20790.922140,-24082.328270,-17912.129213,-475.220439,-8061.626024,20564.476617,41334.835152,-11002.243877,-14433.907203,-18083.209465,14.152000,-901.335999,-439.200012,-280.000000,8540.000000,700.000000
-11917.860737,-4609.354390,11272.185895,-27519.378366,12992.443203,8119.226470,-20786.809419,-24076.785037,-17909.849335,-474.929866,-8060.821362,20567.248233,41337.405603,-10997.639417,-14430.509738,-18079.677889,11.224000,-899.384033,-436.272003,-420.000000,8260.000000,420.000000
-11915.580859,-4607.633306,11275.203380,-27520.004215,12991.258561,8118.175938,-20790.810381,-24082.596491,-17908.418823,-472.717043,-8060.731955,20570.265719,41340.803068,-10998.198211,-14433.527223,-18084.662328,15.616000,-898.408020,-433.832001,140.000000,8260.000000,0.000000
-11918.017199,-4608.125044,11273.974034,-27521.166506,12990.140973,8116.521909,-20792.799687,-24084.809313,-17910.497536,-475.153384,-8064.777620,20568.768152,41339.573722,-10999.762833,-14434.577755,-18086.405764,11.224000,-905.239990,-430.416016,560.000000,8120.000000,-420.000000
-11916.743149,-4607.275678,11271.045956,-27519.333663,12991.303264,8116.566612,-20788.932835,-24080.271909,-17907.927085,-475.332198,-8065.649338,20568.119951,41335.349242,-11000.209868,-14431.314401,-18081.846009,14.640000,-904.264038,-430.416016,840.000000,7700.000000,-700.000000
-11916.877260,-4607.186271,11270.084831,-27518.730166,12991.102098,8115.091397,-20786.787067,-24079.489598,-17906.764794,-475.846288,-8067.996272,20568.164655,41333.605806,-11001.170993,-14429.638020,-18079.230854,14.152000,-903.288025,-429.928009,560.000000,7420.000000,-1120.000000
-11920.811167,-4610.561384,11267.916711,-27520.898285,12988.218723,8112.252726,-20789.201056,-24081.568310,-17910.676349,-478.975532,-8072.064289,20565.527149,41331.392983,-11003.137947,-14432.499043,-18081.622491,15.128000,-898.408020,-428.951996,280.000000,6860.000000,-1400.000000
-11922.129920,-4609.957887,11267.223807,-27520.138326,12989.135145,8111.917449,-20789.648091,-24082.954119,-17910.944570,-480.249581,-8072.421917,20565.348335,41331.080059,-11003.070891,-14431.537918,-18082.181285,15.616000,-900.848022,-430.416016,-140.000000,6300.000000,-1540.000000
-11919.000676,-4609.644963,11268.207284,-27521.613541,12986.654101,8109.749330,-20792.620873,-24087.200950,-17908.754099,-474.952218,-8062.050708,20565.795370,41334.410469,-11005.239010,-14434.108369,-18086.942206,19.032000,-900.848022,-428.464020,-1120.000000,6020.000000,-1680.000000
-11914.798548,-4606.336904,11272.789392,-27519.020738,12989.783345,8112.610354,-20790.519809,-24085.993956,-17905.401338,-470.057186,-8055.255777,20569.841036,41339.394908,-11002.489746,-14432.119063,-18086.562227,19.520000,-901.335999,-431.391998,-1820.000000,4900.000000,-2100.000000
-11906.036664,-4596.233916,11278.936121,-27507.598997,12999.282837,8118.399455,-20780.193303,-24081.009517,-17895.208942,-463.955160,-8052.014774,20578.558216,41342.859428,-10995.359539,-14420.116177,-18078.336785,21.960001,-899.872009,-430.416016,-2380.000000,4200.000000,-2240.000000
-11906.573106,-4597.172689,11277.907941,-27507.755459,12998.522878,8118.019476,-20781.713221,-24083.021174,-17895.343053,-464.625712,-8053.959376,20578.088829,41342.591207,-10995.985388,-14421.054950,-18079.342613,26.352001,-900.848022,-433.343994,-2520.000000,3500.000000,-2240.000000
-11909.478832,-4599.184346,11275.762174,-27510.616483,12996.712386,8116.544261,-20784.373079,-24084.049354,-17897.868800,-467.687901,-8058.273263,20575.473675,41339.305501,-10997.237086,-14424.921802,-18081.108401,26.352001,-904.752014,-436.760010,-2240.000000,2800.000000,-2100.000000
-11911.401082,-4602.358294,11273.325833,-27515.757384,12991.884409,8112.789167,-20791.972672,-24089.972566,-17899.656939,-470.437166,-8062.855370,20572.389134,41337.204437,-11001.349807,-14432.610802,-18087.344538,26.352001,-902.312012,-431.880005,-1820.000000,2100.000000,-1960.000000
-11910.730530,-4604.369951,11270.688328,-27519.043090,12988.553999,8108.609391,-20795.817172,-24094.219398,-17898.695814,-469.856020,-8062.967129,20570.735105,41335.081021,-11005.529583,-14436.008267,-18090.071450,29.280001,-900.359985,-427.000000,-1260.000000,1820.000000,-1820.000000
-11915.536155,-4609.309686,11269.213112,-27522.753480,12985.961197,8106.664790,-20797.135925,-24095.694613,-17904.797841,-472.784099,-8063.883551,20567.382344,41333.784620,-11007.608295,-14438.109331,-18092.016052,31.232000,-905.239990,-426.511993,-980.000000,1820.000000,-1680.000000
-11913.345684,-4609.108521,11270.777735,-27525.793317,12983.077822,8104.317856,-20801.226294,-24099.784982,-17902.964998,-467.196163,-8054.473466,20568.522283,41336.913864,-11009.798766,-14442.870252,-18097.447526,37.088001,-906.216003,-426.511993,-140.000000,1820.000000,-1820.000000
-11909.098853,-4603.207660,11274.644586,-27519.333663,12989.068090,8109.078778,-20794.744288,-24094.062936,-17898.293483,-463.239904,-8048.840827,20573.193797,41341.071289,-11004.389644,-14436.120026,-18092.083107,37.576000,-908.168030,-429.440002,0.000000,1820.000000,-1820.000000
-11907.221306,-4597.843241,11278.824363,-27509.185971,12999.282837,8117.348923,-20781.757925,-24081.367145,-17896.862971,-463.329311,-8050.673670,20578.178236,41342.971187,-10995.761871,-14423.379531,-18079.744945,39.528000,-905.728027,-429.928009,280.000000,1540.000000,-2100.000000
-11906.506050,-4595.831584,11278.824363,-27505.632044,13001.808584,8118.332400,-20778.271053,-24079.847226,-17895.454812,-463.932808,-8053.579396,20579.787562,41341.920655,-10994.085490,-14419.803252,-18077.062735,42.944000,-905.728027,-433.343994,280.000000,980.000000,-2100.000000
-11905.433167,-4595.071625,11279.159639,-27505.207360,13001.607418,8116.678371,-20779.947433,-24083.423505,-17894.940721,-463.932808,-8055.367536,20580.748687,41342.054765,-10994.800746,-14420.384398,-18079.499075,46.848000,-905.728027,-427.488007,840.000000,700.000000,-2240.000000
-11910.283495,-4599.743140,11276.611540,-27509.677709,12998.120546,8114.063217,-20784.440134,-24088.050316,-17899.992216,-468.783136,-8061.402507,20577.395925,41339.707832,-10997.326493,-14425.190023,-18083.567093,44.896000,-905.728027,-430.903992,1120.000000,420.000000,-2240.000000
-11918.084254,-4607.230974,11270.934197,-27516.919675,12990.655063,8109.481109,-20791.860913,-24092.878293,-17907.636512,-476.270971,-8069.024452,20570.735105,41335.215132,-11003.339112,-14432.834319,-18088.953863,45.383999,-906.704041,-433.343994,1540.000000,420.000000,-2100.000000
-11914.284457,-4601.531279,11272.498819,-27510.124744,12996.377110,8111.001028,-20784.842466,-24088.072668,-17901.489783,-474.661645,-8069.337376,20574.624309,41334.432821,-11000.165164,-14425.726464,-18082.047174,49.288002,-905.728027,-429.928009,1960.000000,840.000000,-1820.000000
-11913.435091,-4601.799500,11273.348185,-27510.236503,12997.315883,8110.174013,-20783.635471,-24087.715040,-17901.378024,-473.119375,-8065.448173,20575.004289,41335.550408,-11000.500441,-14426.106444,-18082.069526,50.751999,-901.824036,-426.511993,1680.000000,1120.000000,-1680.000000
-11920.989981,-4610.919012,11269.995424,-27519.624236,12991.169154,8111.023380,-20789.156352,-24084.876369,-17911.324550,-477.120337,-8064.330586,20568.388172,41335.259835,-11002.579153,-14435.069494,-18084.751735,51.728001,-897.919983,-428.464020,1120.000000,1540.000000,-1540.000000
-11917.190184,-4608.639134,11271.604749,-27518.171372,12993.717252,8114.957287,-20784.998928,-24077.701459,-17908.485879,-473.655817,-8059.390850,20570.600995,41336.757402,-10999.405205,-14431.850842,-18080.080221,48.312000,-898.895996,-425.536011,420.000000,2240.000000,-1260.000000
-11913.524498,-4604.951096,11276.097450,-27516.807916,12993.627845,8114.711418,-20788.061117,-24083.848188,-17904.954303,-469.699558,-8057.915635,20574.601957,41342.010062,-10999.226391,-14432.879023,-18084.461163,49.288002,-897.432007,-430.416016,-700.000000,2380.000000,-1120.000000
-11909.724702,-4597.686779,11278.757307,-27506.414355,13002.479136,8118.868842,-20777.108762,-24076.338002,-17898.539352,-469.029006,-8059.569664,20579.720507,41342.591207,-10992.498516,-14419.758549,-18073.978194,43.920002,-896.455994,-431.391998,-1820.000000,3220.000000,-980.000000
-11909.031798,-4597.798538,11277.863238,-27508.001328,13001.294494,8116.097226,-20779.634509,-24080.406020,-17897.734689,-468.671378,-8060.799010,20579.005251,41339.931350,-10994.979560,-14421.546688,-18076.570997,45.383999,-896.944031,-431.391998,-2660.000000,3780.000000,-700.000000
-11912.876298,-4601.330114,11276.186857,-27512.628140,12997.449994,8111.939801,-20786.094163,-24086.284529,-17902.339149,-470.034834,-8063.637681,20576.881835,41338.746707,-10998.488784,-14428.520433,-18082.427154,43.920002,-895.479980,-432.856018,-2940.000000,4340.000000,-560.000000
-11919.023027,-4608.303858,11270.129534,-27518.819573,12990.006863,8106.687141,-20793.179666,-24092.855941,-17907.837678,-475.354549,-8067.258664,20570.422181,41334.544579,-11004.836679,-14434.756569,-18089.222084,42.456001,-895.479980,-432.856018,-3920.000000,4480.000000,-140.000000
-11920.162966,-4610.807253,11268.319043,-27521.792355,12987.369357,8104.519022,-20793.961977,-24093.772363,-17909.759928,-475.511012,-8064.442344,20567.941137,41333.047012,-11007.541240,-14436.723523,-18091.032575,37.088001,-897.919983,-435.783997,-4200.000000,5040.000000,140.000000
-11922.711065,-4613.802387,11267.246159,-27524.385157,12985.938845,8105.278981,-20794.207846,-24092.319500,-17912.576248,-477.299151,-8060.933120,20565.370687,41334.142248,-11007.988275,-14438.355200,-18091.434907,33.184002,-900.848022,-433.832001,-4340.000000,5460.000000,560.000000
-11919.492414,-4611.276640,11269.727203,-27523.245218,12987.324654,8106.642438,-20794.744288,-24092.520665,-17910.095204,-473.991093,-8055.166370,20567.963489,41337.539713,-11006.490708,-14438.779883,-18092.328977,34.160000,-899.872009,-438.712006,-4620.000000,6300.000000,1260.000000
-11913.233925,-4604.258192,11273.191723,-27515.600922,12994.164287,8111.068083,-20786.116515,-24085.412810,-17903.367329,-469.073709,-8052.975899,20573.350259,41339.081983,-11001.640380,-14429.526261,-18084.863494,28.792000,-902.799988,-437.248016,-4620.000000,6860.000000,1540.000000
-11912.339856,-4601.978314,11276.745650,-27514.282169,12995.930075,8112.498595,-20785.937701,-24085.993956,-17902.562666,-468.246695,-8054.875798,20576.546559,41342.546504,-10998.935819,-14428.878060,-18085.042308,23.912001,-903.776001,-435.783997,-4060.000000,7420.000000,2240.000000
-11916.541984,-4605.174614,11274.666938,-27515.980901,12994.723081,8111.872746,-20786.496495,-24086.239825,-17906.138945,-472.895857,-8061.223693,20574.177274,41340.311329,-10999.963999,-14430.017999,-18084.796439,23.424000,-907.192017,-436.760010,-3920.000000,7560.000000,2520.000000
-11922.509899,-4612.438931,11268.721374,-27522.909942,12989.112793,8108.296467,-20791.525637,-24088.676165,-17913.649131,-479.310808,-8068.398603,20567.494102,41334.768097,-11004.523755,-14434.488348,-18087.612759,19.520000,-906.704041,-437.248016,-2940.000000,7980.000000,2800.000000
-11921.548774,-4611.813082,11266.106220,-27522.060576,12988.397537,8105.837775,-20790.899788,-24089.838456,-17911.212791,-480.070767,-8070.812591,20566.644736,41331.147114,-11006.401301,-14432.789616,-18086.562227,21.960001,-908.168030,-434.808014,-2240.000000,8260.000000,3080.000000
-11918.754806,-4609.935535,11268.117877,-27520.853582,12989.425718,8105.726016,-20790.832733,-24090.129029,-17907.077719,-477.455613,-8068.331548,20569.461056,41332.890550,-11005.887211,-14433.527223,-18086.361061,21.960001,-908.656006,-436.272003,-1680.000000,7980.000000,2940.000000
-11915.737321,-4609.957887,11270.978900,-27522.082927,12988.151668,8104.496670,-20794.230198,-24093.481790,-17905.334283,-472.538230,-8059.971995,20570.824512,41336.779754,-11006.691874,-14437.997572,-18090.362023,15.616000,-902.799988,-431.391998,-700.000000,7420.000000,2520.000000
-11918.754806,-4611.231936,11271.537694,-27521.926465,12989.269255,8106.687141,-20793.581998,-24091.358375,-17909.804631,-474.058148,-8057.155676,20570.042201,41339.014928,-11005.037845,-14437.595241,-18089.870285,19.032000,-904.264038,-436.760010,0.000000,6860.000000,2380.000000
-11921.660533,-4610.695494,11271.872970,-27520.987692,12990.185677,8109.503461,-20791.615044,-24089.346718,-17912.486841,-476.628599,-8059.726126,20570.422181,41339.618425,-11003.406167,-14434.823624,-18089.400898,19.032000,-904.264038,-429.440002,560.000000,6020.000000,1820.000000
-11915.782024,-4605.129910,11274.197552,-27515.310349,12994.968950,8112.230374,-20786.697660,-24085.055183,-17906.004835,-472.270009,-8058.273263,20574.914882,41340.870123,-11000.388682,-14429.347447,-18084.885846,19.520000,-904.752014,-436.272003,980.000000,5180.000000,1120.000000
-11917.078426,-4604.951096,11274.331662,-27514.796259,12996.734738,8113.482072,-20786.138867,-24084.429334,-17907.144774,-474.125203,-8062.654205,20575.853655,41340.020757,-10998.578191,-14429.056874,-18083.544741,22.448000,-903.288025,-433.343994,1540.000000,4480.000000,420.000000
-11918.084254,-4605.174614,11273.482296,-27515.802087,12995.572447,8111.045731,-20787.904654,-24087.670337,-17906.116594,-476.248619,-8067.884513,20575.317213,41337.070326,-11000.343978,-14431.269697,-18085.310529,17.568001,-904.264038,-432.856018,1820.000000,3360.000000,-420.000000
-11916.027894,-4604.504061,11270.755383,-27513.656320,12995.930075,8109.570516,-20784.194265,-24084.094058,-17903.546143,-476.449785,-8069.337376,20574.557254,41332.935254,-11001.439214,-14427.738121,-18081.287215,21.472000,-900.359985,-431.391998,2240.000000,2380.000000,-840.000000
-11915.111472,-4606.158090,11271.962377,-27519.333663,12991.303264,8105.480147,-20792.687928,-24093.302976,-17905.021358,-474.885163,-8067.549237,20574.333736,41334.723393,-11004.613162,-14435.985915,-18089.624416,20.007999,-898.895996,-431.880005,2800.000000,1540.000000,-1540.000000
-11922.152272,-4614.785864,11266.285034,-27527.894381,12984.307168,8102.216792,-20798.901713,-24096.320462,-17912.218620,-479.310808,-8066.655167,20567.047068,41333.024661,-11010.156394,-14443.563157,-18094.698262,19.520000,-898.408020,-437.735992,3080.000000,280.000000,-2100.000000
-11918.330123,-4608.460320,11270.733031,-27519.959512,12991.526782,8106.955362,-20789.268111,-24089.033793,-17907.837678,-474.996921,-8060.307272,20572.277376,41337.338547,-11004.702569,-14433.147244,-18087.389241,20.984001,-898.408020,-437.248016,3080.000000,-140.000000,-2380.000000
-11916.430225,-4607.119215,11273.124668,-27519.311311,12991.035043,8106.530679,-20792.956149,-24093.973529,-17907.860030,-472.717043,-8056.194551,20574.043164,41340.579550,-11004.367292,-14434.913031,-18092.530142,22.448000,-896.455994,-435.783997,3220.000000,-840.000000,-2800.000000
-11908.271838,-4595.809233,11281.528924,-27507.263721,13003.194392,8113.325609,-20781.087372,-24086.016308,-17899.299312,-465.877410,-8052.819437,20584.056745,41345.608693,-10994.845449,-14423.223069,-18081.533084,21.472000,-898.408020,-436.760010,3080.000000,-1540.000000,-3080.000000
-11902.393329,-4589.953076,11284.725223,-27501.161695,13008.223535,8115.069045,-20775.477085,-24083.915244,-17892.839657,-460.356529,-8049.176103,20588.772963,41347.374481,-10991.738557,-14415.936400,-18077.599177,23.424000,-894.504028,-435.295990,2940.000000,-1960.000000,-3500.000000
-11906.796623,-4596.725654,11279.897246,-27507.017852,13001.629770,8110.889269,-20781.065021,-24088.966738,-17897.421765,-465.832706,-8055.747516,20583.363841,41343.440574,-10996.879458,-14421.256116,-18082.807134,23.912001,-896.455994,-434.320007,2520.000000,-1960.000000,-3920.000000
-11911.758710,-4600.525451,11275.806877,-27510.840000,12998.455822,8109.145833,-20782.629643,-24088.474999,-17901.668596,-471.554753,-8063.548274,20579.005251,41338.612597,-10999.315798,-14423.357180,-18082.248340,26.840000,-895.479980,-437.735992,2520.000000,-2100.000000,-4200.000000
-11917.011370,-4605.599297,11269.458982,-27515.377404,12994.588970,8106.821252,-20784.909521,-24086.798619,-17906.273056,-476.405081,-8067.728051,20573.014983,41333.337585,-11003.070891,-14427.045217,-18082.337747,27.328001,-895.479980,-435.783997,2240.000000,-1960.000000,-4480.000000
-11919.179490,-4609.354390,11268.900188,-27521.077099,12990.409194,8103.155566,-20790.653919,-24092.364203,-17909.894038,-476.293323,-8065.381118,20571.226844,41334.097544,-11006.490708,-14434.376590,-18088.126849,29.768000,-897.919983,-437.735992,1960.000000,-1960.000000,-4620.000000
-11917.592516,-4608.974410,11271.403583,-27521.591189,12990.431546,8103.759063,-20791.615044,-24094.264101,-17909.044672,-474.013445,-8059.346147,20572.277376,41337.830286,-11005.909563,-14436.209433,-18090.742003,30.256001,-895.968018,-436.272003,1400.000000,-2100.000000,-4900.000000
-11916.921963,-4609.399093,11272.029432,-27522.686425,12989.425718,8105.100167,-20793.090259,-24093.325328,-17910.564591,-472.784099,-8055.099315,20572.187969,41340.065460,-11006.043673,-14437.125854,-18091.747831,34.160000,-895.479980,-432.368011,1260.000000,-1960.000000,-4900.000000
-11915.647914,-4608.862651,11272.320005,-27522.976997,12988.241075,8104.429615,-20794.654881,-24095.828723,-17909.692873,-471.331235,-8055.434591,20572.925576,41341.183047,-11007.362426,-14436.812930,-18093.737137,37.576000,-895.968018,-432.368011,980.000000,-1680.000000,-5040.000000
-11911.781062,-4600.726616,11277.863238,-27510.996462,13000.020444,8111.425711,-20781.355593,-24085.278700,-17903.590846,-468.716081,-8056.373364,20580.480466,41343.306463,-10997.862935,-14424.452415,-18082.382450,35.624001,-898.408020,-434.808014,1260.000000,-1400.000000,-4760.000000
-11917.503109,-4603.520585,11275.471601,-27511.912884,12999.975741,8112.297429,-20780.349765,-24083.758781,-17907.234181,-474.683997,-8064.241179,20577.731201,41340.423088,-10997.371196,-14424.050084,-18080.817828,40.504002,-896.455994,-434.808014,1260.000000,-1540.000000,-4620.000000
-11921.258202,-4607.722712,11271.582397,-27516.316177,12995.728909,8108.676447,-20784.797762,-24087.558578,-17911.548068,-479.757843,-8070.119687,20573.529073,41336.176257,-11001.170993,-14428.095749,-18084.081183,42.456001,-897.432007,-431.880005,1260.000000,-1260.000000,-4340.000000
-11920.744112,-4609.868480,11268.587264,-27519.221904,12992.376148,8105.144871,-20787.412916,-24091.492485,-17911.235143,-479.847250,-8070.745536,20571.316251,41333.091716,-11005.127252,-14431.314401,-18086.875151,42.944000,-894.992004,-433.343994,1680.000000,-1260.000000,-4060.000000
-11915.692617,-4606.448663,11272.342357,-27518.819573,12992.197334,8103.133214,-20790.139829,-24096.722793,-17906.206001,-474.438128,-8065.671690,20575.093696,41336.824457,-11005.417824,-14433.795444,-18089.691471,46.848000,-894.015991,-436.272003,2100.000000,-1120.000000,-3640.000000
-11911.624600,-4602.917087,11275.359842,-27515.131535,12995.393633,8105.793071,-20787.457620,-24093.884122,-17901.445079,-470.034834,-8058.630891,20578.446457,41338.992576,-11002.377987,-14432.521395,-18087.679814,44.896000,-893.040039,-432.856018,2520.000000,-980.000000,-2940.000000
-11910.931696,-4601.553631,11276.030395,-27511.510552,12998.075843,8108.765853,-20783.054326,-24088.832627,-17901.020396,-469.476041,-8054.741687,20579.340527,41340.847771,-10999.762833,-14428.475729,-18084.885846,48.799999,-892.064026,-433.343994,2800.000000,-980.000000,-2520.000000
-11908.137728,-4598.267925,11276.119802,-27506.973148,13002.367378,8111.291601,-20775.812361,-24082.037697,-17896.840620,-467.307921,-8052.081830,20581.396887,41340.601902,-10997.348845,-14420.026770,-18079.364965,48.312000,-891.575989,-435.783997,2800.000000,-840.000000,-1960.000000
-11902.058053,-4592.456471,11282.847677,-27504.492105,13004.915476,8112.140967,-20777.824018,-24087.268005,-17890.425669,-461.340006,-8049.310213,20588.147114,41346.145135,-10994.867801,-14421.300819,-18082.471857,47.824001,-889.624023,-432.856018,3360.000000,-980.000000,-1120.000000
-11906.684864,-4595.697474,11282.534752,-27508.537770,13001.987398,8111.269249,-20782.406125,-24090.866636,-17894.583093,-465.072747,-8056.060440,20586.604844,41346.301597,-10995.672464,-14427.022866,-18085.221122,47.824001,-892.552002,-434.320007,3220.000000,-840.000000,-700.000000
-11910.037626,-4599.586678,11279.941950,-27511.242331,12999.841630,8108.676447,-20784.238968,-24092.140686,-17898.740518,-468.179639,-8058.832056,20583.363841,41344.267588,-10998.153507,-14429.660372,-18085.824619,47.336002,-893.528015,-433.343994,3220.000000,-560.000000,-280.000000
-11911.401082,-4599.720788,11276.969168,-27508.582474,13001.741529,8109.034074,-20778.226349,-24085.658680,-17899.254608,-471.487698,-8064.017661,20581.374536,41339.305501,-10997.058272,-14424.385360,-18078.828523,45.872002,-887.671997,-432.856018,3220.000000,-700.000000,280.000000
-11914.843251,-4604.504061,11273.102316,-27514.684500,12995.773613,8104.720188,-20784.820114,-24091.537188,-17904.015530,-474.818107,-8067.303368,20577.105353,41336.265664,-11002.534449,-14430.845014,-18084.550570,44.896000,-892.552002,-433.832001,3080.000000,-560.000000,700.000000
-11910.059978,-4601.643038,11274.778697,-27512.963416,12996.511221,8103.647304,-20783.501361,-24092.654776,-17899.791050,-468.805488,-8057.446248,20579.720507,41339.059632,-11002.981484,-14429.705075,-18086.048136,40.992001,-894.504028,-429.928009,2940.000000,-280.000000,1260.000000
-11906.751920,-4597.507965,11279.204342,-27508.090735,13001.830936,8107.514156,-20778.718088,-24088.765572,-17897.041785,-464.670415,-8050.807780,20584.056745,41342.770021,-10998.242914,-14425.190023,-18081.980119,40.992001,-892.552002,-429.928009,2660.000000,-280.000000,1540.000000
-11905.701388,-4597.642076,11280.970130,-27508.828343,13000.713348,8107.156528,-20781.243835,-24091.313671,-17897.757041,-464.066918,-8047.455018,20585.129629,41346.100431,-10998.689949,-14425.905278,-18085.422288,44.408001,-894.504028,-432.856018,2380.000000,-140.000000,1820.000000
-11906.215478,-4597.127986,11279.271398,-27508.001328,13001.316846,8108.385874,-20779.209826,-24088.586758,-17896.907675,-465.184506,-8049.779600,20584.526132,41344.692271,-10998.868763,-14424.161842,-18084.148238,40.015999,-894.504028,-433.832001,2240.000000,-140.000000,1960.000000
-11902.236867,-4591.875326,11284.457002,-27503.374517,13006.122471,8110.241069,-20775.432381,-24087.536226,-17892.862009,-462.256427,-8049.734896,20589.823495,41348.156792,-10995.203077,-14419.467976,-18080.482552,37.576000,-896.944031,-433.343994,2100.000000,280.000000,1960.000000
-11905.187297,-4593.462300,11281.797145,-27503.396869,13005.474270,8110.576345,-20774.627718,-24086.128066,-17894.583093,-466.235038,-8056.552178,20588.013004,41344.200533,-10994.867801,-14418.350389,-18078.716764,37.088001,-897.432007,-432.856018,1960.000000,560.000000,1820.000000
-11905.522574,-4592.456471,11280.009005,-27502.838075,13005.697787,8109.972848,-20774.180683,-24085.166941,-17892.705547,-468.134936,-8061.536617,20587.543617,41341.160696,-10995.739519,-14417.679836,-18076.727459,33.184002,-898.895996,-430.903992,1960.000000,700.000000,1820.000000
-11908.540059,-4597.172689,11275.695118,-27509.588302,12999.282837,8104.943705,-20781.333242,-24091.626595,-17895.790088,-470.750090,-8062.944777,20582.514475,41337.629120,-11002.109766,-14425.346485,-18083.500038,31.232000,-900.848022,-433.343994,1540.000000,840.000000,1400.000000
-11913.345684,-4603.542936,11272.185895,-27515.869143,12993.270218,8100.227487,-20787.256454,-24097.661566,-17902.026224,-473.253485,-8061.983652,20577.306518,41336.511533,-11006.647170,-14432.566098,-18090.160857,29.280001,-901.824036,-435.783997,1820.000000,700.000000,1400.000000
-11907.690693,-4597.575021,11278.779659,-27509.230674,12999.439299,8103.468490,-20782.473181,-24094.957005,-17896.930027,-465.743299,-8052.238292,20584.012042,41342.770021,-11001.327455,-14427.067569,-18086.338709,27.328001,-900.848022,-429.440002,1680.000000,1120.000000,840.000000
-11901.320446,-4591.875326,11283.451174,-27503.530980,13004.602552,8108.274115,-20777.041707,-24090.017270,-17890.135096,-460.423584,-8045.644527,20589.219998,41347.150963,-10996.991217,-14420.518508,-18082.091878,27.816000,-899.872009,-433.832001,1820.000000,1120.000000,420.000000
-11898.526478,-4590.064834,11284.725223,-27502.078116,13005.943657,8110.621048,-20775.275919,-24087.782095,-17888.034032,-458.389575,-8045.353954,20591.097545,41349.162620,-10995.136022,-14418.775072,-18080.303738,24.400000,-901.335999,-435.783997,1680.000000,1120.000000,140.000000
-11895.754861,-4584.208677,11288.033281,-27496.244311,13012.135090,8114.420845,-20768.279823,-24081.434200,-17882.937835,-456.892008,-8046.583300,20595.925521,41349.296731,-10990.062176,-14411.734272,-18072.927662,23.912001,-901.335999,-433.832001,2100.000000,1260.000000,-140.000000
-11902.907420,-4591.294180,11283.898209,-27503.173352,13006.770671,8111.291601,-20775.007698,-24086.061011,-17891.051518,-463.061090,-8053.646452,20590.203475,41345.765155,-10994.845449,-14418.462148,-18078.493247,25.375999,-903.776001,-436.272003,1960.000000,1120.000000,-420.000000
-11907.869507,-4596.166861,11279.539618,-27505.721451,13003.820241,8109.235240,-20775.879416,-24085.837494,-17895.544218,-468.827840,-8061.201341,20585.688422,41341.004233,-10997.214734,-14419.892659,-18078.761468,21.472000,-900.848022,-434.808014,2100.000000,1120.000000,-840.000000
-11909.657646,-4596.904468,11276.298615,-27505.363823,13003.909648,8108.274115,-20774.180683,-24083.535264,-17895.208942,-470.772442,-8064.263530,20584.056745,41337.003271,-10998.533487,-14418.350389,-18075.945148,20.984001,-899.872009,-436.760010,1960.000000,1260.000000,-1120.000000
-11911.959876,-4600.368989,11275.248084,-27510.437669,12999.439299,8104.094339,-20780.394468,-24089.257311,-17898.069966,-470.794793,-8061.313100,20581.955681,41337.495010,-11002.869726,-14424.318305,-18081.756602,19.520000,-901.824036,-437.248016,1960.000000,1120.000000,-1260.000000
-11912.205745,-4600.726616,11278.444383,-27512.114049,12999.238133,8104.071987,-20782.450829,-24091.246616,-17900.260437,-469.364282,-8055.814571,20582.782696,41341.920655,-11001.774490,-14427.179328,-18084.036479,18.544001,-900.848022,-437.248016,1960.000000,1260.000000,-1400.000000
-11914.329161,-4602.805329,11278.176162,-27513.365747,12998.545229,8106.329513,-20782.093201,-24089.860808,-17903.099108,-470.593628,-8054.339356,20581.352184,41343.015890,-11001.461566,-14427.916935,-18084.617625,16.592001,-902.799988,-437.248016,1820.000000,1260.000000,-1820.000000
-11907.645989,-4595.496308,11283.741746,-27506.347299,13004.982532,8110.643400,-20775.030050,-24085.770438,-17895.879495,-463.798697,-8049.064344,20588.728260,41347.419184,-10995.784223,-14420.339694,-18079.387317,16.592001,-901.335999,-436.760010,1960.000000,1260.000000,-2100.000000
-11904.896725,-4591.204773,11285.909866,-27501.608730,13009.139956,8112.364484,-20771.543178,-24083.669374,-17892.929064,-462.457593,-8049.801952,20592.572760,41348.648530,-10993.616103,-14415.712883,-18075.989851,16.592001,-901.824036,-439.200012,1820.000000,1120.000000,-2240.000000
-11911.155213,-4596.233916,11281.551275,-27505.408526,13006.189526,8111.470415,-20774.292442,-24083.870540,-17897.466469,-470.213648,-8059.077926,20587.744783,41344.647568,-10995.627760,-14419.020941,-18077.777991,18.544001,-902.312012,-436.760010,2100.000000,1120.000000,-2380.000000
-11910.909344,-4596.658599,11281.059537,-27505.654395,13006.144822,8110.755159,-20773.934814,-24083.177636,-17897.153544,-470.683035,-8062.028356,20587.588321,41342.814725,-10995.538353,-14419.087996,-18076.034555,15.128000,-902.799988,-438.712006,1820.000000,980.000000,-2520.000000
-11913.569202,-4600.681913,11276.410374,-27510.795297,13001.026273,8107.402397,-20779.679213,-24086.016308,-17900.662768,-474.125203,-8065.738745,20583.117972,41339.014928,-10999.896944,-14424.385360,-18080.124924,17.080000,-901.824036,-437.735992,1820.000000,700.000000,-2520.000000
-11920.140615,-4607.096864,11272.096488,-27517.701986,12994.924247,8103.714359,-20785.803591,-24089.860808,-17908.038844,-480.249581,-8071.080812,20577.105353,41335.416297,-11005.082548,-14431.537918,-18084.952901,15.616000,-902.312012,-436.272003,1960.000000,700.000000,-2800.000000
-11917.771330,-4604.593468,11272.543522,-27514.237465,12997.807622,8104.764891,-20781.601463,-24087.223302,-17905.311931,-477.656779,-8066.521056,20578.535864,41335.371594,-11003.137947,-14428.363970,-18081.957767,16.592001,-903.288025,-437.735992,1960.000000,560.000000,-2940.000000
-11913.144519,-4602.425349,11276.790354,-27513.969244,12997.539401,8104.094339,-20783.344899,-24091.581892,-17903.769660,-471.130070,-8055.613405,20581.396887,41340.981882,-11003.473223,-14430.845014,-18086.249302,19.032000,-903.776001,-437.248016,2380.000000,280.000000,-2800.000000
-11909.948219,-4600.011361,11281.595979,-27513.231637,12999.416947,8106.709493,-20783.769582,-24091.201912,-17902.003873,-467.240866,-8049.623138,20585.688422,41347.396832,-10999.963999,-14432.543747,-18086.562227,16.104000,-904.264038,-435.783997,2520.000000,280.000000,-3080.000000
-11909.389425,-4600.301933,11280.679557,-27513.231637,12998.209953,8105.837775,-20784.194265,-24092.699479,-17900.282788,-466.391500,-8049.377268,20585.129629,41347.016853,-11001.841545,-14431.023828,-18088.417421,21.472000,-905.728027,-436.272003,2800.000000,140.000000,-3080.000000
-11909.098853,-4597.977352,11279.673729,-27510.080041,13000.199258,8105.904830,-20781.333242,-24092.654776,-17897.354710,-467.464384,-8052.618271,20585.643719,41344.871085,-11001.819194,-14426.464072,-18087.299834,17.568001,-906.704041,-434.320007,3080.000000,0.000000,-2940.000000
-11911.311675,-4597.172689,11280.143116,-27506.257892,13004.133165,8108.922316,-20775.342974,-24086.977433,-17899.567532,-471.286532,-8058.966167,20586.716603,41343.440574,-10998.108804,-14421.054950,-18080.259035,17.568001,-903.776001,-431.880005,3360.000000,-140.000000,-2940.000000
-11916.050245,-4599.810195,11278.265569,-27507.263721,13003.216744,8108.408226,-20776.102933,-24086.195122,-17903.724957,-477.142689,-8067.459830,20584.928463,41340.177219,-10998.801708,-14422.261944,-18079.342613,21.960001,-904.264038,-431.391998,4060.000000,280.000000,-3080.000000
-11913.189222,-4599.474919,11276.700947,-27508.426012,13001.562715,8104.899002,-20778.047535,-24089.793752,-17900.305140,-475.421605,-8066.722222,20584.861408,41338.679652,-11000.992179,-14423.446587,-18081.376622,21.472000,-904.264038,-431.391998,4480.000000,280.000000,-3080.000000
-11919.403007,-4607.610954,11271.492990,-27519.713643,12991.817354,8098.886382,-20788.865780,-24097.505104,-17907.480050,-480.182526,-8069.180914,20577.328870,41335.863332,-11008.770586,-14435.471825,-18090.853762,22.448000,-904.264038,-429.440002,4900.000000,700.000000,-3080.000000
-11919.090083,-4604.437006,11274.823400,-27514.684500,12997.561753,8104.474319,-20782.517884,-24089.927863,-17906.585980,-478.930828,-8065.939911,20580.659280,41338.970225,-11002.713263,-14430.420331,-18084.148238,19.032000,-904.264038,-426.511993,5320.000000,980.000000,-3080.000000
-11919.872394,-4606.582774,11275.784525,-27516.383233,12996.399462,8105.055464,-20784.373079,-24093.079459,-17909.111727,-477.075634,-8059.659071,20579.876969,41342.077117,-11003.853202,-14431.470863,-18087.948035,21.472000,-904.752014,-429.440002,5320.000000,840.000000,-2800.000000
-11918.531289,-4605.264021,11277.706775,-27514.081003,12999.282837,8107.156528,-20779.835675,-24089.525531,-17908.642341,-474.393424,-8056.887455,20581.553350,41343.909960,-11001.260400,-14426.732293,-18083.701203,21.472000,-904.752014,-427.488007,5040.000000,700.000000,-2520.000000
-11918.531289,-4604.302896,11277.147982,-27513.522209,13000.512183,8108.497633,-20778.248701,-24086.619805,-17907.368291,-475.734529,-8060.351975,20581.955681,41342.702966,-10999.695778,-14425.212374,-18081.644843,21.472000,-904.752014,-427.000000,4480.000000,560.000000,-2380.000000
-11914.865603,-4598.960829,11278.869066,-27508.627177,13004.826069,8110.732807,-20774.381849,-24083.132933,-17901.333320,-475.175735,-8063.592978,20586.046050,41341.920655,-10995.806574,-14421.345523,-18077.062735,22.936001,-904.264038,-423.584015,4200.000000,420.000000,-2100.000000
-11915.379693,-4602.872384,11275.940988,-27513.924541,12998.969912,8105.971885,-20782.182608,-24089.793752,-17902.383852,-475.958046,-8065.939911,20582.402716,41339.126687,-11000.835717,-14429.615668,-18083.969424,26.352001,-906.216003,-420.656006,4340.000000,700.000000,-2100.000000
-11921.749940,-4613.042428,11270.263644,-27525.994483,12988.062261,8098.238182,-20794.833695,-24099.695575,-17911.212791,-479.579029,-8067.929216,20574.266681,41336.109201,-11010.379912,-14442.020886,-18094.899427,25.375999,-906.704041,-427.000000,4480.000000,840.000000,-2100.000000
-11921.101740,-4611.701323,11269.101354,-27523.111108,12990.655063,8098.953438,-20790.855085,-24097.616863,-17910.385777,-480.428395,-8067.683347,20574.400791,41333.985786,-11009.619952,-14438.757531,-18091.613721,26.352001,-907.679993,-425.048004,4480.000000,1120.000000,-2100.000000
-11914.798548,-4606.225146,11273.147020,-27518.149020,12993.829011,8099.512231,-20787.412916,-24097.125125,-17904.127288,-472.605285,-8056.798048,20579.519341,41338.746707,-11007.496537,-14434.465997,-18089.579712,28.792000,-902.799988,-425.536011,4760.000000,1400.000000,-2100.000000
-11914.999713,-4608.057989,11275.337490,-27521.770003,12990.900933,8097.902906,-20793.872570,-24103.830648,-17907.256533,-470.772442,-8050.494856,20579.631100,41343.150001,-11009.150566,-14441.707962,-18097.335767,29.768000,-902.312012,-425.536011,4480.000000,1260.000000,-1960.000000
-11913.010408,-4604.437006,11278.444383,-27518.037262,12994.007825,8101.456833,-20791.413878,-24101.394308,-17904.417861,-468.760785,-8049.399620,20583.587358,41345.496934,-11005.708397,-14438.265793,-18095.435869,31.232000,-900.359985,-420.656006,4340.000000,840.000000,-2100.000000
-11913.122167,-4603.274715,11278.980825,-27515.355052,12997.047662,8104.206098,-20787.032936,-24097.683918,-17902.763832,-470.146593,-8053.311176,20584.526132,41345.653396,-11003.316760,-14434.734217,-18091.121982,30.743999,-899.384033,-424.559998,4340.000000,700.000000,-2100.000000
-11911.423434,-4602.782977,11278.556142,-27515.355052,12997.561753,8104.317856,-20786.183570,-24096.722793,-17902.026224,-469.230171,-8054.160542,20584.727297,41345.116954,-11002.579153,-14434.465997,-18088.998567,29.280001,-899.872009,-423.584015,4060.000000,280.000000,-1960.000000
-11912.585725,-4604.392303,11276.522133,-27517.187895,12995.438337,8102.552069,-20787.971710,-24098.399174,-17903.613198,-470.683035,-8057.826228,20583.050917,41342.211228,-11004.233182,-14435.740046,-18089.803230,29.768000,-897.432007,-425.048004,3640.000000,140.000000,-2240.000000
-11916.206708,-4604.884041,11275.002214,-27515.019776,12996.712386,8102.149737,-20785.378907,-24097.572159,-17904.887248,-475.108680,-8065.336414,20582.112143,41339.685481,-11003.629685,-14431.493215,-18087.679814,31.720001,-893.528015,-426.511993,4340.000000,140.000000,-2520.000000
-11917.972495,-4606.292201,11272.677633,-27515.869143,12995.326578,8099.556935,-20785.356556,-24098.957968,-17906.585980,-477.366206,-8067.683347,20579.742858,41336.891513,-11006.557763,-14430.867366,-18087.612759,32.208000,-895.968018,-423.584015,4480.000000,0.000000,-2520.000000
-11916.139652,-4606.292201,11272.722336,-27517.813744,12993.829011,8097.947609,-20787.681137,-24100.254369,-17905.557800,-473.745224,-8061.626024,20579.944024,41337.472658,-11008.435310,-14434.577755,-18090.294968,33.672001,-897.919983,-424.071991,4200.000000,-420.000000,-2660.000000
-11918.441882,-4608.750893,11273.862275,-27519.110145,12993.426680,8100.003970,-20787.815248,-24098.466229,-17909.469355,-473.812279,-8057.535655,20579.228768,41339.752536,-11007.362426,-14436.052970,-18090.697299,35.624001,-894.015991,-425.048004,3360.000000,-1260.000000,-2520.000000
-11914.172699,-4601.732445,11279.941950,-27510.169448,13002.412081,8106.508327,-20777.444038,-24089.793752,-17904.261399,-470.414814,-8054.384059,20586.336623,41345.072251,-10998.689949,-14424.161842,-18081.689546,35.624001,-894.504028,-426.511993,2660.000000,-1400.000000,-2660.000000
-11908.271838,-4593.194079,11285.194610,-27501.698137,13008.581163,8109.503461,-20772.169026,-24089.972566,-17895.566570,-466.816183,-8054.741687,20593.869161,41348.849696,-10993.861973,-14416.852822,-18080.057869,36.112000,-892.064026,-424.559998,2240.000000,-1540.000000,-2660.000000
-11912.742187,-4597.776186,11283.138249,-27506.816686,13005.541325,8109.458758,-20774.761829,-24088.653813,-17900.863934,-469.476041,-8057.714469,20589.957606,41347.195667,-10996.074795,-14422.038427,-18080.437849,33.672001,-895.479980,-427.488007,2100.000000,-1680.000000,-2800.000000
-11917.816033,-4603.319419,11280.232523,-27512.002291,13002.188564,8108.385874,-20778.427515,-24089.279662,-17907.860030,-474.102852,-8062.989481,20585.844885,41343.887609,-10998.377025,-14428.274563,-18081.577788,36.112000,-896.944031,-425.536011,1820.000000,-1960.000000,-2660.000000
-11920.341780,-4605.979276,11276.075098,-27514.148058,13000.176907,8105.681313,-20778.002832,-24089.927863,-17909.067024,-477.947352,-8068.845638,20582.715640,41339.283149,-11000.522792,-14426.911107,-18081.197808,36.600002,-899.872009,-430.903992,700.000000,-2800.000000,-2800.000000
-11923.918059,-4610.650791,11270.978900,-27519.668939,12994.499564,8101.814461,-20783.411954,-24093.593549,-17912.553896,-481.389520,-8071.550199,20577.440629,41335.148076,-11006.133080,-14431.828491,-18085.623453,40.015999,-895.968018,-427.488007,140.000000,-3220.000000,-2940.000000
-11925.370923,-4613.154186,11269.280168,-27522.686425,12990.856229,8098.662865,-20787.167047,-24097.683918,-17914.565553,-482.171831,-8070.253798,20575.652489,41334.477524,-11010.044636,-14435.896508,-18089.244436,40.504002,-893.040039,-425.048004,0.000000,-3360.000000,-3080.000000
-11922.778120,-4609.399093,11273.191723,-27519.154849,12993.627845,8100.451005,-20785.647128,-24097.773325,-17910.810460,-478.416738,-8063.235350,20579.720507,41339.081983,-11006.825984,-14433.907203,-18088.909160,39.040001,-893.040039,-426.024017,980.000000,-3080.000000,-3220.000000
-11921.682885,-4608.393265,11274.845752,-27519.110145,12993.829011,8102.596772,-20785.669480,-24096.208703,-17910.832812,-477.455613,-8060.419030,20580.726335,41341.808896,-11006.110729,-14435.829453,-18090.250264,39.040001,-897.432007,-429.440002,700.000000,-2940.000000,-3220.000000
-11912.362207,-4600.458396,11280.858371,-27511.488201,13001.518011,8107.380045,-20778.494570,-24090.017270,-17902.473259,-469.744261,-8055.434591,20588.013004,41345.988672,-11000.209868,-14428.207508,-18083.924721,40.504002,-897.919983,-429.440002,140.000000,-3640.000000,-3360.000000
-11907.981266,-4596.591544,11284.121726,-27508.448363,13004.557849,8107.670618,-20776.818189,-24090.665470,-17897.511172,-464.983340,-8051.791257,20592.237484,41347.910923,-10998.086452,-14425.055912,-18082.583616,38.063999,-898.895996,-431.391998,-280.000000,-3780.000000,-3360.000000
-11912.451614,-4599.519622,11280.791316,-27510.236503,13002.814412,8106.217755,-20778.740439,-24093.191218,-17900.439251,-470.526573,-8059.055574,20589.175295,41344.535809,-10999.718130,-14426.598183,-18084.327052,40.992001,-895.968018,-433.343994,-560.000000,-3920.000000,-2940.000000
-11913.457443,-4600.391340,11277.550313,-27510.907055,13000.601590,8104.116691,-20779.187474,-24093.750011,-17899.880457,-472.895857,-8064.084716,20586.716603,41340.378385,-11002.467394,-14426.665238,-18084.259997,38.552002,-897.919983,-432.856018,-980.000000,-4060.000000,-2800.000000
-11914.060940,-4599.765491,11278.265569,-27511.018814,12999.975741,8102.440310,-20779.969785,-24096.298110,-17901.109803,-473.991093,-8066.878684,20587.610672,41339.953701,-11003.048540,-14426.911107,-18085.154067,39.040001,-899.384033,-433.343994,-1260.000000,-4060.000000,-2520.000000
-11919.961801,-4604.884041,11275.851581,-27514.259817,12997.897029,8101.412130,-20781.892035,-24097.013366,-17907.703567,-477.545020,-8068.488010,20583.453248,41338.858466,-11004.523755,-14429.056874,-18086.226950,37.088001,-897.919983,-435.295990,-840.000000,-3500.000000,-2520.000000
-11922.085216,-4606.269849,11275.359842,-27513.343395,12998.679340,8101.926220,-20779.902730,-24094.979357,-17909.670521,-478.304980,-8065.358766,20583.073268,41339.417260,-11004.032016,-14428.140453,-18084.639977,36.112000,-894.015991,-434.320007,-560.000000,-3080.000000,-2240.000000
-11922.219327,-4608.281506,11274.175200,-27515.712680,12996.980607,8101.926220,-20780.729745,-24093.593549,-17911.257495,-475.913343,-8057.535655,20581.732164,41340.311329,-11004.680217,-14429.816834,-18086.003433,34.160000,-895.479980,-432.368011,-140.000000,-2800.000000,-1820.000000
-11922.934583,-4608.683837,11275.762174,-27517.701986,12996.511221,8103.580249,-20783.411954,-24094.666433,-17913.023283,-475.890991,-8056.105144,20582.201550,41342.568856,-11004.546106,-14433.281354,-18089.177381,32.208000,-894.015991,-436.760010,-560.000000,-2660.000000,-1400.000000
-11925.057998,-4611.097826,11276.164505,-27522.082927,12993.605494,8102.932048,-20787.636434,-24097.326290,-17915.593733,-477.701482,-8058.116801,20580.659280,41343.954664,-11005.730749,-14438.712828,-18092.328977,29.768000,-892.552002,-438.223999,-420.000000,-2240.000000,-1260.000000
-11925.482681,-4610.919012,11276.253912,-27521.501782,12994.052529,8103.088510,-20786.228274,-24096.678090,-17915.437271,-478.059110,-8060.754306,20580.793390,41342.546504,-11005.328417,-14437.505834,-18090.429078,26.352001,-891.575989,-437.735992,0.000000,-1960.000000,-700.000000
-11925.303867,-4613.444759,11273.079964,-27525.033358,12989.470421,8099.691045,-20792.397355,-24101.908398,-17915.034940,-479.377863,-8065.068193,20578.222940,41339.841943,-11009.888173,-14443.294936,-18095.435869,27.816000,-894.015991,-435.783997,420.000000,-1400.000000,-280.000000
-11920.207670,-4607.566250,11273.929331,-27519.601884,12993.560790,8098.953438,-20788.485800,-24101.818991,-17907.591809,-476.628599,-8066.230484,20581.463943,41339.126687,-11008.837641,-14436.857633,-18092.194866,24.888000,-894.015991,-440.175995,420.000000,-1400.000000,0.000000
-11916.407873,-4603.542936,11274.532828,-27515.824439,12995.393633,8097.992313,-20784.551893,-24102.668357,-17900.595713,-474.393424,-8064.554103,20583.542655,41338.411431,-11008.927048,-14430.889717,-18090.540837,20.984001,-895.968018,-438.223999,700.000000,-980.000000,280.000000
-11916.609039,-4603.207660,11274.555179,-27515.176238,12996.801793,8098.729920,-20781.310890,-24099.539113,-17900.998044,-474.572238,-8061.536617,20583.542655,41338.031451,-11007.630647,-14429.056874,-18088.171552,22.448000,-894.992004,-437.735992,700.000000,-1120.000000,420.000000
-11917.726626,-4605.398131,11275.538656,-27520.406547,12993.158459,8097.344112,-20787.949358,-24103.942407,-17904.797841,-472.270009,-8054.361707,20582.939158,41341.451268,-11010.402263,-14437.550537,-18094.899427,21.472000,-894.992004,-439.688019,700.000000,-1120.000000,700.000000
-11910.507013,-4597.507965,11283.585284,-27511.577608,13002.099157,8102.999103,-20780.886207,-24099.248540,-17898.807573,-465.273913,-8046.851521,20591.924559,41348.760289,-11002.534449,-14428.453377,-18088.350366,20.007999,-892.552002,-440.664001,1120.000000,-980.000000,840.000000
-11906.126071,-4591.294180,11286.647473,-27502.413392,13010.570468,8109.078778,-20769.710335,-24088.765572,-17893.241989,-462.882276,-8047.499722,20596.864295,41349.341434,-10995.203077,-14416.294028,-18077.263901,18.544001,-894.504028,-438.223999,1400.000000,-980.000000,840.000000
-11898.302960,-4585.326265,11291.318988,-27499.105334,13012.582125,8109.615220,-20767.318698,-24089.681994,-17883.764849,-455.282683,-8042.023545,20601.625216,41351.777774,-10993.839621,-14413.947095,-18076.772163,18.544001,-896.455994,-436.760010,2100.000000,-980.000000,840.000000
-11893.229114,-4583.158145,11294.135308,-27499.887645,13012.202145,8107.737673,-20770.514997,-24094.889950,-17878.758058,-450.968796,-8039.676611,20604.642702,41354.862315,-10994.197249,-14416.048159,-18080.303738,17.568001,-897.432007,-442.127991,2380.000000,-1120.000000,700.000000
-11894.011425,-4584.834526,11291.117822,-27501.094639,13010.458709,8105.882478,-20771.386715,-24096.342814,-17879.249797,-452.779287,-8043.029373,20602.027548,41351.263684,-10996.253609,-14416.562249,-18079.879055,15.128000,-895.968018,-443.104004,2520.000000,-1400.000000,700.000000
-11888.579951,-4577.078471,11294.202363,-27491.975128,13017.790081,8107.625915,-20761.797817,-24093.146514,-17873.080715,-449.940616,-8041.688268,20607.056690,41350.906056,-10992.073833,-14405.274618,-18072.190055,19.032000,-895.968018,-440.664001,3220.000000,-1820.000000,700.000000
-11881.896780,-4571.289369,11298.605656,-27487.482427,13020.204070,8106.821252,-20760.501416,-24095.493447,-17866.129323,-442.475133,-8033.932213,20612.599923,41354.862315,-10991.179763,-14401.966560,-18072.614738,18.056000,-894.504028,-443.104004,3500.000000,-2380.000000,560.000000
-11876.308844,-4568.629511,11301.131404,-27487.013040,13019.868793,8105.949534,-20763.161273,-24098.980319,-17861.122532,-434.719078,-8022.644582,20615.528001,41359.466774,-10991.515039,-14404.380549,-18076.660404,17.568001,-895.479980,-441.640015,3920.000000,-2660.000000,420.000000
-11872.017309,-4563.980349,11305.713511,-27480.978069,13025.546137,8110.866917,-20756.321640,-24093.168866,-17857.300384,-430.807523,-8017.548384,20621.026530,41363.959475,-10986.195324,-14398.032653,-18071.273633,17.568001,-895.479980,-443.104004,4200.000000,-2940.000000,280.000000
-11871.726736,-4560.672290,11309.133328,-27476.842997,13029.815320,8115.136101,-20753.013581,-24090.576063,-17856.942756,-431.679241,-8020.498815,20624.356940,41366.217001,-10982.239065,-14395.059871,-18067.898520,19.520000,-899.384033,-443.104004,4480.000000,-3220.000000,140.000000
-11873.000785,-4559.130020,11308.261610,-27474.406657,13032.452826,8117.997124,-20749.102026,-24084.876369,-17857.188625,-434.786133,-8026.533786,20623.775795,41364.138289,-10979.646263,-14391.394185,-18063.696392,17.080000,-898.408020,-444.080017,4900.000000,-3920.000000,0.000000
-11874.453649,-4559.331186,11306.406415,-27472.909090,13034.330372,8119.025304,-20745.458692,-24080.718944,-17857.300384,-437.513046,-8031.674687,20623.351112,41360.562010,-10978.841600,-14388.264941,-18059.360154,19.520000,-898.408020,-442.615997,4620.000000,-3780.000000,-140.000000
-11882.947312,-4568.651863,11300.259686,-27482.632099,13025.277916,8113.102092,-20754.041762,-24086.508046,-17866.509302,-445.269101,-8039.631908,20615.639760,41355.734033,-10986.418842,-14397.339749,-18066.289194,18.544001,-899.384033,-442.615997,4900.000000,-4340.000000,-280.000000
-11889.630483,-4573.233971,11293.509459,-27482.945023,13025.389674,8114.152624,-20750.040799,-24078.796694,-17871.761962,-453.986282,-8049.153751,20609.716548,41348.000329,-10986.865877,-14393.070566,-18060.611851,18.544001,-897.919983,-444.567993,4760.000000,-4480.000000,-420.000000
-11891.083347,-4574.016282,11293.464755,-27485.247253,13022.796872,8111.470415,-20753.818244,-24083.267043,-17872.477218,-454.075689,-8049.466675,20609.448327,41349.073213,-10988.832830,-14395.819830,-18064.568110,20.496000,-898.408020,-443.592010,4760.000000,-4620.000000,-420.000000
-11896.023082,-4579.447756,11292.794203,-27491.997479,13017.611267,8108.117653,-20761.753113,-24091.157209,-17879.182742,-455.349738,-8045.778638,20606.140269,41351.420146,-10992.900848,-14405.989874,-18073.352346,21.472000,-898.895996,-444.567993,4760.000000,-4620.000000,-560.000000
-11902.929771,-4586.935590,11290.179049,-27497.652471,13013.207974,8108.117653,-20766.357573,-24091.604244,-17888.346957,-459.685976,-8043.901091,20601.111126,41351.576609,-10995.672464,-14411.086072,-18077.107439,22.448000,-898.408020,-441.152008,4900.000000,-4760.000000,-560.000000
-11908.495356,-4592.434119,11287.072156,-27502.391041,13009.139956,8108.564688,-20769.553872,-24090.598415,-17895.231294,-465.296264,-8049.176103,20597.110164,41349.699062,-10997.393548,-14415.511717,-18079.454372,22.448000,-897.432007,-441.640015,4620.000000,-4480.000000,-560.000000
-11914.418568,-4597.262096,11283.674691,-27505.855561,13007.463575,8110.062255,-20768.726858,-24084.608148,-17901.087451,-470.526573,-8055.769867,20592.997443,41346.838039,-10997.304141,-14417.478671,-18076.235721,24.888000,-898.408020,-439.688019,4480.000000,-4620.000000,-420.000000
-11917.413702,-4602.402997,11282.624159,-27513.231637,13001.875639,8107.268287,-20776.259396,-24089.972566,-17904.104937,-472.270009,-8057.647414,20590.672861,41347.285074,-11000.433385,-14426.285258,-18082.136581,24.888000,-898.408020,-439.688019,4060.000000,-4480.000000,-420.000000
-11925.013295,-4611.924840,11275.203380,-27524.116936,12992.398500,8102.149737,-20787.792896,-24097.818029,-17911.793937,-480.070767,-8066.968091,20581.732164,41341.674786,-11008.010627,-14438.623421,-18091.099631,21.960001,-898.895996,-436.272003,3920.000000,-4620.000000,-140.000000
-11926.510862,-4613.131835,11271.425935,-27523.647550,12991.996168,8101.434481,-20786.250625,-24095.113468,-17911.883344,-482.887087,-8072.243103,20579.273472,41336.712699,-11009.083511,-14437.103502,-18087.858628,22.936001,-899.872009,-435.783997,3640.000000,-4340.000000,140.000000
-11924.454501,-4611.343695,11273.303482,-27522.753480,12992.398500,8099.311066,-20786.407088,-24098.667395,-17909.916390,-481.098948,-8069.449135,20581.061611,41337.405603,-11009.150566,-14435.628287,-18088.909160,25.375999,-899.872009,-436.272003,3500.000000,-4340.000000,140.000000
-11923.895708,-4612.170710,11273.147020,-27523.446384,12990.610360,8097.299409,-20787.904654,-24103.003633,-17910.184611,-478.439090,-8063.525923,20580.502818,41338.791411,-11011.385740,-14436.924688,-18092.552494,26.840000,-902.799988,-437.735992,2940.000000,-4200.000000,420.000000
-11921.951106,-4610.136701,11276.231560,-27520.093622,12993.717252,8099.579287,-20785.021279,-24101.126087,-17908.776451,-474.616942,-8057.490952,20583.117972,41342.434745,-11008.502365,-14433.862499,-18091.032575,25.864000,-900.848022,-435.783997,2940.000000,-4340.000000,560.000000
-11915.402045,-4602.313590,11284.389947,-27514.125706,13000.422776,8103.334380,-20782.584939,-24101.930750,-17901.333320,-468.134936,-8050.405449,20591.388117,41349.006158,-11003.584981,-14428.967467,-18090.719651,26.840000,-902.312012,-437.735992,3080.000000,-4340.000000,840.000000
-11916.318466,-4599.810195,11285.373424,-27509.007157,13005.317808,8107.514156,-20775.968823,-24096.476924,-17901.266265,-470.772442,-8054.317004,20593.243312,41348.670882,-10999.963999,-14423.156014,-18084.841142,30.256001,-903.776001,-437.248016,3220.000000,-4200.000000,840.000000
-11917.659571,-4600.972486,11282.400642,-27507.643701,13005.742491,8108.899964,-20772.437247,-24091.090154,-17903.210867,-473.499355,-8057.669766,20591.298710,41345.899266,-10998.980522,-14420.026770,-18080.281386,30.743999,-902.312012,-439.200012,3500.000000,-4480.000000,980.000000
-11915.558507,-4602.827680,11281.037185,-27511.935235,13001.406253,8105.278981,-20777.667556,-24094.957005,-17902.003873,-470.191296,-8056.507475,20589.868199,41344.982844,-11002.467394,-14425.167671,-18084.863494,28.792000,-902.312012,-435.295990,4060.000000,-4480.000000,1120.000000
-11915.916135,-4604.928744,11279.830191,-27515.511515,12998.075843,8101.657999,-20783.255492,-24099.784982,-17901.869762,-471.152421,-8060.620196,20588.102411,41343.261760,-11005.641342,-14431.180290,-18089.289139,31.232000,-900.848022,-437.248016,4620.000000,-4620.000000,1260.000000
-11916.877260,-4604.481710,11277.416203,-27516.159715,12996.377110,8098.975789,-20785.110686,-24102.981282,-17900.483954,-473.991093,-8065.559931,20586.873065,41340.244274,-11007.943572,-14433.013133,-18091.636073,30.743999,-897.432007,-434.808014,4760.000000,-4620.000000,1400.000000
-11914.843251,-4600.346637,11279.114935,-27511.868180,12999.752223,8099.668694,-20780.439172,-24101.617825,-17897.242951,-471.778270,-8062.765963,20590.225827,41341.473620,-11005.998970,-14427.693418,-18088.618587,32.208000,-897.432007,-435.295990,5180.000000,-4620.000000,1540.000000
-11917.659571,-4602.358294,11279.494915,-27511.108221,13001.406253,8102.306199,-20776.080582,-24094.979357,-17902.160335,-472.605285,-8058.005042,20588.929425,41342.322986,-11003.562630,-14424.519470,-18083.611796,28.304001,-897.432007,-436.272003,5320.000000,-4340.000000,1680.000000
-11921.906402,-4609.175576,11277.773831,-27517.791393,12997.382939,8102.641476,-20780.841503,-24095.873427,-17910.139908,-474.505183,-8054.384059,20584.749649,41343.708795,-11005.708397,-14430.487386,-18088.149200,27.328001,-893.528015,-433.343994,4900.000000,-3780.000000,1540.000000
-11917.324295,-4603.319419,11281.752441,-27512.270512,13001.942694,8105.815423,-20776.304099,-24094.666433,-17904.999006,-470.727738,-8053.467638,20589.845847,41346.122783,-11002.243877,-14423.625400,-18085.198770,30.256001,-894.504028,-431.391998,4620.000000,-3080.000000,1540.000000
-11918.128958,-4603.766454,11280.254874,-27510.594131,13002.188564,8106.664790,-20773.890111,-24092.677127,-17904.440213,-472.761747,-8057.423896,20589.555274,41344.446402,-11001.573324,-14422.239592,-18082.628320,31.720001,-891.088013,-431.880005,3780.000000,-2520.000000,1540.000000
-11919.492414,-4606.225146,11279.092584,-27516.137363,12998.344064,8103.870821,-20781.243835,-24097.505104,-17904.820192,-475.108680,-8062.095411,20587.856542,41343.105297,-11004.791976,-14430.710903,-18088.305663,32.695999,-893.040039,-430.416016,2380.000000,-1540.000000,1260.000000
-11915.782024,-4603.386474,11280.634854,-27515.243294,12999.372244,8102.753234,-20782.316718,-24099.673223,-17900.036919,-473.208782,-8063.257702,20590.158771,41343.194704,-11004.188478,-14431.292049,-18088.663291,30.743999,-891.575989,-429.928009,980.000000,-1120.000000,980.000000
-11916.609039,-4605.196965,11277.080927,-27516.718509,12996.980607,8099.646342,-20783.926044,-24102.020157,-17900.662768,-473.789927,-8063.771792,20587.521265,41340.087812,-11007.384778,-14432.499043,-18090.227913,29.280001,-892.064026,-432.368011,-140.000000,-140.000000,700.000000
-11919.514766,-4608.616782,11271.403583,-27517.567875,12995.281875,8098.349941,-20782.003794,-24099.069726,-17904.037881,-477.500317,-8065.761097,20582.447419,41333.874027,-11009.619952,-14430.308572,-18087.232779,27.328001,-893.528015,-431.880005,-1400.000000,140.000000,280.000000
-11916.117301,-4606.672180,11275.739822,-27517.769041,12995.751261,8098.059368,-20784.194265,-24101.371956,-17903.121460,-471.867677,-8056.283958,20585.487257,41339.014928,-11009.038807,-14432.834319,-18089.356195,26.840000,-893.040039,-434.320007,-2380.000000,280.000000,140.000000
-11915.357341,-4604.995800,11282.154773,-27516.919675,12998.120546,8101.568592,-20784.574245,-24102.266026,-17903.657902,-468.872543,-8050.852484,20589.778792,41346.279245,-11005.462528,-14434.577755,-18091.189038,26.352001,-891.575989,-430.903992,-4060.000000,420.000000,-280.000000
