Interval=	0.001 s
ExcelDateTime=	4.5725770529008507e+004	3/9/2025 18:29:33.706335
TimeFormat=	StartOfBlock
DateFormat=	
ChannelTitle=	Channel 2	Channel 3	Channel 4	Channel 5	Channel 6	Channel 7
Range=	112.50 mV	112.50 mV	112.50 mV	112.50 mV	112.50 mV	112.50 mV
0	-6.398438	-6.247266	-6.387891	-6.01875	-6.166406	-6.669141
0.001	-6.398438	-6.247266	-6.387891	-6.01875	-6.166406	-6.672656
0.002	-5.269922	-4.918359	-5.182031	-4.746094	-4.935938	-5.283984
0.003	-3.114844	-2.506641	-2.98125	-2.446875	-2.601563	-2.724609
0.004	-0.8683594	-0.0703125	-0.73125	-0.1371094	-0.1546875	-0.1054688
0.005	1.680469	2.636719	1.792969	2.439844	2.583984	2.801953
0.006	4.243359	5.294531	4.289063	4.967578	5.326172	5.688281
0.007	5.994141	7.034766	5.941406	6.619922	7.207031	7.614844
0.008	6.91875	7.850391	6.742969	7.393359	8.15625	8.546484
0.009	7.140234	7.910156	6.8625	7.456641	8.342578	8.669531
0.01	6.391406	6.950391	6.032813	6.549609	7.509375	7.702734
0.011	4.471875	4.760156	4.039453	4.468359	5.403516	5.385938
0.012	2.197266	2.267578	1.747266	2.105859	2.910938	2.7
0.013	-0.2320313	-0.3269531	-0.6644531	-0.3550781	0.2707031	-0.1089844
0.014	-2.921484	-3.15	-3.297656	-3.0375	-2.615625	-3.167578
0.015	-5.023828	-5.291016	-5.315625	-5.069531	-4.890234	-5.523047
0.016	-6.222656	-6.423047	-6.419531	-6.138281	-6.173438	-6.813281
0.017	-6.700781	-6.760547	-6.781641	-6.451172	-6.6375	-7.231641
0.018	-6.321094	-6.201563	-6.310547	-5.923828	-6.191016	-6.686719
0.019	-4.672266	-4.292578	-4.580859	-4.102734	-4.394531	-4.686328
0.02	-2.323828	-1.694531	-2.197266	-1.63125	-1.831641	-1.905469
0.021	0.1054688	0.9246094	0.225	0.8578125	0.8191406	0.9246094
0.022	2.942578	3.919922	3.019922	3.7125	3.867188	4.155469
0.023	5.477344	6.528516	5.473828	6.194531	6.595313	7.006641
0.024	7.062891	8.075391	6.957422	7.660547	8.310938	8.739844
0.025	7.875	8.757422	7.653516	8.307422	9.144141	9.534375
0.026	7.924219	8.637891	7.59375	8.191406	9.144141	9.457031
0.027	6.75	7.238672	6.321094	6.844922	7.857422	7.998047
0.028	4.5	4.721484	4.011328	4.44375	5.407031	5.322656
0.029	2.067188	2.08125	1.571484	1.933594	2.752734	2.478516
0.03	-0.7101563	-0.8648438	-1.170703	-0.8753906	-0.2285156	-0.6890625
0.031	-3.508594	-3.779297	-3.902344	-3.649219	-3.227344	-3.860156
0.032	-5.424609	-5.702344	-5.723438	-5.470313	-5.294531	-6.001172
0.033	-6.46875	-6.655078	-6.648047	-6.363281	-6.387891	-7.083984
0.034	-6.764063	-6.80625	-6.834375	-6.500391	-6.655078	-7.291406
0.035	-5.976563	-5.800781	-5.951953	-5.544141	-5.776172	-6.271875
0.036	-3.874219	-3.410156	-3.782813	-3.276563	-3.498047	-3.761719
0.037	-1.374609	-0.6714844	-1.276172	-0.6855469	-0.7769531	-0.8261719
0.038	1.328906	2.228906	1.40625	2.063672	2.144531	2.288672
0.039	4.355859	5.410547	4.373438	5.087109	5.392969	5.723438
0.04	6.725391	7.825781	6.648047	7.375781	7.955859	8.384766
0.041	8.114063	9.158203	7.93125	8.634375	9.453516	9.882422
0.042	8.729297	9.646875	8.433984	9.098438	10.09336	10.45547
0.043	8.402344	9.133594	8.005078	8.613281	9.724219	9.95625
0.044	6.672656	7.122656	6.1875	6.704297	7.836328	7.864453
0.045	4.141406	4.324219	3.617578	4.046484	5.069531	4.879688
0.046	1.476563	1.455469	0.95625	1.321875	2.179688	1.789453
0.047	-1.638281	-1.842188	-2.116406	-1.814063	-1.160156	-1.747266
0.048	-4.419141	-4.714453	-4.809375	-4.545703	-4.155469	-4.886719
0.049	-6.169922	-6.447656	-6.458203	-6.176953	-6.046875	-6.820313
0.05	-7.0875	-7.249219	-7.259766	-6.936328	-6.999609	-7.744922
0.051	-7.129688	-7.126172	-7.203516	-6.823828	-7.027734	-7.688672
0.052	-5.814844	-5.565234	-5.814844	-5.340234	-5.617969	-6.099609
0.053	-3.332813	-2.794922	-3.283594	-2.703516	-2.925	-3.167578
0.054	-0.6714844	0.08789063	-0.6117188	0.03867188	-0.01757813	-0.05273438
0.055	2.387109	3.357422	2.425781	3.157031	3.287109	3.459375
0.056	5.523047	6.644531	5.498438	6.278906	6.672656	7.020703
0.057	7.720313	8.866406	7.597266	8.38125	9.073828	9.485156
0.058	8.975391	10.03359	8.736328	9.492188	10.42031	10.81406
0.059	9.418359	10.32539	9.063281	9.769922	10.86328	11.19023
0.06	8.648438	9.348047	8.191406	8.824219	10.02656	10.19883
0.061	6.4125	6.823828	5.881641	6.401953	7.614844	7.551563
0.062	3.719531	3.884766	3.171094	3.607031	4.693359	4.405078
0.063	0.7628906	0.7277344	0.2355469	0.6011719	1.515234	1.023047
0.064	-2.622656	-2.837109	-3.090234	-2.791406	-2.105859	-2.805469
0.065	-5.291016	-5.56875	-5.674219	-5.392969	-4.985156	-5.814844
0.066	-6.851953	-7.076953	-7.133203	-6.823828	-6.679688	-7.519922
0.067	-7.586719	-7.681641	-7.7625	-7.407422	-7.449609	-8.233594
0.068	-7.280859	-7.2	-7.372266	-6.946875	-7.112109	-7.780078
0.069	-5.417578	-5.051953	-5.438672	-4.897266	-5.101172	-5.554688
0.07	-2.668359	-2.014453	-2.664844	-2.017969	-2.116406	-2.320313
0.071	0.2355469	1.114453	0.2179688	0.9492188	1.037109	1.044141
0.072	3.663281	4.753125	3.592969	4.405078	4.721484	4.939453
0.073	6.757031	7.966406	6.595313	7.449609	8.068359	8.430469
0.074	8.732813	9.935156	8.458594	9.302344	10.21641	10.62773
0.075	9.801563	10.89492	9.407813	10.20586	11.34844	11.73164
0.076	9.924609	10.85977	9.432422	10.16719	11.47148	11.7668
0.077	8.553516	9.228516	7.969922	8.613281	9.998438	10.11797
0.078	5.860547	6.226172	5.220703	5.748047	7.080469	6.950391
0.079	2.914453	3.044531	2.285156	2.721094	3.884766	3.533203
0.08	-0.478125	-0.5625	-1.06875	-0.7242188	0.2320313	-0.3375
0.081	-3.958594	-4.208203	-4.471875	-4.197656	-3.526172	-4.289063
0.082	-6.4125	-6.700781	-6.820313	-6.556641	-6.205078	-7.055859
0.083	-7.825781	-8.040234	-8.114063	-7.81875	-7.730859	-8.581641
0.084	-8.339063	-8.419922	-8.521875	-8.170313	-8.26875	-9.05625
0.085	-7.5375	-7.396875	-7.628906	-7.2	-7.414453	-8.040234
0.086	-5.129297	-4.672266	-5.146875	-4.605469	-4.833984	-5.192578
0.087	-2.190234	-1.458984	-2.190234	-1.546875	-1.655859	-1.750781
0.088	1.037109	2.007422	1.016016	1.747266	1.824609	1.965234
0.089	4.717969	5.888672	4.640625	5.445703	5.776172	6.148828
0.09	7.628906	8.880469	7.460156	8.293359	8.936719	9.442969
0.091	9.372656	10.57852	9.101953	9.910547	10.8457	11.3625
0.092	10.20234	11.28164	9.815625	10.575	11.72461	12.19219
0.093	9.878906	10.76836	9.39375	10.0793	11.37656	11.72109
0.094	7.864453	8.444531	7.287891	7.860938	9.210938	9.326953
0.095	4.858594	5.129297	4.236328	4.696875	5.948438	5.797266
0.096	1.666406	1.694531	1.054688	1.427344	2.478516	2.098828
0.097	-2.116406	-2.316797	-2.671875	-2.390625	-1.582031	-2.207813
0.098	-5.565234	-5.90625	-6.022266	-5.79375	-5.308594	-6.113672
0.099	-7.780078	-8.128125	-8.121094	-7.892578	-7.734375	-8.595703
0.1	-9	-9.246094	-9.210938	-8.954297	-9.059766	-9.885938
0.101	-9.200391	-9.291797	-9.305859	-8.989453	-9.291797	-10.01602
0.102	-7.787109	-7.611328	-7.794141	-7.372266	-7.794141	-8.321484
0.103	-4.925391	-4.426172	-4.876172	-4.33125	-4.717969	-4.971094
0.104	-1.796484	-1.040625	-1.747266	-1.107422	-1.321875	-1.328906
0.105	1.835156	2.837109	1.852734	2.583984	2.594531	2.819531
0.106	5.603906	6.785156	5.540625	6.342188	6.651563	7.080469
0.107	8.272266	9.499219	8.1	8.915625	9.555469	10.07578
0.108	9.812109	10.96523	9.523828	10.3043	11.21836	11.73164
0.109	10.38164	11.39766	9.980859	10.70508	11.82305	12.25898
0.11	9.551953	10.33594	9.052734	9.689063	10.94063	11.21133
0.111	7.024219	7.470703	6.454688	6.960938	8.226563	8.237109
0.112	3.905859	4.071094	3.336328	3.733594	4.848047	4.601953
0.113	0.4148438	0.3339844	-0.1195313	0.1828125	1.072266	0.5941406
0.114	-3.547266	-3.846094	-4.014844	-3.796875	-3.192188	-3.912891
0.115	-6.651563	-7.045313	-7.017188	-6.830859	-6.574219	-7.442578
0.116	-8.507813	-8.869922	-8.757422	-8.557031	-8.609766	-9.509766
0.117	-9.418359	-9.653906	-9.537891	-9.302344	-9.580078	-10.43789
0.118	-9.140625	-9.182813	-9.147656	-8.841797	-9.288281	-10.02305
0.119	-7.069922	-6.799219	-6.985547	-6.556641	-7.091016	-7.572656
0.12	-3.948047	-3.357422	-3.828516	-3.280078	-3.726563	-3.923438
0.121	-0.6503906	0.1828125	-0.5484375	0.084375	-0.1511719	-0.1160156
0.122	3.237891	4.317188	3.294141	4.018359	4.035938	4.313672
0.123	6.788672	8.015625	6.753516	7.526953	7.882031	8.339063
0.124	9.073828	10.30781	8.929688	9.696094	10.38516	10.89844
0.125	10.32188	11.45391	10.05469	10.78242	11.73164	12.2168
0.126	10.51523	11.48555	10.14961	10.81055	11.94609	12.3293
0.127	9.063281	9.759375	8.616797	9.165234	10.40625	10.57852
0.128	6.127734	6.486328	5.635547	6.046875	7.238672	7.133203
0.129	2.903906	3.002344	2.422266	2.735156	3.740625	3.385547
0.13	-0.7980469	-0.9386719	-1.2375	-1.019531	-0.2390625	-0.8507813
0.131	-4.6125	-4.942969	-4.971094	-4.826953	-4.352344	-5.189063
0.132	-7.305469	-7.685156	-7.551563	-7.425	-7.298438	-8.230078
0.133	-8.841797	-9.151172	-8.968359	-8.810156	-8.971875	-9.9
0.134	-9.386719	-9.555469	-9.407813	-9.196875	-9.566016	-10.4168
0.135	-8.521875	-8.469141	-8.451563	-8.149219	-8.666016	-9.348047
0.136	-5.930859	-5.540625	-5.783203	-5.350781	-5.888672	-6.3
0.137	-2.735156	-2.053125	-2.569922	-2.028516	-2.41875	-2.569922
0.138	0.7382813	1.662891	0.8789063	1.508203	1.335938	1.427344
0.139	4.675781	5.814844	4.756641	5.463281	5.56875	5.902734
0.14	7.808203	9.045703	7.797656	8.535938	8.982422	9.457031
0.141	9.692578	10.89492	9.569531	10.29375	11.04258	11.5418
0.142	10.60313	11.67891	10.36758	11.03906	12.01289	12.46641
0.143	10.32188	11.2043	9.987891	10.57852	11.71406	12.04102
0.144	8.261719	8.83125	7.850391	8.314453	9.513281	9.601172
0.145	5.132813	5.382422	4.696875	5.034375	6.127734	5.944922
0.146	1.828125	1.828125	1.413281	1.655859	2.538281	2.126953
0.147	-2.032031	-2.264063	-2.394141	-2.246484	-1.620703	-2.271094
0.148	-5.530078	-5.90625	-5.797266	-5.705859	-5.421094	-6.250781
0.149	-7.769531	-8.152734	-7.927734	-7.829297	-7.882031	-8.771484
0.15	-8.978906	-9.263672	-9.017578	-8.883984	-9.196875	-10.0582
0.151	-9.161719	-9.288281	-9.091406	-8.898047	-9.400781	-10.1707
0.152	-7.734375	-7.597266	-7.572656	-7.277344	-7.892578	-8.465625
0.153	-4.844531	-4.373438	-4.630078	-4.204688	-4.784766	-5.080078
0.154	-1.6875	-0.9597656	-1.483594	-0.9597656	-1.367578	-1.413281
0.155	1.919531	2.886328	2.091797	2.703516	2.517188	2.714063
0.156	5.653125	6.802734	5.755078	6.430078	6.546094	6.953906
0.157	8.279297	9.478125	8.282813	8.968359	9.421875	9.917578
0.158	9.783984	10.90547	9.671484	10.31836	11.05313	11.53477
0.159	10.32188	11.29219	10.09688	10.6875	11.61914	12.02695
0.16	9.513281	10.24805	9.196875	9.696094	10.74375	11.00039
0.161	7.024219	7.428516	6.626953	7.003125	8.057813	8.057813
0.162	3.877734	3.99375	3.462891	3.733594	4.633594	4.383984
0.163	0.4640625	0.3375	0.084375	0.2566406	0.9351563	0.4605469
0.164	-3.360938	-3.694922	-3.659766	-3.571875	-3.174609	-3.88125
0.165	-6.391406	-6.816797	-6.58125	-6.525	-6.472266	-7.316016
0.166	-8.187891	-8.578125	-8.258203	-8.184375	-8.4375	-9.305859
0.167	-9.042188	-9.302344	-8.989453	-8.869922	-9.351563	-10.16719
0.168	-8.739844	-8.806641	-8.581641	-8.395313	-9.042188	-9.724219
0.169	-6.725391	-6.489844	-6.482813	-6.183984	-6.897656	-7.340625
0.17	-3.698438	-3.157031	-3.427734	-3.012891	-3.631641	-3.800391
0.171	-0.5308594	0.2425781	-0.2777344	0.2214844	-0.2003906	-0.1335938
0.172	3.164063	4.1625	3.371484	3.962109	3.772266	4.081641
0.173	6.532031	7.664063	6.655078	7.294922	7.421484	7.903125
0.174	8.690625	9.822656	8.708203	9.3375	9.783984	10.30781
0.175	9.84375	10.8668	9.738281	10.32188	11.01797	11.50313
0.176	10.00547	10.8668	9.801563	10.31484	11.1832	11.57695
0.177	8.644922	9.242578	8.353125	8.760938	9.720703	9.935156
0.178	5.860547	6.13125	5.5125	5.800781	6.711328	6.665625
0.179	2.8125	2.823047	2.467969	2.661328	3.389063	3.114844
0.18	-0.646875	-0.871875	-0.95625	-0.8542969	-0.3515625	-0.8507813
0.181	-4.243359	-4.640625	-4.471875	-4.436719	-4.236328	-4.939453
0.182	-6.771094	-7.214063	-6.897656	-6.876563	-7.010156	-7.797656
0.183	-8.194922	-8.567578	-8.205469	-8.152734	-8.564063	-9.3375
0.184	-8.697656	-8.940234	-8.599219	-8.497266	-9.108984	-9.815625
0.185	-7.913672	-7.938281	-7.723828	-7.541016	-8.286328	-8.838281
0.186	-5.526563	-5.238281	-5.255859	-4.953516	-5.726953	-6.01875
0.187	-2.5875	-2.028516	-2.285156	-1.880859	-2.538281	-2.562891
0.188	0.5589844	1.335938	0.8578125	1.342969	0.871875	1.072266
0.189	4.137891	5.097656	4.391016	4.95	4.732031	5.146875
0.19	6.996094	8.036719	7.161328	7.741406	7.839844	8.384766
0.191	8.694141	9.678516	8.736328	9.291797	9.667969	10.23398
0.192	9.485156	10.32539	9.404297	9.903516	10.46953	11.00391
0.193	9.175781	9.822656	9	9.428906	10.125	10.54336
0.194	7.249219	7.597266	6.992578	7.308984	8.050781	8.240625
0.195	4.341797	4.380469	4.046484	4.250391	4.872656	4.816406
0.196	1.304297	1.096875	1.023047	1.142578	1.543359	1.283203
0.197	-2.239453	-2.675391	-2.471484	-2.436328	-2.278125	-2.763281
0.198	-5.487891	-6.057422	-5.628516	-5.639063	-5.786719	-6.447656
0.199	-7.548047	-8.124609	-7.590234	-7.586719	-8.040234	-8.750391
0.2	-8.641406	-9.123047	-8.578125	-8.528906	-9.225	-9.896484
0.201	-8.803125	-9.137109	-8.644922	-8.535938	-9.397266	-9.973828
0.202	-7.526953	-7.607813	-7.287891	-7.076953	-8.036719	-8.426953
0.203	-4.904297	-4.682813	-4.616016	-4.282031	-5.217188	-5.34375
0.204	-2.039063	-1.585547	-1.761328	-1.339453	-2.116406	-2.014453
0.205	1.202344	1.85625	1.441406	1.944141	1.357031	1.683984
0.206	4.577344	5.382422	4.749609	5.305078	4.978125	5.494922
0.207	6.953906	7.780078	7.027734	7.586719	7.555078	8.152734
0.208	8.275781	9.014063	8.230078	8.750391	8.971875	9.555469
0.209	8.757422	9.341016	8.599219	9.063281	9.457031	9.977344
0.21	8.029688	8.388281	7.783594	8.159766	8.651953	9.042188
0.211	5.688281	5.733984	5.375391	5.632031	6.120703	6.271875
0.212	2.780859	2.555859	2.453906	2.612109	2.946094	2.858203
0.213	-0.2671875	-0.7171875	-0.5730469	-0.4921875	-0.3726563	-0.6714844
0.214	-3.705469	-4.345313	-3.948047	-3.9375	-4.074609	-4.587891
0.215	-6.437109	-7.157813	-6.584766	-6.598828	-7.048828	-7.685156
0.216	-8.040234	-8.71875	-8.075391	-8.071875	-8.799609	-9.45
0.217	-8.778516	-9.330469	-8.701172	-8.655469	-9.583594	-10.18125
0.218	-8.504297	-8.876953	-8.339063	-8.226563	-9.284766	-9.769922
0.219	-6.714844	-6.809766	-6.46875	-6.250781	-7.361719	-7.635938
0.22	-3.986719	-3.796875	-3.705469	-3.378516	-4.398047	-4.429688
0.221	-1.149609	-0.7488281	-0.8824219	-0.4816406	-1.321875	-1.149609
0.222	2.130469	2.721094	2.351953	2.823047	2.197266	2.580469
0.223	5.136328	5.835938	5.273438	5.786719	5.435156	5.973047
0.224	7.038281	7.720313	7.069922	7.572656	7.498828	8.078906
0.225	8.029688	8.585156	7.934766	8.391797	8.535938	9.091406
0.226	8.152734	8.539453	7.948828	8.342578	8.644922	9.108984
0.227	6.936328	7.080469	6.644531	6.943359	7.326563	7.611328
0.228	4.44375	4.289063	4.085156	4.282031	4.619531	4.665234
0.229	1.722656	1.325391	1.35	1.4625	1.648828	1.476563
0.23	-1.314844	-1.919531	-1.666406	-1.620703	-1.63125	-2.017969
0.231	-4.475391	-5.23125	-4.756641	-4.767188	-5.037891	-5.614453
0.232	-6.697266	-7.48125	-6.883594	-6.901172	-7.456641	-8.117578
0.233	-7.913672	-8.613281	-7.976953	-7.966406	-8.757422	-9.400781
0.234	-8.321484	-8.873438	-8.261719	-8.198438	-9.165234	-9.734766
0.235	-7.611328	-7.952344	-7.456641	-7.323047	-8.384766	-8.820703
0.236	-5.459766	-5.505469	-5.248828	-5.00625	-6.060938	-6.268359
0.237	-2.791406	-2.576953	-2.573438	-2.242969	-3.164063	-3.139453
0.238	0.003515625	0.4113281	0.2039063	0.6011719	-0.1335938	0.084375
0.239	3.142969	3.7125	3.301172	3.754688	3.248438	3.659766
0.24	5.68125	6.314063	5.748047	6.222656	6.001172	6.517969
0.241	7.182422	7.751953	7.122656	7.569141	7.611328	8.135156
0.242	7.857422	8.282813	7.664063	8.064844	8.289844	8.764453
0.243	7.590234	7.836328	7.298438	7.639453	7.980469	8.346094
0.244	5.944922	5.930859	5.572266	5.814844	6.201563	6.373828
0.245	3.424219	3.132422	3.002344	3.142969	3.445313	3.392578
0.246	0.8085938	0.3128906	0.3867188	0.4605469	0.5800781	0.3445313
0.247	-2.19375	-2.865234	-2.569922	-2.562891	-2.640234	-3.076172
0.248	-4.946484	-5.719922	-5.245313	-5.273438	-5.603906	-6.191016
0.249	-6.676172	-7.428516	-6.880078	-6.894141	-7.484766	-8.114063
0.25	-7.541016	-8.173828	-7.628906	-7.600781	-8.395313	-8.996484
0.251	-7.607813	-8.075391	-7.597266	-7.512891	-8.430469	-8.950781
0.252	-6.465234	-6.704297	-6.377344	-6.205078	-7.182422	-7.5375
0.253	-4.155469	-4.120313	-4.011328	-3.740625	-4.682813	-4.795313
0.254	-1.659375	-1.40625	-1.504688	-1.163672	-1.961719	-1.863281
0.255	1.100391	1.529297	1.223438	1.624219	1.016016	1.297266
0.256	3.965625	4.517578	4.021875	4.464844	4.085156	4.538672
0.257	5.976563	6.539063	5.937891	6.384375	6.247266	6.778125
0.258	7.080469	7.551563	6.925781	7.337109	7.410938	7.917188
0.259	7.442578	7.766016	7.182422	7.5375	7.7625	8.194922
0.26	6.760547	6.880078	6.4125	6.686719	7.003125	7.3125
0.261	4.777734	4.616016	4.352344	4.528125	4.8375	4.942969
0.262	2.337891	1.933594	1.887891	1.979297	2.162109	2.063672
0.263	-0.225	-0.815625	-0.6539063	-0.6222656	-0.6222656	-0.9
0.264	-3.104297	-3.846094	-3.480469	-3.501563	-3.719531	-4.173047
0.265	-5.403516	-6.201563	-5.695313	-5.733984	-6.212109	-6.771094
0.266	-6.721875	-7.460156	-6.904688	-6.922266	-7.628906	-8.201953
0.267	-7.287891	-7.889063	-7.351172	-7.323047	-8.191406	-8.725781
0.268	-7.020703	-7.449609	-6.982031	-6.901172	-7.871484	-8.303906
0.269	-5.491406	-5.670703	-5.371875	-5.199609	-6.205078	-6.447656
0.27	-3.146484	-3.069141	-2.991797	-2.731641	-3.652734	-3.677344
0.271	-0.7417969	-0.4710938	-0.5941406	-0.2671875	-1.037109	-0.8753906
0.272	1.996875	2.429297	2.109375	2.496094	1.908984	2.25
0.273	4.531641	5.048438	4.566797	4.981641	4.637109	5.108203
0.274	6.13125	6.616406	6.067969	6.46875	6.370313	6.869531
0.275	6.915234	7.287891	6.746484	7.105078	7.189453	7.653516
0.276	6.978516	7.189453	6.707813	7.013672	7.203516	7.59375
0.277	5.937891	5.916797	5.572266	5.804297	6.036328	6.278906
0.278	3.786328	3.501563	3.364453	3.498047	3.684375	3.716016
0.279	1.434375	0.9421875	1.005469	1.06875	1.121484	0.9667969
0.28	-1.149609	-1.810547	-1.553906	-1.550391	-1.666406	-1.993359
0.281	-3.821484	-4.601953	-4.169531	-4.201172	-4.542188	-5.030859
0.282	-5.695313	-6.486328	-5.9625	-5.994141	-6.574219	-7.136719
0.283	-6.690234	-7.382813	-6.851953	-6.855469	-7.614844	-8.173828
0.284	-6.971484	-7.505859	-7.03125	-6.985547	-7.860938	-8.363672
0.285	-6.317578	-6.658594	-6.3	-6.183984	-7.140234	-7.509375
0.286	-4.450781	-4.528125	-4.362891	-4.148438	-5.115234	-5.280469
0.287	-2.133984	-1.979297	-2.021484	-1.729688	-2.576953	-2.548828
0.288	0.28125	0.6117188	0.3761719	0.73125	0.05625	0.2496094
0.289	3.009375	3.476953	3.048047	3.448828	2.98125	3.343359
0.29	5.213672	5.723438	5.164453	5.575781	5.354297	5.807813
0.291	6.486328	6.932813	6.331641	6.718359	6.711328	7.168359
0.292	7.034766	7.347656	6.764063	7.108594	7.263281	7.664063
0.293	6.830859	6.971484	6.451172	6.739453	6.996094	7.298438
0.294	5.445703	5.347266	4.971094	5.178516	5.477344	5.593359
0.295	3.230859	2.882813	2.707031	2.830078	3.055078	2.963672
0.296	0.9210938	0.3902344	0.39375	0.4535156	0.5273438	0.2671875
0.297	-1.715625	-2.401172	-2.207813	-2.204297	-2.30625	-2.742188
0.298	-4.151953	-4.911328	-4.563281	-4.587891	-4.914844	-5.480859
0.299	-5.663672	-6.394922	-5.987109	-5.994141	-6.549609	-7.136719
0.3	-6.405469	-7.017188	-6.616406	-6.58125	-7.308984	-7.860938
0.301	-6.451172	-6.904688	-6.553125	-6.46875	-7.301953	-7.783594
0.302	-5.428125	-5.653125	-5.442188	-5.280469	-6.162891	-6.489844
0.303	-3.350391	-3.301172	-3.297656	-3.048047	-3.888281	-3.997266
0.304	-1.096875	-0.8367188	-1.023047	-0.7066406	-1.413281	-1.335938
0.305	1.381641	1.796484	1.437891	1.803516	1.272656	1.522266
0.306	3.986719	4.5	3.976172	4.373438	4.057031	4.450781
0.307	5.839453	6.359766	5.7375	6.138281	6.046875	6.496875
0.308	6.837891	7.266797	6.623438	6.996094	7.091016	7.526953
0.309	7.115625	7.382813	6.795703	7.115625	7.340625	7.709766
0.31	6.496875	6.567188	6.085547	6.338672	6.633984	6.883594
0.311	4.717969	4.535156	4.232813	4.398047	4.686328	4.742578
0.312	2.475	2.063672	1.961719	2.053125	2.221875	2.091797
0.313	0.1230469	-0.4570313	-0.3726563	-0.3339844	-0.3199219	-0.6152344
0.314	-2.517188	-3.234375	-2.956641	-2.967188	-3.142969	-3.607031
0.315	-4.644141	-5.403516	-4.995703	-5.020313	-5.435156	-5.990625
0.316	-5.857031	-6.560156	-6.106641	-6.110156	-6.742969	-7.294922
0.317	-6.366797	-6.943359	-6.510938	-6.46875	-7.259766	-7.758984
0.318	-6.134766	-6.542578	-6.180469	-6.078516	-6.957422	-7.36875
0.319	-4.746094	-4.904297	-4.696875	-4.514063	-5.414063	-5.653125
0.32	-2.580469	-2.492578	-2.485547	-2.218359	-3.044531	-3.072656
0.321	-0.3726563	-0.1089844	-0.2671875	0.05273438	-0.6328125	-0.4851563
0.322	2.151563	2.555859	2.232422	2.601563	2.08125	2.404688
0.323	4.503516	4.981641	4.528125	4.911328	4.608984	5.066016
0.324	5.990625	6.433594	5.927344	6.296484	6.201563	6.690234
0.325	6.721875	7.034766	6.546094	6.876563	6.936328	7.393359
0.326	6.767578	6.91875	6.500391	6.774609	6.936328	7.3125
0.327	5.800781	5.733984	5.452734	5.653125	5.857031	6.089063
0.328	3.786328	3.452344	3.378516	3.491016	3.645703	3.673828
0.329	1.567969	1.033594	1.149609	1.198828	1.216406	1.058203
0.33	-0.8472656	-1.539844	-1.233984	-1.241016	-1.392188	-1.715625
0.331	-3.353906	-4.1625	-3.684375	-3.726563	-4.088672	-4.559766
0.332	-5.139844	-5.9625	-5.375391	-5.410547	-6.015234	-6.556641
0.333	-6.085547	-6.827344	-6.205078	-6.208594	-7.003125	-7.530469
0.334	-6.366797	-6.971484	-6.373828	-6.331641	-7.252734	-7.716797
0.335	-5.797266	-6.208594	-5.702344	-5.596875	-6.595313	-6.932813
0.336	-4.078125	-4.232813	-3.895313	-3.705469	-4.700391	-4.8375
0.337	-1.9125	-1.842188	-1.6875	-1.420313	-2.316797	-2.253516
0.338	0.3339844	0.5695313	0.5554688	0.8753906	0.1195313	0.3445313
0.339	2.872266	3.234375	3.055078	3.413672	2.830078	3.220313
0.34	4.95	5.354297	5.0625	5.431641	5.058984	5.544141
0.341	6.159375	6.496875	6.169922	6.514453	6.345703	6.834375
0.342	6.686719	6.883594	6.58125	6.876563	6.855469	7.294922
0.343	6.475781	6.507422	6.278906	6.517969	6.588281	6.925781
0.344	5.132813	4.918359	4.858594	5.016797	5.115234	5.273438
0.345	3.005859	2.541797	2.685938	2.763281	2.787891	2.731641
0.346	0.8121094	0.16875	0.4921875	0.5097656	0.39375	0.1652344
0.347	-1.669922	-2.443359	-1.951172	-1.979297	-2.267578	-2.657813
0.348	-3.976172	-4.816406	-4.176563	-4.225781	-4.725	-5.241797
0.349	-5.428125	-6.24375	-5.530078	-5.565234	-6.268359	-6.827344
0.35	-6.117188	-6.813281	-6.113672	-6.110156	-6.971484	-7.509375
0.351	-6.138281	-6.669141	-6.043359	-5.990625	-6.953906	-7.417969
0.352	-5.182031	-5.494922	-5.00625	-4.879688	-5.892188	-6.212109
0.353	-3.209766	-3.2625	-2.970703	-2.759766	-3.730078	-3.853125
0.354	-1.054688	-0.9105469	-0.8085938	-0.5308594	-1.364063	-1.314844
0.355	1.283203	1.585547	1.51875	1.838672	1.174219	1.381641
0.356	3.765234	4.169531	3.944531	4.299609	3.835547	4.187109
0.357	5.551172	5.9625	5.646094	6.001172	5.765625	6.169922
0.358	6.486328	6.802734	6.465234	6.788672	6.75	7.129688
0.359	6.760547	6.925781	6.633984	6.908203	6.996094	7.305469
0.36	6.219141	6.198047	6.015234	6.222656	6.377344	6.574219
0.361	4.545703	4.271484	4.275	4.398047	4.549219	4.55625
0.362	2.397656	1.905469	2.102344	2.151563	2.197266	2.021484
0.363	0.1722656	-0.4746094	-0.1054688	-0.1089844	-0.2179688	-0.5449219
0.364	-2.316797	-3.083203	-2.555859	-2.605078	-2.886328	-3.367969
0.365	-4.345313	-5.143359	-4.507031	-4.570313	-5.066016	-5.639063
0.366	-5.516016	-6.24375	-5.565234	-5.603906	-6.303516	-6.880078
0.367	-6.001172	-6.591797	-5.934375	-5.930859	-6.771094	-7.305469
0.368	-5.769141	-6.183984	-5.607422	-5.554688	-6.472266	-6.91875
0.369	-4.429688	-4.6125	-4.194141	-4.064063	-4.999219	-5.273438
0.37	-2.334375	-2.274609	-2.056641	-1.842188	-2.7	-2.766797
0.371	-0.196875	0.03867188	0.08085938	0.3515625	-0.3550781	-0.253125
0.372	2.225391	2.612109	2.471484	2.791406	2.25	2.517188
0.373	4.507031	4.960547	4.679297	5.016797	4.686328	5.080078
0.374	5.958984	6.384375	6.029297	6.359766	6.236719	6.665625
0.375	6.672656	6.982031	6.619922	6.915234	6.953906	7.354688
0.376	6.735938	6.887109	6.577734	6.816797	6.960938	7.287891
0.377	5.835938	5.779688	5.582813	5.755078	5.948438	6.134766
0.378	3.919922	3.607031	3.592969	3.680859	3.839063	3.835547
0.379	1.789453	1.279688	1.441406	1.469531	1.497656	1.321875
0.38	-0.5203125	-1.184766	-0.8542969	-0.871875	-1.008984	-1.342969
0.381	-2.956641	-3.726563	-3.234375	-3.283594	-3.621094	-4.092188
0.382	-4.700391	-5.473828	-4.89375	-4.939453	-5.494922	-6.029297
0.383	-5.625	-6.296484	-5.712891	-5.719922	-6.458203	-6.975
0.384	-5.899219	-6.426563	-5.888672	-5.85	-6.690234	-7.154297
0.385	-5.361328	-5.705859	-5.262891	-5.167969	-6.067969	-6.419531
0.386	-3.705469	-3.800391	-3.533203	-3.357422	-4.264453	-4.419141
0.387	-1.592578	-1.466016	-1.40625	-1.160156	-1.951172	-1.919531
0.388	0.5695313	0.8613281	0.7417969	1.040625	0.4113281	0.6011719
0.389	3.009375	3.43125	3.146484	3.480469	3.033984	3.385547
0.39	5.023828	5.484375	5.083594	5.428125	5.192578	5.639063
0.391	6.198047	6.588281	6.152344	6.472266	6.430078	6.880078
0.392	6.690234	6.932813	6.535547	6.80625	6.894141	7.298438
0.393	6.479297	6.549609	6.233203	6.447656	6.612891	6.925781
0.394	5.199609	5.041406	4.876172	5.009766	5.203125	5.354297
0.395	3.15	2.749219	2.773828	2.826563	2.953125	2.910938
0.396	1.030078	0.4570313	0.646875	0.646875	0.6257813	0.421875
0.397	-1.357031	-2.070703	-1.719141	-1.761328	-1.944141	-2.30625
0.398	-3.603516	-4.391016	-3.902344	-3.969141	-4.338281	-4.830469
0.399	-5.027344	-5.783203	-5.238281	-5.291016	-5.860547	-6.394922
0.4	-5.712891	-6.342188	-5.818359	-5.828906	-6.567188	-7.066406
0.401	-5.762109	-6.233203	-5.758594	-5.719922	-6.563672	-6.982031
0.402	-4.876172	-5.143359	-4.774219	-4.66875	-5.565234	-5.839453
0.403	-2.991797	-3.016406	-2.826563	-2.636719	-3.501563	-3.578906
0.404	-0.9105469	-0.7382813	-0.7382813	-0.4851563	-1.223438	-1.128516
0.405	1.353516	1.669922	1.494141	1.796484	1.216406	1.473047
0.406	3.758203	4.169531	3.839063	4.169531	3.786328	4.183594
0.407	5.449219	5.857031	5.45625	5.783203	5.610938	6.060938
0.408	6.321094	6.633984	6.236719	6.532031	6.521484	6.953906
0.409	6.602344	6.760547	6.419531	6.665625	6.760547	7.14375
0.41	6.103125	6.078516	5.832422	6.022266	6.169922	6.451172
0.411	4.496484	4.21875	4.148438	4.253906	4.394531	4.496484
0.412	2.41875	1.9125	2.035547	2.074219	2.095313	2.010938
0.413	0.2707031	-0.3902344	-0.0984375	-0.1089844	-0.2566406	-0.4992188
0.414	-2.148047	-2.928516	-2.464453	-2.520703	-2.844141	-3.241406
0.415	-4.134375	-4.953516	-4.369922	-4.436719	-4.964063	-5.459766
0.416	-5.283984	-6.032813	-5.410547	-5.459766	-6.162891	-6.676172
0.417	-5.758594	-6.370313	-5.776172	-5.776172	-6.609375	-7.0875
0.418	-5.540625	-5.987109	-5.473828	-5.417578	-6.324609	-6.714844
0.419	-4.267969	-4.485938	-4.123828	-3.99375	-4.928906	-5.146875
0.42	-2.25	-2.228906	-2.049609	-1.842188	-2.724609	-2.735156
0.421	-0.1933594	0	0.0140625	0.2742188	-0.4675781	-0.3128906
0.422	2.141016	2.475	2.320313	2.622656	2.046094	2.358984
0.423	4.366406	4.774219	4.471875	4.795313	4.433203	4.862109
0.424	5.79375	6.169922	5.800781	6.110156	5.9625	6.416016
0.425	6.489844	6.742969	6.377344	6.648047	6.662109	7.083984
0.426	6.556641	6.655078	6.345703	6.563672	6.676172	7.03125
0.427	5.702344	5.600391	5.403516	5.554688	5.709375	5.934375
0.428	3.853125	3.498047	3.483984	3.547266	3.673828	3.694922
0.429	1.796484	1.2375	1.399219	1.402734	1.40625	1.262109
0.43	-0.4183594	-1.125	-0.8015625	-0.8402344	-0.9949219	-1.290234
0.431	-2.752734	-3.547266	-3.086719	-3.153516	-3.494531	-3.926953
0.432	-4.426172	-5.227734	-4.686328	-4.753125	-5.291016	-5.783203
0.433	-5.305078	-6.011719	-5.466797	-5.505469	-6.198047	-6.686719
0.434	-5.554688	-6.110156	-5.621484	-5.607422	-6.401953	-6.844922
0.435	-5.027344	-5.4	-5.013281	-4.939453	-5.790234	-6.117188
0.436	-3.434766	-3.561328	-3.339844	-3.188672	-4.035938	-4.169531
0.437	-1.40625	-1.314844	-1.269141	-1.044141	-1.785938	-1.736719
0.438	0.6714844	0.9175781	0.815625	1.086328	0.4886719	0.6925781
0.439	3.0375	3.406641	3.139453	3.452344	3.023438	3.385547
0.44	5.009766	5.410547	5.027344	5.354297	5.139844	5.589844
0.441	6.152344	6.489844	6.064453	6.370313	6.35625	6.809766
0.442	6.648047	6.844922	6.433594	6.697266	6.820313	7.235156
0.443	6.465234	6.493359	6.141797	6.35625	6.556641	6.887109
0.444	5.245313	5.048438	4.823438	4.967578	5.192578	5.357813
0.445	3.244922	2.808984	2.766797	2.840625	2.988281	2.967188
0.446	1.167188	0.5589844	0.6890625	0.7066406	0.7207031	0.5414063
0.447	-1.167188	-1.901953	-1.610156	-1.638281	-1.778906	-2.119922
0.448	-3.371484	-4.169531	-3.751172	-3.793359	-4.134375	-4.598438
0.449	-4.770703	-5.544141	-5.076563	-5.101172	-5.635547	-6.141797
0.45	-5.452734	-6.096094	-5.660156	-5.639063	-6.314063	-6.792188
0.451	-5.508984	-5.994141	-5.625	-5.551172	-6.314063	-6.718359
0.452	-4.654688	-4.939453	-4.689844	-4.545703	-5.354297	-5.625
0.453	-2.826563	-2.861719	-2.798438	-2.569922	-3.346875	-3.420703
0.454	-0.7980469	-0.6398438	-0.759375	-0.4675781	-1.117969	-1.019531
0.455	1.402734	1.705078	1.409766	1.750781	1.269141	1.51875
0.456	3.716016	4.116797	3.659766	4.025391	3.744141	4.130859
0.457	5.378906	5.783203	5.238281	5.596875	5.526563	5.973047
0.458	6.282422	6.598828	6.032813	6.359766	6.465234	6.890625
0.459	6.577734	6.742969	6.212109	6.493359	6.718359	7.083984
0.46	6.096094	6.082031	5.635547	5.860547	6.159375	6.416016
0.461	4.542188	4.285547	3.990234	4.141406	4.440234	4.521094
0.462	2.506641	2.035547	1.908984	1.993359	2.190234	2.098828
0.463	0.3972656	-0.225	-0.1863281	-0.1476563	-0.1019531	-0.3410156
0.464	-1.979297	-2.724609	-2.524219	-2.524219	-2.647266	-3.048047
0.465	-3.958594	-4.735547	-4.426172	-4.429688	-4.753125	-5.255859
0.466	-5.097656	-5.797266	-5.473828	-5.449219	-5.948438	-6.465234
0.467	-5.56875	-6.127734	-5.85	-5.779688	-6.387891	-6.880078
0.468	-5.371875	-5.769141	-5.56875	-5.445703	-6.117188	-6.521484
0.469	-4.151953	-4.327734	-4.260938	-4.071094	-4.760156	-4.999219
0.47	-2.176172	-2.109375	-2.239453	-1.965234	-2.5875	-2.626172
0.471	-0.1511719	0.09140625	-0.2144531	0.1195313	-0.3691406	-0.2425781
0.472	2.1375	2.517188	2.035547	2.422266	2.095313	2.369531
0.473	4.341797	4.784766	4.155469	4.559766	4.457813	4.833984
0.474	5.765625	6.180469	5.473828	5.867578	5.976563	6.384375
0.475	6.465234	6.757031	6.060938	6.4125	6.669141	7.048828
0.476	6.539063	6.672656	6.039844	6.345703	6.683203	6.996094
0.477	5.702344	5.639063	5.11875	5.364844	5.748047	5.934375
0.478	3.877734	3.568359	3.216797	3.382031	3.751172	3.747656
0.479	1.828125	1.328906	1.142578	1.251563	1.515234	1.335938
0.48	-0.3761719	-1.023047	-1.037109	-0.9703125	-0.8648438	-1.198828
0.481	-2.721094	-3.459375	-3.315234	-3.280078	-3.367969	-3.853125
0.482	-4.412109	-5.153906	-4.939453	-4.900781	-5.182031	-5.744531
0.483	-5.308594	-5.951953	-5.748047	-5.674219	-6.099609	-6.662109
0.484	-5.586328	-6.082031	-5.930859	-5.807813	-6.321094	-6.841406
0.485	-5.115234	-5.435156	-5.364844	-5.189063	-5.751563	-6.169922
0.486	-3.582422	-3.65625	-3.744141	-3.483984	-4.064063	-4.285547
0.487	-1.571484	-1.423828	-1.694531	-1.364063	-1.85625	-1.884375
0.488	0.4816406	0.7945313	0.3515625	0.7347656	0.39375	0.5167969
0.489	2.819531	3.251953	2.64375	3.065625	2.900391	3.174609
0.49	4.784766	5.259375	4.535156	4.967578	5.009766	5.378906
0.491	5.934375	6.342188	5.593359	5.997656	6.226172	6.602344
0.492	6.419531	6.686719	5.973047	6.328125	6.683203	7.013672
0.493	6.261328	6.359766	5.698828	6.004688	6.451172	6.690234
0.494	5.090625	4.957031	4.412109	4.647656	5.139844	5.227734
0.495	3.118359	2.745703	2.376563	2.53125	2.960156	2.86875
0.496	1.058203	0.5203125	0.3199219	0.4253906	0.703125	0.4640625
0.497	-1.244531	-1.908984	-1.944141	-1.884375	-1.768359	-2.162109
0.498	-3.445313	-4.173047	-4.081641	-4.046484	-4.120313	-4.644141
0.499	-4.876172	-5.579297	-5.428125	-5.378906	-5.646094	-6.219141
0.5	-5.582813	-6.162891	-6.015234	-5.930859	-6.345703	-6.894141
0.501	-5.653125	-6.082031	-5.990625	-5.860547	-6.35625	-6.830859
0.502	-4.833984	-5.073047	-5.097656	-4.907813	-5.438672	-5.779688
0.503	-3.026953	-3.016406	-3.223828	-2.949609	-3.459375	-3.607031
0.504	-0.9984375	-0.7945313	-1.167188	-0.8367188	-1.230469	-1.198828
0.505	1.146094	1.501172	0.9527344	1.332422	1.096875	1.286719
0.506	3.459375	3.916406	3.188672	3.603516	3.578906	3.898828
0.507	5.175	5.642578	4.809375	5.224219	5.417578	5.79375
0.508	6.089063	6.461719	5.625	6.008203	6.359766	6.728906
0.509	6.380859	6.598828	5.811328	6.148828	6.605859	6.922266
0.51	5.920313	5.9625	5.262891	5.540625	6.057422	6.275391
0.511	4.391016	4.197656	3.659766	3.860156	4.362891	4.412109
0.512	2.3625	1.947656	1.589063	1.722656	2.1375	1.996875
0.513	0.2742188	-0.2953125	-0.4921875	-0.4113281	-0.1160156	-0.4183594
0.514	-2.074219	-2.766797	-2.808984	-2.770313	-2.636719	-3.09375
0.515	-4.046484	-4.784766	-4.714453	-4.682813	-4.760156	-5.312109
0.516	-5.203125	-5.874609	-5.772656	-5.719922	-5.983594	-6.553125
0.517	-5.705859	-6.233203	-6.159375	-6.064453	-6.454688	-6.996094
0.518	-5.540625	-5.902734	-5.899219	-5.751563	-6.215625	-6.672656
0.519	-4.359375	-4.492969	-4.623047	-4.401563	-4.907813	-5.189063
0.52	-2.404688	-2.295703	-2.601563	-2.295703	-2.763281	-2.837109
0.521	-0.3902344	-0.1019531	-0.5765625	-0.2214844	-0.5589844	-0.4675781
0.522	1.884375	2.299219	1.659375	2.060156	1.880859	2.123438
0.523	4.074609	4.55625	3.782813	4.208203	4.225781	4.584375
0.524	5.498438	5.944922	5.11875	5.530078	5.765625	6.145313
0.525	6.201563	6.525	5.712891	6.085547	6.486328	6.827344
0.526	6.285938	6.454688	5.702344	6.029297	6.517969	6.799219
0.527	5.487891	5.459766	4.823438	5.087109	5.610938	5.776172
0.528	3.687891	3.410156	2.960156	3.139453	3.628125	3.603516
0.529	1.645313	1.174219	0.8964844	1.019531	1.381641	1.191797
0.53	-0.5378906	-1.153125	-1.265625	-1.184766	-0.9667969	-1.314844
0.531	-2.86875	-3.589453	-3.547266	-3.501563	-3.448828	-3.944531
0.532	-4.587891	-5.319141	-5.192578	-5.143359	-5.2875	-5.857031
0.533	-5.516016	-6.152344	-6.001172	-5.923828	-6.264844	-6.816797
0.534	-5.835938	-6.314063	-6.1875	-6.060938	-6.549609	-7.034766
0.535	-5.396484	-5.698828	-5.649609	-5.463281	-6.01875	-6.394922
0.536	-3.888281	-3.951563	-4.060547	-3.793359	-4.348828	-4.542188
0.537	-1.877344	-1.715625	-2.014453	-1.673438	-2.141016	-2.144531
0.538	0.1757813	0.4957031	0.02460938	0.4078125	0.1054688	0.253125
0.539	2.506641	2.946094	2.299219	2.721094	2.626172	2.917969
0.54	4.489453	4.964063	4.201172	4.633594	4.753125	5.136328
0.541	5.660156	6.064453	5.276953	5.688281	5.983594	6.377344
0.542	6.162891	6.426563	5.674219	6.039844	6.458203	6.813281
0.543	5.997656	6.110156	5.424609	5.7375	6.226172	6.507422
0.544	4.816406	4.707422	4.183594	4.419141	4.914844	5.037891
0.545	2.837109	2.478516	2.165625	2.323828	2.731641	2.654297
0.546	0.7875	0.2496094	0.1089844	0.2179688	0.4851563	0.2460938
0.547	-1.497656	-2.169141	-2.151563	-2.088281	-1.975781	-2.355469
0.548	-3.705469	-4.450781	-4.303125	-4.260938	-4.338281	-4.833984
0.549	-5.139844	-5.864063	-5.667188	-5.610938	-5.871094	-6.408984
0.55	-5.846484	-6.454688	-6.257813	-6.169922	-6.58125	-7.094531
0.551	-5.951953	-6.398438	-6.24375	-6.106641	-6.633984	-7.073438
0.552	-5.178516	-5.428125	-5.368359	-5.160938	-5.765625	-6.071484
0.553	-3.392578	-3.399609	-3.505078	-3.216797	-3.814453	-3.919922
0.554	-1.392188	-1.202344	-1.494141	-1.146094	-1.617188	-1.553906
0.555	0.7417969	1.079297	0.6011719	0.9949219	0.6925781	0.9
0.556	3.069141	3.515625	2.86875	3.290625	3.185156	3.540234
0.557	4.791797	5.252344	4.524609	4.942969	5.044922	5.477344
0.558	5.726953	6.092578	5.368359	5.755078	6.022266	6.433594
0.559	6.043359	6.257813	5.579297	5.920313	6.292969	6.644531
0.56	5.607422	5.639063	5.0625	5.34375	5.762109	6.029297
0.561	4.113281	3.895313	3.494531	3.694922	4.099219	4.190625
0.562	2.098828	1.659375	1.430859	1.564453	1.866797	1.768359
0.563	0.0140625	-0.5730469	-0.6398438	-0.5589844	-0.4148438	-0.6609375
0.564	-2.337891	-3.041016	-2.946094	-2.907422	-2.928516	-3.325781
0.565	-4.313672	-5.058984	-4.865625	-4.8375	-5.041406	-5.540625
0.566	-5.477344	-6.166406	-5.941406	-5.895703	-6.268359	-6.788672
0.567	-5.987109	-6.542578	-6.338672	-6.254297	-6.75	-7.238672
0.568	-5.846484	-6.229688	-6.096094	-5.955469	-6.542578	-6.957422
0.569	-4.693359	-4.855078	-4.862109	-4.644141	-5.276953	-5.537109
0.57	-2.735156	-2.657813	-2.847656	-2.552344	-3.139453	-3.199219
0.571	-0.7171875	-0.4570313	-0.8121094	-0.4675781	-0.928125	-0.8191406
0.572	1.564453	1.965234	1.420313	1.814063	1.522266	1.789453
0.573	3.796875	4.278516	3.575391	3.997266	3.905859	4.306641
0.574	5.262891	5.723438	4.957031	5.361328	5.487891	5.923828
0.575	5.997656	6.335156	5.586328	5.948438	6.240234	6.6375
0.576	6.117188	6.292969	5.603906	5.913281	6.314063	6.6375
0.577	5.364844	5.34375	4.763672	5.009766	5.466797	5.656641
0.578	3.607031	3.336328	2.939063	3.100781	3.519141	3.522656
0.579	1.585547	1.121484	0.9035156	1.005469	1.276172	1.117969
0.58	-0.5554688	-1.160156	-1.223438	-1.163672	-1.061719	-1.367578
0.581	-2.86875	-3.571875	-3.498047	-3.469922	-3.522656	-3.99375
0.582	-4.587891	-5.301563	-5.150391	-5.125781	-5.350781	-5.90625
0.583	-5.508984	-6.127734	-5.955469	-5.902734	-6.314063	-6.866016
0.584	-5.811328	-6.275391	-6.127734	-6.025781	-6.584766	-7.069922
0.585	-5.368359	-5.656641	-5.596875	-5.431641	-6.064453	-6.440625
0.586	-3.846094	-3.898828	-4.011328	-3.772266	-4.394531	-4.587891
0.587	-1.807031	-1.63125	-1.944141	-1.638281	-2.144531	-2.148047
0.588	0.2566406	0.6011719	0.1160156	0.4675781	0.1160156	0.2777344
0.589	2.608594	3.079688	2.422266	2.808984	2.636719	2.949609
0.59	4.619531	5.132813	4.362891	4.760156	4.791797	5.189063
0.591	5.814844	6.268359	5.470313	5.85	6.050391	6.447656
0.592	6.363281	6.676172	5.895703	6.226172	6.574219	6.925781
0.593	6.250781	6.394922	5.688281	5.958984	6.401953	6.676172
0.594	5.125781	5.048438	4.496484	4.693359	5.160938	5.291016
0.595	3.178125	2.86875	2.513672	2.629688	3.030469	2.977734
0.596	1.160156	0.6785156	0.4816406	0.5484375	0.815625	0.6082031
0.597	-1.093359	-1.708594	-1.754297	-1.726172	-1.599609	-1.961719
0.598	-3.287109	-3.976172	-3.895313	-3.898828	-3.941016	-4.436719
0.599	-4.717969	-5.385938	-5.255859	-5.252344	-5.484375	-6.025781
0.6	-5.442188	-5.987109	-5.860547	-5.814844	-6.215625	-6.735938
0.601	-5.547656	-5.930859	-5.85	-5.751563	-6.275391	-6.721875
0.602	-4.756641	-4.946484	-4.978125	-4.816406	-5.403516	-5.712891
0.603	-2.995313	-2.935547	-3.157031	-2.914453	-3.476953	-3.585938
0.604	-1.0125	-0.7488281	-1.142578	-0.84375	-1.286719	-1.223438
0.605	1.114453	1.522266	0.9738281	1.321875	1.023047	1.233984
0.606	3.448828	3.951563	3.244922	3.628125	3.515625	3.856641
0.607	5.199609	5.712891	4.907813	5.294531	5.389453	5.79375
0.608	6.145313	6.567188	5.762109	6.113672	6.366797	6.764063
0.609	6.465234	6.735938	5.976563	6.285938	6.655078	6.989063
0.61	6.064453	6.155859	5.470313	5.723438	6.176953	6.4125
0.611	4.594922	4.454297	3.923438	4.092188	4.55625	4.623047
0.612	2.580469	2.211328	1.870313	1.96875	2.320313	2.211328
0.613	0.5132813	-0.02109375	-0.1898438	-0.140625	0.03867188	-0.2179688
0.614	-1.835156	-2.496094	-2.499609	-2.489063	-2.485547	-2.903906
0.615	-3.853125	-4.563281	-4.447266	-4.447266	-4.644141	-5.153906
0.616	-5.051953	-5.702344	-5.551172	-5.523047	-5.913281	-6.433594
0.617	-5.589844	-6.099609	-5.973047	-5.902734	-6.405469	-6.901172
0.618	-5.491406	-5.846484	-5.765625	-5.646094	-6.212109	-6.633984
0.619	-4.383984	-4.524609	-4.563281	-4.376953	-4.978125	-5.245313
0.62	-2.450391	-2.344922	-2.576953	-2.313281	-2.861719	-2.932031
0.621	-0.4464844	-0.1582031	-0.5695313	-0.2601563	-0.6574219	-0.5589844
0.622	1.8	2.228906	1.641797	1.996875	1.768359	2.028516
0.623	4.014844	4.521094	3.793359	4.180078	4.123828	4.517578
0.624	5.477344	5.955469	5.171484	5.547656	5.677734	6.103125
0.625	6.194531	6.549609	5.79375	6.134766	6.401953	6.795703
0.626	6.317578	6.521484	5.821875	6.106641	6.482813	6.802734
0.627	5.617969	5.617969	5.002734	5.224219	5.684766	5.867578
0.628	3.877734	3.628125	3.178125	3.322266	3.758203	3.751172
0.629	1.852734	1.399219	1.132031	1.212891	1.511719	1.342969
0.63	-0.2953125	-0.8929688	-0.9984375	-0.9597656	-0.815625	-1.132031
0.631	-2.640234	-3.339844	-3.283594	-3.276563	-3.315234	-3.786328
0.632	-4.408594	-5.125781	-4.964063	-4.964063	-5.217188	-5.769141
0.633	-5.357813	-5.994141	-5.821875	-5.790234	-6.219141	-6.774609
0.634	-5.695313	-6.1875	-6.043359	-5.966016	-6.507422	-7.020703
0.635	-5.322656	-5.649609	-5.561719	-5.428125	-6.039844	-6.447656
0.636	-3.88125	-3.969141	-4.028906	-3.817969	-4.447266	-4.66875
0.637	-1.866797	-1.733203	-1.993359	-1.705078	-2.239453	-2.271094
0.638	0.1582031	0.4535156	0.03164063	0.3691406	-0.01757813	0.1089844
0.639	2.478516	2.900391	2.320313	2.7	2.457422	2.75625
0.64	4.521094	4.988672	4.275	4.66875	4.640625	5.027344
0.641	5.7375	6.145313	5.382422	5.755078	5.944922	6.317578
0.642	6.271875	6.542578	5.814844	6.141797	6.486328	6.802734
0.643	6.176953	6.285938	5.617969	5.892188	6.328125	6.577734
0.644	5.083594	4.978125	4.44375	4.647656	5.111719	5.224219
0.645	3.132422	2.784375	2.460938	2.5875	2.960156	2.886328
0.646	1.082813	0.5589844	0.4183594	0.4957031	0.7171875	0.4746094
0.647	-1.160156	-1.824609	-1.810547	-1.778906	-1.694531	-2.095313
0.648	-3.375	-4.116797	-3.983203	-3.976172	-4.057031	-4.580859
0.649	-4.858594	-5.575781	-5.389453	-5.375391	-5.639063	-6.212109
0.65	-5.589844	-6.191016	-6.011719	-5.955469	-6.380859	-6.936328
0.651	-5.695313	-6.141797	-6.01875	-5.90625	-6.433594	-6.925781
0.652	-4.974609	-5.241797	-5.224219	-5.051953	-5.628516	-5.983594
0.653	-3.244922	-3.273047	-3.43125	-3.178125	-3.730078	-3.891797
0.654	-1.230469	-1.058203	-1.388672	-1.072266	-1.504688	-1.497656
0.655	0.8789063	1.202344	0.7242188	1.089844	0.7945313	0.9527344
0.656	3.199219	3.628125	3.002344	3.403125	3.280078	3.592969
0.657	4.971094	5.417578	4.693359	5.097656	5.185547	5.572266
0.658	5.941406	6.303516	5.56875	5.941406	6.205078	6.577734
0.659	6.296484	6.503906	5.804297	6.138281	6.517969	6.834375
0.66	5.920313	5.944922	5.333203	5.610938	6.064453	6.278906
0.661	4.471875	4.264453	3.810938	4.007813	4.475391	4.521094
0.662	2.457422	2.025	1.750781	1.873828	2.260547	2.126953
0.663	0.39375	-0.1933594	-0.3128906	-0.2355469	0.01054688	-0.2742188
0.664	-1.965234	-2.678906	-2.619141	-2.583984	-2.506641	-2.953125
0.665	-4.032422	-4.795313	-4.594922	-4.570313	-4.717969	-5.269922
0.666	-5.248828	-5.958984	-5.719922	-5.677734	-6.011719	-6.584766
0.667	-5.783203	-6.35625	-6.152344	-6.075	-6.528516	-7.062891
0.668	-5.688281	-6.099609	-5.966016	-5.832422	-6.366797	-6.820313
0.669	-4.608984	-4.802344	-4.805859	-4.594922	-5.171484	-5.463281
0.67	-2.682422	-2.633203	-2.826563	-2.534766	-3.058594	-3.160547
0.671	-0.6925781	-0.4746094	-0.8191406	-0.4710938	-0.871875	-0.815625
0.672	1.515234	1.870313	1.378125	1.768359	1.508203	1.729688
0.673	3.747656	4.187109	3.54375	3.955078	3.895313	4.257422
0.674	5.238281	5.663672	4.953516	5.350781	5.516016	5.90625
0.675	5.983594	6.292969	5.600391	5.9625	6.292969	6.641016
0.676	6.141797	6.289453	5.635547	5.955469	6.391406	6.676172
0.677	5.449219	5.407031	4.841016	5.097656	5.596875	5.765625
0.678	3.719531	3.427734	3.044531	3.216797	3.687891	3.666797
0.679	1.701563	1.198828	0.9914063	1.100391	1.451953	1.255078
0.68	-0.4253906	-1.072266	-1.142578	-1.072266	-0.8613281	-1.205859
0.681	-2.770313	-3.519141	-3.424219	-3.403125	-3.357422	-3.856641
0.682	-4.55625	-5.322656	-4.978125	-5.111719	-5.262891	-5.85
0.683	-5.516016	-6.194531	-5.607422	-5.948438	-6.271875	-6.855469
0.684	-5.874609	-6.394922	-5.674219	-6.127734	-6.591797	-7.115625
0.685	-5.519531	-5.864063	-5.132813	-5.607422	-6.152344	-6.574219
0.686	-4.088672	-4.201172	-3.621094	-4.028906	-4.563281	-4.816406
0.687	-2.08125	-1.96875	-1.603125	-1.9125	-2.351953	-2.41875
0.688	-0.04921875	0.2214844	0.4042969	0.16875	-0.1230469	-0.03515625
0.689	2.260547	2.657813	2.647266	2.489063	2.355469	2.601563
0.69	4.306641	4.753125	4.605469	4.475391	4.545703	4.890234
0.691	5.551172	5.948438	5.776172	5.600391	5.871094	6.222656
0.692	6.120703	6.377344	6.289453	6.008203	6.4125	6.725391
0.693	6.036328	6.127734	6.212109	5.790234	6.254297	6.500391
0.694	4.974609	4.858594	5.213672	4.584375	5.073047	5.182031
0.695	3.062109	2.7	3.403125	2.53125	2.98125	2.893359
0.696	1.044141	0.5027344	1.522266	0.4394531	0.7875	0.5167969
0.697	-1.188281	-1.866797	-0.5378906	-1.814063	-1.606641	-2.039063
0.698	-3.417188	-4.173047	-2.562891	-4.007813	-3.99375	-4.549219
0.699	-4.904297	-5.646094	-3.863672	-5.396484	-5.586328	-6.191016
0.7	-5.639063	-6.264844	-4.429688	-5.976563	-6.328125	-6.911719
0.701	-5.790234	-6.261328	-4.447266	-5.973047	-6.419531	-6.936328
0.702	-5.122266	-5.403516	-3.705469	-5.153906	-5.649609	-6.036328
0.703	-3.406641	-3.441797	-1.989844	-3.283594	-3.758203	-3.944531
0.704	-1.395703	-1.230469	-0.01757813	-1.174219	-1.532813	-1.536328
0.705	0.7066406	1.023047	2.014453	0.9703125	0.759375	0.9105469
0.706	3.033984	3.459375	4.232813	3.290625	3.248438	3.54375
0.707	4.826953	5.269922	5.920313	5.013281	5.171484	5.530078
0.708	5.818359	6.173438	6.813281	5.867578	6.208594	6.546094
0.709	6.176953	6.373828	7.108594	6.067969	6.542578	6.809766
0.71	5.825391	5.85	6.742969	5.561719	6.117188	6.289453
0.711	4.415625	4.208203	5.385938	3.997266	4.563281	4.573828
0.712	2.404688	1.972266	3.4875	1.880859	2.355469	2.183203
0.713	0.3375	-0.2425781	1.575	-0.2074219	0.1125	-0.2003906
0.714	-2.007422	-2.717578	-0.5695313	-2.53125	-2.394141	-2.858203
0.715	-4.067578	-4.830469	-2.436328	-4.524609	-4.594922	-5.182031
0.716	-5.283984	-6.001172	-3.515625	-5.649609	-5.878125	-6.496875
0.717	-5.821875	-6.405469	-3.9375	-6.057422	-6.391406	-6.971484
0.718	-5.751563	-6.173438	-3.772266	-5.839453	-6.250781	-6.746484
0.719	-4.725	-4.932422	-2.696484	-4.637109	-5.101172	-5.442188
0.72	-2.833594	-2.801953	-0.8191406	-2.591016	-3.030469	-3.164063
0.721	-0.8402344	-0.6257813	1.117969	-0.5167969	-0.8472656	-0.8085938
0.722	1.378125	1.729688	3.234375	1.722656	1.546875	1.74375
0.723	3.610547	4.042969	5.340234	3.916406	3.948047	4.264453
0.724	5.104688	5.519531	6.746484	5.336719	5.558203	5.916797
0.725	5.864063	6.169922	7.428516	5.966016	6.321094	6.662109
0.726	6.022266	6.169922	7.523438	5.9625	6.419531	6.707813
0.727	5.329688	5.2875	6.837891	5.129297	5.642578	5.818359
0.728	3.603516	3.311719	5.185547	3.266016	3.758203	3.737109
0.729	1.564453	1.06875	3.258984	1.142578	1.525781	1.325391
0.73	-0.5519531	-1.198828	1.269141	-1.019531	-0.7875	-1.128516
0.731	-2.875781	-3.628125	-0.8824219	-3.332813	-3.294141	-3.775781
0.732	-4.661719	-5.435156	-2.583984	-5.0625	-5.224219	-5.786719
0.733	-5.642578	-6.338672	-3.673828	-5.927344	-6.24375	-6.816797
0.734	-6.008203	-6.556641	-4.436719	-6.127734	-6.570703	-7.091016
0.735	-5.677734	-6.053906	-4.760156	-5.635547	-6.152344	-6.574219
0.736	-4.292578	-4.44375	-3.948047	-4.081641	-4.6125	-4.862109
0.737	-2.30625	-2.232422	-2.242969	-1.979297	-2.41875	-2.478516
0.738	-0.2777344	-0.0421875	-0.3304688	0.07734375	-0.196875	-0.1125
0.739	2.014453	2.376563	1.901953	2.380078	2.267578	2.499609
0.74	4.05	4.468359	3.895313	4.369922	4.457813	4.795313
0.741	5.294531	5.667188	5.125781	5.508984	5.790234	6.134766
0.742	5.860547	6.103125	5.751563	5.934375	6.338672	6.641016
0.743	5.797266	5.878125	5.825391	5.730469	6.212109	6.440625
0.744	4.795313	4.658203	4.985156	4.563281	5.090625	5.178516
0.745	2.914453	2.53125	3.294141	2.538281	3.016406	2.917969
0.746	0.9	0.3480469	1.487109	0.4640625	0.815625	0.5554688
0.747	-1.311328	-1.986328	-0.4921875	-1.768359	-1.553906	-1.96875
0.748	-3.519141	-4.267969	-2.464453	-3.948047	-3.909375	-4.454297
0.749	-4.988672	-5.719922	-3.737109	-5.340234	-5.494922	-6.085547
0.75	-5.7375	-6.359766	-4.313672	-5.955469	-6.268359	-6.834375
0.751	-5.909766	-6.370313	-4.338281	-5.973047	-6.380859	-6.883594
0.752	-5.245313	-5.5125	-3.578906	-5.153906	-5.607422	-5.987109
0.753	-3.54375	-3.568359	-1.85625	-3.297656	-3.730078	-3.919922
0.754	-1.522266	-1.342969	0.1230469	-1.191797	-1.508203	-1.51875
0.755	0.5695313	0.8964844	2.148047	0.9351563	0.7628906	0.9035156
0.756	2.872266	3.304688	4.352344	3.234375	3.216797	3.505078
0.757	4.675781	5.122266	6.050391	4.953516	5.150391	5.5125
0.758	5.677734	6.043359	6.964453	5.825391	6.215625	6.563672
0.759	6.050391	6.261328	7.273828	6.039844	6.549609	6.848438
0.76	5.723438	5.765625	6.943359	5.56875	6.141797	6.352734
0.761	4.338281	4.148438	5.632031	4.042969	4.6125	4.658203
0.762	2.320313	1.898438	3.744141	1.933594	2.390625	2.253516
0.763	0.2707031	-0.3023438	1.838672	-0.1546875	0.1617188	-0.1230469
0.764	-2.028516	-2.721094	-0.2953125	-2.475	-2.302734	-2.749219
0.765	-4.088672	-4.826953	-2.176172	-4.489453	-4.510547	-5.0625
0.766	-5.350781	-6.046875	-3.290625	-5.649609	-5.85	-6.437109
0.767	-5.923828	-6.493359	-3.740625	-6.085547	-6.416016	-6.971484
0.768	-5.857031	-6.264844	-3.589453	-5.892188	-6.289453	-6.757031
0.769	-4.855078	-5.055469	-2.552344	-4.742578	-5.178516	-5.480859
0.77	-2.995313	-2.956641	-0.7066406	-2.724609	-3.139453	-3.241406
0.771	-1.037109	-0.815625	1.205859	-0.6714844	-0.9667969	-0.9035156
0.772	1.121484	1.483594	3.290625	1.529297	1.399219	1.613672
0.773	3.353906	3.796875	5.392969	3.719531	3.796875	4.134375
0.774	4.907813	5.34375	6.802734	5.150391	5.445703	5.825391
0.775	5.723438	6.053906	7.477734	5.786719	6.236719	6.605859
0.776	5.916797	6.099609	7.579688	5.807813	6.345703	6.669141
0.777	5.269922	5.269922	6.925781	5.016797	5.593359	5.814844
0.778	3.589453	3.339844	5.294531	3.185156	3.733594	3.772266
0.779	1.560938	1.107422	3.350391	1.06875	1.501172	1.364063
0.78	-0.5589844	-1.156641	1.35	-1.082813	-0.7875	-1.079297
0.781	-2.893359	-3.596484	-0.8261719	-3.403125	-3.280078	-3.719531
0.782	-4.707422	-5.435156	-2.506641	-5.157422	-5.23125	-5.755078
0.783	-5.705859	-6.363281	-3.399609	-6.039844	-6.289453	-6.813281
0.784	-6.078516	-6.588281	-3.684375	-6.257813	-6.626953	-7.098047
0.785	-5.755078	-6.085547	-3.315234	-5.800781	-6.233203	-6.609375
0.786	-4.394531	-4.489453	-1.965234	-4.289063	-4.742578	-4.939453
0.787	-2.415234	-2.278125	-0.04921875	-2.19375	-2.569922	-2.569922
0.788	-0.4007813	-0.1019531	1.835156	-0.1371094	-0.365625	-0.2109375
0.789	1.891406	2.313281	3.933984	2.144531	2.091797	2.394141
0.79	3.969141	4.447266	5.807813	4.151953	4.303125	4.710938
0.791	5.238281	5.688281	6.911719	5.312109	5.653125	6.075
0.792	5.821875	6.148828	7.323047	5.741016	6.219141	6.598828
0.793	5.786719	5.951953	7.14375	5.547656	6.124219	6.423047
0.794	4.802344	4.760156	6.078516	4.401563	5.034375	5.189063
0.795	2.921484	2.626172	4.148438	2.383594	2.956641	2.921484
0.796	0.9035156	0.4289063	2.098828	0.2988281	0.7453125	0.5308594
0.797	-1.29375	-1.887891	-0.07734375	-1.919531	-1.610156	-1.989844
0.798	-3.505078	-4.180078	-2.207813	-4.113281	-3.972656	-4.478906
0.799	-5.048438	-5.719922	-3.631641	-5.572266	-5.621484	-6.173438
0.8	-5.835938	-6.408984	-4.320703	-6.226172	-6.426563	-6.964453
0.801	-6.001172	-6.4125	-4.426172	-6.247266	-6.532031	-7.017188
0.802	-5.371875	-5.593359	-3.740625	-5.459766	-5.807813	-6.169922
0.803	-3.7125	-3.684375	-2.028516	-3.628125	-3.990234	-4.151953
0.804	-1.708594	-1.469531	0	-1.522266	-1.785938	-1.757813
0.805	0.365625	0.759375	2.070703	0.6011719	0.4851563	0.6539063
0.806	2.685938	3.178125	4.324219	2.914453	2.967188	3.266016
0.807	4.531641	5.037891	6.085547	4.675781	4.953516	5.308594
0.808	5.575781	6.004688	7.048828	5.572266	6.053906	6.394922
0.809	5.973047	6.257813	7.400391	5.811328	6.4125	6.711328
0.81	5.674219	5.783203	7.108594	5.364844	6.032813	6.250781
0.811	4.348828	4.229297	5.842969	3.877734	4.559766	4.623047
0.812	2.380078	2.039063	3.983203	1.789453	2.390625	2.271094
0.813	0.3480469	-0.1476563	2.102344	-0.2777344	0.1792969	-0.09140625
0.814	-1.958203	-2.583984	-0.01054688	-2.576953	-2.281641	-2.717578
0.815	-4.021875	-4.710938	-1.894922	-4.601953	-4.489453	-5.048438
0.816	-5.276953	-5.909766	-2.991797	-5.755078	-5.832422	-6.4125
0.817	-5.857031	-6.359766	-3.420703	-6.162891	-6.4125	-6.946875
0.818	-5.818359	-6.159375	-3.269531	-5.973047	-6.307031	-6.760547
0.819	-4.826953	-4.953516	-2.239453	-4.841016	-5.189063	-5.501953
0.82	-2.949609	-2.840625	-0.3902344	-2.819531	-3.118359	-3.244922
0.821	-0.9667969	-0.6714844	1.536328	-0.7488281	-0.9316406	-0.8964844
0.822	1.212891	1.645313	3.624609	1.466016	1.420313	1.613672
0.823	3.469922	3.990234	5.730469	3.684375	3.835547	4.158984
0.824	5.044922	5.558203	7.14375	5.153906	5.526563	5.899219
0.825	5.857031	6.261328	7.801172	5.825391	6.345703	6.700781
0.826	6.046875	6.3	7.875	5.878125	6.482813	6.774609
0.827	5.442188	5.501953	7.207031	5.129297	5.783203	5.9625
0.828	3.793359	3.607031	5.572266	3.325781	3.965625	3.965625
0.829	1.785938	1.388672	3.607031	1.216406	1.750781	1.571484
0.83	-0.3058594	-0.8542969	1.592578	-0.9140625	-0.5203125	-0.8613281
0.831	-2.64375	-3.301172	-0.6222656	-3.237891	-3.016406	-3.508594
0.832	-4.489453	-5.171484	-2.3625	-5.002734	-4.988672	-5.565234
0.833	-5.519531	-6.120703	-3.301172	-5.892188	-6.071484	-6.641016
0.834	-5.916797	-6.377344	-3.6	-6.124219	-6.433594	-6.953906
0.835	-5.632031	-5.923828	-3.248438	-5.688281	-6.075	-6.493359
0.836	-4.296094	-4.359375	-1.930078	-4.201172	-4.598438	-4.844531
0.837	-2.30625	-2.148047	-0.028125	-2.105859	-2.411719	-2.467969
0.838	-0.2988281	0.0140625	1.873828	-0.05625	-0.225	-0.1230469
0.839	1.975781	2.411719	4.032422	2.232422	2.200781	2.464453
0.84	4.053516	4.549219	6.022266	4.275	4.422656	4.798828
0.841	5.333203	5.79375	7.25625	5.463281	5.779688	6.180469
0.842	5.934375	6.264844	7.801172	5.920313	6.359766	6.728906
0.843	5.913281	6.082031	7.755469	5.755078	6.285938	6.584766
0.844	4.953516	4.911328	6.830859	4.651172	5.217188	5.382422
0.845	3.09375	2.805469	5.030859	2.647266	3.153516	3.132422
0.846	1.096875	0.6292969	3.030469	0.5765625	0.9527344	0.7664063
0.847	-1.065234	-1.666406	0.7980469	-1.617188	-1.378125	-1.729688
0.848	-3.325781	-4.018359	-1.458984	-3.846094	-3.796875	-4.292578
0.849	-4.925391	-5.614453	-2.995313	-5.34375	-5.516016	-6.078516
0.85	-5.723438	-6.307031	-3.719531	-5.994141	-6.331641	-6.887109
0.851	-5.878125	-6.307031	-3.912891	-6.025781	-6.433594	-6.925781
0.852	-5.255859	-5.498438	-3.455859	-5.266406	-5.730469	-6.096094
0.853	-3.607031	-3.603516	-1.965234	-3.459375	-3.930469	-4.099219
0.854	-1.589063	-1.378125	-0.07382813	-1.353516	-1.708594	-1.694531
0.855	0.4957031	0.8578125	1.838672	0.7734375	0.5660156	0.7277344
0.856	2.826563	3.297656	3.912891	3.100781	3.062109	3.367969
0.857	4.675781	5.178516	5.487891	4.890234	5.058984	5.435156
0.858	5.716406	6.138281	6.250781	5.814844	6.155859	6.514453
0.859	6.138281	6.4125	6.482813	6.078516	6.532031	6.834375
0.86	5.878125	5.983594	6.1875	5.667188	6.191016	6.4125
0.861	4.559766	4.436719	4.911328	4.204688	4.742578	4.819922
0.862	2.580469	2.228906	2.998828	2.109375	2.576953	2.464453
0.863	0.5730469	0.05976563	1.107422	0.02460938	0.3726563	0.1054688
0.864	-1.715625	-2.351953	-0.9703125	-2.271094	-2.08125	-2.503125
0.865	-3.814453	-4.503516	-2.844141	-4.306641	-4.317188	-4.848047
0.866	-5.111719	-5.755078	-3.958594	-5.480859	-5.691797	-6.247266
0.867	-5.705859	-6.219141	-4.415625	-5.920313	-6.268359	-6.799219
0.868	-5.677734	-6.025781	-4.306641	-5.7375	-6.173438	-6.630469
0.869	-4.703906	-4.848047	-3.329297	-4.616016	-5.101172	-5.403516
0.87	-2.816016	-2.717578	-1.476563	-2.598047	-3.0375	-3.139453
0.871	-0.8121094	-0.5273438	0.5097656	-0.5308594	-0.8367188	-0.7804688
0.872	1.364063	1.785938	2.619141	1.673438	1.511719	1.715625
0.873	3.621094	4.127344	4.679297	3.902344	3.923438	4.257422
0.874	5.189063	5.691797	6.053906	5.392969	5.610938	6.001172
0.875	6.015234	6.405469	6.662109	6.075	6.447656	6.823828
0.876	6.24375	6.472266	6.648047	6.138281	6.609375	6.932813
0.877	5.667188	5.716406	5.864063	5.410547	5.941406	6.159375
0.878	4.035938	3.846094	3.972656	3.624609	4.148438	4.194141
0.879	2.007422	1.606641	1.736719	1.504688	1.919531	1.789453
0.88	-0.0984375	-0.6503906	-0.3796875	-0.6257813	-0.365625	-0.6503906
0.881	-2.436328	-3.100781	-2.566406	-2.946094	-2.875781	-3.308203
0.882	-4.303125	-5.002734	-4.229297	-4.739063	-4.886719	-5.407031
0.883	-5.34375	-5.976563	-5.139844	-5.656641	-5.994141	-6.517969
0.884	-5.748047	-6.236719	-5.480859	-5.909766	-6.373828	-6.851953
0.885	-5.480859	-5.804297	-5.160938	-5.487891	-6.029297	-6.423047
0.886	-4.176563	-4.275	-3.863672	-4.018359	-4.584375	-4.812891
0.887	-2.204297	-2.074219	-1.972266	-1.923047	-2.408203	-2.443359
0.888	-0.2039063	0.084375	-0.0421875	0.1300781	-0.2109375	-0.09140625
0.889	2.070703	2.499609	2.165625	2.408203	2.232422	2.506641
0.89	4.176563	4.66875	4.215234	4.454297	4.468359	4.862109
0.891	5.484375	5.934375	5.533594	5.663672	5.842969	6.264844
0.892	6.103125	6.4125	6.183984	6.124219	6.433594	6.816797
0.893	6.096094	6.236719	6.236719	5.958984	6.363281	6.665625
0.894	5.136328	5.069531	5.414063	4.872656	5.308594	5.477344
0.895	3.280078	2.960156	3.716016	2.879297	3.269531	3.251953
0.896	1.300781	0.8015625	1.894922	0.8085938	1.075781	0.8929688
0.897	-0.8894531	-1.522266	-0.09140625	-1.423828	-1.304297	-1.63125
0.898	-3.178125	-3.895313	-2.133984	-3.694922	-3.758203	-4.21875
0.899	-4.763672	-5.470313	-3.498047	-5.189063	-5.452734	-5.973047
0.9	-5.565234	-6.166406	-4.109766	-5.853516	-6.275391	-6.788672
0.901	-5.769141	-6.219141	-4.148438	-5.902734	-6.433594	-6.890625
0.902	-5.196094	-5.466797	-3.459375	-5.164453	-5.779688	-6.110156
0.903	-3.564844	-3.596484	-1.8	-3.375	-3.99375	-4.134375
0.904	-1.560938	-1.385156	0.1863281	-1.269141	-1.782422	-1.740234
0.905	0.5097656	0.8332031	2.207813	0.84375	0.4746094	0.6609375
0.906	2.851172	3.287109	4.440234	3.160547	2.977734	3.301172
0.907	4.742578	5.203125	6.215625	4.964063	4.999219	5.389453
0.908	5.804297	6.191016	7.203516	5.90625	6.120703	6.496875
0.909	6.233203	6.472266	7.572656	6.169922	6.517969	6.841406
0.91	5.983594	6.050391	7.308984	5.765625	6.198047	6.430078
0.911	4.689844	4.538672	6.078516	4.320703	4.774219	4.855078
0.912	2.717578	2.341406	4.215234	2.225391	2.601563	2.506641
0.913	0.6855469	0.1511719	2.327344	0.1441406	0.3796875	0.1371094
0.914	-1.617188	-2.278125	0.2144531	-2.151563	-2.091797	-2.492578
0.915	-3.726563	-4.447266	-1.6875	-4.204688	-4.355859	-4.879688
0.916	-5.030859	-5.712891	-2.823047	-5.403516	-5.748047	-6.3
0.917	-5.639063	-6.1875	-3.287109	-5.864063	-6.338672	-6.855469
0.918	-5.614453	-6.001172	-3.160547	-5.698828	-6.254297	-6.69375
0.919	-4.66875	-4.848047	-2.169141	-4.594922	-5.192578	-5.487891
0.92	-2.801953	-2.735156	-0.3234375	-2.5875	-3.128906	-3.230859
0.921	-0.7804688	-0.5273438	1.63125	-0.50625	-0.9035156	-0.8507813
0.922	1.416797	1.810547	3.726563	1.701563	1.466016	1.659375
0.923	3.694922	4.176563	5.881641	3.951563	3.898828	4.222266
0.924	5.2875	5.762109	7.379297	5.470313	5.621484	5.997656
0.925	6.124219	6.493359	8.124609	6.166406	6.489844	6.844922
0.926	6.363281	6.584766	8.296875	6.247266	6.679688	6.967969
0.927	5.811328	5.846484	7.737891	5.544141	6.022266	6.205078
0.928	4.201172	3.986719	6.183984	3.772266	4.243359	4.250391
0.929	2.176172	1.754297	4.267969	1.648828	2.025	1.859766
0.93	0.06679688	-0.4992188	2.309766	-0.478125	-0.2601563	-0.5765625
0.931	-2.278125	-2.956641	0.1546875	-2.794922	-2.787891	-3.248438
0.932	-4.151953	-4.858594	-1.539844	-4.598438	-4.798828	-5.340234
0.933	-5.182031	-5.821875	-2.450391	-5.547656	-5.871094	-6.426563
0.934	-5.582813	-6.085547	-2.742188	-5.818359	-6.222656	-6.75
0.935	-5.336719	-5.677734	-2.411719	-5.417578	-5.899219	-6.331641
0.936	-4.057031	-4.169531	-1.107422	-3.965625	-4.478906	-4.742578
0.937	-2.088281	-1.954688	0.8261719	-1.85625	-2.30625	-2.373047
0.938	-0.08085938	0.225	2.766797	0.2074219	-0.1019531	-0.003515625
0.939	2.207813	2.647266	4.939453	2.503125	2.344922	2.608594
0.94	4.334766	4.833984	6.936328	4.577344	4.6125	4.985156
0.941	5.670703	6.124219	8.159766	5.807813	6.032813	6.426563
0.942	6.3	6.626953	8.704688	6.289453	6.658594	7.006641
0.943	6.307031	6.46875	8.658984	6.148828	6.602344	6.873047
0.944	5.410547	5.361328	7.773047	5.094141	5.593359	5.726953
0.945	3.578906	3.290625	6.01875	3.118359	3.582422	3.529688
0.946	1.543359	1.06875	4.088672	1.005469	1.339453	1.128516
0.947	-0.675	-1.286719	2.010938	-1.233984	-1.058203	-1.427344
0.948	-2.956641	-3.65625	-0.08789063	-3.483984	-3.498047	-4.011328
0.949	-4.566797	-5.269922	-1.532813	-4.999219	-5.23125	-5.797266
0.95	-5.417578	-6.01875	-2.228906	-5.698828	-6.099609	-6.651563
0.951	-5.649609	-6.099609	-2.348438	-5.779688	-6.271875	-6.778125
0.952	-5.094141	-5.364844	-1.747266	-5.076563	-5.621484	-6.015234
0.953	-3.483984	-3.508594	-0.1476563	-3.308203	-3.846094	-4.042969
0.954	-1.473047	-1.279688	1.810547	-1.195313	-1.63125	-1.63125
0.955	0.5941406	0.9421875	3.793359	0.9105469	0.61875	0.7769531
0.956	2.921484	3.375	5.990625	3.234375	3.104297	3.410156
0.957	4.805859	5.291016	7.748438	5.055469	5.125781	5.5125
0.958	5.878125	6.292969	8.722266	6.008203	6.257813	6.6375
0.959	6.314063	6.58125	9.084375	6.292969	6.662109	6.996094
0.96	6.067969	6.169922	8.820703	5.916797	6.349219	6.598828
0.961	4.798828	4.675781	7.59375	4.503516	4.946484	5.034375
0.962	2.830078	2.475	5.712891	2.411719	2.773828	2.678906
0.963	0.815625	0.2953125	3.796875	0.3234375	0.5554688	0.3023438
0.964	-1.469531	-2.116406	1.652344	-1.982813	-1.905469	-2.316797
0.965	-3.6	-4.303125	-0.3058594	-4.060547	-4.187109	-4.710938
0.966	-4.932422	-5.600391	-1.494141	-5.291016	-5.610938	-6.162891
0.967	-5.56875	-6.110156	-1.993359	-5.772656	-6.229688	-6.764063
0.968	-5.582813	-5.966016	-1.919531	-5.639063	-6.176953	-6.651563
0.969	-4.66875	-4.848047	-0.984375	-4.580859	-5.157422	-5.491406
0.97	-2.816016	-2.749219	0.8226563	-2.5875	-3.125391	-3.258984
0.971	-0.8191406	-0.5660156	2.745703	-0.50625	-0.9316406	-0.8894531
0.972	1.335938	1.729688	4.791797	1.691016	1.402734	1.599609
0.973	3.603516	4.085156	6.883594	3.944531	3.835547	4.166016
0.974	5.213672	5.688281	8.279297	5.466797	5.565234	5.948438
0.975	6.064453	6.437109	8.862891	6.183984	6.437109	6.809766
0.976	6.331641	6.542578	8.648438	6.282422	6.648047	6.971484
0.977	5.818359	5.842969	7.488281	5.607422	6.050391	6.261328
0.978	4.225781	4.004297	5.245313	3.867188	4.292578	4.327734
0.979	2.197266	1.761328	2.510156	1.754297	2.056641	1.9125
0.98	0.0984375	-0.4886719	-0.1230469	-0.365625	-0.2214844	-0.5167969
0.981	-2.257031	-2.960156	-2.591016	-2.707031	-2.738672	-3.181641
0.982	-4.166016	-4.904297	-4.5	-4.538672	-4.78125	-5.312109
0.983	-5.252344	-5.916797	-5.646094	-5.501953	-5.920313	-6.458203
0.984	-5.695313	-6.208594	-6.089063	-5.797266	-6.331641	-6.823828
0.985	-5.459766	-5.804297	-5.811328	-5.417578	-6.032813	-6.430078
0.986	-4.194141	-4.299609	-4.503516	-3.997266	-4.644141	-4.876172
0.987	-2.207813	-2.074219	-2.513672	-1.905469	-2.475	-2.510156
0.988	-0.2074219	0.08789063	-0.5238281	0.1476563	-0.28125	-0.1546875
0.989	2.035547	2.460938	1.698047	2.425781	2.133984	2.415234
0.99	4.155469	4.637109	3.761719	4.507031	4.398047	4.795313
0.991	5.498438	5.941406	5.023828	5.755078	5.821875	6.254297
0.992	6.134766	6.447656	5.558203	6.250781	6.447656	6.841406
0.993	6.176953	6.335156	5.501953	6.145313	6.426563	6.75
0.994	5.322656	5.280469	4.552734	5.125781	5.459766	5.653125
0.995	3.473438	3.174609	2.629688	3.118359	3.424219	3.427734
0.996	1.423828	0.9351563	0.5625	0.984375	1.174219	1.0125
0.997	-0.7804688	-1.40625	-1.606641	-1.230469	-1.212891	-1.515234
0.998	-3.086719	-3.800391	-3.846094	-3.498047	-3.677344	-4.123828
0.999	-4.721484	-5.438672	-5.403516	-5.055469	-5.428125	-5.951953
1	-5.561719	-6.191016	-6.155859	-5.776172	-6.310547	-6.823828
1.001	-5.804297	-6.289453	-6.3	-5.874609	-6.507422	-6.964453
1.002	-5.298047	-5.600391	-5.695313	-5.213672	-5.913281	-6.250781
1.003	-3.737109	-3.793359	-4.05	-3.483984	-4.201172	-4.338281
1.004	-1.747266	-1.589063	-2.025	-1.392188	-2.014453	-1.96875
1.005	0.309375	0.6222656	0.003515625	0.6855469	0.2285156	0.421875
1.006	2.640234	3.069141	2.281641	2.998828	2.721094	3.065625
1.007	4.545703	5.009766	4.123828	4.848047	4.763672	5.196094
1.008	5.635547	6.032813	5.122266	5.825391	5.916797	6.349219
1.009	6.085547	6.342188	5.470313	6.13125	6.345703	6.718359
1.01	5.878125	5.9625	5.178516	5.779688	6.067969	6.345703
1.011	4.651172	4.503516	3.870703	4.394531	4.700391	4.830469
1.012	2.682422	2.295703	1.859766	2.309766	2.534766	2.471484
1.013	0.6433594	0.08789063	-0.1617188	0.2355469	0.309375	0.08085938
1.014	-1.634766	-2.320313	-2.411719	-2.056641	-2.141016	-2.524219
1.015	-3.76875	-4.517578	-4.492969	-4.158984	-4.419141	-4.925391
1.016	-5.132813	-5.85	-5.758594	-5.414063	-5.867578	-6.408984
1.017	-5.790234	-6.387891	-6.292969	-5.913281	-6.514453	-7.034766
1.018	-5.818359	-6.257813	-6.226172	-5.79375	-6.46875	-6.91875
1.019	-4.914844	-5.157422	-5.259375	-4.756641	-5.466797	-5.772656
1.02	-3.065625	-3.069141	-3.346875	-2.763281	-3.455859	-3.564844
1.021	-1.051172	-0.8648438	-1.314844	-0.675	-1.248047	-1.191797
1.022	1.125	1.458984	0.8332031	1.51875	1.103906	1.321875
1.023	3.43125	3.856641	3.09375	3.803906	3.564844	3.9375
1.024	5.090625	5.523047	4.682813	5.389453	5.347266	5.783203
1.025	5.980078	6.314063	5.459766	6.13125	6.275391	6.679688
1.026	6.261328	6.433594	5.617969	6.247266	6.500391	6.837891
1.027	5.765625	5.751563	5.027344	5.603906	5.90625	6.141797
1.028	4.215234	3.955078	3.389063	3.874219	4.194141	4.253906
1.029	2.204297	1.733203	1.339453	1.750781	1.975781	1.866797
1.03	0.1195313	-0.50625	-0.73125	-0.3621094	-0.2953125	-0.5519531
1.031	-2.214844	-2.963672	-3.026953	-2.696484	-2.798438	-3.20625
1.032	-4.134375	-4.918359	-4.883203	-4.559766	-4.855078	-5.354297
1.033	-5.245313	-5.958984	-5.888672	-5.547656	-6.022266	-6.532031
1.034	-5.702344	-6.275391	-6.226172	-5.842969	-6.447656	-6.915234
1.035	-5.491406	-5.902734	-5.920313	-5.473828	-6.166406	-6.546094
1.036	-4.243359	-4.436719	-4.591406	-4.067578	-4.798828	-5.013281
1.037	-2.264063	-2.221875	-2.559375	-1.965234	-2.626172	-2.640234
1.038	-0.253125	-0.03515625	-0.5414063	0.0984375	-0.4078125	-0.2707031
1.039	2.007422	2.358984	1.698047	2.387109	2.028516	2.323828
1.04	4.169531	4.584375	3.793359	4.503516	4.341797	4.753125
1.041	5.56875	5.948438	5.097656	5.790234	5.828906	6.264844
1.042	6.254297	6.507422	5.674219	6.324609	6.503906	6.904688
1.043	6.328125	6.423047	5.639063	6.24375	6.517969	6.844922
1.044	5.466797	5.357813	4.682813	5.220703	5.540625	5.748047
1.045	3.610547	3.251953	2.770313	3.223828	3.491016	3.515625
1.046	1.564453	1.016016	0.7242188	1.125	1.248047	1.107422
1.047	-0.6222656	-1.307813	-1.437891	-1.082813	-1.107422	-1.40625
1.048	-2.925	-3.698438	-3.694922	-3.371484	-3.554297	-4.007813
1.049	-4.577344	-5.354297	-5.280469	-4.953516	-5.322656	-5.846484
1.05	-5.45625	-6.138281	-6.050391	-5.695313	-6.226172	-6.742969
1.051	-5.716406	-6.247266	-6.201563	-5.804297	-6.433594	-6.894141
1.052	-5.199609	-5.547656	-5.600391	-5.146875	-5.835938	-6.173438
1.053	-3.624609	-3.730078	-3.951563	-3.413672	-4.109766	-4.246875
1.054	-1.617188	-1.508203	-1.894922	-1.290234	-1.901953	-1.845703
1.055	0.4394531	0.703125	0.1617188	0.8191406	0.3375	0.5484375
1.056	2.787891	3.164063	2.453906	3.153516	2.840625	3.202734
1.057	4.739063	5.150391	4.327734	5.034375	4.928906	5.371875
1.058	5.867578	6.212109	5.361328	6.039844	6.117188	6.563672
1.059	6.345703	6.546094	5.730469	6.359766	6.560156	6.960938
1.06	6.166406	6.194531	5.442188	6.025781	6.3	6.623438
1.061	4.95	4.760156	4.141406	4.651172	4.957031	5.129297
1.062	2.974219	2.548828	2.119922	2.545313	2.791406	2.773828
1.063	0.9351563	0.3410156	0.0703125	0.4429688	0.5800781	0.4007813
1.064	-1.353516	-2.08125	-2.200781	-1.866797	-1.866797	-2.214844
1.065	-3.515625	-4.313672	-4.303125	-3.990234	-4.183594	-4.665234
1.066	-4.904297	-5.674219	-5.603906	-5.283984	-5.656641	-6.1875
1.067	-5.589844	-6.229688	-6.162891	-5.807813	-6.324609	-6.830859
1.068	-5.653125	-6.13125	-6.113672	-5.709375	-6.317578	-6.75
1.069	-4.795313	-5.073047	-5.178516	-4.707422	-5.354297	-5.649609
1.07	-2.949609	-2.984766	-3.287109	-2.731641	-3.343359	-3.438281
1.071	-0.9386719	-0.7734375	-1.248047	-0.6328125	-1.132031	-1.054688
1.072	1.216406	1.522266	0.9	1.560938	1.195313	1.430859
1.073	3.533203	3.9375	3.153516	3.849609	3.65625	4.035938
1.074	5.210156	5.617969	4.753125	5.449219	5.438672	5.888672
1.075	6.099609	6.398438	5.551172	6.212109	6.352734	6.788672
1.076	6.387891	6.528516	5.726953	6.335156	6.598828	6.967969
1.077	5.913281	5.874609	5.150391	5.698828	6.043359	6.292969
1.078	4.355859	4.071094	3.519141	3.986719	4.324219	4.401563
1.079	2.30625	1.810547	1.4625	1.859766	2.070703	1.975781
1.08	0.2074219	-0.4394531	-0.6046875	-0.2566406	-0.2109375	-0.4570313
1.081	-2.1375	-2.910938	-2.921484	-2.608594	-2.717578	-3.132422
1.082	-4.095703	-4.911328	-4.816406	-4.514063	-4.802344	-5.333203
1.083	-5.227734	-5.983594	-5.846484	-5.526563	-5.997656	-6.546094
1.084	-5.691797	-6.3	-6.194531	-5.835938	-6.433594	-6.932813
1.085	-5.487891	-5.930859	-5.90625	-5.487891	-6.169922	-6.570703
1.086	-4.267969	-4.485938	-4.605469	-4.109766	-4.830469	-5.0625
1.087	-2.288672	-2.271094	-2.573438	-2.000391	-2.661328	-2.7
1.088	-0.2671875	-0.08085938	-0.5414063	0.08085938	-0.4429688	-0.3269531
1.089	2.000391	2.320313	1.705078	2.373047	2.010938	2.281641
1.09	4.176563	4.566797	3.828516	4.514063	4.348828	4.735547
1.091	5.589844	5.955469	5.167969	5.839453	5.867578	6.285938
1.092	6.292969	6.535547	5.772656	6.401953	6.567188	6.960938
1.093	6.342188	6.433594	5.726953	6.307031	6.560156	6.883594
1.094	5.505469	5.396484	4.795313	5.315625	5.610938	5.804297
1.095	3.719531	3.357422	2.917969	3.350391	3.635156	3.638672
1.096	1.708594	1.153125	0.8613281	1.230469	1.423828	1.251563
1.097	-0.478125	-1.170703	-1.307813	-0.9808594	-0.9351563	-1.265625
1.098	-2.808984	-3.6	-3.578906	-3.290625	-3.424219	-3.902344
1.099	-4.510547	-5.305078	-5.196094	-4.904297	-5.241797	-5.783203
1.1	-5.410547	-6.103125	-5.983594	-5.660156	-6.169922	-6.697266
1.101	-5.68125	-6.226172	-6.152344	-5.786719	-6.398438	-6.873047
1.102	-5.199609	-5.56875	-5.586328	-5.157422	-5.832422	-6.201563
1.103	-3.642188	-3.772266	-3.958594	-3.448828	-4.123828	-4.310156
1.104	-1.620703	-1.529297	-1.898438	-1.318359	-1.905469	-1.901953
1.105	0.4324219	0.6820313	0.1511719	0.7804688	0.3375	0.4992188
1.106	2.777344	3.142969	2.457422	3.121875	2.851172	3.167578
1.107	4.742578	5.157422	4.359375	5.034375	4.967578	5.378906
1.108	5.892188	6.247266	5.421094	6.067969	6.183984	6.609375
1.109	6.380859	6.602344	5.804297	6.401953	6.644531	7.024219
1.11	6.208594	6.261328	5.540625	6.089063	6.394922	6.686719
1.111	5.020313	4.851563	4.271484	4.753125	5.080078	5.213672
1.112	3.058594	2.650781	2.25	2.647266	2.928516	2.86875
1.113	1.019531	0.4324219	0.196875	0.534375	0.6925781	0.4710938
1.114	-1.286719	-2.007422	-2.070703	-1.771875	-1.775391	-2.165625
1.115	-3.469922	-4.257422	-4.201172	-3.923438	-4.113281	-4.633594
1.116	-4.858594	-5.617969	-5.523047	-5.238281	-5.607422	-6.159375
1.117	-5.551172	-6.183984	-6.096094	-5.776172	-6.3	-6.816797
1.118	-5.632031	-6.099609	-6.064453	-5.691797	-6.317578	-6.760547
1.119	-4.802344	-5.066016	-5.157422	-4.710938	-5.389453	-5.691797
1.12	-2.977734	-2.995313	-3.269531	-2.745703	-3.399609	-3.498047
1.121	-0.9597656	-0.7839844	-1.226953	-0.6398438	-1.184766	-1.110938
1.122	1.18125	1.508203	0.9140625	1.550391	1.135547	1.360547
1.123	3.498047	3.923438	3.185156	3.853125	3.617578	3.979688
1.124	5.217188	5.646094	4.819922	5.480859	5.45625	5.881641
1.125	6.148828	6.479297	5.639063	6.268359	6.419531	6.827344
1.126	6.465234	6.6375	5.839453	6.419531	6.683203	7.027734
1.127	6.004688	5.997656	5.291016	5.818359	6.134766	6.380859
1.128	4.468359	4.222266	3.677344	4.127344	4.440234	4.517578
1.129	2.453906	1.989844	1.599609	1.975781	2.225391	2.109375
1.13	0.3726563	-0.2460938	-0.478125	-0.1617188	-0.0421875	-0.3128906
1.131	-1.993359	-2.738672	-2.791406	-2.517188	-2.573438	-2.998828
1.132	-3.979688	-4.760156	-4.696875	-4.429688	-4.686328	-5.213672
1.133	-5.129297	-5.842969	-5.744531	-5.452734	-5.892188	-6.444141
1.134	-5.614453	-6.183984	-6.117188	-5.786719	-6.359766	-6.866016
1.135	-5.435156	-5.839453	-5.85	-5.463281	-6.124219	-6.535547
1.136	-4.236328	-4.422656	-4.577344	-4.10625	-4.805859	-5.051953
1.137	-2.257031	-2.211328	-2.545313	-2.000391	-2.636719	-2.689453
1.138	-0.2285156	-0.00703125	-0.5132813	0.07734375	-0.4148438	-0.309375
1.139	2.049609	2.411719	1.729688	2.369531	2.032031	2.299219
1.14	4.271484	4.707422	3.895313	4.549219	4.408594	4.802344
1.141	5.7375	6.148828	5.305078	5.913281	5.976563	6.401953
1.142	6.440625	6.725391	5.927344	6.465234	6.676172	7.073438
1.143	6.510938	6.6375	5.902734	6.391406	6.686719	7.024219
1.144	5.712891	5.646094	5.009766	5.445703	5.786719	6.001172
1.145	3.909375	3.592969	3.146484	3.498047	3.810938	3.839063
1.146	1.863281	1.357031	1.079297	1.374609	1.575	1.427344
1.147	-0.3164063	-0.9703125	-1.082813	-0.8367188	-0.7769531	-1.089844
1.148	-2.657813	-3.413672	-3.371484	-3.153516	-3.276563	-3.740625
1.149	-4.373438	-5.136328	-5.020313	-4.788281	-5.122266	-5.653125
1.15	-5.294531	-5.9625	-5.842969	-5.575781	-6.067969	-6.595313
1.151	-5.603906	-6.117188	-6.043359	-5.716406	-6.321094	-6.795703
1.152	-5.171484	-5.508984	-5.505469	-5.115234	-5.807813	-6.162891
1.153	-3.652734	-3.747656	-3.902344	-3.427734	-4.144922	-4.306641
1.154	-1.620703	-1.490625	-1.849219	-1.300781	-1.905469	-1.877344
1.155	0.4464844	0.7347656	0.1933594	0.7910156	0.365625	0.5378906
1.156	2.794922	3.199219	2.492578	3.139453	2.879297	3.195703
1.157	4.788281	5.227734	4.422656	5.073047	5.013281	5.414063
1.158	5.9625	6.335156	5.554688	6.13125	6.264844	6.665625
1.159	6.465234	6.707813	6.053906	6.482813	6.753516	7.112109
1.16	6.317578	6.398438	5.941406	6.191016	6.528516	6.813281
1.161	5.164453	5.027344	4.872656	4.872656	5.241797	5.371875
1.162	3.199219	2.823047	3.0375	2.777344	3.079688	3.023438
1.163	1.156641	0.6082031	1.135547	0.675	0.8367188	0.6292969
1.164	-1.128516	-1.807031	-0.9914063	-1.634766	-1.624219	-1.986328
1.165	-3.346875	-4.099219	-3.069141	-3.810938	-3.99375	-4.482422
1.166	-4.791797	-5.519531	-4.471875	-5.157422	-5.533594	-6.064453
1.167	-5.494922	-6.110156	-5.199609	-5.712891	-6.236719	-6.75
1.168	-5.586328	-6.039844	-5.2875	-5.649609	-6.271875	-6.714844
1.169	-4.78125	-5.037891	-4.454297	-4.700391	-5.375391	-5.677734
1.17	-2.98125	-2.984766	-2.626172	-2.745703	-3.399609	-3.494531
1.171	-0.9527344	-0.7558594	-0.6011719	-0.6363281	-1.170703	-1.082813
1.172	1.209375	1.546875	1.515234	1.550391	1.170703	1.399219
1.173	3.536719	3.976172	3.76875	3.856641	3.670313	4.035938
1.174	5.276953	5.723438	5.431641	5.5125	5.537109	5.969531
1.175	6.229688	6.584766	6.307031	6.328125	6.521484	6.939844
1.176	6.560156	6.771094	6.577734	6.493359	6.80625	7.161328
1.177	6.148828	6.180469	6.152344	5.927344	6.314063	6.556641
1.178	4.661719	4.450781	4.703906	4.275	4.66875	4.735547
1.179	2.633203	2.197266	2.75625	2.133984	2.432813	2.316797
1.18	0.5449219	-0.0421875	0.7664063	0.00703125	0.1511719	-0.1089844
1.181	-1.810547	-2.520703	-1.455469	-2.341406	-2.373047	-2.784375
1.182	-3.800391	-4.55625	-3.297656	-4.289063	-4.5	-5.027344
1.183	-4.964063	-5.663672	-4.320703	-5.347266	-5.730469	-6.282422
1.184	-5.470313	-6.029297	-4.710938	-5.691797	-6.215625	-6.725391
1.185	-5.322656	-5.726953	-4.475391	-5.389453	-6.004688	-6.426563
1.186	-4.166016	-4.352344	-3.276563	-4.067578	-4.717969	-4.985156
1.187	-2.197266	-2.141016	-1.318359	-1.96875	-2.552344	-2.619141
1.188	-0.1652344	0.07382813	0.6855469	0.1195313	-0.3128906	-0.2109375
1.189	2.126953	2.503125	2.896875	2.41875	2.148047	2.411719
1.19	4.376953	4.830469	5.037891	4.623047	4.55625	4.942969
1.191	5.821875	6.254297	6.401953	5.983594	6.117188	6.535547
1.192	6.514453	6.823828	7.027734	6.542578	6.816797	7.203516
1.193	6.623438	6.778125	7.076953	6.503906	6.873047	7.182422
1.194	5.874609	5.825391	6.254297	5.589844	6.01875	6.198047
1.195	4.092188	3.793359	4.275	3.652734	4.042969	4.05
1.196	2.042578	1.546875	1.814063	1.515234	1.778906	1.624219
1.197	-0.140625	-0.7839844	-0.7804688	-0.6960938	-0.5835938	-0.8929688
1.198	-2.503125	-3.244922	-3.2625	-3.026953	-3.09375	-3.561328
1.199	-4.253906	-5.00625	-4.953516	-4.703906	-4.964063	-5.501953
1.2	-5.192578	-5.857031	-5.807813	-5.516016	-5.927344	-6.46875
1.201	-5.5125	-6.025781	-6.032813	-5.677734	-6.205078	-6.69375
1.202	-5.087109	-5.428125	-5.523047	-5.104688	-5.709375	-6.089063
1.203	-3.592969	-3.687891	-3.951563	-3.448828	-4.067578	-4.264453
1.204	-1.582031	-1.448438	-1.887891	-1.318359	-1.852734	-1.852734
1.205	0.4640625	0.7628906	0.16875	0.7875	0.3867188	0.5449219
1.206	2.805469	3.227344	2.475	3.125391	2.889844	3.202734
1.207	4.823438	5.291016	4.415625	5.076563	5.051953	5.45625
1.208	6.01875	6.433594	5.519531	6.155859	6.324609	6.732422
1.209	6.539063	6.809766	5.934375	6.517969	6.827344	7.192969
1.21	6.405469	6.514453	5.705859	6.236719	6.626953	6.908203
1.211	5.266406	5.153906	4.478906	4.946484	5.357813	5.477344
1.212	3.290625	2.932031	2.457422	2.844141	3.188672	3.111328
1.213	1.233984	0.6960938	0.3902344	0.7207031	0.9386719	0.6925781
1.214	-1.054688	-1.719141	-1.880859	-1.596094	-1.515234	-1.916016
1.215	-3.283594	-4.018359	-4.057031	-3.796875	-3.895313	-4.415625
1.216	-4.753125	-5.459766	-5.442188	-5.175	-5.473828	-6.025781
1.217	-5.491406	-6.078516	-6.064453	-5.765625	-6.226172	-6.757031
1.218	-5.614453	-6.043359	-6.071484	-5.723438	-6.3	-6.760547
1.219	-4.844531	-5.083594	-5.217188	-4.802344	-5.445703	-5.769141
1.22	-3.051563	-3.051563	-3.371484	-2.875781	-3.483984	-3.610547
1.221	-1.023047	-0.8191406	-1.318359	-0.7628906	-1.251563	-1.202344
1.222	1.121484	1.476563	0.8226563	1.427344	1.079297	1.286719
1.223	3.466406	3.923438	3.118359	3.754688	3.585938	3.948047
1.224	5.23125	5.702344	4.802344	5.435156	5.480859	5.902734
1.225	6.191016	6.574219	5.660156	6.254297	6.479297	6.876563
1.226	6.535547	6.767578	5.895703	6.433594	6.774609	7.122656
1.227	6.145313	6.201563	5.407031	5.888672	6.3	6.553125
1.228	4.672266	4.492969	3.860156	4.264453	4.672266	4.760156
1.229	2.647266	2.246484	1.8	2.1375	2.432813	2.337891
1.23	0.5730469	0.01054688	-0.2742188	0.0140625	0.16875	-0.08085938
1.231	-1.778906	-2.464453	-2.598047	-2.348438	-2.341406	-2.75625
1.232	-3.810938	-4.542188	-4.55625	-4.324219	-4.517578	-5.034375
1.233	-5.013281	-5.688281	-5.667188	-5.410547	-5.800781	-6.335156
1.234	-5.537109	-6.078516	-6.082031	-5.786719	-6.303516	-6.809766
1.235	-5.417578	-5.800781	-5.871094	-5.526563	-6.120703	-6.542578
1.236	-4.299609	-4.468359	-4.66875	-4.243359	-4.89375	-5.143359
1.237	-2.355469	-2.274609	-2.657813	-2.155078	-2.763281	-2.805469
1.238	-0.3199219	-0.05976563	-0.6152344	-0.05625	-0.5308594	-0.4078125
1.239	1.958203	2.351953	1.63125	2.232422	1.926563	2.200781
1.24	4.183594	4.644141	3.782813	4.408594	4.303125	4.693359
1.241	5.642578	6.075	5.160938	5.772656	5.864063	6.285938
1.242	6.370313	6.686719	5.804297	6.373828	6.598828	6.999609
1.243	6.486328	6.651563	5.835938	6.352734	6.651563	6.996094
1.244	5.751563	5.723438	5.009766	5.470313	5.811328	6.036328
1.245	3.990234	3.716016	3.171094	3.547266	3.88125	3.909375
1.246	1.944141	1.473047	1.093359	1.40625	1.634766	1.494141
1.247	-0.2214844	-0.8402344	-1.061719	-0.7945313	-0.7171875	-1.008984
1.248	-2.576953	-3.308203	-3.364453	-3.135938	-3.241406	-3.687891
1.249	-4.355859	-5.104688	-5.058984	-4.830469	-5.150391	-5.670703
1.25	-5.329688	-5.990625	-5.916797	-5.660156	-6.162891	-6.679688
1.251	-5.677734	-6.1875	-6.148828	-5.846484	-6.458203	-6.929297
1.252	-5.2875	-5.628516	-5.674219	-5.315625	-5.983594	-6.35625
1.253	-3.821484	-3.930469	-4.141406	-3.698438	-4.366406	-4.570313
1.254	-1.807031	-1.6875	-2.088281	-1.571484	-2.148047	-2.158594
1.255	0.2355469	0.5203125	-0.03867188	0.5273438	0.084375	0.2320313
1.256	2.573438	2.98125	2.260547	2.872266	2.580469	2.886328
1.257	4.608984	5.0625	4.225781	4.851563	4.760156	5.167969
1.258	5.821875	6.222656	5.350781	5.955469	6.057422	6.482813
1.259	6.366797	6.626953	5.790234	6.345703	6.591797	6.971484
1.26	6.264844	6.359766	5.589844	6.096094	6.433594	6.725391
1.261	5.175	5.051953	4.405078	4.8375	5.224219	5.361328
1.262	3.234375	2.872266	2.408203	2.759766	3.090234	3.0375
1.263	1.184766	0.646875	0.3585938	0.6609375	0.8402344	0.6433594
1.264	-1.110938	-1.782422	-1.887891	-1.624219	-1.627734	-1.96875
1.265	-3.360938	-4.113281	-4.074609	-3.839063	-4.035938	-4.514063
1.266	-4.841016	-5.575781	-5.484375	-5.245313	-5.610938	-6.155859
1.267	-5.575781	-6.201563	-6.120703	-5.85	-6.349219	-6.880078
1.268	-5.705859	-6.169922	-6.148828	-5.825391	-6.423047	-6.887109
1.269	-4.978125	-5.248828	-5.333203	-4.939453	-5.593359	-5.923828
1.27	-3.220313	-3.248438	-3.501563	-3.030469	-3.666797	-3.793359
1.271	-1.191797	-1.016016	-1.444922	-0.9070313	-1.434375	-1.381641
1.272	0.9421875	1.262109	0.675	1.265625	0.8789063	1.082813
1.273	3.273047	3.698438	2.967188	3.596484	3.371484	3.723047
1.274	5.048438	5.491406	4.682813	5.308594	5.276953	5.698828
1.275	6.036328	6.391406	5.565234	6.159375	6.303516	6.711328
1.276	6.4125	6.612891	5.807813	6.359766	6.6375	6.985547
1.277	6.050391	6.071484	5.336719	5.835938	6.205078	6.447656
1.278	4.598438	4.383984	3.807422	4.225781	4.6125	4.686328
1.279	2.569922	2.133984	1.74375	2.084766	2.380078	2.278125
1.28	0.4921875	-0.1019531	-0.3234375	-0.03164063	0.1089844	-0.1335938
1.281	-1.873828	-2.591016	-2.64375	-2.390625	-2.415234	-2.819531
1.282	-3.916406	-4.686328	-4.626563	-4.3875	-4.605469	-5.115234
1.283	-5.132813	-5.85	-5.758594	-5.498438	-5.892188	-6.430078
1.284	-5.684766	-6.268359	-6.1875	-5.888672	-6.416016	-6.922266
1.285	-5.593359	-6.01875	-5.997656	-5.642578	-6.247266	-6.679688
1.286	-4.510547	-4.717969	-4.830469	-4.398047	-5.041406	-5.319141
1.287	-2.559375	-2.520703	-2.823047	-2.309766	-2.907422	-2.98125
1.288	-0.5273438	-0.3023438	-0.7734375	-0.2074219	-0.6679688	-0.5730469
1.289	1.694531	2.053125	1.434375	2.049609	1.733203	1.986328
1.29	3.919922	4.352344	3.603516	4.246875	4.10625	4.492969
1.291	5.442188	5.853516	5.041406	5.667188	5.733984	6.159375
1.292	6.215625	6.510938	5.702344	6.289453	6.517969	6.911719
1.293	6.359766	6.500391	5.748047	6.285938	6.612891	6.943359
1.294	5.660156	5.607422	4.957031	5.442188	5.821875	6.032813
1.295	3.930469	3.628125	3.153516	3.550781	3.912891	3.944531
1.296	1.887891	1.378125	1.086328	1.420313	1.655859	1.522266
1.297	-0.2742188	-0.9316406	-1.047656	-0.7628906	-0.6890625	-0.9773438
1.298	-2.640234	-3.396094	-3.357422	-3.107813	-3.199219	-3.649219
1.299	-4.429688	-5.206641	-5.087109	-4.8375	-5.094141	-5.639063
1.3	-5.4	-6.092578	-5.958984	-5.684766	-6.099609	-6.648047
1.301	-5.751563	-6.296484	-6.191016	-5.874609	-6.408984	-6.904688
1.302	-5.382422	-5.755078	-5.733984	-5.354297	-5.9625	-6.349219
1.303	-3.926953	-4.064063	-4.208203	-3.747656	-4.373438	-4.573828
1.304	-1.901953	-1.807031	-2.133984	-1.599609	-2.155078	-2.162109
1.305	0.1546875	0.4113281	-0.0703125	0.5097656	0.09140625	0.2390625
1.306	2.506641	2.886328	2.232422	2.861719	2.622656	2.921484
1.307	4.577344	5.009766	4.229297	4.876172	4.855078	5.245313
1.308	5.828906	6.219141	5.389453	6.015234	6.191016	6.595313
1.309	6.394922	6.651563	5.846484	6.426563	6.739453	7.108594
1.31	6.317578	6.4125	5.670703	6.201563	6.602344	6.901172
1.311	5.273438	5.146875	4.528125	4.992188	5.431641	5.586328
1.312	3.336328	2.967188	2.538281	2.921484	3.294141	3.266016
1.313	1.265625	0.7207031	0.478125	0.8050781	1.026563	0.8402344
1.314	-1.019531	-1.698047	-1.761328	-1.480078	-1.430859	-1.771875
1.315	-3.276563	-4.032422	-3.955078	-3.698438	-3.839063	-4.317188
1.316	-4.788281	-5.526563	-5.389453	-5.125781	-5.459766	-5.987109
1.317	-5.551172	-6.173438	-6.043359	-5.744531	-6.233203	-6.739453
1.318	-5.691797	-6.162891	-6.089063	-5.7375	-6.317578	-6.764063
1.319	-4.988672	-5.269922	-5.301563	-4.883203	-5.516016	-5.839453
1.32	-3.251953	-3.287109	-3.494531	-2.991797	-3.610547	-3.733594
1.321	-1.202344	-1.030078	-1.437891	-0.8683594	-1.357031	-1.304297
1.322	0.9386719	1.265625	0.6785156	1.300781	0.9773438	1.18125
1.323	3.287109	3.719531	3.012891	3.635156	3.494531	3.846094
1.324	5.101172	5.547656	4.816406	5.371875	5.438672	5.860547
1.325	6.110156	6.458203	5.814844	6.247266	6.482813	6.894141
1.326	6.475781	6.669141	6.180469	6.461719	6.799219	7.157813
1.327	6.124219	6.138281	5.871094	5.958984	6.373828	6.6375
1.328	4.700391	4.475391	4.538672	4.369922	4.812891	4.907813
1.329	2.654297	2.204297	2.647266	2.214844	2.562891	2.475
1.33	0.5519531	-0.05976563	0.7382813	0.07382813	0.2636719	0.028125
1.331	-1.831641	-2.569922	-1.402734	-2.292188	-2.288672	-2.668359
1.332	-3.930469	-4.710938	-3.2625	-4.313672	-4.531641	-5.020313
1.333	-5.189063	-5.916797	-4.33125	-5.452734	-5.874609	-6.384375
1.334	-5.744531	-6.338672	-4.728516	-5.871094	-6.405469	-6.883594
1.335	-5.656641	-6.096094	-4.535156	-5.660156	-6.250781	-6.648047
1.336	-4.594922	-4.819922	-3.424219	-4.450781	-5.0625	-5.308594
1.337	-2.650781	-2.633203	-1.487109	-2.369531	-2.928516	-2.974219
1.338	-0.6433594	-0.4464844	0.4710938	-0.2988281	-0.7277344	-0.6046875
1.339	1.564453	1.901953	2.605078	1.933594	1.645313	1.926563
1.34	3.821484	4.236328	4.760156	4.158984	4.05	4.461328
1.341	5.361328	5.755078	6.208594	5.607422	5.691797	6.145313
1.342	6.13125	6.408984	6.911719	6.24375	6.465234	6.897656
1.343	6.278906	6.401953	7.038281	6.250781	6.553125	6.925781
1.344	5.596875	5.530078	6.380859	5.421094	5.776172	6.029297
1.345	3.867188	3.547266	4.728516	3.526172	3.877734	3.9375
1.346	1.8	1.276172	2.787891	1.371094	1.613672	1.497656
1.347	-0.365625	-1.037109	0.7769531	-0.8226563	-0.7382813	-1.005469
1.348	-2.738672	-3.512109	-1.392188	-3.174609	-3.280078	-3.698438
1.349	-4.563281	-5.354297	-3.030469	-4.921875	-5.241797	-5.741016
1.35	-5.572266	-6.289453	-3.884766	-5.804297	-6.3	-6.809766
1.351	-5.941406	-6.510938	-4.123828	-6.025781	-6.623438	-7.098047
1.352	-5.603906	-6.001172	-3.698438	-5.540625	-6.194531	-6.574219
1.353	-4.204688	-4.362891	-2.271094	-3.969141	-4.644141	-4.848047
1.354	-2.190234	-2.112891	-0.2847656	-1.824609	-2.436328	-2.429297
1.355	-0.1371094	0.1019531	1.694531	0.2777344	-0.196875	-0.02109375
1.356	2.204297	2.576953	3.919922	2.619141	2.323828	2.650781
1.357	4.299609	4.721484	5.878125	4.640625	4.573828	4.988672
1.358	5.575781	5.944922	7.045313	5.79375	5.930859	6.342188
1.359	6.166406	6.391406	7.548047	6.226172	6.496875	6.869531
1.36	6.106641	6.166406	7.453125	6.015234	6.380859	6.672656
1.361	5.055469	4.907813	6.444141	4.823438	5.227734	5.378906
1.362	3.118359	2.731641	4.605469	2.759766	3.104297	3.065625
1.363	1.06875	0.50625	2.668359	0.6398438	0.8472656	0.6433594
1.364	-1.188281	-1.887891	0.5625	-1.641797	-1.589063	-1.940625
1.365	-3.459375	-4.236328	-1.522266	-3.88125	-4.018359	-4.496484
1.366	-5.00625	-5.776172	-2.907422	-5.34375	-5.674219	-6.208594
1.367	-5.790234	-6.454688	-3.550781	-5.983594	-6.475781	-6.996094
1.368	-5.955469	-6.461719	-3.607031	-5.997656	-6.584766	-7.038281
1.369	-5.2875	-5.596875	-2.882813	-5.175	-5.811328	-6.145313
1.37	-3.564844	-3.628125	-1.174219	-3.297656	-3.916406	-4.05
1.371	-1.51875	-1.378125	0.8085938	-1.163672	-1.662891	-1.617188
1.372	0.6046875	0.8964844	2.858203	1.005469	0.6539063	0.8507813
1.373	2.963672	3.360938	5.087109	3.350391	3.185156	3.522656
1.374	4.795313	5.213672	6.792188	5.108203	5.153906	5.558203
1.375	5.814844	6.152344	7.716797	6.011719	6.222656	6.616406
1.376	6.205078	6.398438	8.033203	6.250781	6.574219	6.922266
1.377	5.892188	5.916797	7.685156	5.776172	6.176953	6.437109
1.378	4.514063	4.303125	6.321094	4.215234	4.647656	4.735547
1.379	2.478516	2.035547	4.366406	2.056641	2.411719	2.302734
1.38	0.3761719	-0.2285156	2.397656	-0.08085938	0.1195313	-0.1441406
1.381	-1.993359	-2.721094	0.196875	-2.457422	-2.404688	-2.837109
1.382	-4.085156	-4.869141	-1.729688	-4.510547	-4.640625	-5.185547
1.383	-5.350781	-6.099609	-2.851172	-5.674219	-6.001172	-6.574219
1.384	-5.927344	-6.542578	-3.304688	-6.099609	-6.577734	-7.112109
1.385	-5.867578	-6.314063	-3.142969	-5.881641	-6.447656	-6.908203
1.386	-4.844531	-5.076563	-2.063672	-4.672266	-5.298047	-5.607422
1.387	-2.942578	-2.932031	-0.1898438	-2.615625	-3.216797	-3.31875
1.388	-0.9175781	-0.7207031	1.754297	-0.5308594	-1.001953	-0.9210938
1.389	1.328906	1.666406	3.895313	1.729688	1.423828	1.666406
1.39	3.6	4.018359	6.039844	3.976172	3.867188	4.232813
1.391	5.153906	5.56875	7.484766	5.445703	5.544141	5.958984
1.392	5.9625	6.268359	8.187891	6.110156	6.366797	6.753516
1.393	6.159375	6.3	8.307422	6.138281	6.507422	6.827344
1.394	5.519531	5.470313	7.664063	5.336719	5.786719	5.987109
1.395	3.810938	3.519141	6.022266	3.469922	3.912891	3.9375
1.396	1.74375	1.248047	4.067578	1.321875	1.634766	1.490625
1.397	-0.4359375	-1.075781	2.049609	-0.8613281	-0.7242188	-1.016016
1.398	-2.847656	-3.582422	-0.1546875	-3.230859	-3.280078	-3.719531
1.399	-4.696875	-5.452734	-1.842188	-5.009766	-5.262891	-5.79375
1.4	-5.698828	-6.384375	-2.721094	-5.909766	-6.345703	-6.883594
1.401	-6.078516	-6.626953	-2.984766	-6.138281	-6.700781	-7.2
1.402	-5.751563	-6.138281	-2.601563	-5.674219	-6.282422	-6.707813
1.403	-4.338281	-4.489453	-1.212891	-4.127344	-4.717969	-4.978125
1.404	-2.278125	-2.207813	0.759375	-1.975781	-2.471484	-2.527734
1.405	-0.2039063	0.03164063	2.742188	0.1371094	-0.2109375	-0.0984375
1.406	2.126953	2.499609	4.957031	2.485547	2.295703	2.562891
1.407	4.21875	4.654688	6.929297	4.542188	4.545703	4.914844
1.408	5.5125	5.90625	8.114063	5.733984	5.923828	6.314063
1.409	6.120703	6.377344	8.620313	6.183984	6.514453	6.866016
1.41	6.089063	6.176953	8.532422	5.990625	6.419531	6.686719
1.411	5.080078	4.953516	7.5375	4.823438	5.301563	5.428125
1.412	3.157031	2.784375	5.691797	2.763281	3.188672	3.125391
1.413	1.089844	0.5414063	3.737109	0.6328125	0.9210938	0.6925781
1.414	-1.184766	-1.863281	1.613672	-1.659375	-1.525781	-1.908984
1.415	-3.4875	-4.246875	-0.4992188	-3.919922	-3.983203	-4.496484
1.416	-5.0625	-5.814844	-1.908984	-5.392969	-5.670703	-6.233203
1.417	-5.871094	-6.525	-2.576953	-6.053906	-6.500391	-7.041797
1.418	-6.050391	-6.553125	-2.657813	-6.082031	-6.6375	-7.115625
1.419	-5.392969	-5.702344	-1.96875	-5.280469	-5.888672	-6.24375
1.42	-3.677344	-3.740625	-0.2882813	-3.420703	-4.014844	-4.169531
1.421	-1.63125	-1.483594	1.6875	-1.286719	-1.771875	-1.74375
1.422	0.4851563	0.7875	3.719531	0.8789063	0.5378906	0.7171875
1.423	2.844141	3.2625	5.951953	3.237891	3.076172	3.403125
1.424	4.707422	5.153906	7.685156	5.030859	5.083594	5.491406
1.425	5.755078	6.124219	8.623828	5.958984	6.1875	6.588281
1.426	6.162891	6.380859	8.94375	6.212109	6.563672	6.904688
1.427	5.853516	5.895703	8.599219	5.755078	6.191016	6.426563
1.428	4.478906	4.289063	7.259766	4.215234	4.682813	4.753125
1.429	2.446875	2.021484	5.319141	2.063672	2.443359	2.330859
1.43	0.3550781	-0.2285156	3.343359	-0.06679688	0.1582031	-0.1125
1.431	-2.000391	-2.714063	1.142578	-2.429297	-2.373047	-2.794922
1.432	-4.130859	-4.897266	-0.7945313	-4.485938	-4.654688	-5.178516
1.433	-5.435156	-6.162891	-1.947656	-5.674219	-6.043359	-6.595313
1.434	-6.011719	-6.612891	-2.411719	-6.113672	-6.609375	-7.136719
1.435	-5.948438	-6.384375	-2.271094	-5.902734	-6.489844	-6.932813
1.436	-4.960547	-5.182031	-1.251563	-4.749609	-5.392969	-5.68125
1.437	-3.058594	-3.048047	0.6046875	-2.710547	-3.311719	-3.406641
1.438	-1.023047	-0.8261719	2.573438	-0.5941406	-1.061719	-1.005469
1.439	1.216406	1.553906	4.717969	1.683984	1.360547	1.578516
1.44	3.533203	3.958594	6.887109	3.969141	3.832031	4.201172
1.441	5.150391	5.572266	8.356641	5.473828	5.558203	5.980078
1.442	5.987109	6.3	9.080859	6.155859	6.408984	6.799219
1.443	6.183984	6.338672	9.210938	6.208594	6.570703	6.890625
1.444	5.561719	5.533594	8.581641	5.438672	5.878125	6.082031
1.445	3.884766	3.607031	6.953906	3.6	4.021875	4.053516
1.446	1.821094	1.332422	4.985156	1.444922	1.740234	1.596094
1.447	-0.3339844	-0.9667969	2.953125	-0.7488281	-0.5941406	-0.8964844
1.448	-2.710547	-3.445313	0.7382813	-3.114844	-3.132422	-3.585938
1.449	-4.577344	-5.340234	-0.9632813	-4.907813	-5.132813	-5.674219
1.45	-5.617969	-6.314063	-1.877344	-5.825391	-6.24375	-6.785156
1.451	-6.015234	-6.567188	-2.162109	-6.071484	-6.623438	-7.105078
1.452	-5.723438	-6.103125	-1.796484	-5.621484	-6.24375	-6.633984
1.453	-4.383984	-4.521094	-0.4253906	-4.085156	-4.746094	-4.964063
1.454	-2.3625	-2.267578	1.543359	-1.933594	-2.53125	-2.548828
1.455	-0.2847656	-0.028125	3.519141	0.1722656	-0.2636719	-0.1300781
1.456	2.067188	2.446875	5.716406	2.513672	2.25	2.534766
1.457	4.183594	4.623047	7.685156	4.577344	4.514063	4.907813
1.458	5.494922	5.899219	8.880469	5.783203	5.923828	6.331641
1.459	6.127734	6.398438	9.400781	6.247266	6.546094	6.915234
1.46	6.110156	6.222656	9.305859	6.071484	6.472266	6.757031
1.461	5.132813	5.037891	8.310938	4.935938	5.382422	5.526563
1.462	3.223828	2.882813	6.447656	2.886328	3.283594	3.248438
1.463	1.149609	0.6257813	4.450781	0.7488281	1.005469	0.815625
1.464	-1.107422	-1.775391	2.30625	-1.529297	-1.434375	-1.785938
1.465	-3.406641	-4.158984	0.1757813	-3.807422	-3.895313	-4.3875
1.466	-4.999219	-5.748047	-1.258594	-5.322656	-5.603906	-6.148828
1.467	-5.825391	-6.475781	-1.944141	-6.004688	-6.451172	-6.971484
1.468	-6.046875	-6.528516	-2.046094	-6.053906	-6.609375	-7.055859
1.469	-5.442188	-5.730469	-1.374609	-5.276953	-5.909766	-6.236719
1.47	-3.758203	-3.800391	0.2882813	-3.43125	-4.074609	-4.208203
1.471	-1.691016	-1.51875	2.271094	-1.290234	-1.810547	-1.761328
1.472	0.4605469	0.7804688	4.299609	0.8683594	0.5273438	0.7171875
1.473	2.837109	3.2625	6.525	3.223828	3.058594	3.399609
1.474	4.725	5.178516	8.279297	5.048438	5.073047	5.498438
1.475	5.804297	6.180469	9.242578	5.997656	6.212109	6.630469
1.476	6.229688	6.465234	9.580078	6.268359	6.619922	6.985547
1.477	5.951953	6.015234	9.263672	5.842969	6.271875	6.546094
1.478	4.608984	4.436719	7.948828	4.345313	4.788281	4.904297
1.479	2.5875	2.179688	6.001172	2.197266	2.576953	2.496094
1.48	0.5027344	-0.06328125	4.021875	0.05976563	0.3128906	0.06679688
1.481	-1.845703	-2.541797	1.814063	-2.309766	-2.207813	-2.619141
1.482	-3.972656	-4.728516	-0.1546875	-4.394531	-4.503516	-5.034375
1.483	-5.291016	-6.004688	-1.332422	-5.603906	-5.923828	-6.489844
1.484	-5.899219	-6.486328	-1.817578	-6.050391	-6.539063	-7.073438
1.485	-5.902734	-6.331641	-1.740234	-5.90625	-6.475781	-6.936328
1.486	-4.953516	-5.175	-0.7804688	-4.812891	-5.407031	-5.716406
1.487	-3.044531	-3.023438	1.072266	-2.770313	-3.301172	-3.410156
1.488	-1.005469	-0.7910156	3.0375	-0.6539063	-1.044141	-0.984375
1.489	1.212891	1.571484	5.146875	1.596094	1.353516	1.567969
1.49	3.512109	3.955078	7.298438	3.867188	3.810938	4.1625
1.491	5.111719	5.554688	8.785547	5.396484	5.540625	5.944922
1.492	5.934375	6.285938	9.523828	6.106641	6.394922	6.788672
1.493	6.148828	6.349219	9.671484	6.169922	6.549609	6.897656
1.494	5.558203	5.56875	9.05625	5.421094	5.864063	6.099609
1.495	3.898828	3.65625	7.428516	3.596484	4.032422	4.074609
1.496	1.842188	1.385156	5.445703	1.434375	1.757813	1.613672
1.497	-0.3058594	-0.9105469	3.403125	-0.7523438	-0.5871094	-0.8929688
1.498	-2.692969	-3.413672	1.174219	-3.135938	-3.139453	-3.610547
1.499	-4.573828	-5.322656	-0.5625	-4.967578	-5.150391	-5.716406
1.5	-5.614453	-6.296484	-1.494141	-5.90625	-6.257813	-6.820313
1.501	-6.022266	-6.560156	-1.796484	-6.162891	-6.651563	-7.157813
1.502	-5.7375	-6.103125	-1.458984	-5.748047	-6.292969	-6.704297
1.503	-4.391016	-4.528125	-0.1300781	-4.253906	-4.805859	-5.048438
1.504	-2.380078	-2.285156	1.828125	-2.109375	-2.598047	-2.640234
1.505	-0.3515625	-0.084375	3.796875	0.003515625	-0.3691406	-0.2425781
1.506	1.961719	2.3625	5.987109	2.344922	2.130469	2.415234
1.507	4.109766	4.573828	7.959375	4.433203	4.433203	4.833984
1.508	5.449219	5.878125	9.158203	5.667188	5.864063	6.285938
1.509	6.078516	6.380859	9.685547	6.145313	6.493359	6.869531
1.51	6.089063	6.222656	9.632813	5.983594	6.440625	6.739453
1.511	5.136328	5.055469	8.690625	4.879688	5.368359	5.530078
1.512	3.227344	2.900391	6.8625	2.840625	3.276563	3.241406
1.513	1.153125	0.646875	4.897266	0.703125	1.008984	0.7980469
1.514	-1.103906	-1.747266	2.777344	-1.578516	-1.430859	-1.785938
1.515	-3.413672	-4.141406	0.6222656	-3.874219	-3.905859	-4.391016
1.516	-5.020313	-5.733984	-0.8542969	-5.407031	-5.639063	-6.173438
1.517	-5.846484	-6.465234	-1.694531	-6.099609	-6.514453	-7.027734
1.518	-6.064453	-6.532031	-2.116406	-6.159375	-6.697266	-7.147266
1.519	-5.477344	-5.762109	-1.683984	-5.421094	-6.025781	-6.366797
1.52	-3.821484	-3.863672	0.02460938	-3.6	-4.215234	-4.366406
1.521	-1.782422	-1.610156	2.141016	-1.444922	-1.96875	-1.926563
1.522	0.3515625	0.6785156	4.229297	0.7101563	0.3550781	0.5519531
1.523	2.745703	3.188672	6.510938	3.079688	2.917969	3.266016
1.524	4.658203	5.136328	8.177344	4.921875	4.974609	5.4
1.525	5.769141	6.169922	8.651953	5.895703	6.141797	6.560156
1.526	6.236719	6.482813	7.892578	6.198047	6.570703	6.953906
1.527	5.990625	6.060938	6.711328	5.797266	6.250781	6.553125
1.528	4.675781	4.514063	5.712891	4.313672	4.795313	4.925391
1.529	2.636719	2.242969	4.362891	2.158594	2.552344	2.478516
1.53	0.5378906	-0.01757813	2.633203	0.02109375	0.253125	0.028125
1.531	-1.824609	-2.517188	0.5800781	-2.351953	-2.288672	-2.664844
1.532	-3.986719	-4.739063	-1.279688	-4.464844	-4.601953	-5.097656
1.533	-5.322656	-6.039844	-2.387109	-5.702344	-6.025781	-6.563672
1.534	-5.980078	-6.577734	-2.840625	-6.215625	-6.686719	-7.189453
1.535	-6.01875	-6.451172	-2.738672	-6.103125	-6.672656	-7.083984
1.536	-5.087109	-5.305078	-1.698047	-5.009766	-5.628516	-5.888672
1.537	-3.20625	-3.178125	0.2917969	-2.974219	-3.561328	-3.624609
1.538	-1.160156	-0.9492188	1.483594	-0.8578125	-1.321875	-1.212891
1.539	1.072266	1.420313	1.705078	1.399219	1.082813	1.353516
1.54	3.378516	3.810938	3.266016	3.691406	3.557813	3.965625
1.541	4.999219	5.431641	5.610938	5.234766	5.308594	5.762109
1.542	5.864063	6.198047	6.91875	5.948438	6.198047	6.623438
1.543	6.103125	6.278906	7.287891	6.01875	6.380859	6.75
1.544	5.516016	5.494922	6.883594	5.291016	5.702344	5.969531
1.545	3.860156	3.582422	5.421094	3.476953	3.867188	3.955078
1.546	1.789453	1.297266	3.557813	1.304297	1.578516	1.490625
1.547	-0.3761719	-1.019531	1.627734	-0.8859375	-0.7769531	-1.016016
1.548	-2.787891	-3.547266	-0.5203125	-3.290625	-3.360938	-3.751172
1.549	-4.725	-5.519531	-2.218359	-5.160938	-5.442188	-5.923828
1.55	-5.825391	-6.556641	-3.121875	-6.141797	-6.612891	-7.098047
1.551	-6.261328	-6.858984	-3.392578	-6.430078	-7.034766	-7.467188
1.552	-6.01875	-6.440625	-3.026953	-6.036328	-6.728906	-7.069922
1.553	-4.717969	-4.900781	-1.676953	-4.577344	-5.305078	-5.466797
1.554	-2.696484	-2.647266	0.3164063	-2.443359	-3.090234	-3.051563
1.555	-0.6363281	-0.4253906	2.323828	-0.3375	-0.8332031	-0.6363281
1.556	1.691016	2.021484	4.563281	2.003906	1.662891	2.010938
1.557	3.856641	4.246875	6.623438	4.130859	3.972656	4.429688
1.558	5.227734	5.582813	7.913672	5.403516	5.449219	5.930859
1.559	5.90625	6.134766	8.507813	5.920313	6.134766	6.577734
1.56	5.944922	6.011719	8.500781	5.797266	6.103125	6.479297
1.561	5.016797	4.876172	7.621875	4.732031	5.058984	5.301563
1.562	3.121875	2.735156	5.832422	2.710547	2.984766	3.023438
1.563	1.051172	0.4746094	3.877734	0.5660156	0.7207031	0.5800781
1.564	-1.198828	-1.916016	1.778906	-1.715625	-1.698047	-2.007422
1.565	-3.547266	-4.352344	-0.3691406	-4.035938	-4.208203	-4.654688
1.566	-5.206641	-6.011719	-1.866797	-5.621484	-5.997656	-6.496875
1.567	-6.064453	-6.781641	-2.5875	-6.363281	-6.873047	-7.375781
1.568	-6.292969	-6.851953	-2.710547	-6.451172	-7.027734	-7.495313
1.569	-5.712891	-6.071484	-2.091797	-5.741016	-6.345703	-6.704297
1.57	-4.039453	-4.148438	-0.45	-3.930469	-4.517578	-4.689844
1.571	-1.940625	-1.85625	1.571484	-1.747266	-2.25	-2.221875
1.572	0.196875	0.4289063	3.628125	0.4394531	0.05273438	0.2566406
1.573	2.594531	2.949609	5.913281	2.847656	2.619141	2.98125
1.574	4.538672	4.935938	7.758984	4.756641	4.714453	5.153906
1.575	5.649609	5.976563	8.796094	5.779688	5.902734	6.331641
1.576	6.124219	6.314063	9.200391	6.110156	6.352734	6.732422
1.577	5.923828	5.958984	8.961328	5.755078	6.082031	6.377344
1.578	4.66875	4.468359	7.723828	4.324219	4.689844	4.826953
1.579	2.661328	2.211328	5.804297	2.186719	2.478516	2.425781
1.58	0.5695313	-0.03867188	3.839063	0.05273438	0.2003906	0
1.581	-1.771875	-2.485547	1.655859	-2.288672	-2.292188	-2.647266
1.582	-3.905859	-4.66875	-0.3234375	-4.401563	-4.580859	-5.0625
1.583	-5.259375	-6.008203	-1.567969	-5.691797	-6.057422	-6.584766
1.584	-5.909766	-6.553125	-2.119922	-6.219141	-6.732422	-7.252734
1.585	-5.916797	-6.398438	-2.035547	-6.078516	-6.690234	-7.147266
1.586	-4.995703	-5.273438	-1.06875	-4.985156	-5.656641	-5.973047
1.587	-3.104297	-3.135938	0.7910156	-2.932031	-3.585938	-3.687891
1.588	-1.040625	-0.871875	2.787891	-0.7839844	-1.307813	-1.230469
1.589	1.191797	1.508203	4.918359	1.476563	1.132031	1.360547
1.59	3.54375	3.955078	7.126172	3.800391	3.670313	4.028906
1.591	5.234766	5.653125	8.694141	5.410547	5.494922	5.902734
1.592	6.152344	6.472266	9.495703	6.176953	6.430078	6.827344
1.593	6.440625	6.609375	9.692578	6.285938	6.658594	7.006641
1.594	5.927344	5.916797	9.147656	5.610938	6.060938	6.296484
1.595	4.320703	4.067578	7.586719	3.842578	4.296094	4.348828
1.596	2.246484	1.778906	5.621484	1.680469	2.035547	1.901953
1.597	0.0984375	-0.5203125	3.614063	-0.4886719	-0.2847656	-0.5800781
1.598	-2.299219	-3.041016	1.381641	-2.882813	-2.847656	-3.301172
1.599	-4.260938	-5.034375	-0.4078125	-4.770703	-4.942969	-5.487891
1.6	-5.382422	-6.092578	-1.381641	-5.762109	-6.127734	-6.679688
1.601	-5.846484	-6.4125	-1.719141	-6.050391	-6.563672	-7.062891
1.602	-5.617969	-6.015234	-1.413281	-5.667188	-6.261328	-6.669141
1.603	-4.324219	-4.489453	-0.1195313	-4.215234	-4.826953	-5.073047
1.604	-2.295703	-2.232422	1.849219	-2.060156	-2.601563	-2.64375
1.605	-0.2179688	0.01054688	3.842578	0.06679688	-0.3304688	-0.2039063
1.606	2.130469	2.496094	6.057422	2.422266	2.179688	2.467969
1.607	4.320703	4.756641	8.103516	4.573828	4.524609	4.921875
1.608	5.741016	6.138281	9.386719	5.874609	6.025781	6.451172
1.609	6.433594	6.707813	9.970313	6.408984	6.714844	7.122656
1.61	6.46875	6.595313	9.95625	6.310547	6.704297	7.052344
1.611	5.579297	5.501953	9.080859	5.273438	5.716406	5.927344
1.612	3.705469	3.378516	7.277344	3.255469	3.677344	3.684375
1.613	1.634766	1.117969	5.305078	1.107422	1.420313	1.248047
1.614	-0.5835938	-1.248047	3.195703	-1.160156	-1.005469	-1.339453
1.615	-2.910938	-3.673828	1.019531	-3.476953	-3.522656	-3.997266
1.616	-4.601953	-5.368359	-0.4992188	-5.069531	-5.326172	-5.860547
1.617	-5.5125	-6.173438	-1.251563	-5.821875	-6.24375	-6.771094
1.618	-5.765625	-6.271875	-1.399219	-5.913281	-6.447656	-6.925781
1.619	-5.206641	-5.537109	-0.8085938	-5.227734	-5.807813	-6.169922
1.62	-3.561328	-3.645703	0.7804688	-3.452344	-4.007813	-4.180078
1.621	-1.490625	-1.357031	2.777344	-1.279688	-1.729688	-1.715625
1.622	0.6222656	0.9105469	4.809375	0.8894531	0.5730469	0.7453125
1.623	3.005859	3.413672	7.066406	3.283594	3.125391	3.459375
1.624	4.967578	5.407031	8.898047	5.189063	5.238281	5.667188
1.625	6.099609	6.475781	9.931641	6.212109	6.454688	6.887109
1.626	6.577734	6.816797	10.31484	6.535547	6.908203	7.294922
1.627	6.373828	6.447656	10.06172	6.176953	6.626953	6.929297
1.628	5.111719	4.95	8.83125	4.760156	5.227734	5.378906
1.629	3.097266	2.696484	6.894141	2.619141	3.009375	2.970703
1.63	1.026563	0.4535156	4.928906	0.4816406	0.7347656	0.534375
1.631	-1.304297	-2.010938	2.742188	-1.863281	-1.771875	-2.130469
1.632	-3.529688	-4.299609	0.6925781	-4.035938	-4.144922	-4.626563
1.633	-4.964063	-5.702344	-0.5835938	-5.361328	-5.670703	-6.1875
1.634	-5.628516	-6.247266	-1.128516	-5.885156	-6.352734	-6.837891
1.635	-5.660156	-6.127734	-1.079297	-5.776172	-6.342188	-6.753516
1.636	-4.791797	-5.066016	-0.1828125	-4.746094	-5.368359	-5.639063
1.637	-2.942578	-2.974219	1.624219	-2.749219	-3.339844	-3.406641
1.638	-0.8964844	-0.7382813	3.585938	-0.6292969	-1.100391	-0.9878906
1.639	1.307813	1.610156	5.68125	1.606641	1.279688	1.550391
1.64	3.645703	4.042969	7.875	3.919922	3.779297	4.187109
1.641	5.347266	5.741016	9.435938	5.526563	5.596875	6.050391
1.642	6.254297	6.546094	10.22344	6.282422	6.525	6.964453
1.643	6.532031	6.665625	10.40625	6.391406	6.742969	7.129688
1.644	6.015234	5.9625	9.864844	5.723438	6.127734	6.419531
1.645	4.391016	4.092188	8.314453	3.962109	4.352344	4.475391
1.646	2.278125	1.761328	6.331641	1.782422	2.056641	2.014453
1.647	0.1160156	-0.5519531	4.306641	-0.4007813	-0.2847656	-0.478125
1.648	-2.278125	-3.065625	2.060156	-2.798438	-2.865234	-3.209766
1.649	-4.250391	-5.080078	0.2390625	-4.714453	-4.988672	-5.431641
1.65	-5.403516	-6.176953	-0.7699219	-5.751563	-6.219141	-6.683203
1.651	-5.892188	-6.525	-1.135547	-6.075	-6.697266	-7.122656
1.652	-5.705859	-6.166406	-0.8683594	-5.726953	-6.430078	-6.774609
1.653	-4.468359	-4.710938	0.3691406	-4.320703	-5.044922	-5.234766
1.654	-2.460938	-2.475	2.313281	-2.19375	-2.840625	-2.837109
1.655	-0.4078125	-0.2496094	4.278516	-0.08789063	-0.5800781	-0.4289063
1.656	1.926563	2.214844	6.472266	2.242969	1.916016	2.221875
1.657	4.144922	4.5	8.525391	4.394531	4.260938	4.693359
1.658	5.56875	5.885156	9.805078	5.702344	5.776172	6.236719
1.659	6.268359	6.454688	10.38867	6.247266	6.472266	6.908203
1.66	6.328125	6.349219	10.37813	6.152344	6.479297	6.841406
1.661	5.452734	5.269922	9.509766	5.132813	5.508984	5.7375
1.662	3.589453	3.15	7.723828	3.135938	3.473438	3.508594
1.663	1.529297	0.8929688	5.751563	0.9878906	1.195313	1.058203
1.664	-0.675	-1.4625	3.638672	-1.272656	-1.223438	-1.51875
1.665	-3.012891	-3.898828	1.448438	-3.603516	-3.726563	-4.176563
1.666	-4.710938	-5.607422	-0.09492188	-5.217188	-5.533594	-6.057422
1.667	-5.607422	-6.4125	-0.8613281	-5.980078	-6.465234	-6.982031
1.668	-5.860547	-6.514453	-1.026563	-6.082031	-6.69375	-7.140234
1.669	-5.340234	-5.814844	-0.4640625	-5.407031	-6.085547	-6.416016
1.67	-3.747656	-3.983203	1.110938	-3.645703	-4.317188	-4.468359
1.671	-1.676953	-1.708594	3.104297	-1.480078	-2.056641	-2.025
1.672	0.45	0.5695313	5.125781	0.6785156	0.2496094	0.4324219
1.673	2.833594	3.072656	7.36875	3.065625	2.816016	3.146484
1.674	4.798828	5.073047	9.203906	4.981641	4.942969	5.361328
1.675	5.948438	6.162891	10.24102	6.025781	6.169922	6.602344
1.676	6.458203	6.532031	10.6418	6.370313	6.641016	7.041797
1.677	6.296484	6.205078	10.40625	6.036328	6.394922	6.707813
1.678	5.083594	4.763672	9.189844	4.647656	5.044922	5.199609
1.679	3.097266	2.545313	7.273828	2.527734	2.86875	2.826563
1.68	1.040625	0.3234375	5.315625	0.4148438	0.6257813	0.4113281
1.681	-1.325391	-2.179688	3.097266	-1.951172	-1.905469	-2.288672
1.682	-3.554297	-4.482422	1.026563	-4.130859	-4.306641	-4.805859
1.683	-4.957031	-5.864063	-0.2425781	-5.438672	-5.825391	-6.35625
1.684	-5.649609	-6.433594	-0.8015625	-5.973047	-6.507422	-7.013672
1.685	-5.709375	-6.324609	-0.7664063	-5.871094	-6.493359	-6.925781
1.686	-4.848047	-5.255859	0.1195313	-4.844531	-5.516016	-5.807813
1.687	-2.995313	-3.157031	1.930078	-2.840625	-3.469922	-3.568359
1.688	-0.9351563	-0.9070313	3.902344	-0.7136719	-1.205859	-1.135547
1.689	1.276172	1.455469	5.990625	1.529297	1.195313	1.416797
1.69	3.635156	3.909375	8.191406	3.867188	3.723047	4.081641
1.691	5.354297	5.632031	9.766406	5.498438	5.572266	5.987109
1.692	6.275391	6.465234	10.57148	6.285938	6.517969	6.925781
1.693	6.563672	6.598828	10.77188	6.423047	6.753516	7.108594
1.694	6.064453	5.920313	10.25508	5.786719	6.180469	6.426563
1.695	4.492969	4.10625	8.71875	4.05	4.454297	4.514063
1.696	2.436328	1.828125	6.746484	1.884375	2.190234	2.063672
1.697	0.2953125	-0.4640625	4.732031	-0.2777344	-0.1300781	-0.4148438
1.698	-2.109375	-2.98125	2.489063	-2.668359	-2.692969	-3.142969
1.699	-4.095703	-4.995703	0.6644531	-4.584375	-4.805859	-5.354297
1.7	-5.245313	-6.078516	-0.3445313	-5.617969	-6.011719	-6.574219
1.701	-5.726953	-6.423047	-0.7171875	-5.941406	-6.465234	-6.992578
1.702	-5.530078	-6.053906	-0.4640625	-5.596875	-6.198047	-6.633984
1.703	-4.292578	-4.594922	0.7628906	-4.204688	-4.844531	-5.101172
1.704	-2.292188	-2.348438	2.707031	-2.077734	-2.650781	-2.703516
1.705	-0.2425781	-0.1125	4.672266	0.03515625	-0.3832031	-0.28125
1.706	2.070703	2.341406	6.855469	2.369531	2.123438	2.373047
1.707	4.292578	4.623047	8.908594	4.535156	4.496484	4.855078
1.708	5.733984	6.032813	10.21641	5.871094	6.029297	6.423047
1.709	6.437109	6.619922	10.81406	6.437109	6.735938	7.108594
1.71	6.514453	6.542578	10.81758	6.363281	6.757031	7.059375
1.711	5.688281	5.516016	9.973828	5.375391	5.832422	5.994141
1.712	3.853125	3.434766	8.191406	3.389063	3.825	3.796875
1.713	1.782422	1.170703	6.208594	1.233984	1.560938	1.357031
1.714	-0.4464844	-1.198828	4.102734	-1.016016	-0.84375	-1.202344
1.715	-2.8125	-3.652734	1.9125	-3.339844	-3.364453	-3.860156
1.716	-4.535156	-5.378906	0.3480469	-4.967578	-5.203125	-5.765625
1.717	-5.452734	-6.205078	-0.4394531	-5.755078	-6.152344	-6.711328
1.718	-5.733984	-6.331641	-0.6222656	-5.881641	-6.391406	-6.894141
1.719	-5.241797	-5.653125	-0.08085938	-5.23125	-5.814844	-6.198047
1.72	-3.670313	-3.832031	1.469531	-3.498047	-4.092188	-4.278516
1.721	-1.617188	-1.557422	3.452344	-1.342969	-1.838672	-1.842188
1.722	0.4816406	0.6960938	5.452734	0.8015625	0.4464844	0.5941406
1.723	2.854688	3.188672	7.685156	3.178125	2.995313	3.294141
1.724	4.851563	5.227734	9.534375	5.115234	5.139844	5.530078
1.725	6.036328	6.352734	10.59258	6.173438	6.384375	6.781641
1.726	6.542578	6.725391	10.98984	6.514453	6.8625	7.221094
1.727	6.363281	6.387891	10.74727	6.180469	6.623438	6.897656
1.728	5.178516	4.988672	9.569531	4.8375	5.315625	5.431641
1.729	3.202734	2.780859	7.667578	2.735156	3.139453	3.072656
1.73	1.103906	0.50625	5.677734	0.5765625	0.84375	0.6152344
1.731	-1.251563	-1.986328	3.459375	-1.792969	-1.691016	-2.08125
1.732	-3.469922	-4.275	1.399219	-3.965625	-4.067578	-4.584375
1.733	-4.900781	-5.677734	0.1054688	-5.298047	-5.603906	-6.148828
1.734	-5.610938	-6.268359	-0.478125	-5.860547	-6.317578	-6.834375
1.735	-5.695313	-6.191016	-0.4710938	-5.786719	-6.338672	-6.792188
1.736	-4.865625	-5.160938	0.3761719	-4.798828	-5.407031	-5.719922
1.737	-3.041016	-3.083203	2.165625	-2.819531	-3.399609	-3.512109
1.738	-0.9984375	-0.84375	4.130859	-0.6996094	-1.149609	-1.089844
1.739	1.188281	1.487109	6.208594	1.515234	1.212891	1.434375
1.74	3.526172	3.923438	8.395313	3.835547	3.7125	4.078125
1.741	5.248828	5.653125	9.977344	5.477344	5.554688	5.987109
1.742	6.183984	6.489844	10.79297	6.268359	6.517969	6.929297
1.743	6.475781	6.626953	10.99336	6.401953	6.764063	7.122656
1.744	5.994141	5.969531	10.48008	5.776172	6.205078	6.461719
1.745	4.426172	4.169531	8.964844	4.064063	4.496484	4.573828
1.746	2.355469	1.880859	6.989063	1.898438	2.225391	2.119922
1.747	0.2320313	-0.4007813	4.978125	-0.2671875	-0.09140625	-0.3515625
1.748	-2.148047	-2.910938	2.735156	-2.657813	-2.657813	-3.065625
1.749	-4.144922	-4.95	0.8824219	-4.594922	-4.809375	-5.315625
1.75	-5.312109	-6.060938	-0.1582031	-5.656641	-6.060938	-6.584766
1.751	-5.818359	-6.430078	-0.5484375	-6.011719	-6.546094	-7.03125
1.752	-5.667188	-6.113672	-0.3199219	-5.695313	-6.310547	-6.707813
1.753	-4.489453	-4.717969	0.8683594	-4.341797	-4.995703	-5.220703
1.754	-2.513672	-2.499609	2.794922	-2.225391	-2.823047	-2.847656
1.755	-0.4675781	-0.28125	4.749609	-0.1230469	-0.5765625	-0.45
1.756	1.828125	2.144531	6.91875	2.183203	1.894922	2.172656
1.757	4.046484	4.436719	8.982422	4.359375	4.264453	4.672266
1.758	5.508984	5.878125	10.3043	5.719922	5.825391	6.261328
1.759	6.240234	6.489844	10.91953	6.296484	6.549609	6.957422
1.76	6.324609	6.416016	10.93359	6.233203	6.574219	6.91875
1.761	5.516016	5.410547	10.11797	5.280469	5.663672	5.888672
1.762	3.7125	3.353906	8.363672	3.322266	3.673828	3.7125
1.763	1.662891	1.103906	6.391406	1.177734	1.420313	1.276172
1.764	-0.5378906	-1.244531	4.299609	-1.065234	-0.9597656	-1.269141
1.765	-2.900391	-3.701953	2.095313	-3.399609	-3.480469	-3.9375
1.766	-4.637109	-5.449219	0.5097656	-5.044922	-5.333203	-5.867578
1.767	-5.572266	-6.292969	-0.2917969	-5.846484	-6.310547	-6.834375
1.768	-5.860547	-6.433594	-0.4851563	-5.987109	-6.570703	-7.034766
1.769	-5.389453	-5.783203	0.02460938	-5.364844	-6.015234	-6.366797
1.77	-3.856641	-4.004297	1.546875	-3.663281	-4.320703	-4.485938
1.771	-1.803516	-1.726172	3.526172	-1.501172	-2.063672	-2.039063
1.772	0.3023438	0.5414063	5.523047	0.6363281	0.2285156	0.4113281
1.773	2.671875	3.030469	7.748438	3.002344	2.766797	3.100781
1.774	4.675781	5.083594	9.608203	4.953516	4.921875	5.347266
1.775	5.878125	6.226172	10.6875	6.043359	6.198047	6.633984
1.776	6.405469	6.612891	11.10586	6.405469	6.704297	7.094531
1.777	6.268359	6.314063	10.90195	6.117188	6.503906	6.802734
1.778	5.125781	4.957031	9.762891	4.816406	5.241797	5.385938
1.779	3.128906	2.731641	7.846875	2.703516	3.062109	3.023438
1.78	1.037109	0.4675781	5.860547	0.5554688	0.7769531	0.5800781
1.781	-1.269141	-1.975781	3.687891	-1.775391	-1.698047	-2.053125
1.782	-3.480469	-4.260938	1.624219	-3.951563	-4.067578	-4.552734
1.783	-4.942969	-5.698828	0.3058594	-5.305078	-5.628516	-6.159375
1.784	-5.660156	-6.3	-0.2882813	-5.871094	-6.349219	-6.866016
1.785	-5.744531	-6.222656	-0.2953125	-5.807813	-6.370313	-6.827344
1.786	-4.942969	-5.220703	0.5238281	-4.855078	-5.466797	-5.79375
1.787	-3.125391	-3.157031	2.288672	-2.889844	-3.480469	-3.603516
1.788	-1.06875	-0.9	4.250391	-0.759375	-1.230469	-1.174219
1.789	1.110938	1.430859	6.317578	1.444922	1.125	1.346484
1.79	3.445313	3.870703	8.514844	3.775781	3.631641	4.004297
1.791	5.182031	5.617969	10.11797	5.442188	5.508984	5.944922
1.792	6.13125	6.475781	10.94766	6.254297	6.496875	6.925781
1.793	6.444141	6.633984	11.16563	6.401953	6.760547	7.136719
1.794	5.997656	6.008203	10.68047	5.811328	6.229688	6.500391
1.795	4.475391	4.246875	9.193359	4.134375	4.545703	4.647656
1.796	2.41875	1.96875	7.221094	1.979297	2.285156	2.204297
1.797	0.2988281	-0.3023438	5.220703	-0.1757813	-0.01054688	-0.253125
1.798	-2.091797	-2.8125	2.984766	-2.562891	-2.562891	-2.960156
1.799	-4.123828	-4.883203	1.110938	-4.528125	-4.728516	-5.227734
1.8	-5.322656	-6.025781	0.0421875	-5.603906	-6.004688	-6.517969
1.801	-5.842969	-6.408984	-0.365625	-5.969531	-6.514453	-6.985547
1.802	-5.695313	-6.096094	-0.1582031	-5.684766	-6.307031	-6.697266
1.803	-4.538672	-4.721484	0.9984375	-4.373438	-5.023828	-5.259375
1.804	-2.559375	-2.506641	2.914453	-2.260547	-2.858203	-2.889844
1.805	-0.50625	-0.2777344	4.865625	-0.1546875	-0.6046875	-0.4816406
1.806	1.771875	2.133984	7.017188	2.141016	1.852734	2.126953
1.807	3.986719	4.419141	9.084375	4.320703	4.222266	4.619531
1.808	5.449219	5.867578	10.4168	5.688281	5.783203	6.226172
1.809	6.183984	6.482813	11.03203	6.275391	6.517969	6.932813
1.81	6.285938	6.426563	11.05664	6.219141	6.560156	6.911719
1.811	5.508984	5.452734	10.26211	5.2875	5.68125	5.913281
1.812	3.719531	3.417188	8.518359	3.350391	3.708984	3.758203
1.813	1.655859	1.156641	6.553125	1.212891	1.441406	1.318359
1.814	-0.5449219	-1.191797	4.475391	-1.0125	-0.9421875	-1.223438
1.815	-2.903906	-3.649219	2.271094	-3.357422	-3.466406	-3.895313
1.816	-4.661719	-5.417578	0.6609375	-5.034375	-5.350781	-5.85
1.817	-5.617969	-6.282422	-0.1652344	-5.846484	-6.345703	-6.834375
1.818	-5.923828	-6.444141	-0.3832031	-6.008203	-6.609375	-7.052344
1.819	-5.477344	-5.821875	0.09492188	-5.428125	-6.082031	-6.423047
1.82	-3.962109	-4.060547	1.592578	-3.751172	-4.412109	-4.573828
1.821	-1.908984	-1.778906	3.561328	-1.592578	-2.162109	-2.133984
1.822	0.1898438	0.4746094	5.547656	0.5378906	0.1195313	0.2988281
1.823	2.555859	2.956641	7.769531	2.903906	2.657813	2.991797
1.824	4.563281	5.020313	9.643359	4.876172	4.8375	5.269922
1.825	5.772656	6.180469	10.72266	5.976563	6.13125	6.577734
1.826	6.342188	6.605859	11.15859	6.370313	6.658594	7.066406
1.827	6.240234	6.331641	10.97578	6.099609	6.479297	6.799219
1.828	5.083594	4.95	9.819141	4.78125	5.196094	5.357813
1.829	3.097266	2.721094	7.889063	2.657813	3.009375	2.98125
1.83	1.033594	0.4851563	5.920313	0.534375	0.7453125	0.5589844
1.831	-1.272656	-1.947656	3.751172	-1.782422	-1.733203	-2.077734
1.832	-3.501563	-4.246875	1.676953	-3.969141	-4.120313	-4.584375
1.833	-4.960547	-5.677734	0.3585938	-5.322656	-5.68125	-6.180469
1.834	-5.684766	-6.275391	-0.2425781	-5.895703	-6.408984	-6.880078
1.835	-5.772656	-6.208594	-0.2566406	-5.842969	-6.437109	-6.844922
1.836	-4.985156	-5.227734	0.5449219	-4.911328	-5.540625	-5.821875
1.837	-3.181641	-3.174609	2.299219	-2.960156	-3.554297	-3.642188
1.838	-1.117969	-0.9105469	4.267969	-0.8261719	-1.286719	-1.195313
1.839	1.065234	1.423828	6.328125	1.381641	1.082813	1.325391
1.84	3.424219	3.88125	8.525391	3.719531	3.610547	3.99375
1.841	5.192578	5.660156	10.14258	5.407031	5.505469	5.955469
1.842	6.152344	6.532031	10.98633	6.240234	6.517969	6.943359
1.843	6.472266	6.700781	11.22188	6.4125	6.809766	7.171875
1.844	6.053906	6.103125	10.75781	5.842969	6.314063	6.570703
1.845	4.559766	4.376953	9.284766	4.190625	4.66875	4.753125
1.846	2.513672	2.109375	7.3125	2.039063	2.411719	2.309766
1.847	0.4007813	-0.1617188	5.312109	-0.1089844	0.0984375	-0.1476563
1.848	-1.965234	-2.664844	3.086719	-2.485547	-2.450391	-2.847656
1.849	-3.990234	-4.739063	1.209375	-4.450781	-4.6125	-5.11875
1.85	-5.203125	-5.895703	0.1230469	-5.540625	-5.888672	-6.419531
1.851	-5.741016	-6.296484	-0.2917969	-5.909766	-6.394922	-6.897656
1.852	-5.628516	-6.008203	-0.09492188	-5.628516	-6.198047	-6.619922
1.853	-4.496484	-4.661719	1.044141	-4.334766	-4.942969	-5.199609
1.854	-2.524219	-2.453906	2.953125	-2.235938	-2.787891	-2.844141
1.855	-0.478125	-0.225	4.907813	-0.1265625	-0.5484375	-0.4394531
1.856	1.8	2.186719	7.062891	2.169141	1.908984	2.169141
1.857	4.032422	4.492969	9.140625	4.362891	4.296094	4.682813
1.858	5.530078	5.966016	10.50117	5.758594	5.881641	6.307031
1.859	6.278906	6.595313	11.13398	6.359766	6.633984	7.027734
1.86	6.394922	6.553125	11.17266	6.321094	6.69375	7.017188
1.861	5.642578	5.603906	10.39922	5.410547	5.842969	6.039844
1.862	3.856641	3.575391	8.669531	3.480469	3.884766	3.895313
1.863	1.782422	1.300781	6.69375	1.335938	1.603125	1.444922
1.864	-0.4078125	-1.033594	4.616016	-0.8824219	-0.7734375	-1.089844
1.865	-2.759766	-3.4875	2.404688	-3.227344	-3.294141	-3.765234
1.866	-4.531641	-5.273438	0.7734375	-4.918359	-5.192578	-5.7375
1.867	-5.505469	-6.159375	-0.0703125	-5.751563	-6.205078	-6.746484
1.868	-5.835938	-6.342188	-0.2953125	-5.920313	-6.489844	-6.978516
1.869	-5.417578	-5.744531	0.1652344	-5.354297	-5.983594	-6.370313
1.87	-3.916406	-4.007813	1.638281	-3.701953	-4.338281	-4.538672
1.871	-1.877344	-1.74375	3.607031	-1.546875	-2.095313	-2.098828
1.872	0.1933594	0.4921875	5.586328	0.5800781	0.1757813	0.3304688
1.873	2.552344	2.977734	7.801172	2.942578	2.7	3.012891
1.874	4.594922	5.0625	9.689063	4.918359	4.883203	5.2875
1.875	5.835938	6.250781	10.8	6.043359	6.198047	6.612891
1.876	6.401953	6.686719	11.27109	6.465234	6.75	7.129688
1.877	6.271875	6.394922	11.08477	6.180469	6.553125	6.858984
1.878	5.146875	5.048438	9.949219	4.886719	5.305078	5.463281
1.879	3.199219	2.861719	8.057813	2.801953	3.164063	3.135938
1.88	1.132031	0.6222656	6.092578	0.6785156	0.9105469	0.7136719
1.881	-1.170703	-1.817578	3.923438	-1.638281	-1.557422	-1.919531
1.882	-3.420703	-4.148438	1.828125	-3.849609	-3.962109	-4.457813
1.883	-4.918359	-5.621484	0.4640625	-5.245313	-5.561719	-6.103125
1.884	-5.663672	-6.250781	-0.1617188	-5.842969	-6.310547	-6.837891
1.885	-5.769141	-6.198047	-0.2003906	-5.807813	-6.370313	-6.830859
1.886	-5.009766	-5.248828	0.5695313	-4.911328	-5.523047	-5.846484
1.887	-3.237891	-3.234375	2.299219	-2.984766	-3.582422	-3.708984
1.888	-1.205859	-0.9949219	4.257422	-0.8507813	-1.339453	-1.286719
1.889	0.9492188	1.311328	6.3	1.335938	1.008984	1.212891
1.89	3.304688	3.761719	8.49375	3.663281	3.526172	3.863672
1.891	5.076563	5.554688	10.12148	5.364844	5.421094	5.828906
1.892	6.053906	6.444141	10.97227	6.208594	6.433594	6.834375
1.893	6.408984	6.648047	11.21836	6.391406	6.742969	7.094531
1.894	6.025781	6.089063	10.78242	5.846484	6.271875	6.532031
1.895	4.55625	4.380469	9.330469	4.215234	4.651172	4.742578
1.896	2.506641	2.109375	7.365234	2.060156	2.401172	2.313281
1.897	0.4042969	-0.1441406	5.378906	-0.07734375	0.1089844	-0.1265625
1.898	-1.961719	-2.636719	3.15	-2.453906	-2.429297	-2.833594
1.899	-4.007813	-4.735547	1.258594	-4.440234	-4.616016	-5.136328
1.9	-5.234766	-5.90625	0.1652344	-5.547656	-5.913281	-6.454688
1.901	-5.776172	-6.314063	-0.2636719	-5.934375	-6.440625	-6.936328
1.902	-5.660156	-6.036328	-0.08085938	-5.674219	-6.264844	-6.679688
1.903	-4.549219	-4.710938	1.030078	-4.401563	-5.037891	-5.301563
1.904	-2.598047	-2.520703	2.928516	-2.302734	-2.907422	-2.967188
1.905	-0.5625	-0.3058594	4.879688	-0.1933594	-0.675	-0.5625
1.906	1.705078	2.095313	7.017188	2.091797	1.768359	2.028516
1.907	3.951563	4.415625	9.094922	4.289063	4.173047	4.549219
1.908	5.45625	5.895703	10.45547	5.695313	5.786719	6.194531
1.909	6.208594	6.535547	11.10234	6.310547	6.556641	6.936328
1.91	6.335156	6.503906	11.15508	6.285938	6.641016	6.957422
1.911	5.607422	5.579297	10.40625	5.407031	5.821875	6.022266
1.912	3.849609	3.571875	8.694141	3.498047	3.888281	3.905859
1.913	1.785938	1.314844	6.721875	1.360547	1.624219	1.4625
