Interval=	0.00025 s
ExcelDateTime=	4.5725772630878513e+004	3/9/2025 18:32:35.307904
TimeFormat=	StartOfBlock
DateFormat=	
ChannelTitle=	Channel 2	Channel 3	Channel 4	Channel 5	Channel 6	Channel 7
Range=	112.50 mV	112.50 mV	112.50 mV	112.50 mV	112.50 mV	112.50 mV
0	4.1625	4.366406	2.953125	4.292578	4.707422	4.710938
0.00025	3.43125	3.575391	2.288672	3.540234	3.926953	3.860156
0.0005	2.910938	3.009375	1.817578	3.005859	3.346875	3.230859
0.00075	2.450391	2.520703	1.413281	2.548828	2.844141	2.689453
0.001	1.993359	2.049609	1.023047	2.105859	2.3625	2.176172
0.00125	1.536328	1.550391	0.6152344	1.627734	1.849219	1.634766
0.0015	1.103906	1.06875	0.2074219	1.174219	1.353516	1.110938
0.00175	0.6539063	0.5765625	-0.2144531	0.7101563	0.8472656	0.5730469
0.002	0.2566406	0.1582031	-0.5730469	0.3199219	0.4078125	0.1160156
0.00225	-0.1617188	-0.2601563	-0.9527344	-0.07734375	-0.02109375	-0.3410156
0.0025	-1.030078	-1.198828	-1.814063	-0.9773438	-0.928125	-1.318359
0.00275	-2.025	-2.267578	-2.784375	-1.996875	-1.982813	-2.446875
0.003	-2.745703	-3.009375	-3.441797	-2.696484	-2.749219	-3.2625
0.00325	-3.375	-3.649219	-3.979688	-3.294141	-3.413672	-3.965625
0.0035	-3.758203	-4.007813	-4.275	-3.631641	-3.828516	-4.383984
0.00375	-4.007813	-4.236328	-4.464844	-3.846094	-4.10625	-4.661719
0.004	-4.369922	-4.608984	-4.770703	-4.194141	-4.5	-5.076563
0.00425	-4.795313	-5.051953	-5.143359	-4.6125	-4.960547	-5.551172
0.0045	-5.294531	-5.561719	-5.575781	-5.104688	-5.487891	-6.092578
0.00475	-5.617969	-5.871094	-5.839453	-5.4	-5.839453	-6.444141
0.005	-5.653125	-5.871094	-5.839453	-5.392969	-5.895703	-6.482813
0.00525	-5.783203	-5.976563	-5.923828	-5.494922	-6.029297	-6.612891
0.0055	-6.050391	-6.205078	-6.124219	-5.723438	-6.282422	-6.869531
0.00575	-6.278906	-6.384375	-6.278906	-5.881641	-6.486328	-7.066406
0.006	-6.391406	-6.458203	-6.338672	-5.937891	-6.58125	-7.150781
0.00625	-6.296484	-6.324609	-6.229688	-5.814844	-6.486328	-7.03125
0.0065	-6.13125	-6.117188	-6.060938	-5.621484	-6.310547	-6.827344
0.00675	-6.043359	-6.001172	-5.958984	-5.505469	-6.201563	-6.697266
0.007	-6.015234	-5.951953	-5.909766	-5.463281	-6.159375	-6.641016
0.00725	-5.983594	-5.892188	-5.853516	-5.407031	-6.110156	-6.574219
0.0075	-5.881641	-5.748047	-5.723438	-5.269922	-5.987109	-6.423047
0.00775	-5.677734	-5.5125	-5.508984	-5.037891	-5.772656	-6.176953
0.008	-5.294531	-5.048438	-5.111719	-4.591406	-5.347266	-5.705859
0.00825	-4.587891	-4.215234	-4.405078	-3.793359	-4.570313	-4.855078
0.0085	-3.772266	-3.311719	-3.617578	-2.932031	-3.705469	-3.905859
0.00875	-3.153516	-2.647266	-3.019922	-2.309766	-3.041016	-3.181641
0.009	-2.678906	-2.148047	-2.562891	-1.842188	-2.524219	-2.622656
0.00925	-2.260547	-1.719141	-2.165625	-1.434375	-2.08125	-2.141016
0.0095	-1.828125	-1.248047	-1.747266	-0.9914063	-1.603125	-1.63125
0.00975	-1.388672	-0.759375	-1.307813	-0.534375	-1.100391	-1.100391
0.01	-0.9492188	-0.2847656	-0.8753906	-0.084375	-0.6117188	-0.5800781
0.01025	-0.5273438	0.1757813	-0.4710938	0.3515625	-0.1441406	-0.084375
0.0105	-0.1652344	0.5414063	-0.1371094	0.6960938	0.2320313	0.3164063
0.01075	0.5203125	1.276172	0.5132813	1.395703	0.9492188	1.086328
0.011	1.529297	2.3625	1.476563	2.439844	2.010938	2.228906
0.01125	2.30625	3.164063	2.207813	3.20625	2.830078	3.104297
0.0115	2.98125	3.856641	2.833594	3.856641	3.540234	3.856641
0.01175	3.476953	4.359375	3.290625	4.317188	4.081641	4.415625
0.012	3.705469	4.549219	3.491016	4.492969	4.33125	4.654688
0.01225	4.035938	4.869141	3.796875	4.802344	4.672266	5.013281
0.0125	4.478906	5.329688	4.211719	5.234766	5.146875	5.508984
0.01275	4.967578	5.846484	4.675781	5.726953	5.674219	6.053906
0.013	5.368359	6.240234	5.044922	6.106641	6.103125	6.493359
0.01325	5.45625	6.289453	5.115234	6.148828	6.208594	6.58125
0.0135	5.530078	6.331641	5.175	6.183984	6.285938	6.641016
0.01375	5.79375	6.556641	5.403516	6.401953	6.525	6.887109
0.014	6.036328	6.746484	5.614453	6.58125	6.739453	7.101563
0.01425	6.176953	6.837891	5.7375	6.669141	6.866016	7.217578
0.0145	6.148828	6.764063	5.702344	6.605859	6.837891	7.164844
0.01475	5.994141	6.560156	5.544141	6.4125	6.676172	6.967969
0.015	5.857031	6.387891	5.410547	6.250781	6.525	6.785156
0.01525	5.804297	6.314063	5.364844	6.191016	6.465234	6.704297
0.0155	5.790234	6.282422	5.354297	6.162891	6.440625	6.665625
0.01575	5.709375	6.176953	5.280469	6.064453	6.349219	6.556641
0.016	5.519531	5.9625	5.108203	5.860547	6.159375	6.338672
0.01625	5.203125	5.575781	4.798828	5.491406	5.804297	5.958984
0.0165	4.594922	4.833984	4.194141	4.777734	5.11875	5.206641
0.01675	3.779297	3.909375	3.406641	3.898828	4.243359	4.243359
0.017	3.125391	3.209766	2.801953	3.234375	3.547266	3.480469
0.01725	2.650781	2.696484	2.351953	2.749219	3.019922	2.900391
0.0175	2.19375	2.218359	1.923047	2.299219	2.534766	2.376563
0.01775	1.733203	1.733203	1.497656	1.835156	2.032031	1.842188
0.018	1.297266	1.248047	1.079297	1.371094	1.529297	1.311328
0.01825	0.8683594	0.7699219	0.6679688	0.9175781	1.040625	0.7945313
0.0185	0.4113281	0.2707031	0.2355469	0.4464844	0.5273438	0.2496094
0.01875	0.06679688	-0.06679688	-0.07382813	0.1230469	0.1546875	-0.140625
0.019	-0.4359375	-0.5871094	-0.5273438	-0.3761719	-0.365625	-0.6996094
0.01925	-1.430859	-1.669922	-1.4625	-1.413281	-1.409766	-1.821094
0.0195	-2.327344	-2.612109	-2.292188	-2.313281	-2.358984	-2.830078
0.01975	-3.005859	-3.308203	-2.903906	-2.963672	-3.076172	-3.596484
0.02	-3.6	-3.905859	-3.438281	-3.526172	-3.701953	-4.253906
0.02025	-3.888281	-4.166016	-3.684375	-3.76875	-4.021875	-4.570313
0.0205	-4.155469	-4.426172	-3.923438	-4.011328	-4.324219	-4.883203
0.02075	-4.549219	-4.833984	-4.275	-4.391016	-4.753125	-5.326172
0.021	-5.013281	-5.319141	-4.696875	-4.851563	-5.255859	-5.835938
0.02125	-5.505469	-5.821875	-5.153906	-5.336719	-5.776172	-6.377344
0.0215	-5.709375	-5.997656	-5.329688	-5.505469	-6.001172	-6.605859
0.02175	-5.723438	-5.973047	-5.322656	-5.477344	-6.029297	-6.612891
0.022	-5.927344	-6.159375	-5.491406	-5.656641	-6.24375	-6.816797
0.02225	-6.191016	-6.391406	-5.709375	-5.871094	-6.496875	-7.069922
0.0225	-6.377344	-6.525	-5.839453	-5.990625	-6.655078	-7.224609
0.02275	-6.4125	-6.510938	-5.846484	-5.980078	-6.679688	-7.231641
0.023	-6.278906	-6.331641	-5.705859	-5.814844	-6.546094	-7.062891
0.02325	-6.141797	-6.155859	-5.561719	-5.653125	-6.401953	-6.890625
0.0235	-6.096094	-6.082031	-5.498438	-5.582813	-6.335156	-6.809766
0.02375	-6.082031	-6.046875	-5.463281	-5.544141	-6.303516	-6.764063
0.024	-6.025781	-5.9625	-5.389453	-5.459766	-6.226172	-6.669141
0.02425	-5.881641	-5.786719	-5.238281	-5.291016	-6.067969	-6.482813
0.0245	-5.628516	-5.487891	-4.978125	-4.999219	-5.797266	-6.169922
0.02475	-5.136328	-4.886719	-4.471875	-4.422656	-5.245313	-5.561719
0.025	-4.355859	-3.983203	-3.701953	-3.557813	-4.398047	-4.626563
0.02525	-3.614063	-3.174609	-2.988281	-2.787891	-3.610547	-3.76875
0.0255	-3.083203	-2.605078	-2.482031	-2.253516	-3.030469	-3.139453
0.02575	-2.605078	-2.105859	-2.039063	-1.778906	-2.513672	-2.583984
0.026	-2.151563	-1.627734	-1.613672	-1.328906	-2.025	-2.060156
0.02625	-1.729688	-1.156641	-1.195313	-0.8859375	-1.546875	-1.546875
0.0265	-1.314844	-0.703125	-0.7910156	-0.4605469	-1.075781	-1.051172
0.02675	-0.8648438	-0.2039063	-0.3621094	0.003515625	-0.5660156	-0.5132813
0.027	-0.4746094	0.2003906	0	0.3902344	-0.1371094	-0.05976563
0.02725	-0.0703125	0.6046875	0.3796875	0.7769531	0.2777344	0.3867188
0.0275	0.7875	1.532813	1.195313	1.666406	1.174219	1.35
0.02775	1.754297	2.573438	2.116406	2.657813	2.197266	2.446875
0.028	2.453906	3.290625	2.770313	3.339844	2.942578	3.241406
0.02825	3.072656	3.923438	3.336328	3.941016	3.592969	3.9375
0.0285	3.445313	4.282031	3.673828	4.271484	4.000781	4.348828
0.02875	3.701953	4.507031	3.909375	4.482422	4.289063	4.630078
0.029	4.057031	4.858594	4.239844	4.812891	4.665234	5.023828
0.02925	4.478906	5.298047	4.630078	5.234766	5.122266	5.494922
0.0295	4.995703	5.839453	5.115234	5.755078	5.68125	6.071484
0.02975	5.329688	6.162891	5.421094	6.060938	6.046875	6.433594
0.03	5.364844	6.155859	5.442188	6.050391	6.099609	6.461719
0.03025	5.494922	6.257813	5.558203	6.148828	6.233203	6.584766
0.0305	5.765625	6.482813	5.790234	6.366797	6.472266	6.834375
0.03075	5.976563	6.633984	5.955469	6.510938	6.644531	7.010156
0.031	6.078516	6.683203	6.032813	6.560156	6.725391	7.080469
0.03125	5.997656	6.560156	5.948438	6.440625	6.641016	6.967969
0.0315	5.832422	6.363281	5.786719	6.250781	6.479297	6.771094
0.03175	5.741016	6.240234	5.691797	6.141797	6.377344	6.641016
0.032	5.712891	6.194531	5.660156	6.096094	6.335156	6.58125
0.03225	5.674219	6.138281	5.621484	6.043359	6.285938	6.514453
0.0325	5.565234	5.994141	5.5125	5.90625	6.166406	6.373828
0.03275	5.347266	5.741016	5.308594	5.667188	5.941406	6.127734
0.033	4.985156	5.294531	4.942969	5.238281	5.526563	5.677734
0.03325	4.303125	4.482422	4.264453	4.461328	4.767188	4.841016
0.0335	3.480469	3.564844	3.483984	3.592969	3.895313	3.88125
0.03375	2.879297	2.921484	2.921484	2.98125	3.248438	3.167578
0.034	2.429297	2.446875	2.503125	2.534766	2.759766	2.640234
0.03425	1.982813	1.982813	2.091797	2.102344	2.288672	2.133984
0.0345	1.51875	1.476563	1.645313	1.620703	1.768359	1.582031
0.03475	1.072266	0.9878906	1.216406	1.156641	1.265625	1.047656
0.035	0.6433594	0.5097656	0.8050781	0.703125	0.7804688	0.5308594
0.03525	0.2109375	0.0421875	0.3972656	0.2601563	0.2917969	0.02460938
0.0355	-0.1511719	-0.3199219	0.06328125	-0.07734375	-0.0984375	-0.3832031
0.03575	-0.8191406	-1.030078	-0.5554688	-0.7558594	-0.7910156	-1.128516
0.036	-1.817578	-2.105859	-1.490625	-1.796484	-1.835156	-2.253516
0.03625	-2.629688	-2.956641	-2.242969	-2.605078	-2.7	-3.178125
0.0365	-3.311719	-3.65625	-2.865234	-3.2625	-3.427734	-3.948047
0.03675	-3.789844	-4.116797	-3.290625	-3.698438	-3.9375	-4.471875
0.037	-4.021875	-4.320703	-3.494531	-3.884766	-4.194141	-4.732031
0.03725	-4.341797	-4.647656	-3.786328	-4.183594	-4.545703	-5.104688
0.0375	-4.763672	-5.087109	-4.166016	-4.594922	-5.002734	-5.575781
0.03775	-5.259375	-5.596875	-4.616016	-5.087109	-5.519531	-6.113672
0.038	-5.684766	-6.01875	-5.002734	-5.498438	-5.969531	-6.588281
0.03825	-5.783203	-6.085547	-5.083594	-5.554688	-6.089063	-6.690234
0.0385	-5.839453	-6.113672	-5.115234	-5.572266	-6.162891	-6.739453
0.03875	-6.089063	-6.345703	-5.329688	-5.79375	-6.416016	-6.985547
0.039	-6.328125	-6.528516	-5.516016	-5.9625	-6.626953	-7.196484
0.03925	-6.458203	-6.598828	-5.600391	-6.029297	-6.732422	-7.291406
0.0395	-6.4125	-6.510938	-5.544141	-5.948438	-6.683203	-7.217578
0.03975	-6.257813	-6.317578	-5.389453	-5.772656	-6.532031	-7.03125
0.04	-6.141797	-6.159375	-5.262891	-5.625	-6.398438	-6.869531
0.04025	-6.106641	-6.096094	-5.220703	-5.572266	-6.342188	-6.795703
0.0405	-6.134766	-6.106641	-5.234766	-5.586328	-6.35625	-6.799219
0.04075	-6.089063	-6.032813	-5.171484	-5.508984	-6.289453	-6.718359
0.041	-5.888672	-5.800781	-4.974609	-5.283984	-6.078516	-6.472266
0.04125	-5.561719	-5.407031	-4.637109	-4.904297	-5.723438	-6.071484
0.0415	-4.978125	-4.700391	-4.046484	-4.225781	-5.069531	-5.354297
0.04175	-4.169531	-3.786328	-3.255469	-3.350391	-4.204688	-4.405078
0.042	-3.494531	-3.058594	-2.615625	-2.657813	-3.4875	-3.617578
0.04225	-2.998828	-2.53125	-2.155078	-2.165625	-2.946094	-3.030469
0.0425	-2.552344	-2.070703	-1.747266	-1.736719	-2.471484	-2.520703
0.04275	-2.116406	-1.610156	-1.328906	-1.297266	-2.003906	-2.017969
0.043	-1.683984	-1.128516	-0.9070313	-0.84375	-1.51875	-1.497656
0.04325	-1.255078	-0.6574219	-0.5027344	-0.4007813	-1.030078	-0.984375
0.0435	-0.815625	-0.1828125	-0.084375	0.04570313	-0.5449219	-0.4710938
0.04375	-0.4605469	0.1722656	0.2390625	0.3902344	-0.1617188	-0.06679688
0.044	0.05625	0.7171875	0.7242188	0.9070313	0.3761719	0.5097656
0.04425	1.016016	1.761328	1.641797	1.905469	1.385156	1.596094
0.0445	1.894922	2.692969	2.467969	2.787891	2.320313	2.591016
0.04475	2.559375	3.364453	3.076172	3.427734	3.023438	3.336328
0.045	3.132422	3.941016	3.592969	3.972656	3.621094	3.979688
0.04525	3.434766	4.222266	3.863672	4.229297	3.955078	4.313672
0.0455	3.705469	4.468359	4.10625	4.461328	4.250391	4.594922
0.04575	4.095703	4.855078	4.461328	4.830469	4.665234	5.020313
0.046	4.55625	5.340234	4.890234	5.294531	5.160938	5.547656
0.04625	5.048438	5.857031	5.347266	5.779688	5.688281	6.092578
0.0465	5.266406	6.053906	5.544141	5.9625	5.937891	6.324609
0.04675	5.283984	6.029297	5.540625	5.934375	5.966016	6.328125
0.047	5.473828	6.183984	5.698828	6.082031	6.141797	6.500391
0.04725	5.762109	6.423047	5.934375	6.307031	6.394922	6.757031
0.0475	5.973047	6.574219	6.092578	6.444141	6.570703	6.932813
0.04775	6.008203	6.560156	6.110156	6.433594	6.588281	6.936328
0.048	5.878125	6.394922	5.987109	6.275391	6.461719	6.774609
0.04825	5.744531	6.236719	5.85	6.117188	6.328125	6.609375
0.0485	5.674219	6.141797	5.776172	6.029297	6.247266	6.503906
0.04875	5.642578	6.082031	5.7375	5.980078	6.201563	6.437109
0.049	5.586328	5.997656	5.674219	5.899219	6.134766	6.352734
0.04925	5.452734	5.832422	5.540625	5.744531	5.994141	6.194531
0.0495	5.203125	5.533594	5.298047	5.459766	5.719922	5.902734
0.04975	4.721484	4.939453	4.816406	4.89375	5.171484	5.305078
0.05	3.951563	4.046484	4.071094	4.05	4.334766	4.3875
0.05025	3.199219	3.230859	3.357422	3.273047	3.54375	3.519141
0.0505	2.647266	2.636719	2.840625	2.710547	2.946094	2.865234
0.05075	2.176172	2.148047	2.41875	2.257031	2.446875	2.327344
0.051	1.740234	1.694531	2.021484	1.835156	1.979297	1.835156
0.05125	1.29375	1.205859	1.585547	1.364063	1.469531	1.297266
0.0515	0.8613281	0.7242188	1.167188	0.9105469	0.9773438	0.7734375
0.05175	0.4148438	0.2285156	0.7453125	0.45	0.478125	0.2425781
0.052	0	-0.2003906	0.3585938	0.03867188	0.02109375	-0.2355469
0.05225	-0.4042969	-0.6046875	-0.003515625	-0.3445313	-0.3972656	-0.6820313
0.0525	-1.226953	-1.494141	-0.7734375	-1.198828	-1.255078	-1.606641
0.05275	-2.214844	-2.555859	-1.701563	-2.211328	-2.295703	-2.728125
0.053	-2.932031	-3.301172	-2.366016	-2.907422	-3.069141	-3.54375
0.05325	-3.564844	-3.941016	-2.935547	-3.515625	-3.737109	-4.246875
0.0535	-3.955078	-4.306641	-3.276563	-3.856641	-4.151953	-4.66875
0.05375	-4.194141	-4.524609	-3.4875	-4.053516	-4.419141	-4.942969
0.054	-4.573828	-4.918359	-3.835547	-4.415625	-4.833984	-5.368359
0.05425	-4.999219	-5.357813	-4.222266	-4.8375	-5.294531	-5.839453
0.0545	-5.480859	-5.846484	-4.658203	-5.312109	-5.79375	-6.366797
0.05475	-5.818359	-6.169922	-4.964063	-5.617969	-6.152344	-6.739453
0.055	-5.853516	-6.173438	-4.978125	-5.607422	-6.208594	-6.774609
0.05525	-5.951953	-6.250781	-5.051953	-5.677734	-6.321094	-6.866016
0.0555	-6.215625	-6.482813	-5.273438	-5.899219	-6.574219	-7.119141
0.05575	-6.458203	-6.669141	-5.459766	-6.067969	-6.792188	-7.330078
0.056	-6.574219	-6.739453	-5.540625	-6.127734	-6.894141	-7.421484
0.05625	-6.493359	-6.619922	-5.45625	-6.01875	-6.813281	-7.316016
0.0565	-6.331641	-6.419531	-5.294531	-5.835938	-6.651563	-7.122656
0.05675	-6.233203	-6.285938	-5.185547	-5.712891	-6.542578	-6.989063
0.057	-6.208594	-6.236719	-5.146875	-5.670703	-6.500391	-6.932813
0.05725	-6.180469	-6.180469	-5.101172	-5.614453	-6.451172	-6.869531
0.0575	-6.082031	-6.043359	-4.985156	-5.484375	-6.328125	-6.721875
0.05775	-5.881641	-5.821875	-4.777734	-5.259375	-6.113672	-6.475781
0.058	-5.508984	-5.368359	-4.398047	-4.816406	-5.695313	-6.015234
0.05825	-4.823438	-4.549219	-3.7125	-4.032422	-4.935938	-5.178516
0.0585	-4.018359	-3.663281	-2.939063	-3.181641	-4.081641	-4.243359
0.05875	-3.417188	-3.016406	-2.373047	-2.573438	-3.434766	-3.540234
0.059	-2.953125	-2.524219	-1.944141	-2.116406	-2.928516	-2.995313
0.05925	-2.517188	-2.08125	-1.536328	-1.694531	-2.464453	-2.499609
0.0595	-2.084766	-1.610156	-1.117969	-1.248047	-1.986328	-1.982813
0.05975	-1.659375	-1.135547	-0.7101563	-0.8015625	-1.508203	-1.469531
0.06	-1.226953	-0.6609375	-0.2988281	-0.3550781	-1.016016	-0.9492188
0.06025	-0.7980469	-0.2003906	0.1054688	0.07734375	-0.5378906	-0.4429688
0.0605	-0.4535156	0.1335938	0.4183594	0.3972656	-0.1792969	-0.05976563
0.06075	0.2074219	0.8367188	1.040625	1.06875	0.50625	0.6785156
0.061	1.209375	1.930078	1.996875	2.116406	1.560938	1.814063
0.06125	1.982813	2.742188	2.721094	2.882813	2.383594	2.689453
0.0615	2.661328	3.434766	3.339844	3.536719	3.097266	3.445313
0.06175	3.153516	3.926953	3.789844	3.99375	3.624609	4.000781
0.062	3.364453	4.109766	3.976172	4.155469	3.856641	4.229297
0.06225	3.687891	4.429688	4.275	4.461328	4.211719	4.580859
0.0625	4.127344	4.876172	4.679297	4.886719	4.675781	5.066016
0.06275	4.598438	5.368359	5.11875	5.354297	5.175	5.593359
0.063	5.00625	5.786719	5.501953	5.755078	5.610938	6.043359
0.06325	5.122266	5.864063	5.593359	5.818359	5.741016	6.159375
0.0635	5.178516	5.888672	5.632031	5.839453	5.811328	6.205078
0.06375	5.435156	6.117188	5.853516	6.057422	6.057422	6.444141
0.064	5.68125	6.307031	6.050391	6.240234	6.268359	6.655078
0.06425	5.835938	6.394922	6.159375	6.324609	6.384375	6.767578
0.0645	5.814844	6.338672	6.127734	6.264844	6.359766	6.718359
0.06475	5.649609	6.141797	5.976563	6.075	6.205078	6.521484
0.065	5.523047	5.983594	5.85	5.923828	6.071484	6.35625
0.06525	5.494922	5.937891	5.818359	5.881641	6.032813	6.3
0.0655	5.480859	5.895703	5.790234	5.842969	6.001172	6.254297
0.06575	5.403516	5.779688	5.702344	5.733984	5.902734	6.145313
0.066	5.227734	5.56875	5.533594	5.533594	5.709375	5.937891
0.06625	4.918359	5.196094	5.227734	5.178516	5.368359	5.554688
0.0665	4.327734	4.489453	4.644141	4.503516	4.714453	4.830469
0.06675	3.519141	3.575391	3.867188	3.631641	3.846094	3.874219
0.067	2.854688	2.858203	3.234375	2.949609	3.135938	3.09375
0.06725	2.373047	2.334375	2.780859	2.460938	2.605078	2.520703
0.0675	1.919531	1.863281	2.369531	2.017969	2.123438	2.000391
0.06775	1.469531	1.392188	1.947656	1.567969	1.634766	1.476563
0.068	1.026563	0.9070313	1.515234	1.107422	1.142578	0.9492188
0.06825	0.5941406	0.4253906	1.103906	0.6539063	0.6503906	0.4324219
0.0685	0.1476563	-0.05976563	0.6820313	0.1933594	0.1476563	-0.0984375
0.06875	-0.1898438	-0.4007813	0.365625	-0.1265625	-0.2179688	-0.4851563
0.069	-0.6890625	-0.9140625	-0.084375	-0.61875	-0.7277344	-1.030078
0.06925	-1.655859	-1.965234	-0.9949219	-1.627734	-1.740234	-2.123438
0.0695	-2.534766	-2.903906	-1.824609	-2.520703	-2.682422	-3.128906
0.06975	-3.20625	-3.589453	-2.432813	-3.167578	-3.392578	-3.884766
0.07	-3.800391	-4.180078	-2.963672	-3.726563	-4.018359	-4.538672
0.07025	-4.10625	-4.461328	-3.234375	-3.986719	-4.352344	-4.883203
0.0705	-4.362891	-4.710938	-3.466406	-4.211719	-4.640625	-5.171484
0.07075	-4.717969	-5.073047	-3.793359	-4.549219	-5.027344	-5.56875
0.071	-5.175	-5.547656	-4.215234	-5.009766	-5.516016	-6.071484
0.07125	-5.68125	-6.064453	-4.679297	-5.508984	-6.046875	-6.633984
0.0715	-5.888672	-6.250781	-4.858594	-5.684766	-6.282422	-6.866016
0.07175	-5.895703	-6.219141	-4.851563	-5.649609	-6.307031	-6.8625
0.072	-6.085547	-6.391406	-5.013281	-5.807813	-6.500391	-7.052344
0.07225	-6.345703	-6.609375	-5.224219	-6.008203	-6.742969	-7.287891
0.0725	-6.525	-6.735938	-5.357813	-6.120703	-6.894141	-7.432031
0.07275	-6.574219	-6.735938	-5.382422	-6.124219	-6.925781	-7.446094
0.073	-6.447656	-6.567188	-5.252344	-5.969531	-6.799219	-7.287891
0.07325	-6.296484	-6.373828	-5.097656	-5.79375	-6.6375	-7.098047
0.0735	-6.226172	-6.268359	-5.016797	-5.698828	-6.546094	-6.989063
0.07375	-6.198047	-6.219141	-4.978125	-5.656641	-6.503906	-6.929297
0.074	-6.145313	-6.134766	-4.911328	-5.579297	-6.430078	-6.837891
0.07425	-6.015234	-5.976563	-4.767188	-5.421094	-6.275391	-6.665625
0.0745	-5.772656	-5.691797	-4.524609	-5.143359	-6.011719	-6.363281
0.07475	-5.308594	-5.122266	-4.057031	-4.598438	-5.487891	-5.790234
0.075	-4.545703	-4.236328	-3.304688	-3.747656	-4.658203	-4.876172
0.07525	-3.789844	-3.413672	-2.5875	-2.963672	-3.860156	-3.997266
0.0755	-3.244922	-2.823047	-2.074219	-2.415234	-3.2625	-3.350391
0.07575	-2.770313	-2.327344	-1.63125	-1.954688	-2.752734	-2.798438
0.076	-2.337891	-1.877344	-1.230469	-1.529297	-2.285156	-2.302734
0.07625	-1.919531	-1.416797	-0.8261719	-1.086328	-1.817578	-1.8
0.0765	-1.490625	-0.9421875	-0.4183594	-0.6398438	-1.332422	-1.286719
0.07675	-1.030078	-0.4394531	0.00703125	-0.1757813	-0.815625	-0.7417969
0.077	-0.646875	-0.03164063	0.3761719	0.2074219	-0.39375	-0.2917969
0.07725	-0.2707031	0.3375	0.7171875	0.5589844	-0.00703125	0.1125
0.0775	0.5308594	1.209375	1.476563	1.392188	0.8332031	1.016016
0.07775	1.504688	2.267578	2.401172	2.397656	1.863281	2.123438
0.078	2.235938	3.016406	3.069141	3.104297	2.640234	2.946094
0.07825	2.865234	3.645703	3.642188	3.705469	3.297656	3.645703
0.0785	3.241406	4.004297	3.986719	4.042969	3.705469	4.071094
0.07875	3.480469	4.229297	4.201172	4.246875	3.979688	4.334766
0.079	3.842578	4.591406	4.524609	4.587891	4.373438	4.725
0.07925	4.278516	5.034375	4.928906	5.013281	4.8375	5.206641
0.0795	4.774219	5.554688	5.396484	5.508984	5.364844	5.762109
0.07975	5.101172	5.878125	5.695313	5.811328	5.719922	6.120703
0.08	5.132813	5.867578	5.709375	5.79375	5.769141	6.148828
0.08025	5.255859	5.9625	5.807813	5.888672	5.899219	6.261328
0.0805	5.530078	6.201563	6.036328	6.117188	6.155859	6.514453
0.08075	5.755078	6.363281	6.205078	6.268359	6.338672	6.700781
0.081	5.867578	6.419531	6.278906	6.324609	6.426563	6.778125
0.08125	5.786719	6.307031	6.201563	6.215625	6.35625	6.676172
0.0815	5.625	6.117188	6.046875	6.025781	6.198047	6.482813
0.08175	5.533594	5.997656	5.951953	5.909766	6.096094	6.352734
0.082	5.5125	5.955469	5.923828	5.874609	6.064453	6.303516
0.08225	5.491406	5.909766	5.892188	5.832422	6.025781	6.254297
0.0825	5.385938	5.762109	5.776172	5.695313	5.899219	6.117188
0.08275	5.178516	5.516016	5.565234	5.459766	5.674219	5.878125
0.083	4.826953	5.087109	5.203125	5.041406	5.273438	5.431641
0.08325	4.144922	4.278516	4.524609	4.267969	4.517578	4.598438
0.0835	3.336328	3.382031	3.754688	3.420703	3.659766	3.65625
0.08375	2.75625	2.759766	3.199219	2.833594	3.033984	2.970703
0.084	2.299219	2.271094	2.773828	2.373047	2.534766	2.432813
0.08425	1.835156	1.796484	2.3625	1.930078	2.053125	1.908984
0.0845	1.374609	1.304297	1.926563	1.4625	1.539844	1.371094
0.08475	0.9421875	0.8261719	1.497656	1.008984	1.051172	0.8507813
0.085	0.5132813	0.3515625	1.089844	0.5589844	0.5660156	0.3410156
0.08525	0.07734375	-0.1160156	0.6785156	0.1160156	0.08085938	-0.1722656
0.0855	-0.28125	-0.4816406	0.3480469	-0.2214844	-0.3023438	-0.5765625
0.08575	-0.9246094	-1.163672	-0.2460938	-0.871875	-0.9703125	-1.290234
0.086	-1.9125	-2.228906	-1.18125	-1.894922	-2.003906	-2.404688
0.08625	-2.714063	-3.072656	-1.933594	-2.692969	-2.858203	-3.322266
0.0865	-3.375	-3.747656	-2.527734	-3.329297	-3.557813	-4.064063
0.08675	-3.863672	-4.21875	-2.967188	-3.779297	-4.071094	-4.601953
0.087	-4.102734	-4.433203	-3.181641	-3.972656	-4.334766	-4.865625
0.08725	-4.401563	-4.735547	-3.459375	-4.250391	-4.66875	-5.206641
0.0875	-4.802344	-5.150391	-3.828516	-4.640625	-5.101172	-5.649609
0.08775	-5.280469	-5.642578	-4.267969	-5.122266	-5.600391	-6.176953
0.088	-5.716406	-6.075	-4.665234	-5.544141	-6.060938	-6.658594
0.08825	-5.825391	-6.148828	-4.749609	-5.603906	-6.1875	-6.774609
0.0885	-5.835938	-6.127734	-4.749609	-5.582813	-6.212109	-6.774609
0.08875	-6.043359	-6.317578	-4.928906	-5.758594	-6.419531	-6.975
0.089	-6.282422	-6.514453	-5.125781	-5.937891	-6.6375	-7.189453
0.08925	-6.46875	-6.644531	-5.269922	-6.057422	-6.792188	-7.337109
0.0895	-6.496875	-6.630469	-5.276953	-6.046875	-6.813281	-7.340625
0.08975	-6.35625	-6.451172	-5.139844	-5.881641	-6.679688	-7.175391
0.09	-6.215625	-6.264844	-4.999219	-5.716406	-6.525	-6.999609
0.09025	-6.152344	-6.169922	-4.928906	-5.635547	-6.444141	-6.901172
0.0905	-6.134766	-6.13125	-4.897266	-5.596875	-6.408984	-6.851953
0.09075	-6.060938	-6.032813	-4.812891	-5.494922	-6.314063	-6.735938
0.091	-5.885156	-5.821875	-4.633594	-5.291016	-6.117188	-6.507422
0.09125	-5.589844	-5.466797	-4.334766	-4.95	-5.79375	-6.145313
0.0915	-5.037891	-4.798828	-3.782813	-4.306641	-5.182031	-5.470313
0.09175	-4.246875	-3.898828	-3.009375	-3.441797	-4.327734	-4.535156
0.092	-3.54375	-3.139453	-2.348438	-2.724609	-3.585938	-3.719531
0.09225	-3.033984	-2.5875	-1.870313	-2.211328	-3.026953	-3.114844
0.0925	-2.605078	-2.155078	-1.476563	-1.803516	-2.569922	-2.622656
0.09275	-2.190234	-1.712109	-1.079297	-1.381641	-2.119922	-2.1375
0.093	-1.74375	-1.209375	-0.6503906	-0.9105469	-1.617188	-1.599609
0.09325	-1.318359	-0.7417969	-0.2566406	-0.478125	-1.135547	-1.093359
0.0935	-0.8894531	-0.2777344	0.1546875	-0.03867188	-0.6574219	-0.5871094
0.09375	-0.5203125	0.09140625	0.4992188	0.3128906	-0.2636719	-0.16875
0.094	-0.02109375	0.6117188	0.9527344	0.8015625	0.2460938	0.3761719
0.09425	0.9175781	1.645313	1.849219	1.785938	1.233984	1.444922
0.0945	1.807031	2.594531	2.685938	2.689453	2.183203	2.457422
0.09475	2.467969	3.2625	3.287109	3.322266	2.879297	3.195703
0.095	3.0375	3.835547	3.810938	3.863672	3.480469	3.835547
0.09525	3.339844	4.113281	4.081641	4.123828	3.810938	4.169531
0.0955	3.607031	4.362891	4.317188	4.355859	4.10625	4.454297
0.09575	3.990234	4.746094	4.661719	4.717969	4.517578	4.872656
0.096	4.447266	5.224219	5.083594	5.164453	5.00625	5.382422
0.09625	4.939453	5.741016	5.551172	5.656641	5.533594	5.930859
0.0965	5.160938	5.941406	5.751563	5.842969	5.786719	6.173438
0.09675	5.164453	5.90625	5.7375	5.800781	5.804297	6.169922
0.097	5.347266	6.064453	5.888672	5.955469	5.987109	6.338672
0.09725	5.635547	6.310547	6.13125	6.191016	6.254297	6.605859
0.0975	5.839453	6.458203	6.282422	6.328125	6.426563	6.778125
0.09775	5.874609	6.440625	6.296484	6.314063	6.451172	6.785156
0.098	5.751563	6.282422	6.180469	6.166406	6.331641	6.630469
0.09825	5.614453	6.117188	6.046875	6.001172	6.194531	6.458203
0.0985	5.533594	6.004688	5.9625	5.892188	6.099609	6.338672
0.09875	5.498438	5.948438	5.927344	5.839453	6.053906	6.275391
0.099	5.459766	5.874609	5.881641	5.776172	5.994141	6.208594
0.09925	5.333203	5.716406	5.751563	5.625	5.853516	6.053906
0.0995	5.083594	5.421094	5.498438	5.34375	5.582813	5.758594
0.09975	4.6125	4.841016	5.020313	4.788281	5.048438	5.171484
0.1	3.853125	3.958594	4.275	3.944531	4.215234	4.257422
0.10025	3.107813	3.15	3.568359	3.174609	3.43125	3.392578
0.1005	2.576953	2.576953	3.062109	2.633203	2.851172	2.759766
0.10075	2.123438	2.102344	2.650781	2.186719	2.3625	2.235938
0.101	1.691016	1.652344	2.257031	1.761328	1.894922	1.740234
0.10125	1.244531	1.167188	1.821094	1.300781	1.395703	1.209375
0.1015	0.8226563	0.703125	1.40625	0.8578125	0.9175781	0.703125
0.10175	0.3796875	0.2109375	0.9878906	0.39375	0.4183594	0.1757813
0.102	-0.02460938	-0.2179688	0.6117188	-0.01054688	-0.028125	-0.2988281
0.10225	-0.3972656	-0.5871094	0.2777344	-0.3621094	-0.4148438	-0.7066406
0.1025	-1.198828	-1.441406	-0.4640625	-1.18125	-1.244531	-1.596094
0.10275	-2.183203	-2.506641	-1.399219	-2.200781	-2.285156	-2.717578
0.103	-2.903906	-3.251953	-2.060156	-2.900391	-3.051563	-3.536719
0.10325	-3.540234	-3.898828	-2.633203	-3.512109	-3.726563	-4.246875
0.1035	-3.923438	-4.253906	-2.967188	-3.849609	-4.134375	-4.665234
0.10375	-4.141406	-4.450781	-3.160547	-4.028906	-4.380469	-4.914844
0.104	-4.514063	-4.8375	-3.508594	-4.383984	-4.795313	-5.336719
0.10425	-4.935938	-5.276953	-3.895313	-4.798828	-5.255859	-5.804297
0.1045	-5.410547	-5.755078	-4.320703	-5.266406	-5.748047	-6.324609
0.10475	-5.762109	-6.089063	-4.630078	-5.586328	-6.113672	-6.707813
0.105	-5.807813	-6.099609	-4.651172	-5.582813	-6.173438	-6.746484
0.10525	-5.902734	-6.173438	-4.725	-5.649609	-6.282422	-6.830859
0.1055	-6.166406	-6.4125	-4.953516	-5.874609	-6.539063	-7.0875
0.10575	-6.394922	-6.588281	-5.129297	-6.036328	-6.739453	-7.284375
0.106	-6.510938	-6.651563	-5.210156	-6.089063	-6.834375	-7.365234
0.10625	-6.433594	-6.528516	-5.122266	-5.976563	-6.757031	-7.25625
0.1065	-6.261328	-6.317578	-4.953516	-5.783203	-6.584766	-7.052344
0.10675	-6.173438	-6.191016	-4.855078	-5.670703	-6.479297	-6.922266
0.107	-6.155859	-6.155859	-4.826953	-5.639063	-6.451172	-6.876563
0.10725	-6.124219	-6.096094	-4.78125	-5.579297	-6.398438	-6.813281
0.1075	-6.029297	-5.9625	-4.665234	-5.449219	-6.271875	-6.669141
0.10775	-5.825391	-5.730469	-4.461328	-5.220703	-6.060938	-6.423047
0.108	-5.45625	-5.283984	-4.092188	-4.791797	-5.653125	-5.969531
0.10825	-4.788281	-4.485938	-3.420703	-4.025391	-4.911328	-5.150391
0.1085	-3.990234	-3.596484	-2.650781	-3.174609	-4.060547	-4.21875
0.10875	-3.389063	-2.946094	-2.077734	-2.559375	-3.413672	-3.512109
0.109	-2.928516	-2.457422	-1.641797	-2.105859	-2.910938	-2.963672
0.10925	-2.489063	-2.007422	-1.233984	-1.683984	-2.439844	-2.460938
0.1095	-2.053125	-1.536328	-0.815625	-1.2375	-1.961719	-1.951172
0.10975	-1.634766	-1.072266	-0.4183594	-0.8015625	-1.483594	-1.444922
0.11	-1.209375	-0.6011719	-0.01757813	-0.3585938	-0.9984375	-0.9316406
0.11025	-0.7839844	-0.1371094	0.39375	0.07382813	-0.5203125	-0.4253906
0.1105	-0.4429688	0.196875	0.7136719	0.39375	-0.1582031	-0.04570313
0.11075	0.1933594	0.8753906	1.311328	1.044141	0.4992188	0.6679688
0.111	1.18125	1.951172	2.239453	2.074219	1.536328	1.789453
0.11125	1.951172	2.759766	2.960156	2.837109	2.358984	2.661328
0.1115	2.622656	3.448828	3.582422	3.491016	3.069141	3.410156
0.11175	3.142969	3.972656	4.064063	3.983203	3.624609	3.997266
0.112	3.382031	4.180078	4.278516	4.173047	3.891797	4.257422
0.11225	3.677344	4.468359	4.545703	4.44375	4.222266	4.580859
0.1125	4.081641	4.886719	4.914844	4.8375	4.658203	5.030859
0.11275	4.559766	5.385938	5.368359	5.315625	5.160938	5.565234
0.113	4.981641	5.814844	5.772656	5.726953	5.607422	6.029297
0.11325	5.101172	5.902734	5.874609	5.807813	5.751563	6.152344
0.1135	5.160938	5.930859	5.916797	5.832422	5.825391	6.205078
0.11375	5.396484	6.138281	6.113672	6.036328	6.057422	6.423047
0.114	5.628516	6.314063	6.296484	6.205078	6.254297	6.616406
0.11425	5.786719	6.4125	6.419531	6.3	6.384375	6.746484
0.1145	5.783203	6.370313	6.405469	6.261328	6.377344	6.718359
0.11475	5.625	6.180469	6.250781	6.075	6.226172	6.525
0.115	5.498438	6.025781	6.13125	5.923828	6.092578	6.359766
0.11525	5.45625	5.955469	6.085547	5.857031	6.032813	6.285938
0.1155	5.428125	5.895703	6.050391	5.804297	5.983594	6.226172
0.11575	5.357813	5.786719	5.976563	5.705859	5.888672	6.124219
0.116	5.199609	5.593359	5.821875	5.519531	5.712891	5.934375
0.11625	4.914844	5.248828	5.530078	5.192578	5.396484	5.582813
0.1165	4.362891	4.580859	4.971094	4.549219	4.774219	4.89375
0.11675	3.564844	3.673828	4.204688	3.684375	3.919922	3.955078
0.117	2.875781	2.932031	3.557813	2.984766	3.185156	3.157031
0.11725	2.383594	2.401172	3.090234	2.482031	2.64375	2.566406
0.1175	1.937109	1.940625	2.689453	2.053125	2.172656	2.060156
0.11775	1.501172	1.487109	2.295703	1.627734	1.701563	1.560938
0.118	1.061719	1.001953	1.863281	1.163672	1.209375	1.037109
0.11825	0.61875	0.50625	1.434375	0.703125	0.7136719	0.50625
0.1185	0.1722656	0.02109375	1.019531	0.2425781	0.2179688	-0.0140625
0.11875	-0.1617188	-0.3128906	0.7136719	-0.07382813	-0.1476563	-0.4042969
0.119	-0.6328125	-0.7945313	0.28125	-0.5378906	-0.6363281	-0.9246094
0.11925	-1.557422	-1.8	-0.590625	-1.508203	-1.603125	-1.965234
0.1195	-2.446875	-2.745703	-1.430859	-2.415234	-2.548828	-2.977734
0.11975	-3.135938	-3.452344	-2.060156	-3.079688	-3.276563	-3.751172
0.12	-3.726563	-4.046484	-2.5875	-3.642188	-3.902344	-4.408594
0.12025	-4.032422	-4.317188	-2.844141	-3.898828	-4.236328	-4.746094
0.1205	-4.278516	-4.55625	-3.072656	-4.116797	-4.514063	-5.030859
0.12075	-4.651172	-4.95	-3.427734	-4.478906	-4.925391	-5.452734
0.121	-5.111719	-5.428125	-3.853125	-4.939453	-5.417578	-5.9625
0.12125	-5.603906	-5.930859	-4.296094	-5.428125	-5.934375	-6.507422
0.1215	-5.832422	-6.13125	-4.492969	-5.617969	-6.180469	-6.760547
0.12175	-5.846484	-6.106641	-4.489453	-5.586328	-6.205078	-6.767578
0.122	-6.022266	-6.271875	-4.637109	-5.733984	-6.387891	-6.946875
0.12225	-6.278906	-6.489844	-4.848047	-5.934375	-6.630469	-7.182422
0.1225	-6.472266	-6.626953	-4.992188	-6.057422	-6.792188	-7.340625
0.12275	-6.539063	-6.644531	-5.027344	-6.071484	-6.841406	-7.375781
0.123	-6.416016	-6.482813	-4.900781	-5.920313	-6.721875	-7.224609
0.12325	-6.257813	-6.282422	-4.739063	-5.744531	-6.556641	-7.027734
0.1235	-6.183984	-6.173438	-4.651172	-5.646094	-6.46875	-6.91875
0.12375	-6.159375	-6.13125	-4.616016	-5.603906	-6.433594	-6.866016
0.124	-6.124219	-6.067969	-4.563281	-5.544141	-6.377344	-6.795703
0.12425	-5.997656	-5.913281	-4.433203	-5.392969	-6.229688	-6.626953
0.1245	-5.755078	-5.625	-4.197656	-5.115234	-5.969531	-6.328125
0.12475	-5.298047	-5.066016	-3.737109	-4.580859	-5.463281	-5.765625
0.125	-4.542188	-4.183594	-2.991797	-3.737109	-4.637109	-4.865625
0.12525	-3.793359	-3.364453	-2.281641	-2.956641	-3.842578	-3.99375
0.1255	-3.266016	-2.798438	-1.778906	-2.422266	-3.269531	-3.364453
0.12575	-2.791406	-2.295703	-1.325391	-1.951172	-2.749219	-2.805469
0.126	-2.341406	-1.828125	-0.9070313	-1.511719	-2.267578	-2.285156
0.12625	-1.930078	-1.378125	-0.5132813	-1.079297	-1.810547	-1.796484
0.1265	-1.511719	-0.9140625	-0.1089844	-0.6398438	-1.335938	-1.290234
0.12675	-1.061719	-0.421875	0.3164063	-0.1792969	-0.8332031	-0.759375
0.127	-0.675	-0.01054688	0.6855469	0.2039063	-0.4078125	-0.309375
0.12725	-0.2988281	0.3621094	1.030078	0.5660156	-0.0140625	0.1019531
0.1275	0.4816406	1.202344	1.761328	1.367578	0.7910156	0.9773438
0.12775	1.444922	2.25	2.671875	2.366016	1.814063	2.077734
0.128	2.179688	3.005859	3.346875	3.086719	2.594531	2.903906
0.12825	2.791406	3.624609	3.916406	3.677344	3.241406	3.592969
0.1285	3.171094	3.986719	4.253906	4.018359	3.652734	4.021875
0.12875	3.399609	4.201172	4.447266	4.208203	3.916406	4.278516
0.129	3.751172	4.55625	4.760156	4.542188	4.299609	4.661719
0.12925	4.180078	4.988672	5.153906	4.957031	4.746094	5.132813
0.1295	4.658203	5.494922	5.607422	5.435156	5.255859	5.670703
0.12975	5.013281	5.853516	5.937891	5.772656	5.642578	6.060938
0.13	5.083594	5.888672	5.976563	5.800781	5.733984	6.127734
0.13025	5.192578	5.966016	6.043359	5.871094	5.846484	6.219141
0.1305	5.438672	6.176953	6.229688	6.078516	6.082031	6.444141
0.13075	5.656641	6.335156	6.377344	6.236719	6.268359	6.630469
0.131	5.772656	6.394922	6.419531	6.296484	6.35625	6.707813
0.13125	5.688281	6.275391	6.307031	6.176953	6.275391	6.595313
0.1315	5.530078	6.092578	6.148828	5.994141	6.124219	6.405469
0.13175	5.452734	5.987109	6.057422	5.895703	6.032813	6.292969
0.132	5.435156	5.941406	6.008203	5.853516	5.994141	6.24375
0.13225	5.407031	5.885156	5.944922	5.804297	5.948438	6.1875
0.1325	5.298047	5.733984	5.807813	5.660156	5.818359	6.043359
0.13275	5.097656	5.498438	5.582813	5.438672	5.603906	5.807813
0.133	4.767188	5.094141	5.206641	5.048438	5.227734	5.385938
0.13325	4.109766	4.313672	4.521094	4.296094	4.5	4.580859
0.1335	3.304688	3.417188	3.723047	3.448828	3.642188	3.642188
0.13375	2.714063	2.787891	3.107813	2.851172	3.009375	2.946094
0.134	2.257031	2.302734	2.615625	2.394141	2.513672	2.411719
0.13425	1.810547	1.842188	2.151563	1.965234	2.042578	1.908984
0.1345	1.364063	1.360547	1.666406	1.504688	1.546875	1.385156
0.13475	0.9386719	0.8859375	1.139063	1.054688	1.061719	0.8648438
0.135	0.5238281	0.421875	0.5941406	0.6257813	0.5941406	0.3691406
0.13525	0.084375	-0.04921875	0.05625	0.1792969	0.1054688	-0.1441406
0.1355	-0.2777344	-0.4183594	-0.3832031	-0.1617188	-0.2777344	-0.5519531
0.13575	-0.9	-1.072266	-1.054688	-0.7875	-0.9175781	-1.241016
0.136	-1.887891	-2.144531	-2.056641	-1.817578	-1.958203	-2.3625
0.13625	-2.685938	-2.988281	-2.844141	-2.615625	-2.808984	-3.273047
0.1365	-3.336328	-3.649219	-3.434766	-3.234375	-3.494531	-3.99375
0.13675	-3.849609	-4.148438	-3.888281	-3.708984	-4.028906	-4.552734
0.137	-4.092188	-4.362891	-4.197656	-3.909375	-4.299609	-4.826953
0.13725	-4.355859	-4.623047	-4.637109	-4.151953	-4.594922	-5.125781
0.1375	-4.707422	-4.988672	-5.104688	-4.489453	-4.981641	-5.523047
0.13775	-5.175	-5.466797	-5.579297	-4.953516	-5.473828	-6.032813
0.138	-5.632031	-5.927344	-6.001172	-5.396484	-5.948438	-6.532031
0.13825	-5.790234	-6.050391	-6.117188	-5.5125	-6.120703	-6.697266
0.1385	-5.864063	-6.099609	-6.106641	-5.558203	-6.212109	-6.767578
0.13875	-6.089063	-6.303516	-6.205078	-5.755078	-6.440625	-6.992578
0.139	-6.314063	-6.479297	-6.342188	-5.916797	-6.644531	-7.192969
0.13925	-6.472266	-6.577734	-6.451172	-6.004688	-6.771094	-7.305469
0.1395	-6.472266	-6.535547	-6.419531	-5.969531	-6.764063	-7.280859
0.13975	-6.328125	-6.345703	-6.240234	-5.800781	-6.623438	-7.108594
0.14	-6.166406	-6.138281	-6.050391	-5.610938	-6.444141	-6.904688
0.14025	-6.082031	-6.025781	-5.937891	-5.508984	-6.342188	-6.788672
0.1405	-6.075	-5.997656	-5.895703	-5.484375	-6.321094	-6.753516
0.14075	-6.01875	-5.909766	-5.814844	-5.4	-6.24375	-6.658594
0.141	-5.85	-5.705859	-5.639063	-5.206641	-6.057422	-6.447656
0.14125	-5.572266	-5.375391	-5.354297	-4.886719	-5.755078	-6.106641
0.1415	-5.041406	-4.732031	-4.819922	-4.264453	-5.167969	-5.452734
0.14175	-4.243359	-3.821484	-4.042969	-3.392578	-4.306641	-4.510547
0.142	-3.526172	-3.048047	-3.364453	-2.661328	-3.547266	-3.680859
0.14225	-3.019922	-2.506641	-2.886328	-2.158594	-2.991797	-3.079688
0.1425	-2.605078	-2.091797	-2.499609	-1.761328	-2.548828	-2.605078
0.14275	-2.204297	-1.666406	-2.126953	-1.360547	-2.112891	-2.1375
0.143	-1.768359	-1.170703	-1.705078	-0.9	-1.620703	-1.613672
0.14325	-1.342969	-0.703125	-1.290234	-0.4605469	-1.132031	-1.107422
0.1435	-0.9105469	-0.2425781	-0.871875	-0.02109375	-0.6539063	-0.6046875
0.14375	-0.5519531	0.1265625	-0.534375	0.3269531	-0.2671875	-0.1933594
0.144	-0.084375	0.6082031	-0.1089844	0.7839844	0.2109375	0.3164063
0.14425	0.8191406	1.599609	0.7277344	1.733203	1.167188	1.35
0.1445	1.715625	2.555859	1.539844	2.64375	2.116406	2.369531
0.14475	2.387109	3.241406	2.155078	3.287109	2.826563	3.121875
0.145	2.967188	3.825	2.703516	3.835547	3.438281	3.76875
0.14525	3.258984	4.092188	2.974219	4.081641	3.758203	4.102734
0.1455	3.505078	4.324219	3.199219	4.292578	4.035938	4.366406
0.14575	3.902344	4.725	3.571875	4.675781	4.461328	4.802344
0.146	4.355859	5.192578	4.000781	5.122266	4.942969	5.308594
0.14625	4.830469	5.688281	4.44375	5.593359	5.449219	5.839453
0.1465	5.066016	5.90625	4.651172	5.797266	5.712891	6.096094
0.14675	5.076563	5.874609	4.651172	5.769141	5.741016	6.099609
0.147	5.252344	6.01875	4.798828	5.913281	5.916797	6.261328
0.14725	5.530078	6.264844	5.037891	6.148828	6.183984	6.525
0.1475	5.730469	6.405469	5.199609	6.278906	6.349219	6.69375
0.14775	5.779688	6.398438	5.234766	6.275391	6.380859	6.707813
0.148	5.667188	6.254297	5.125781	6.138281	6.278906	6.574219
0.14825	5.523047	6.085547	4.985156	5.969531	6.134766	6.394922
0.1485	5.442188	5.976563	4.907813	5.864063	6.043359	6.278906
0.14875	5.421094	5.930859	4.89375	5.821875	6.004688	6.233203
0.149	5.382422	5.864063	4.862109	5.762109	5.948438	6.166406
0.14925	5.259375	5.709375	4.739063	5.610938	5.807813	6.01875
0.1495	5.023828	5.428125	4.503516	5.340234	5.547656	5.730469
0.14975	4.570313	4.869141	4.042969	4.802344	5.030859	5.157422
0.15	3.825	4.000781	3.304688	3.972656	4.21875	4.260938
0.15025	3.086719	3.195703	2.605078	3.20625	3.438281	3.399609
0.1505	2.559375	2.626172	2.102344	2.671875	2.861719	2.770313
0.15075	2.105859	2.144531	1.680469	2.214844	2.373047	2.239453
0.151	1.666406	1.683984	1.283203	1.782422	1.898438	1.729688
0.15125	1.230469	1.212891	0.8753906	1.332422	1.413281	1.212891
0.1515	0.8191406	0.7558594	0.478125	0.9	0.9457031	0.7171875
0.15175	0.3726563	0.2601563	0.04921875	0.4289063	0.4429688	0.1863281
0.152	-0.03164063	-0.16875	-0.3234375	0.01757813	-0.01054688	-0.2847656
0.15225	-0.3902344	-0.5203125	-0.6398438	-0.309375	-0.3832031	-0.6820313
0.1525	-1.156641	-1.342969	-1.353516	-1.100391	-1.177734	-1.536328
0.15275	-2.130469	-2.390625	-2.271094	-2.109375	-2.207813	-2.64375
0.153	-2.847656	-3.135938	-2.925	-2.8125	-2.970703	-3.459375
0.15325	-3.473438	-3.775781	-3.505078	-3.413672	-3.635156	-4.158984
0.1535	-3.877734	-4.158984	-3.863672	-3.775781	-4.071094	-4.598438
0.15375	-4.116797	-4.373438	-4.071094	-3.969141	-4.33125	-4.865625
0.154	-4.457813	-4.725	-4.380469	-4.292578	-4.710938	-5.252344
0.15425	-4.851563	-5.125781	-4.749609	-4.672266	-5.132813	-5.684766
0.1545	-5.329688	-5.614453	-5.213672	-5.146875	-5.628516	-6.208594
0.15475	-5.698828	-5.976563	-5.565234	-5.491406	-6.011719	-6.616406
0.155	-5.751563	-5.994141	-5.607422	-5.498438	-6.082031	-6.669141
0.15525	-5.835938	-6.046875	-5.688281	-5.547656	-6.169922	-6.739453
0.1555	-6.092578	-6.271875	-5.927344	-5.762109	-6.4125	-6.982031
0.15575	-6.321094	-6.458203	-6.127734	-5.927344	-6.616406	-7.185938
0.156	-6.444141	-6.532031	-6.233203	-5.994141	-6.721875	-7.273828
0.15625	-6.366797	-6.416016	-6.183984	-5.885156	-6.644531	-7.164844
0.1565	-6.198047	-6.212109	-6.096094	-5.695313	-6.472266	-6.964453
0.15675	-6.113672	-6.096094	-6.092578	-5.593359	-6.373828	-6.844922
0.157	-6.092578	-6.046875	-6.075	-5.547656	-6.328125	-6.785156
0.15725	-6.050391	-5.976563	-6.008203	-5.477344	-6.261328	-6.707813
0.1575	-5.958984	-5.85	-5.90625	-5.357813	-6.148828	-6.570703
0.15775	-5.772656	-5.639063	-5.730469	-5.150391	-5.958984	-6.345703
0.158	-5.431641	-5.224219	-5.385938	-4.749609	-5.579297	-5.923828
0.15825	-4.791797	-4.454297	-4.742578	-4.011328	-4.865625	-5.139844
0.1585	-3.99375	-3.564844	-3.986719	-3.157031	-4.014844	-4.208203
0.15875	-3.375	-2.893359	-3.406641	-2.53125	-3.353906	-3.480469
0.159	-2.903906	-2.394141	-2.967188	-2.063672	-2.840625	-2.925
0.15925	-2.485547	-1.96875	-2.5875	-1.659375	-2.397656	-2.443359
0.1595	-2.08125	-1.522266	-2.207813	-1.241016	-1.951172	-1.965234
0.15975	-1.666406	-1.054688	-1.810547	-0.8015625	-1.476563	-1.458984
0.16	-1.233984	-0.5835938	-1.399219	-0.3585938	-0.9878906	-0.9492188
0.16025	-0.8050781	-0.1265625	-0.9914063	0.07382813	-0.5132813	-0.45
0.1605	-0.4710938	0.2074219	-0.6925781	0.3902344	-0.1582031	-0.06679688
0.16075	0.1195313	0.8367188	-0.140625	0.9914063	0.4535156	0.590625
0.161	1.079297	1.884375	0.7734375	1.993359	1.466016	1.680469
0.16125	1.880859	2.728125	1.522266	2.794922	2.316797	2.591016
0.1615	2.548828	3.410156	2.133984	3.441797	3.026953	3.343359
0.16175	3.055078	3.916406	2.594531	3.916406	3.568359	3.919922
0.162	3.301172	4.137891	2.801953	4.120313	3.842578	4.190625
0.16225	3.596484	4.429688	3.069141	4.391016	4.173047	4.514063
0.1625	4.000781	4.841016	3.441797	4.777734	4.601953	4.957031
0.16275	4.475391	5.333203	3.888281	5.248828	5.104688	5.484375
0.163	4.907813	5.769141	4.296094	5.663672	5.565234	5.958984
0.16325	5.030859	5.864063	4.405078	5.744531	5.709375	6.089063
0.1635	5.076563	5.874609	4.426172	5.748047	5.769141	6.120703
0.16375	5.305078	6.078516	4.608984	5.944922	5.997656	6.335156
0.164	5.544141	6.264844	4.795313	6.124219	6.205078	6.542578
0.16425	5.716406	6.380859	4.928906	6.233203	6.342188	6.679688
0.1645	5.726953	6.349219	4.921875	6.198047	6.342188	6.662109
0.16475	5.572266	6.162891	4.770703	6.015234	6.191016	6.472266
0.165	5.438672	5.997656	4.644141	5.857031	6.053906	6.303516
0.16525	5.382422	5.909766	4.598438	5.776172	5.980078	6.215625
0.1655	5.364844	5.871094	4.591406	5.741016	5.944922	6.169922
0.16575	5.308594	5.776172	4.538672	5.656641	5.867578	6.082031
0.166	5.139844	5.575781	4.394531	5.466797	5.684766	5.885156
0.16625	4.865625	5.241797	4.130859	5.143359	5.378906	5.540625
0.1665	4.327734	4.580859	3.589453	4.507031	4.770703	4.862109
0.16675	3.529688	3.673828	2.830078	3.638672	3.912891	3.916406
0.167	2.854688	2.949609	2.204297	2.953125	3.195703	3.132422
0.16725	2.373047	2.425781	1.747266	2.460938	2.661328	2.555859
0.1675	1.926563	1.961719	1.342969	2.021484	2.186719	2.046094
0.16775	1.494141	1.511719	0.9597656	1.592578	1.722656	1.546875
0.168	1.054688	1.023047	0.5378906	1.125	1.223438	1.019531
0.16825	0.6152344	0.534375	0.1160156	0.6679688	0.7277344	0.4957031
0.1685	0.1828125	0.05976563	-0.2847656	0.225	0.2425781	-0.01757813
0.16875	-0.1617188	-0.2917969	-0.6011719	-0.1089844	-0.1300781	-0.4183594
0.169	-0.6222656	-0.7628906	-1.008984	-0.5589844	-0.6117188	-0.928125
0.16925	-1.525781	-1.740234	-1.842188	-1.501172	-1.557422	-1.940625
0.1695	-2.422266	-2.696484	-2.678906	-2.41875	-2.510156	-2.963672
0.16975	-3.111328	-3.406641	-3.301172	-3.083203	-3.241406	-3.740625
0.17	-3.705469	-4.000781	-3.828516	-3.642188	-3.863672	-4.391016
0.17025	-4.007813	-4.271484	-4.081641	-3.898828	-4.194141	-4.725
0.1705	-4.243359	-4.492969	-4.275	-4.102734	-4.457813	-4.999219
0.17075	-4.616016	-4.883203	-4.6125	-4.461328	-4.865625	-5.417578
0.171	-5.069531	-5.350781	-5.023828	-4.911328	-5.34375	-5.909766
0.17125	-5.547656	-5.839453	-5.45625	-5.382422	-5.846484	-6.437109
0.1715	-5.786719	-6.057422	-5.656641	-5.586328	-6.103125	-6.697266
0.17175	-5.811328	-6.043359	-5.653125	-5.56875	-6.138281	-6.714844
0.172	-5.976563	-6.191016	-5.779688	-5.705859	-6.310547	-6.876563
0.17225	-6.226172	-6.405469	-5.973047	-5.902734	-6.546094	-7.108594
0.1725	-6.423047	-6.549609	-6.110156	-6.029297	-6.711328	-7.270313
0.17275	-6.486328	-6.556641	-6.13125	-6.036328	-6.753516	-7.294922
0.173	-6.352734	-6.380859	-5.994141	-5.878125	-6.623438	-7.133203
0.17325	-6.205078	-6.198047	-5.842969	-5.705859	-6.465234	-6.943359
0.1735	-6.141797	-6.103125	-5.765625	-5.621484	-6.380859	-6.837891
0.17375	-6.127734	-6.064453	-5.733984	-5.586328	-6.345703	-6.792188
0.174	-6.089063	-5.997656	-5.674219	-5.519531	-6.285938	-6.714844
0.17425	-5.958984	-5.835938	-5.526563	-5.361328	-6.134766	-6.535547
0.1745	-5.723438	-5.554688	-5.280469	-5.090625	-5.878125	-6.24375
0.17475	-5.280469	-5.009766	-4.826953	-4.566797	-5.382422	-5.695313
0.175	-4.538672	-4.144922	-4.092188	-3.737109	-4.573828	-4.809375
0.17525	-3.796875	-3.332813	-3.382031	-2.970703	-3.793359	-3.948047
0.1755	-3.2625	-2.75625	-2.86875	-2.429297	-3.209766	-3.315234
0.17575	-2.787891	-2.253516	-2.422266	-1.965234	-2.696484	-2.763281
0.176	-2.344922	-1.8	-2.021484	-1.536328	-2.228906	-2.264063
0.17625	-1.926563	-1.339453	-1.613672	-1.103906	-1.768359	-1.768359
0.1765	-1.522266	-0.8894531	-1.216406	-0.6820313	-1.307813	-1.276172
0.17675	-1.096875	-0.421875	-0.8015625	-0.2425781	-0.8226563	-0.7664063
0.177	-0.7136719	-0.01054688	-0.4359375	0.1441406	-0.39375	-0.3164063
0.17725	-0.3550781	0.3410156	-0.1054688	0.4816406	-0.02109375	0.07734375
0.1775	0.4183594	1.18125	0.6257813	1.286719	0.7804688	0.9527344
0.17775	1.392188	2.235938	1.550391	2.295703	1.810547	2.060156
0.178	2.077734	2.939063	2.186719	2.956641	2.541797	2.830078
0.17825	2.692969	3.561328	2.75625	3.54375	3.188672	3.519141
0.1785	3.111328	3.965625	3.135938	3.923438	3.638672	3.986719
0.17875	3.339844	4.180078	3.343359	4.120313	3.902344	4.239844
0.179	3.659766	4.5	3.649219	4.426172	4.260938	4.587891
0.17925	4.064063	4.907813	4.028906	4.816406	4.686328	5.037891
0.1795	4.559766	5.428125	4.496484	5.312109	5.210156	5.596875
0.17975	4.918359	5.783203	4.823438	5.646094	5.596875	5.990625
0.18	4.971094	5.800781	4.858594	5.653125	5.667188	6.036328
0.18025	5.066016	5.874609	4.939453	5.719922	5.772656	6.120703
0.1805	5.312109	6.085547	5.146875	5.923828	6.004688	6.342188
0.18075	5.537109	6.247266	5.326172	6.082031	6.194531	6.532031
0.181	5.660156	6.317578	5.424609	6.145313	6.292969	6.623438
0.18125	5.589844	6.212109	5.354297	6.043359	6.222656	6.525
0.1815	5.435156	6.022266	5.199609	5.857031	6.067969	6.331641
0.18175	5.340234	5.888672	5.104688	5.730469	5.955469	6.198047
0.182	5.301563	5.821875	5.0625	5.670703	5.902734	6.13125
0.18225	5.262891	5.758594	5.023828	5.614453	5.85	6.067969
0.1825	5.164453	5.617969	4.925391	5.484375	5.726953	5.934375
0.18275	4.985156	5.410547	4.756641	5.283984	5.533594	5.719922
0.183	4.665234	5.027344	4.44375	4.914844	5.182031	5.322656
0.18325	4.032422	4.267969	3.814453	4.190625	4.482422	4.545703
0.1835	3.234375	3.375	3.051563	3.339844	3.628125	3.607031
0.18375	2.622656	2.714063	2.475	2.710547	2.970703	2.886328
0.184	2.162109	2.225391	2.042578	2.25	2.471484	2.348438
0.18425	1.729688	1.775391	1.645313	1.824609	2.003906	1.852734
0.1845	1.290234	1.300781	1.230469	1.371094	1.511719	1.335938
0.18475	0.8578125	0.8261719	0.8191406	0.9210938	1.023047	0.8191406
0.185	0.4324219	0.3585938	0.4183594	0.4851563	0.5484375	0.3164063
0.18525	-0.003515625	-0.1125	0.003515625	0.03515625	0.05273438	-0.2003906
0.1855	-0.3515625	-0.4640625	-0.3023438	-0.2882813	-0.3199219	-0.5941406
0.18575	-0.9457031	-1.086328	-0.8507813	-0.8824219	-0.9316406	-1.248047
0.186	-1.901953	-2.119922	-1.754297	-1.877344	-1.937109	-2.330859
0.18625	-2.685938	-2.939063	-2.475	-2.647266	-2.763281	-3.220313
0.1865	-3.322266	-3.589453	-3.048047	-3.251953	-3.427734	-3.926953
0.18675	-3.817969	-4.074609	-3.483984	-3.708984	-3.948047	-4.461328
0.187	-4.057031	-4.282031	-3.691406	-3.902344	-4.211719	-4.732031
0.18725	-4.373438	-4.601953	-3.976172	-4.197656	-4.559766	-5.087109
0.1875	-4.805859	-5.055469	-4.366406	-4.623047	-5.023828	-5.561719
0.18775	-5.294531	-5.558203	-4.816406	-5.108203	-5.533594	-6.092578
0.188	-5.7375	-5.994141	-5.220703	-5.530078	-5.994141	-6.58125
0.18825	-5.864063	-6.092578	-5.322656	-5.617969	-6.145313	-6.721875
0.1885	-5.892188	-6.085547	-5.322656	-5.603906	-6.1875	-6.735938
0.18875	-6.092578	-6.264844	-5.480859	-5.772656	-6.387891	-6.929297
0.189	-6.324609	-6.447656	-5.660156	-5.941406	-6.598828	-7.133203
0.18925	-6.489844	-6.556641	-5.776172	-6.039844	-6.735938	-7.263281
0.1895	-6.496875	-6.521484	-5.762109	-6.011719	-6.739453	-7.245703
0.18975	-6.349219	-6.338672	-5.614453	-5.842969	-6.591797	-7.069922
0.19	-6.198047	-6.145313	-5.45625	-5.667188	-6.426563	-6.876563
0.19025	-6.134766	-6.046875	-5.385938	-5.582813	-6.345703	-6.774609
0.1905	-6.117188	-6.015234	-5.350781	-5.547656	-6.314063	-6.728906
0.19075	-6.060938	-5.934375	-5.276953	-5.459766	-6.233203	-6.630469
0.191	-5.902734	-5.741016	-5.108203	-5.269922	-6.053906	-6.423047
0.19125	-5.621484	-5.4	-4.816406	-4.946484	-5.751563	-6.075
0.1915	-5.090625	-4.756641	-4.267969	-4.324219	-5.160938	-5.424609
0.19175	-4.303125	-3.863672	-3.498047	-3.466406	-4.317188	-4.496484
0.192	-3.617578	-3.118359	-2.840625	-2.759766	-3.582422	-3.698438
0.19225	-3.132422	-2.601563	-2.380078	-2.271094	-3.051563	-3.118359
0.1925	-2.696484	-2.151563	-1.979297	-1.845703	-2.583984	-2.615625
0.19275	-2.267578	-1.698047	-1.567969	-1.413281	-2.119922	-2.119922
0.193	-1.852734	-1.233984	-1.153125	-0.9703125	-1.648828	-1.617188
0.19325	-1.451953	-0.7875	-0.7628906	-0.5484375	-1.191797	-1.128516
0.1935	-1.023047	-0.3199219	-0.3515625	-0.1019531	-0.7101563	-0.61875
0.19375	-0.6609375	0.04921875	-0.01757813	0.2460938	-0.3164063	-0.2074219
0.194	-0.2039063	0.5203125	0.4007813	0.6925781	0.1511719	0.2917969
0.19425	0.6890625	1.494141	1.258594	1.627734	1.089844	1.311328
0.1945	1.567969	2.436328	2.095313	2.524219	2.025	2.313281
0.19475	2.232422	3.118359	2.714063	3.167578	2.731641	3.062109
0.195	2.805469	3.694922	3.237891	3.7125	3.339844	3.705469
0.19525	3.104297	3.965625	3.505078	3.965625	3.666797	4.039453
0.1955	3.367969	4.215234	3.747656	4.197656	3.962109	4.324219
0.19575	3.744141	4.601953	4.102734	4.563281	4.373438	4.735547
0.196	4.176563	5.051953	4.507031	4.988672	4.833984	5.220703
0.19625	4.661719	5.558203	4.960547	5.470313	5.350781	5.769141
0.1965	4.907813	5.790234	5.182031	5.688281	5.617969	6.043359
0.19675	4.918359	5.758594	5.175	5.649609	5.642578	6.036328
0.197	5.087109	5.913281	5.322656	5.79375	5.818359	6.1875
0.19725	5.364844	6.159375	5.558203	6.025781	6.078516	6.440625
0.1975	5.565234	6.292969	5.712891	6.152344	6.240234	6.602344
0.19775	5.621484	6.296484	5.751563	6.159375	6.278906	6.626953
0.198	5.501953	6.145313	5.628516	6.008203	6.166406	6.475781
0.19825	5.357813	5.969531	5.480859	5.835938	6.01875	6.3
0.1985	5.2875	5.864063	5.407031	5.7375	5.927344	6.191016
0.19875	5.255859	5.800781	5.371875	5.684766	5.881641	6.127734
0.199	5.213672	5.730469	5.322656	5.621484	5.825391	6.060938
0.19925	5.097656	5.582813	5.206641	5.477344	5.688281	5.913281
0.1995	4.865625	5.312109	4.978125	5.213672	5.435156	5.628516
0.19975	4.433203	4.78125	4.545703	4.707422	4.946484	5.083594
0.2	3.7125	3.941016	3.835547	3.898828	4.158984	4.215234
0.20025	2.963672	3.125391	3.125391	3.121875	3.367969	3.339844
0.2005	2.415234	2.538281	2.615625	2.566406	2.777344	2.696484
0.20075	1.961719	2.060156	2.200781	2.116406	2.288672	2.172656
0.201	1.539844	1.624219	1.814063	1.712109	1.835156	1.691016
0.20125	1.114453	1.160156	1.402734	1.272656	1.353516	1.184766
0.2015	0.6925781	0.6890625	1.001953	0.8296875	0.871875	0.6785156
0.20175	0.2601563	0.2074219	0.5941406	0.3796875	0.3832031	0.1617188
0.202	-0.1371094	-0.2179688	0.2179688	-0.01757813	-0.06679688	-0.309375
0.20225	-0.4992188	-0.5800781	-0.1019531	-0.3550781	-0.4429688	-0.703125
0.2025	-1.251563	-1.385156	-0.8015625	-1.125	-1.219922	-1.539844
0.20275	-2.225391	-2.432813	-1.726172	-2.133984	-2.25	-2.647266
0.203	-2.939063	-3.171094	-2.380078	-2.830078	-3.005859	-3.459375
0.20325	-3.557813	-3.793359	-2.932031	-3.420703	-3.65625	-4.137891
0.2035	-3.976172	-4.190625	-3.304688	-3.793359	-4.102734	-4.598438
0.20375	-4.21875	-4.412109	-3.519141	-3.997266	-4.373438	-4.876172
0.204	-4.535156	-4.735547	-3.807422	-4.296094	-4.725	-5.234766
0.20425	-4.918359	-5.125781	-4.151953	-4.665234	-5.136328	-5.656641
0.2045	-5.396484	-5.621484	-4.587891	-5.146875	-5.635547	-6.180469
0.20475	-5.765625	-5.987109	-4.921875	-5.491406	-6.022266	-6.584766
0.205	-5.821875	-6.004688	-4.957031	-5.501953	-6.099609	-6.644531
0.20525	-5.895703	-6.050391	-5.009766	-5.551172	-6.183984	-6.714844
0.2055	-6.134766	-6.264844	-5.210156	-5.755078	-6.416016	-6.943359
0.20575	-6.363281	-6.447656	-5.382422	-5.920313	-6.619922	-7.14375
0.206	-6.489844	-6.525	-5.470313	-5.987109	-6.725391	-7.242188
0.20625	-6.426563	-6.416016	-5.4	-5.888672	-6.662109	-7.154297
0.2065	-6.264844	-6.212109	-5.238281	-5.702344	-6.496875	-6.957422
0.20675	-6.159375	-6.075	-5.122266	-5.56875	-6.373828	-6.813281
0.207	-6.120703	-6.015234	-5.069531	-5.5125	-6.321094	-6.742969
0.20725	-6.099609	-5.966016	-5.034375	-5.466797	-6.278906	-6.679688
0.2075	-6.01875	-5.853516	-4.939453	-5.354297	-6.173438	-6.560156
0.20775	-5.839453	-5.646094	-4.753125	-5.146875	-5.987109	-6.335156
0.208	-5.501953	-5.241797	-4.412109	-4.756641	-5.621484	-5.920313
0.20825	-4.872656	-4.482422	-3.775781	-4.025391	-4.914844	-5.143359
0.2085	-4.081641	-3.6	-3.012891	-3.178125	-4.067578	-4.215234
0.20875	-3.462891	-2.928516	-2.425781	-2.548828	-3.403125	-3.4875
0.209	-2.991797	-2.432813	-1.989844	-2.088281	-2.889844	-2.935547
0.20925	-2.580469	-2.021484	-1.620703	-1.701563	-2.457422	-2.475
0.2095	-2.176172	-1.578516	-1.226953	-1.279688	-2.007422	-1.993359
0.20975	-1.74375	-1.093359	-0.8050781	-0.8226563	-1.515234	-1.469531
0.21	-1.318359	-0.6328125	-0.4042969	-0.3902344	-1.040625	-0.9632813
0.21025	-0.8964844	-0.1828125	-0.00703125	0.028125	-0.5800781	-0.4710938
0.2105	-0.5519531	0.1617188	0.3058594	0.3550781	-0.2144531	-0.08789063
0.21075	0.02460938	0.7734375	0.84375	0.9351563	0.3761719	0.5519531
0.211	0.9667969	1.803516	1.740234	1.919531	1.364063	1.617188
0.21125	1.764844	2.647266	2.485547	2.717578	2.214844	2.520703
0.2115	2.436328	3.332813	3.097266	3.360938	2.921484	3.266016
0.21175	2.956641	3.846094	3.568359	3.842578	3.469922	3.846094
0.212	3.178125	4.039453	3.76875	4.021875	3.719531	4.095703
0.21225	3.469922	4.324219	4.039453	4.289063	4.039453	4.412109
0.2125	3.891797	4.760156	4.426172	4.696875	4.492969	4.876172
0.21275	4.341797	5.220703	4.841016	5.136328	4.967578	5.375391
0.213	4.753125	5.635547	5.224219	5.537109	5.4	5.828906
0.21325	4.886719	5.744531	5.34375	5.635547	5.561719	5.976563
0.2135	4.932422	5.758594	5.371875	5.642578	5.617969	6.008203
0.21375	5.153906	5.958984	5.558203	5.832422	5.835938	6.212109
0.214	5.389453	6.141797	5.748047	6.011719	6.046875	6.416016
0.21425	5.558203	6.24375	5.888672	6.120703	6.1875	6.546094
0.2145	5.561719	6.208594	5.878125	6.082031	6.1875	6.521484
0.21475	5.4	6.011719	5.712891	5.885156	6.029297	6.324609
0.215	5.269922	5.846484	5.579297	5.726953	5.881641	6.159375
0.21525	5.238281	5.790234	5.540625	5.674219	5.832422	6.099609
0.2155	5.23125	5.755078	5.523047	5.642578	5.804297	6.060938
0.21575	5.167969	5.656641	5.445703	5.551172	5.716406	5.966016
0.216	5.00625	5.45625	5.2875	5.361328	5.540625	5.765625
0.21625	4.728516	5.122266	5.009766	5.044922	5.23125	5.417578
0.2165	4.190625	4.471875	4.468359	4.419141	4.626563	4.746094
0.21675	3.410156	3.575391	3.7125	3.568359	3.786328	3.817969
0.217	2.745703	2.833594	3.083203	2.886328	3.076172	3.041016
0.21725	2.267578	2.299219	2.636719	2.397656	2.545313	2.467969
0.2175	1.828125	1.849219	2.235938	1.96875	2.074219	1.965234
0.21775	1.392188	1.399219	1.821094	1.536328	1.599609	1.458984
0.218	0.9527344	0.9175781	1.392188	1.075781	1.107422	0.9386719
0.21825	0.534375	0.4570313	0.9984375	0.6433594	0.6398438	0.4464844
0.2185	0.1089844	-0.003515625	0.5976563	0.2039063	0.16875	-0.05625
0.21875	-0.2355469	-0.3515625	0.2707031	-0.1265625	-0.2074219	-0.45
0.219	-0.6679688	-0.7875	-0.1125	-0.5378906	-0.646875	-0.9140625
0.21925	-1.571484	-1.764844	-0.9597656	-1.480078	-1.585547	-1.926563
0.2195	-2.467969	-2.724609	-1.810547	-2.401172	-2.538281	-2.953125
0.21975	-3.114844	-3.392578	-2.408203	-3.026953	-3.230859	-3.684375
0.22	-3.723047	-4.007813	-2.956641	-3.610547	-3.874219	-4.352344
0.22025	-4.053516	-4.303125	-3.244922	-3.891797	-4.225781	-4.710938
0.2205	-4.282031	-4.514063	-3.452344	-4.085156	-4.482422	-4.971094
0.22075	-4.640625	-4.883203	-3.779297	-4.429688	-4.872656	-5.371875
0.221	-5.076563	-5.340234	-4.176563	-4.865625	-5.336719	-5.85
0.22125	-5.565234	-5.832422	-4.623047	-5.347266	-5.846484	-6.387891
0.2215	-5.818359	-6.057422	-4.844531	-5.565234	-6.113672	-6.662109
0.22175	-5.825391	-6.022266	-4.8375	-5.526563	-6.138281	-6.662109
0.222	-5.976563	-6.155859	-4.960547	-5.656641	-6.3	-6.813281
0.22225	-6.229688	-6.380859	-5.175	-5.864063	-6.542578	-7.052344
0.2225	-6.426563	-6.510938	-5.319141	-5.980078	-6.700781	-7.207031
0.22275	-6.489844	-6.525	-5.350781	-5.990625	-6.742969	-7.238672
0.223	-6.380859	-6.377344	-5.234766	-5.853516	-6.633984	-7.098047
0.22325	-6.240234	-6.198047	-5.087109	-5.688281	-6.482813	-6.91875
0.2235	-6.166406	-6.092578	-5.002734	-5.589844	-6.391406	-6.809766
0.22375	-6.141797	-6.039844	-4.964063	-5.540625	-6.345703	-6.75
0.224	-6.092578	-5.958984	-4.89375	-5.463281	-6.268359	-6.658594
0.22425	-5.969531	-5.807813	-4.760156	-5.315625	-6.124219	-6.493359
0.2245	-5.741016	-5.547656	-4.535156	-5.0625	-5.888672	-6.222656
0.22475	-5.326172	-5.034375	-4.109766	-4.570313	-5.421094	-5.705859
0.225	-4.616016	-4.197656	-3.403125	-3.76875	-4.640625	-4.848047
0.22525	-3.860156	-3.367969	-2.682422	-2.98125	-3.839063	-3.972656
0.2255	-3.297656	-2.75625	-2.151563	-2.411719	-3.230859	-3.304688
0.22575	-2.823047	-2.257031	-1.708594	-1.947656	-2.717578	-2.752734
0.226	-2.404688	-1.824609	-1.321875	-1.536328	-2.267578	-2.274609
0.22625	-1.993359	-1.374609	-0.9246094	-1.107422	-1.814063	-1.792969
0.2265	-1.578516	-0.9105469	-0.5308594	-0.6785156	-1.342969	-1.29375
0.22675	-1.135547	-0.4253906	-0.1125	-0.225	-0.8472656	-0.7734375
0.227	-0.7347656	0	0.2671875	0.1757813	-0.4042969	-0.3058594
0.22725	-0.3867188	0.3410156	0.5941406	0.4992188	-0.04570313	0.07382813
0.2275	0.3445313	1.132031	1.286719	1.258594	0.7136719	0.9035156
0.22775	1.304297	2.176172	2.200781	2.257031	1.729688	1.996875
0.228	2.014453	2.907422	2.858203	2.949609	2.482031	2.791406
0.22825	2.629688	3.526172	3.424219	3.540234	3.132422	3.480469
0.2285	3.033984	3.916406	3.796875	3.905859	3.568359	3.933984
0.22875	3.258984	4.123828	4.007813	4.102734	3.828516	4.187109
0.229	3.585938	4.44375	4.313672	4.415625	4.194141	4.552734
0.22925	3.99375	4.848047	4.689844	4.809375	4.626563	5.00625
0.2295	4.482422	5.361328	5.146875	5.301563	5.143359	5.558203
0.22975	4.848047	5.726953	5.487891	5.649609	5.537109	5.966016
0.23	4.900781	5.748047	5.526563	5.656641	5.614453	6.022266
0.23025	4.988672	5.811328	5.593359	5.712891	5.709375	6.096094
0.2305	5.23125	6.025781	5.807813	5.920313	5.948438	6.321094
0.23075	5.442188	6.183984	5.983594	6.075	6.138281	6.500391
0.231	5.565234	6.254297	6.078516	6.145313	6.236719	6.588281
0.23125	5.516016	6.166406	6.025781	6.060938	6.1875	6.510938
0.2315	5.361328	5.976563	5.867578	5.874609	6.029297	6.321094
0.23175	5.259375	5.842969	5.758594	5.741016	5.913281	6.180469
0.232	5.23125	5.79375	5.726953	5.695313	5.874609	6.127734
0.23225	5.210156	5.741016	5.691797	5.649609	5.832422	6.078516
0.2325	5.115234	5.614453	5.593359	5.526563	5.716406	5.951953
0.23275	4.942969	5.414063	5.424609	5.333203	5.530078	5.744531
0.233	4.626563	5.027344	5.108203	4.964063	5.178516	5.347266
0.23325	3.990234	4.267969	4.478906	4.239844	4.475391	4.563281
0.2335	3.192188	3.375	3.719531	3.389063	3.621094	3.628125
0.23375	2.598047	2.735156	3.153516	2.784375	2.984766	2.925
0.234	2.141016	2.25	2.735156	2.330859	2.492578	2.390625
0.23425	1.694531	1.782422	2.327344	1.887891	2.010938	1.873828
0.2345	1.258594	1.311328	1.905469	1.441406	1.529297	1.357031
0.23475	0.8472656	0.8578125	1.497656	1.0125	1.058203	0.8613281
0.235	0.4289063	0.39375	1.096875	0.5730469	0.5835938	0.3621094
0.23525	0.00703125	-0.06328125	0.703125	0.1371094	0.1089844	-0.140625
0.2355	-0.2882813	-0.3550781	0.4324219	-0.1335938	-0.2109375	-0.478125
0.23575	-0.8296875	-0.9210938	-0.0703125	-0.6820313	-0.7769531	-1.079297
0.236	-1.796484	-1.972266	-0.9878906	-1.698047	-1.789453	-2.172656
0.23625	-2.626172	-2.851172	-1.771875	-2.534766	-2.675391	-3.118359
0.2365	-3.322266	-3.564844	-2.401172	-3.20625	-3.410156	-3.895313
0.23675	-3.853125	-4.078125	-2.865234	-3.691406	-3.965625	-4.464844
0.237	-4.081641	-4.271484	-3.065625	-3.870703	-4.222266	-4.725
0.23725	-4.355859	-4.549219	-3.322266	-4.127344	-4.535156	-5.044922
0.2375	-4.749609	-4.960547	-3.684375	-4.507031	-4.964063	-5.480859
0.23775	-5.213672	-5.445703	-4.10625	-4.967578	-5.452734	-5.994141
0.238	-5.663672	-5.892188	-4.510547	-5.4	-5.920313	-6.482813
0.23825	-5.804297	-6.001172	-4.630078	-5.501953	-6.078516	-6.6375
0.2385	-5.828906	-5.990625	-4.633594	-5.487891	-6.113672	-6.648047
0.23875	-6.039844	-6.180469	-4.812891	-5.670703	-6.321094	-6.851953
0.239	-6.271875	-6.363281	-4.999219	-5.839453	-6.525	-7.055859
0.23925	-6.437109	-6.475781	-5.11875	-5.934375	-6.658594	-7.178906
0.2395	-6.461719	-6.454688	-5.122266	-5.916797	-6.669141	-7.171875
0.23975	-6.310547	-6.257813	-4.967578	-5.7375	-6.514453	-6.989063
0.24	-6.155859	-6.057422	-4.802344	-5.551172	-6.335156	-6.785156
0.24025	-6.106641	-5.980078	-4.742578	-5.477344	-6.264844	-6.69375
0.2405	-6.092578	-5.951953	-4.717969	-5.445703	-6.236719	-6.658594
0.24075	-6.029297	-5.857031	-4.637109	-5.354297	-6.152344	-6.556641
0.241	-5.871094	-5.656641	-4.478906	-5.167969	-5.980078	-6.349219
0.24125	-5.603906	-5.336719	-4.211719	-4.855078	-5.695313	-6.025781
0.2415	-5.101172	-4.721484	-3.698438	-4.264453	-5.125781	-5.407031
0.24175	-4.320703	-3.825	-2.932031	-3.410156	-4.285547	-4.478906
0.242	-3.610547	-3.055078	-2.260547	-2.678906	-3.529688	-3.652734
0.24225	-3.111328	-2.524219	-1.792969	-2.179688	-2.98125	-3.058594
0.2425	-2.689453	-2.088281	-1.402734	-1.768359	-2.524219	-2.569922
0.24275	-2.278125	-1.655859	-1.0125	-1.357031	-2.08125	-2.098828
0.243	-1.85625	-1.18125	-0.6046875	-0.9105469	-1.599609	-1.589063
0.24325	-1.451953	-0.7347656	-0.2214844	-0.4921875	-1.139063	-1.100391
0.2435	-1.030078	-0.28125	0.1792969	-0.05625	-0.6679688	-0.6046875
0.24375	-0.6679688	0.09140625	0.5238281	0.2953125	-0.2671875	-0.1898438
0.244	-0.225	0.5449219	0.928125	0.7207031	0.1828125	0.2917969
0.24425	0.6539063	1.504688	1.754297	1.638281	1.100391	1.290234
0.2445	1.546875	2.464453	2.594531	2.548828	2.042578	2.30625
0.24475	2.197266	3.125391	3.188672	3.174609	2.735156	3.0375
0.245	2.777344	3.7125	3.726563	3.730078	3.350391	3.691406
0.24525	3.111328	4.028906	4.028906	4.025391	3.716016	4.067578
0.2455	3.357422	4.257422	4.243359	4.236328	3.99375	4.334766
0.24575	3.7125	4.6125	4.563281	4.566797	4.373438	4.717969
0.246	4.148438	5.0625	4.964063	4.995703	4.8375	5.206641
0.24625	4.637109	5.56875	5.417578	5.477344	5.354297	5.751563
0.2465	4.883203	5.804297	5.646094	5.691797	5.625	6.025781
0.24675	4.89375	5.776172	5.642578	5.660156	5.653125	6.032813
0.247	5.058984	5.927344	5.779688	5.800781	5.828906	6.183984
0.24725	5.329688	6.159375	6.008203	6.025781	6.082031	6.430078
0.2475	5.533594	6.289453	6.159375	6.159375	6.24375	6.595313
0.24775	5.607422	6.310547	6.205078	6.183984	6.292969	6.6375
0.248	5.505469	6.176953	6.103125	6.046875	6.194531	6.507422
0.24825	5.361328	6.001172	5.958984	5.867578	6.046875	6.324609
0.2485	5.273438	5.874609	5.864063	5.748047	5.930859	6.194531
0.24875	5.241797	5.811328	5.821875	5.691797	5.874609	6.13125
0.249	5.210156	5.755078	5.779688	5.639063	5.828906	6.071484
0.24925	5.101172	5.614453	5.663672	5.505469	5.702344	5.930859
0.2495	4.876172	5.354297	5.438672	5.252344	5.459766	5.663672
0.24975	4.464844	4.844531	5.016797	4.767188	4.988672	5.139844
0.25	3.758203	4.014844	4.320703	3.976172	4.215234	4.282031
0.25025	3.002344	3.188672	3.603516	3.188672	3.413672	3.403125
0.2505	2.439844	2.580469	3.062109	2.612109	2.798438	2.731641
0.25075	1.989844	2.102344	2.650781	2.165625	2.309766	2.211328
0.251	1.585547	1.683984	2.285156	1.775391	1.873828	1.747266
0.25125	1.149609	1.205859	1.85625	1.325391	1.388672	1.226953
0.2515	0.7101563	0.7136719	1.427344	0.8648438	0.8964844	0.6996094
0.25175	0.2707031	0.2285156	1.019531	0.4183594	0.4078125	0.1828125
0.252	-0.1371094	-0.2074219	0.6363281	0.003515625	-0.0421875	-0.2988281
0.25225	-0.4921875	-0.5554688	0.309375	-0.3269531	-0.4148438	-0.6960938
0.2525	-1.202344	-1.314844	-0.3515625	-1.058203	-1.153125	-1.487109
0.25275	-2.165625	-2.351953	-1.269141	-2.060156	-2.172656	-2.580469
0.253	-2.900391	-3.114844	-1.951172	-2.784375	-2.956641	-3.420703
0.25325	-3.529688	-3.754688	-2.520703	-3.385547	-3.621094	-4.123828
0.2535	-3.948047	-4.151953	-2.889844	-3.761719	-4.067578	-4.577344
0.25375	-4.173047	-4.348828	-3.097266	-3.948047	-4.317188	-4.830469
0.254	-4.5	-4.682813	-3.410156	-4.264453	-4.682813	-5.206641
0.25425	-4.897266	-5.087109	-3.779297	-4.651172	-5.111719	-5.646094
0.2545	-5.361328	-5.554688	-4.204688	-5.115234	-5.596875	-6.152344
0.25475	-5.741016	-5.920313	-4.545703	-5.473828	-5.990625	-6.567188
0.255	-5.79375	-5.930859	-4.580859	-5.484375	-6.064453	-6.619922
0.25525	-5.846484	-5.955469	-4.619531	-5.508984	-6.13125	-6.665625
0.2555	-6.099609	-6.180469	-4.841016	-5.730469	-6.377344	-6.91875
0.25575	-6.352734	-6.384375	-5.034375	-5.913281	-6.602344	-7.140234
0.256	-6.489844	-6.465234	-5.132813	-5.983594	-6.714844	-7.238672
0.25625	-6.426563	-6.352734	-5.058984	-5.881641	-6.648047	-7.147266
0.2565	-6.264844	-6.145313	-4.89375	-5.691797	-6.482813	-6.950391
0.25675	-6.169922	-6.008203	-4.788281	-5.572266	-6.373828	-6.813281
0.257	-6.141797	-5.955469	-4.753125	-5.526563	-6.331641	-6.757031
0.25725	-6.117188	-5.899219	-4.714453	-5.477344	-6.289453	-6.700781
0.2575	-6.043359	-5.779688	-4.623047	-5.368359	-6.191016	-6.577734
0.25775	-5.860547	-5.558203	-4.440234	-5.160938	-5.997656	-6.352734
0.258	-5.523047	-5.146875	-4.099219	-4.767188	-5.625	-5.941406
0.25825	-4.900781	-4.383984	-3.469922	-4.042969	-4.925391	-5.171484
0.2585	-4.109766	-3.494531	-2.707031	-3.195703	-4.081641	-4.243359
0.25875	-3.501563	-2.830078	-2.1375	-2.580469	-3.427734	-3.526172
0.259	-3.0375	-2.334375	-1.705078	-2.123438	-2.917969	-2.977734
0.25925	-2.608594	-1.894922	-1.307813	-1.712109	-2.460938	-2.489063
0.2595	-2.190234	-1.434375	-0.9035156	-1.276172	-2.000391	-1.996875
0.25975	-1.778906	-0.9703125	-0.5097656	-0.84375	-1.536328	-1.501172
0.26	-1.374609	-0.5273438	-0.1300781	-0.4253906	-1.075781	-1.019531
0.26025	-0.9421875	-0.05273438	0.2847656	0.01757813	-0.590625	-0.5097656
0.2605	-0.6046875	0.2917969	0.6046875	0.3375	-0.2285156	-0.1230469
0.26075	-0.05976563	0.8648438	1.107422	0.8789063	0.3339844	0.478125
0.261	0.8894531	1.9125	2.014453	1.880859	1.339453	1.564453
0.26125	1.694531	2.763281	2.773828	2.692969	2.200781	2.482031
0.2615	2.341406	3.427734	3.367969	3.31875	2.886328	3.20625
0.26175	2.865234	3.948047	3.846094	3.810938	3.441797	3.789844
0.262	3.104297	4.158984	4.064063	4.007813	3.705469	4.053516
0.26225	3.396094	4.440234	4.324219	4.275	4.028906	4.373438
0.2625	3.786328	4.841016	4.682813	4.654688	4.454297	4.809375
0.26275	4.236328	5.305078	5.101172	5.090625	4.921875	5.301563
0.263	4.675781	5.755078	5.516016	5.519531	5.378906	5.790234
0.26325	4.830469	5.885156	5.653125	5.642578	5.558203	5.958984
0.2635	4.858594	5.874609	5.663672	5.628516	5.593359	5.969531
0.26375	5.058984	6.050391	5.835938	5.804297	5.790234	6.155859
0.264	5.308594	6.24375	6.043359	5.997656	6.015234	6.370313
0.26425	5.477344	6.352734	6.166406	6.106641	6.152344	6.507422
0.2645	5.484375	6.321094	6.155859	6.075	6.152344	6.489844
0.26475	5.336719	6.138281	6.015234	5.895703	6.004688	6.307031
0.265	5.210156	5.983594	5.892188	5.7375	5.864063	6.148828
0.26525	5.171484	5.920313	5.846484	5.674219	5.807813	6.078516
0.2655	5.150391	5.878125	5.818359	5.635547	5.776172	6.036328
0.26575	5.083594	5.779688	5.741016	5.540625	5.688281	5.937891
0.266	4.935938	5.600391	5.593359	5.371875	5.526563	5.755078
0.26625	4.672266	5.291016	5.326172	5.073047	5.238281	5.428125
0.2665	4.1625	4.672266	4.809375	4.471875	4.661719	4.788281
0.26675	3.392578	3.793359	4.060547	3.628125	3.825	3.870703
0.267	2.7	3.041016	3.396094	2.910938	3.086719	3.062109
0.26725	2.200781	2.513672	2.928516	2.408203	2.541797	2.475
0.2675	1.778906	2.084766	2.548828	1.996875	2.084766	1.993359
0.26775	1.364063	1.655859	2.165625	1.582031	1.627734	1.511719
0.268	0.928125	1.174219	1.726172	1.121484	1.139063	0.9914063
0.26825	0.5027344	0.7136719	1.318359	0.6820313	0.6644531	0.4816406
0.2685	0.07734375	0.2425781	0.9210938	0.2425781	0.1828125	-0.02460938
0.26875	-0.28125	-0.1265625	0.5871094	-0.1089844	-0.2074219	-0.4429688
0.269	-0.7101563	-0.5625	0.196875	-0.5273438	-0.646875	-0.9140625
0.26925	-1.575	-1.497656	-0.6082031	-1.423828	-1.546875	-1.880859
0.2695	-2.467969	-2.446875	-1.444922	-2.337891	-2.485547	-2.893359
0.26975	-3.15	-3.146484	-2.060156	-2.995313	-3.20625	-3.659766
0.27	-3.76875	-3.775781	-2.605078	-3.582422	-3.856641	-4.341797
0.27025	-4.095703	-4.074609	-2.886328	-3.863672	-4.208203	-4.703906
0.2705	-4.317188	-4.271484	-3.086719	-4.05	-4.461328	-4.957031
0.27075	-4.661719	-4.616016	-3.406641	-4.376953	-4.844531	-5.34375
0.271	-5.090625	-5.069531	-3.800391	-4.805859	-5.312109	-5.818359
0.27125	-5.589844	-5.582813	-4.253906	-5.301563	-5.839453	-6.370313
0.2715	-5.867578	-5.835938	-4.496484	-5.544141	-6.13125	-6.672656
0.27175	-5.885156	-5.811328	-4.496484	-5.519531	-6.162891	-6.690234
0.272	-6.022266	-5.920313	-4.608984	-5.628516	-6.314063	-6.827344
0.27225	-6.271875	-6.117188	-4.816406	-5.825391	-6.549609	-7.059375
0.2725	-6.46875	-6.240234	-4.960547	-5.944922	-6.711328	-7.214063
0.27275	-6.553125	-6.271875	-5.009766	-5.976563	-6.778125	-7.263281
0.273	-6.451172	-6.127734	-4.904297	-5.846484	-6.679688	-7.133203
0.27325	-6.289453	-5.930859	-4.742578	-5.663672	-6.514453	-6.936328
0.2735	-6.201563	-5.814844	-4.647656	-5.554688	-6.416016	-6.809766
0.27375	-6.169922	-5.755078	-4.601953	-5.501953	-6.363281	-6.746484
0.274	-6.138281	-5.688281	-4.55625	-5.445703	-6.310547	-6.679688
0.27425	-6.043359	-5.554688	-4.454297	-5.319141	-6.1875	-6.535547
0.2745	-5.828906	-5.298047	-4.243359	-5.076563	-5.958984	-6.271875
0.27475	-5.428125	-4.795313	-3.832031	-4.594922	-5.505469	-5.765625
0.275	-4.725	-3.965625	-3.128906	-3.803906	-4.728516	-4.914844
0.27525	-3.969141	-3.125391	-2.394141	-3.002344	-3.919922	-4.025391
0.2755	-3.413672	-2.520703	-1.859766	-2.429297	-3.311719	-3.360938
0.27575	-2.946094	-2.028516	-1.416797	-1.975781	-2.805469	-2.816016
0.276	-2.527734	-1.599609	-1.030078	-1.571484	-2.355469	-2.341406
0.27625	-2.123438	-1.149609	-0.6398438	-1.146094	-1.905469	-1.85625
0.2765	-1.698047	-0.675	-0.2285156	-0.703125	-1.423828	-1.342969
0.27675	-1.258594	-0.1898438	0.1933594	-0.2496094	-0.9316406	-0.8226563
0.277	-0.871875	0.2214844	0.5695313	0.1371094	-0.5027344	-0.3691406
0.27725	-0.5378906	0.5589844	0.8824219	0.4570313	-0.1476563	0.003515625
0.2775	0.1652344	1.318359	1.550391	1.184766	0.5835938	0.7945313
0.27775	1.117969	2.355469	2.457422	2.176172	1.589063	1.880859
0.278	1.845703	3.111328	3.135938	2.896875	2.369531	2.710547
0.27825	2.471484	3.751172	3.719531	3.501563	3.033984	3.410156
0.2785	2.889844	4.169531	4.10625	3.888281	3.4875	3.877734
0.27875	3.111328	4.373438	4.299609	4.071094	3.740625	4.123828
0.279	3.438281	4.693359	4.591406	4.376953	4.099219	4.478906
0.27925	3.860156	5.129297	4.974609	4.784766	4.545703	4.942969
0.2795	4.341797	5.635547	5.421094	5.262891	5.051953	5.480859
0.27975	4.714453	6.01875	5.772656	5.614453	5.452734	5.899219
0.28	4.795313	6.071484	5.835938	5.649609	5.547656	5.980078
0.28025	4.879688	6.127734	5.892188	5.705859	5.642578	6.050391
0.2805	5.122266	6.345703	6.096094	5.916797	5.881641	6.275391
0.28075	5.34375	6.514453	6.264844	6.075	6.075	6.461719
0.281	5.480859	6.602344	6.359766	6.148828	6.1875	6.563672
0.28125	5.435156	6.521484	6.303516	6.064453	6.141797	6.489844
0.2815	5.280469	6.335156	6.152344	5.878125	5.983594	6.3
0.28175	5.185547	6.215625	6.060938	5.755078	5.871094	6.166406
0.282	5.157422	6.166406	6.025781	5.702344	5.821875	6.106641
0.28225	5.125781	6.117188	5.987109	5.653125	5.772656	6.050391
0.2825	5.037891	5.997656	5.892188	5.530078	5.656641	5.927344
0.28275	4.872656	5.804297	5.726953	5.340234	5.477344	5.719922
0.283	4.570313	5.438672	5.417578	4.988672	5.143359	5.340234
0.28325	3.958594	4.703906	4.802344	4.285547	4.464844	4.587891
0.2835	3.167578	3.817969	4.046484	3.438281	3.617578	3.659766
0.28375	2.566406	3.171094	3.469922	2.826563	2.970703	2.953125
0.284	2.105859	2.682422	3.0375	2.3625	2.467969	2.411719
0.28425	1.666406	2.228906	2.64375	1.930078	1.993359	1.901953
0.2845	1.262109	1.792969	2.264063	1.522266	1.539844	1.420313
0.28475	0.8613281	1.346484	1.863281	1.100391	1.089844	0.9386719
0.285	0.4394531	0.8859375	1.451953	0.6574219	0.61875	0.4359375
0.28525	-0.003515625	0.3972656	1.033594	0.196875	0.1160156	-0.09140625
0.2855	-0.3832031	0	0.6855469	-0.16875	-0.2953125	-0.5273438
0.28575	-0.9597656	-0.590625	0.1546875	-0.7417969	-0.8894531	-1.163672
0.286	-1.894922	-1.603125	-0.73125	-1.715625	-1.870313	-2.218359
0.28625	-2.707031	-2.460938	-1.494141	-2.53125	-2.731641	-3.15
0.2865	-3.357422	-3.121875	-2.084766	-3.153516	-3.417188	-3.870703
0.28675	-3.884766	-3.645703	-2.552344	-3.645703	-3.972656	-4.450781
0.287	-4.144922	-3.884766	-2.777344	-3.863672	-4.253906	-4.742578
0.28725	-4.401563	-4.130859	-3.019922	-4.095703	-4.542188	-5.037891
0.2875	-4.774219	-4.507031	-3.367969	-4.457813	-4.95	-5.452734
0.28775	-5.234766	-4.988672	-3.789844	-4.914844	-5.438672	-5.958984
0.288	-5.688281	-5.45625	-4.204688	-5.357813	-5.909766	-6.454688
0.28825	-5.860547	-5.600391	-4.348828	-5.487891	-6.096094	-6.641016
0.2885	-5.888672	-5.593359	-4.355859	-5.477344	-6.138281	-6.662109
0.28875	-6.064453	-5.748047	-4.503516	-5.625	-6.321094	-6.837891
0.289	-6.289453	-5.923828	-4.686328	-5.79375	-6.528516	-7.038281
0.28925	-6.465234	-6.036328	-4.816406	-5.902734	-6.672656	-7.175391
0.2895	-6.496875	-6.029297	-4.823438	-5.892188	-6.69375	-7.178906
0.28975	-6.352734	-5.857031	-4.679297	-5.723438	-6.553125	-7.010156
0.29	-6.201563	-5.667188	-4.524609	-5.544141	-6.384375	-6.813281
0.29025	-6.13125	-5.565234	-4.447266	-5.452734	-6.296484	-6.704297
0.2905	-6.113672	-5.530078	-4.415625	-5.414063	-6.264844	-6.655078
0.29075	-6.064453	-5.442188	-4.352344	-5.333203	-6.191016	-6.563672
0.291	-5.920313	-5.259375	-4.208203	-5.160938	-6.032813	-6.377344
0.29125	-5.674219	-4.971094	-3.962109	-4.879688	-5.769141	-6.078516
0.2915	-5.199609	-4.3875	-3.476953	-4.313672	-5.234766	-5.487891
0.29175	-4.422656	-3.498047	-2.721094	-3.469922	-4.405078	-4.573828
0.292	-3.694922	-2.710547	-2.039063	-2.721094	-3.635156	-3.726563
0.29225	-3.174609	-2.158594	-1.550391	-2.200781	-3.069141	-3.111328
0.2925	-2.749219	-1.722656	-1.156641	-1.792969	-2.608594	-2.622656
0.29275	-2.351953	-1.304297	-0.7839844	-1.395703	-2.183203	-2.169141
0.293	-1.926563	-0.8296875	-0.3832031	-0.9457031	-1.701563	-1.655859
0.29325	-1.508203	-0.3796875	0.00703125	-0.5203125	-1.230469	-1.156641
0.2935	-1.086328	0.0703125	0.4113281	-0.08789063	-0.759375	-0.6609375
0.29375	-0.7066406	0.4675781	0.7699219	0.2847656	-0.3480469	-0.225
0.294	-0.2777344	0.9	1.160156	0.6996094	0.09492188	0.2460938
0.29425	0.5519531	1.796484	1.944141	1.564453	0.9632813	1.18125
0.2945	1.434375	2.735156	2.780859	2.467969	1.901953	2.186719
0.29475	2.102344	3.406641	3.392578	3.107813	2.608594	2.932031
0.295	2.7	4.014844	3.944531	3.677344	3.237891	3.596484
0.29525	3.030469	4.324219	4.239844	3.969141	3.596484	3.962109
0.2955	3.255469	4.514063	4.433203	4.158984	3.853125	4.208203
0.29575	3.631641	4.890234	4.774219	4.521094	4.264453	4.623047
0.296	4.078125	5.350781	5.192578	4.960547	4.735547	5.125781
0.29625	4.559766	5.85	5.646094	5.435156	5.241797	5.663672
0.2965	4.8375	6.106641	5.895703	5.684766	5.544141	5.969531
0.29675	4.855078	6.078516	5.895703	5.653125	5.575781	5.976563
0.297	4.995703	6.1875	6.004688	5.769141	5.723438	6.099609
0.29725	5.266406	6.4125	6.219141	5.990625	5.980078	6.349219
0.2975	5.463281	6.546094	6.370313	6.124219	6.145313	6.510938
0.29775	5.540625	6.567188	6.419531	6.148828	6.201563	6.556641
0.298	5.45625	6.437109	6.324609	6.029297	6.117188	6.440625
0.29825	5.308594	6.254297	6.180469	5.853516	5.9625	6.261328
0.2985	5.217188	6.120703	6.089063	5.730469	5.85	6.13125
0.29875	5.185547	6.064453	6.057422	5.68125	5.800781	6.071484
0.299	5.153906	5.997656	6.01875	5.625	5.748047	6.011719
0.29925	5.044922	5.85	5.90625	5.491406	5.621484	5.874609
0.2995	4.830469	5.596875	5.695313	5.259375	5.4	5.625
0.29975	4.436719	5.094141	5.283984	4.791797	4.953516	5.122266
0.3	3.733594	4.260938	4.587891	3.997266	4.180078	4.271484
0.30025	2.977734	3.427734	3.870703	3.213281	3.375	3.392578
0.3005	2.432813	2.833594	3.346875	2.661328	2.780859	2.742188
0.30075	1.979297	2.351953	2.928516	2.207813	2.288672	2.211328
0.301	1.546875	1.901953	2.538281	1.789453	1.828125	1.715625
0.30125	1.114453	1.423828	2.116406	1.339453	1.346484	1.202344
0.3015	0.6925781	0.9597656	1.698047	0.9035156	0.871875	0.703125
0.30175	0.2601563	0.4816406	1.286719	0.4570313	0.3867188	0.1933594
0.302	-0.1546875	0.01757813	0.9	0.028125	-0.07734375	-0.2953125
0.30225	-0.4886719	-0.3164063	0.6011719	-0.28125	-0.4289063	-0.6644531
0.3025	-1.160156	-1.030078	-0.02460938	-0.9632813	-1.121484	-1.409766
0.30275	-2.141016	-2.095313	-0.95625	-1.979297	-2.151563	-2.517188
0.303	-2.882813	-2.86875	-1.648828	-2.710547	-2.935547	-3.364453
0.30325	-3.519141	-3.515625	-2.225391	-3.315234	-3.603516	-4.071094
0.3035	-3.958594	-3.948047	-2.615625	-3.719531	-4.071094	-4.552734
0.30375	-4.187109	-4.155469	-2.808984	-3.909375	-4.320703	-4.802344
0.304	-4.510547	-4.485938	-3.111328	-4.208203	-4.675781	-5.167969
0.30425	-4.89375	-4.879688	-3.469922	-4.573828	-5.087109	-5.593359
0.3045	-5.350781	-5.354297	-3.891797	-5.030859	-5.565234	-6.092578
0.30475	-5.755078	-5.769141	-4.257422	-5.417578	-5.987109	-6.535547
0.305	-5.839453	-5.821875	-4.317188	-5.45625	-6.085547	-6.619922
0.30525	-5.885156	-5.839453	-4.345313	-5.473828	-6.145313	-6.658594
0.3055	-6.127734	-6.053906	-4.542188	-5.677734	-6.377344	-6.894141
0.30575	-6.370313	-6.250781	-4.728516	-5.853516	-6.591797	-7.105078
0.306	-6.507422	-6.335156	-4.826953	-5.923828	-6.704297	-7.210547
0.30625	-6.458203	-6.24375	-4.763672	-5.835938	-6.651563	-7.133203
0.3065	-6.296484	-6.050391	-4.601953	-5.649609	-6.489844	-6.936328
0.30675	-6.198047	-5.930859	-4.496484	-5.530078	-6.380859	-6.802734
0.307	-6.173438	-5.881641	-4.464844	-5.487891	-6.338672	-6.746484
0.30725	-6.13125	-5.811328	-4.415625	-5.428125	-6.275391	-6.672656
0.3075	-6.046875	-5.691797	-4.327734	-5.315625	-6.169922	-6.542578
0.30775	-5.878125	-5.501953	-4.1625	-5.122266	-5.994141	-6.335156
0.308	-5.572266	-5.129297	-3.846094	-4.756641	-5.653125	-5.951953
0.30825	-4.981641	-4.412109	-3.248438	-4.067578	-4.992188	-5.224219
0.3085	-4.190625	-3.526172	-2.478516	-3.216797	-4.148438	-4.289063
0.30875	-3.54375	-2.826563	-1.859766	-2.548828	-3.452344	-3.529688
0.309	-3.065625	-2.320313	-1.40625	-2.070703	-2.928516	-2.963672
0.30925	-2.647266	-1.894922	-1.019531	-1.669922	-2.485547	-2.485547
0.3095	-2.242969	-1.458984	-0.6398438	-1.255078	-2.046094	-2.014453
0.30975	-1.828125	-0.9914063	-0.2425781	-0.8121094	-1.571484	-1.511719
0.31	-1.416797	-0.5449219	0.1476563	-0.3902344	-1.100391	-1.008984
0.31025	-0.9808594	-0.07734375	0.5625	0.04921875	-0.6222656	-0.5027344
0.3105	-0.6363281	0.2707031	0.8789063	0.3796875	-0.253125	-0.1125
0.31075	-0.1054688	0.8226563	1.371094	0.9	0.2917969	0.4675781
0.311	0.8191406	1.828125	2.257031	1.870313	1.265625	1.515234
0.31125	1.627734	2.689453	3.019922	2.689453	2.130469	2.436328
0.3115	2.292188	3.367969	3.631641	3.329297	2.833594	3.174609
0.31175	2.840625	3.912891	4.141406	3.849609	3.413672	3.786328
0.312	3.104297	4.144922	4.376953	4.064063	3.705469	4.078125
0.31225	3.375	4.405078	4.619531	4.313672	4.014844	4.373438
0.3125	3.747656	4.777734	4.960547	4.672266	4.419141	4.78125
0.31275	4.190625	5.23125	5.375391	5.108203	4.879688	5.269922
0.313	4.647656	5.695313	5.811328	5.558203	5.357813	5.776172
0.31325	4.826953	5.853516	5.976563	5.705859	5.561719	5.980078
0.3135	4.858594	5.85	5.990625	5.698828	5.603906	5.994141
0.31375	5.051953	6.015234	6.145313	5.864063	5.797266	6.169922
0.314	5.2875	6.198047	6.338672	6.046875	6.015234	6.380859
0.31425	5.463281	6.314063	6.472266	6.159375	6.159375	6.521484
0.3145	5.491406	6.3	6.486328	6.145313	6.183984	6.525
0.31475	5.350781	6.120703	6.345703	5.973047	6.039844	6.352734
0.315	5.220703	5.955469	6.215625	5.807813	5.892188	6.180469
0.31525	5.160938	5.867578	6.155859	5.726953	5.814844	6.089063
0.3155	5.136328	5.814844	6.120703	5.68125	5.772656	6.039844
0.31575	5.090625	5.733984	6.067969	5.610938	5.705859	5.9625
0.316	4.957031	5.56875	5.941406	5.45625	5.565234	5.797266
0.31625	4.707422	5.266406	5.691797	5.167969	5.294531	5.484375
0.3165	4.225781	4.675781	5.196094	4.601953	4.749609	4.883203
0.31675	3.466406	3.796875	4.454297	3.76875	3.926953	3.976172
0.317	2.75625	3.019922	3.775781	3.030469	3.167578	3.142969
0.31725	2.25	2.475	3.294141	2.520703	2.615625	2.548828
0.3175	1.821094	2.028516	2.907422	2.102344	2.155078	2.056641
0.31775	1.40625	1.596094	2.527734	1.691016	1.708594	1.582031
0.318	0.9703125	1.107422	2.095313	1.226953	1.216406	1.058203
0.31825	0.5378906	0.6292969	1.673438	0.7804688	0.73125	0.5484375
0.3185	0.1160156	0.1722656	1.272656	0.3480469	0.2601563	0.04921875
0.31875	-0.2355469	-0.196875	0.9457031	-0.003515625	-0.1300781	-0.3585938
0.319	-0.6257813	-0.5976563	0.590625	-0.3796875	-0.5378906	-0.7945313
0.31925	-1.441406	-1.480078	-0.1757813	-1.223438	-1.388672	-1.705078
0.3195	-2.366016	-2.467969	-1.047656	-2.172656	-2.358984	-2.752734
0.31975	-3.072656	-3.202734	-1.701563	-2.861719	-3.111328	-3.550781
0.32	-3.687891	-3.832031	-2.260547	-3.448828	-3.761719	-4.232813
0.32025	-4.032422	-4.155469	-2.559375	-3.751172	-4.130859	-4.608984
0.3205	-4.243359	-4.345313	-2.749219	-3.930469	-4.369922	-4.851563
0.32075	-4.594922	-4.714453	-3.083203	-4.271484	-4.760156	-5.252344
0.321	-5.037891	-5.175	-3.494531	-4.703906	-5.234766	-5.741016
0.32125	-5.5125	-5.667188	-3.933984	-5.175	-5.733984	-6.261328
0.3215	-5.790234	-5.930859	-4.183594	-5.424609	-6.029297	-6.567188
0.32175	-5.814844	-5.923828	-4.194141	-5.410547	-6.067969	-6.588281
0.322	-5.944922	-6.029297	-4.296094	-5.516016	-6.208594	-6.714844
0.32225	-6.194531	-6.240234	-4.496484	-5.716406	-6.444141	-6.950391
0.3225	-6.394922	-6.387891	-4.647656	-5.85	-6.609375	-7.115625
0.32275	-6.486328	-6.430078	-4.710938	-5.885156	-6.679688	-7.168359
0.323	-6.384375	-6.289453	-4.601953	-5.751563	-6.577734	-7.034766
0.32325	-6.229688	-6.103125	-4.44375	-5.575781	-6.419531	-6.844922
0.3235	-6.162891	-6.008203	-4.366406	-5.484375	-6.338672	-6.739453
0.32375	-6.134766	-5.958984	-4.33125	-5.431641	-6.292969	-6.679688
0.324	-6.096094	-5.895703	-4.285547	-5.371875	-6.233203	-6.609375
0.32425	-5.987109	-5.751563	-4.173047	-5.23125	-6.106641	-6.454688
0.3245	-5.765625	-5.487891	-3.955078	-4.974609	-5.874609	-6.183984
0.32475	-5.368359	-5.00625	-3.550781	-4.510547	-5.431641	-5.695313
0.325	-4.675781	-4.187109	-2.861719	-3.726563	-4.66875	-4.855078
0.32525	-3.926953	-3.364453	-2.144531	-2.935547	-3.874219	-3.983203
0.3255	-3.371484	-2.763281	-1.620703	-2.373047	-3.276563	-3.332813
0.32575	-2.893359	-2.253516	-1.170703	-1.901953	-2.752734	-2.770313
0.326	-2.460938	-1.814063	-0.7769531	-1.480078	-2.299219	-2.278125
0.32625	-2.053125	-1.374609	-0.39375	-1.058203	-1.849219	-1.8
0.3265	-1.634766	-0.9070313	0.00703125	-0.61875	-1.371094	-1.297266
0.32675	-1.212891	-0.4429688	0.4148438	-0.1828125	-0.8894531	-0.7910156
0.327	-0.8226563	-0.028125	0.7875	0.2109375	-0.4570313	-0.3304688
0.32725	-0.478125	0.309375	1.100391	0.5378906	-0.09140625	0.04921875
0.3275	0.2003906	1.033594	1.736719	1.230469	0.6082031	0.8085938
0.32775	1.153125	2.070703	2.64375	2.221875	1.617188	1.898438
0.328	1.870313	2.816016	3.315234	2.928516	2.390625	2.714063
0.32825	2.478516	3.427734	3.874219	3.512109	3.033984	3.392578
0.3285	2.935547	3.88125	4.292578	3.9375	3.529688	3.912891
0.32875	3.174609	4.095703	4.5	4.134375	3.803906	4.176563
0.329	3.476953	4.391016	4.770703	4.412109	4.137891	4.503516
0.32925	3.877734	4.805859	5.139844	4.802344	4.563281	4.953516
0.3295	4.359375	5.305078	5.589844	5.280469	5.066016	5.487891
0.32975	4.749609	5.702344	5.955469	5.660156	5.484375	5.923828
0.33	4.848047	5.769141	6.032813	5.716406	5.603906	6.025781
0.33025	4.914844	5.807813	6.075	5.748047	5.68125	6.078516
0.3305	5.132813	5.997656	6.250781	5.934375	5.895703	6.275391
0.33075	5.354297	6.159375	6.423047	6.092578	6.085547	6.458203
0.331	5.491406	6.236719	6.525	6.169922	6.194531	6.563672
0.33125	5.449219	6.152344	6.472266	6.092578	6.148828	6.493359
0.3315	5.298047	5.973047	6.324609	5.916797	6.001172	6.314063
0.33175	5.203125	5.842969	6.222656	5.790234	5.888672	6.176953
0.332	5.164453	5.772656	6.173438	5.726953	5.828906	6.099609
0.33225	5.129297	5.705859	6.134766	5.670703	5.772656	6.039844
0.3325	5.044922	5.586328	6.046875	5.554688	5.667188	5.923828
0.33275	4.897266	5.414063	5.899219	5.385938	5.508984	5.741016
0.333	4.616016	5.069531	5.600391	5.051953	5.189063	5.375391
0.33325	4.032422	4.366406	5.00625	4.376953	4.535156	4.654688
0.3335	3.276563	3.515625	4.285547	3.564844	3.723047	3.765234
0.33375	2.671875	2.861719	3.698438	2.942578	3.072656	3.048047
0.334	2.190234	2.337891	3.230859	2.453906	2.545313	2.475
0.33425	1.74375	1.870313	2.830078	2.017969	2.070703	1.965234
0.3345	1.300781	1.395703	2.415234	1.560938	1.582031	1.441406
0.33475	0.8402344	0.8929688	1.958203	1.075781	1.065234	0.8964844
0.335	0.4183594	0.4324219	1.546875	0.6433594	0.590625	0.39375
0.33525	-0.01054688	-0.0421875	1.135547	0.1933594	0.1054688	-0.1230469
0.3355	-0.365625	-0.4042969	0.8121094	-0.1441406	-0.2777344	-0.5308594
0.33575	-0.8648438	-0.9140625	0.3480469	-0.6363281	-0.7980469	-1.082813
0.336	-1.789453	-1.9125	-0.5308594	-1.603125	-1.768359	-2.130469
0.33625	-2.633203	-2.808984	-1.328906	-2.457422	-2.668359	-3.09375
0.3365	-3.283594	-3.476953	-1.923047	-3.076172	-3.360938	-3.821484
0.33675	-3.839063	-4.018359	-2.41875	-3.592969	-3.941016	-4.426172
0.337	-4.10625	-4.253906	-2.650781	-3.817969	-4.229297	-4.714453
0.33725	-4.355859	-4.496484	-2.879297	-4.039453	-4.510547	-5.002734
0.3375	-4.739063	-4.89375	-3.241406	-4.408594	-4.928906	-5.435156
0.33775	-5.199609	-5.368359	-3.666797	-4.865625	-5.414063	-5.937891
0.338	-5.663672	-5.839453	-4.095703	-5.322656	-5.899219	-6.447656
0.33825	-5.857031	-6.001172	-4.264453	-5.477344	-6.106641	-6.655078
0.3385	-5.867578	-5.976563	-4.260938	-5.449219	-6.13125	-6.662109
0.33875	-6.032813	-6.117188	-4.398047	-5.593359	-6.303516	-6.827344
0.339	-6.271875	-6.310547	-4.587891	-5.779688	-6.514453	-7.045313
0.33925	-6.447656	-6.426563	-4.721484	-5.881641	-6.658594	-7.178906
0.3395	-6.486328	-6.423047	-4.742578	-5.878125	-6.690234	-7.189453
0.33975	-6.363281	-6.257813	-4.619531	-5.726953	-6.563672	-7.034766
0.34	-6.198047	-6.046875	-4.457813	-5.533594	-6.380859	-6.823828
0.34025	-6.120703	-5.937891	-4.373438	-5.428125	-6.278906	-6.704297
0.3405	-6.103125	-5.90625	-4.348828	-5.392969	-6.247266	-6.662109
0.34075	-6.046875	-5.818359	-4.282031	-5.308594	-6.169922	-6.560156
0.341	-5.913281	-5.642578	-4.141406	-5.146875	-6.01875	-6.377344
0.34125	-5.68125	-5.364844	-3.909375	-4.876172	-5.769141	-6.092578
0.3415	-5.220703	-4.802344	-3.434766	-4.327734	-5.248828	-5.516016
0.34175	-4.461328	-3.919922	-2.689453	-3.483984	-4.422656	-4.601953
0.342	-3.733594	-3.118359	-2.000391	-2.724609	-3.642188	-3.747656
0.34225	-3.223828	-2.566406	-1.515234	-2.211328	-3.083203	-3.142969
0.3425	-2.801953	-2.133984	-1.128516	-1.803516	-2.626172	-2.654297
0.34275	-2.390625	-1.701563	-0.7488281	-1.392188	-2.183203	-2.179688
0.343	-1.965234	-1.219922	-0.3480469	-0.9457031	-1.705078	-1.666406
0.34325	-1.557422	-0.7664063	0.03515625	-0.5273438	-1.241016	-1.170703
0.3435	-1.125	-0.2988281	0.45	-0.084375	-0.759375	-0.6644531
0.34375	-0.7488281	0.09492188	0.7980469	0.2847656	-0.3515625	-0.2285156
0.344	-0.3585938	0.4921875	1.153125	0.6609375	0.05625	0.2003906
0.34425	0.4605469	1.388672	1.933594	1.51875	0.9175781	1.128516
0.3445	1.371094	2.373047	2.794922	2.450391	1.880859	2.169141
0.34475	2.042578	3.062109	3.410156	3.097266	2.594531	2.925
0.345	2.650781	3.673828	3.965625	3.677344	3.230859	3.596484
0.34525	2.988281	3.990234	4.271484	3.969141	3.592969	3.972656
0.3455	3.20625	4.194141	4.457813	4.155469	3.846094	4.211719
0.34575	3.568359	4.566797	4.784766	4.503516	4.243359	4.608984
0.346	3.997266	5.00625	5.182031	4.921875	4.696875	5.083594
0.34625	4.475391	5.501953	5.628516	5.396484	5.196094	5.617969
0.3465	4.770703	5.786719	5.892188	5.660156	5.516016	5.941406
0.34675	4.805859	5.779688	5.909766	5.646094	5.565234	5.966016
0.347	4.953516	5.909766	6.01875	5.765625	5.719922	6.096094
0.34725	5.213672	6.138281	6.226172	5.987109	5.973047	6.338672
0.3475	5.403516	6.264844	6.370313	6.113672	6.127734	6.493359
0.34775	5.487891	6.292969	6.430078	6.148828	6.183984	6.542578
0.348	5.396484	6.173438	6.338672	6.025781	6.099609	6.423047
0.34825	5.241797	5.990625	6.1875	5.842969	5.941406	6.236719
0.3485	5.160938	5.867578	6.103125	5.7375	5.842969	6.117188
0.34875	5.132813	5.807813	6.071484	5.688281	5.797266	6.060938
0.349	5.094141	5.744531	6.029297	5.628516	5.748047	6.004688
0.34925	4.995703	5.607422	5.923828	5.498438	5.632031	5.871094
0.3495	4.78125	5.357813	5.705859	5.255859	5.403516	5.610938
0.34975	4.394531	4.876172	5.301563	4.798828	4.967578	5.11875
0.35	3.7125	4.074609	4.626563	4.032422	4.222266	4.296094
0.35025	2.949609	3.230859	3.888281	3.223828	3.406641	3.399609
0.3505	2.387109	2.622656	3.350391	2.650781	2.794922	2.731641
0.35075	1.937109	2.148047	2.939063	2.207813	2.309766	2.211328
0.351	1.511719	1.708594	2.552344	1.792969	1.849219	1.726172
0.35125	1.089844	1.248047	2.141016	1.353516	1.371094	1.219922
0.3515	0.6714844	0.7875	1.719141	0.9105469	0.9	0.7207031
0.35175	0.2425781	0.3128906	1.304297	0.4605469	0.4183594	0.2039063
0.352	-0.1757813	-0.1335938	0.9140625	0.03515625	-0.04570313	-0.2882813
0.35225	-0.5238281	-0.4851563	0.5976563	-0.2917969	-0.4148438	-0.6785156
0.3525	-1.195313	-1.195313	-0.02460938	-0.9773438	-1.110938	-1.420313
0.35275	-2.148047	-2.225391	-0.9351563	-1.965234	-2.112891	-2.496094
0.353	-2.882813	-2.991797	-1.624219	-2.689453	-2.896875	-3.336328
0.35325	-3.522656	-3.642188	-2.211328	-3.301172	-3.568359	-4.046484
0.3535	-3.983203	-4.092188	-2.619141	-3.726563	-4.057031	-4.552734
0.35375	-4.232813	-4.313672	-2.837109	-3.933984	-4.33125	-4.833984
0.354	-4.535156	-4.616016	-3.121875	-4.211719	-4.661719	-5.175
0.35425	-4.897266	-4.985156	-3.455859	-4.55625	-5.055469	-5.572266
0.3545	-5.364844	-5.466797	-3.888281	-5.027344	-5.544141	-6.085547
0.35475	-5.779688	-5.881641	-4.264453	-5.424609	-5.976563	-6.539063
0.355	-5.874609	-5.944922	-4.334766	-5.473828	-6.089063	-6.633984
0.35525	-5.927344	-5.9625	-4.362891	-5.494922	-6.152344	-6.672656
0.3555	-6.159375	-6.166406	-4.55625	-5.691797	-6.377344	-6.901172
0.35575	-6.394922	-6.352734	-4.742578	-5.860547	-6.584766	-7.105078
0.356	-6.532031	-6.437109	-4.848047	-5.937891	-6.700781	-7.207031
0.35625	-6.496875	-6.35625	-4.802344	-5.867578	-6.655078	-7.147266
0.3565	-6.345703	-6.166406	-4.654688	-5.691797	-6.503906	-6.960938
0.35675	-6.226172	-6.01875	-4.535156	-5.554688	-6.373828	-6.80625
0.357	-6.173438	-5.937891	-4.475391	-5.484375	-6.307031	-6.718359
0.35725	-6.138281	-5.878125	-4.433203	-5.428125	-6.250781	-6.651563
0.3575	-6.071484	-5.783203	-4.359375	-5.336719	-6.162891	-6.542578
0.35775	-5.909766	-5.589844	-4.197656	-5.146875	-5.987109	-6.335156
0.358	-5.610938	-5.227734	-3.898828	-4.795313	-5.660156	-5.969531
0.35825	-5.034375	-4.524609	-3.31875	-4.123828	-5.013281	-5.259375
0.3585	-4.243359	-3.631641	-2.548828	-3.269531	-4.1625	-4.320703
0.35875	-3.589453	-2.921484	-1.926563	-2.594531	-3.462891	-3.550781
0.359	-3.111328	-2.411719	-1.476563	-2.116406	-2.942578	-2.98125
0.35925	-2.7	-1.996875	-1.096875	-1.722656	-2.503125	-2.510156
0.3595	-2.302734	-1.575	-0.7242188	-1.321875	-2.074219	-2.049609
0.35975	-1.887891	-1.096875	-0.3199219	-0.871875	-1.596094	-1.536328
0.36	-1.469531	-0.6398438	0.07734375	-0.4394531	-1.125	-1.033594
0.36025	-1.044141	-0.1792969	0.4886719	-0.003515625	-0.646875	-0.5308594
0.3605	-0.6996094	0.16875	0.8085938	0.3234375	-0.2777344	-0.140625
0.36075	-0.2074219	0.6785156	1.262109	0.8121094	0.225	0.3972656
0.361	0.6890625	1.659375	2.119922	1.754297	1.174219	1.413281
0.36125	1.543359	2.569922	2.917969	2.619141	2.08125	2.383594
0.3615	2.218359	3.258984	3.533203	3.269531	2.794922	3.135938
0.36175	2.745703	3.786328	4.028906	3.765234	3.353906	3.730078
0.362	3.002344	4.011328	4.253906	3.976172	3.638672	4.014844
0.36225	3.2625	4.264453	4.482422	4.215234	3.933984	4.303125
0.3625	3.65625	4.672266	4.844531	4.601953	4.366406	4.742578
0.36275	4.10625	5.132813	5.262891	5.041406	4.841016	5.241797
0.363	4.55625	5.589844	5.68125	5.473828	5.308594	5.741016
0.36325	4.742578	5.755078	5.85	5.625	5.519531	5.948438
0.3635	4.767188	5.744531	5.857031	5.610938	5.554688	5.955469
0.36375	4.953516	5.909766	6.008203	5.769141	5.741016	6.127734
0.364	5.199609	6.106641	6.205078	5.966016	5.9625	6.342188
0.36425	5.375391	6.222656	6.338672	6.082031	6.117188	6.486328
0.3645	5.407031	6.212109	6.352734	6.071484	6.145313	6.493359
0.36475	5.269922	6.036328	6.219141	5.899219	6.004688	6.324609
0.365	5.136328	5.860547	6.089063	5.730469	5.853516	6.152344
0.36525	5.083594	5.776172	6.029297	5.649609	5.779688	6.064453
0.3655	5.066016	5.7375	6.004688	5.614453	5.748047	6.022266
0.36575	5.023828	5.660156	5.955469	5.547656	5.68125	5.944922
0.366	4.886719	5.484375	5.814844	5.385938	5.526563	5.769141
0.36625	4.633594	5.178516	5.551172	5.097656	5.248828	5.449219
0.3665	4.151953	4.587891	5.058984	4.528125	4.700391	4.844531
0.36675	3.392578	3.7125	4.317188	3.694922	3.88125	3.941016
0.367	2.696484	2.956641	3.649219	2.974219	3.135938	3.121875
0.36725	2.19375	2.415234	3.171094	2.464453	2.5875	2.53125
0.3675	1.747266	1.947656	2.766797	2.021484	2.109375	2.021484
0.36775	1.325391	1.504688	2.380078	1.606641	1.652344	1.532813
0.368	0.8859375	1.023047	1.947656	1.149609	1.160156	1.008984
0.36825	0.4640625	0.5554688	1.529297	0.7066406	0.6855469	0.50625
0.3685	0.05273438	0.1019531	1.139063	0.28125	0.2285156	0.01757813
0.36875	-0.3128906	-0.28125	0.8015625	-0.084375	-0.1757813	-0.4113281
0.369	-0.7101563	-0.6785156	0.4394531	-0.4605469	-0.590625	-0.8542969
0.36925	-1.508203	-1.539844	-0.3164063	-1.290234	-1.423828	-1.747266
0.3695	-2.439844	-2.534766	-1.202344	-2.25	-2.404688	-2.805469
0.36975	-3.135938	-3.255469	-1.849219	-2.925	-3.146484	-3.592969
0.37	-3.747656	-3.874219	-2.397656	-3.508594	-3.793359	-4.267969
0.37025	-4.10625	-4.211719	-2.710547	-3.825	-4.183594	-4.665234
0.3705	-4.313672	-4.394531	-2.896875	-3.997266	-4.419141	-4.900781
0.37075	-4.654688	-4.746094	-3.220313	-4.324219	-4.795313	-5.2875
0.371	-5.083594	-5.189063	-3.617578	-4.746094	-5.255859	-5.755078
0.37125	-5.558203	-5.68125	-4.060547	-5.224219	-5.758594	-6.278906
0.3715	-5.867578	-5.976563	-4.338281	-5.508984	-6.085547	-6.619922
0.37175	-5.916797	-5.990625	-4.366406	-5.5125	-6.148828	-6.669141
0.372	-6.036328	-6.085547	-4.454297	-5.600391	-6.278906	-6.781641
0.37225	-6.275391	-6.282422	-4.647656	-5.786719	-6.496875	-6.996094
0.3725	-6.475781	-6.423047	-4.802344	-5.913281	-6.658594	-7.150781
0.37275	-6.567188	-6.46875	-4.865625	-5.948438	-6.728906	-7.207031
0.373	-6.472266	-6.331641	-4.763672	-5.821875	-6.630469	-7.080469
0.37325	-6.321094	-6.145313	-4.608984	-5.649609	-6.472266	-6.890625
0.3735	-6.250781	-6.043359	-4.528125	-5.554688	-6.380859	-6.778125
0.37375	-6.226172	-5.997656	-4.489453	-5.505469	-6.335156	-6.718359
0.374	-6.180469	-5.927344	-4.440234	-5.438672	-6.268359	-6.641016
0.37425	-6.075	-5.790234	-4.327734	-5.305078	-6.141797	-6.489844
0.3745	-5.867578	-5.551172	-4.130859	-5.073047	-5.927344	-6.24375
0.37475	-5.494922	-5.087109	-3.758203	-4.633594	-5.5125	-5.779688
0.375	-4.830469	-4.299609	-3.09375	-3.88125	-4.777734	-4.971094
0.37525	-4.071094	-3.459375	-2.358984	-3.076172	-3.972656	-4.085156
0.3755	-3.473438	-2.816016	-1.796484	-2.464453	-3.332813	-3.389063
0.37575	-2.995313	-2.30625	-1.346484	-1.989844	-2.8125	-2.826563
0.376	-2.5875	-1.901953	-0.9773438	-1.603125	-2.383594	-2.369531
0.37625	-2.186719	-1.4625	-0.5941406	-1.184766	-1.940625	-1.894922
0.3765	-1.771875	-0.9914063	-0.1933594	-0.7417969	-1.455469	-1.381641
0.37675	-1.360547	-0.5378906	0.196875	-0.3164063	-0.984375	-0.8894531
0.377	-0.9597656	-0.1125	0.5800781	0.08789063	-0.5449219	-0.4253906
0.37725	-0.6222656	0.2144531	0.8824219	0.4007813	-0.1933594	-0.05273438
0.3775	0.028125	0.9140625	1.487109	1.065234	0.4816406	0.675
0.37775	1.008984	1.986328	2.415234	2.088281	1.51875	1.792969
0.378	1.747266	2.752734	3.097266	2.8125	2.302734	2.629688
0.37825	2.3625	3.371484	3.663281	3.396094	2.953125	3.315234
0.3785	2.837109	3.842578	4.102734	3.839063	3.459375	3.849609
0.37875	3.065625	4.057031	4.299609	4.028906	3.723047	4.109766
0.379	3.364453	4.348828	4.563281	4.299609	4.05	4.433203
0.37925	3.765234	4.753125	4.928906	4.689844	4.478906	4.869141
0.3795	4.246875	5.248828	5.375391	5.160938	4.978125	5.4
0.37975	4.654688	5.663672	5.758594	5.551172	5.414063	5.853516
0.38	4.753125	5.730469	5.839453	5.610938	5.537109	5.958984
0.38025	4.805859	5.748047	5.871094	5.628516	5.600391	5.994141
0.3805	5.027344	5.948438	6.057422	5.821875	5.814844	6.201563
0.38075	5.259375	6.127734	6.236719	5.994141	6.01875	6.398438
0.381	5.4	6.208594	6.342188	6.075	6.134766	6.500391
0.38125	5.375391	6.145313	6.303516	6.015234	6.106641	6.451172
0.3815	5.234766	5.969531	6.166406	5.842969	5.9625	6.275391
0.38175	5.11875	5.811328	6.046875	5.691797	5.825391	6.117188
0.382	5.073047	5.733984	5.997656	5.621484	5.762109	6.043359
0.38225	5.048438	5.68125	5.9625	5.575781	5.719922	5.990625
0.3825	4.992188	5.593359	5.899219	5.498438	5.646094	5.90625
0.38275	4.876172	5.452734	5.779688	5.364844	5.523047	5.751563
0.383	4.594922	5.111719	5.484375	5.034375	5.210156	5.396484
0.38325	4.000781	4.391016	4.883203	4.345313	4.538672	4.661719
0.3835	3.185156	3.466406	4.095703	3.469922	3.663281	3.701953
0.38375	2.517188	2.745703	3.448828	2.784375	2.953125	2.921484
0.384	2.042578	2.235938	3.002344	2.30625	2.436328	2.3625
0.38425	1.617188	1.796484	2.622656	1.891406	1.982813	1.880859
0.3845	1.202344	1.353516	2.228906	1.473047	1.525781	1.388672
0.38475	0.7769531	0.8824219	1.803516	1.023047	1.044141	0.8789063
0.385	0.3550781	0.4148438	1.388672	0.5765625	0.5660156	0.3761719
0.38525	-0.084375	-0.0703125	0.9703125	0.1195313	0.06679688	-0.1476563
0.3855	-0.4253906	-0.4148438	0.6679688	-0.1933594	-0.2953125	-0.534375
0.38575	-0.8964844	-0.8964844	0.2355469	-0.6503906	-0.7804688	-1.047656
0.386	-1.821094	-1.905469	-0.646875	-1.617188	-1.754297	-2.095313
0.38625	-2.689453	-2.826563	-1.4625	-2.492578	-2.668359	-3.076172
0.3865	-3.350391	-3.501563	-2.063672	-3.121875	-3.360938	-3.814453
0.38675	-3.902344	-4.053516	-2.562891	-3.645703	-3.944531	-4.426172
0.387	-4.166016	-4.289063	-2.791406	-3.863672	-4.232813	-4.717969
0.38725	-4.419141	-4.535156	-3.026953	-4.088672	-4.514063	-5.009766
0.3875	-4.809375	-4.942969	-3.396094	-4.464844	-4.939453	-5.445703
0.38775	-5.259375	-5.407031	-3.810938	-4.911328	-5.417578	-5.937891
0.388	-5.716406	-5.867578	-4.225781	-5.357813	-5.892188	-6.437109
0.38825	-5.913281	-6.036328	-4.391016	-5.516016	-6.099609	-6.648047
0.3885	-5.930859	-6.025781	-4.383984	-5.498438	-6.127734	-6.655078
0.38875	-6.120703	-6.194531	-4.535156	-5.656641	-6.317578	-6.834375
0.389	-6.370313	-6.398438	-4.721484	-5.85	-6.539063	-7.055859
0.38925	-6.546094	-6.517969	-4.841016	-5.958984	-6.679688	-7.189453
0.3895	-6.595313	-6.521484	-4.855078	-5.958984	-6.714844	-7.210547
0.38975	-6.458203	-6.345703	-4.707422	-5.79375	-6.58125	-7.048828
0.39	-6.292969	-6.141797	-4.531641	-5.596875	-6.401953	-6.844922
0.39025	-6.236719	-6.060938	-4.461328	-5.516016	-6.328125	-6.746484
0.3905	-6.226172	-6.029297	-4.433203	-5.480859	-6.3	-6.704297
0.39075	-6.166406	-5.937891	-4.362891	-5.389453	-6.215625	-6.602344
0.391	-6.025781	-5.762109	-4.21875	-5.213672	-6.053906	-6.4125
0.39125	-5.797266	-5.487891	-3.986719	-4.939453	-5.800781	-6.127734
0.3915	-5.350781	-4.935938	-3.529688	-4.405078	-5.294531	-5.56875
0.39175	-4.601953	-4.057031	-2.787891	-3.568359	-4.468359	-4.658203
0.392	-3.867188	-3.248438	-2.091797	-2.805469	-3.687891	-3.796875
0.39225	-3.364453	-2.7	-1.617188	-2.295703	-3.135938	-3.188672
0.3925	-2.935547	-2.257031	-1.223438	-1.877344	-2.671875	-2.689453
0.39275	-2.506641	-1.814063	-0.8296875	-1.455469	-2.218359	-2.200781
0.393	-2.091797	-1.342969	-0.4359375	-1.016016	-1.750781	-1.694531
0.39325	-1.698047	-0.9035156	-0.06679688	-0.6046875	-1.300781	-1.216406
0.3935	-1.269141	-0.4394531	0.3375	-0.1617188	-0.8226563	-0.7101563
0.39375	-0.8894531	-0.04570313	0.6890625	0.2074219	-0.4078125	-0.2707031
0.394	-0.5132813	0.3304688	1.026563	0.5625	-0.0140625	0.1476563
0.39425	0.2953125	1.205859	1.785938	1.40625	0.8261719	1.058203
0.3945	1.230469	2.221875	2.671875	2.376563	1.824609	2.126953
0.39475	1.905469	2.917969	3.297656	3.030469	2.548828	2.893359
0.395	2.496094	3.505078	3.849609	3.589453	3.174609	3.554297
0.39525	2.861719	3.853125	4.187109	3.916406	3.568359	3.965625
0.3955	3.100781	4.074609	4.398047	4.120313	3.839063	4.222266
0.39575	3.43125	4.408594	4.707422	4.436719	4.208203	4.584375
0.396	3.846094	4.833984	5.094141	4.841016	4.647656	5.044922
0.39625	4.338281	5.34375	5.561719	5.326172	5.164453	5.596875
0.3965	4.637109	5.635547	5.839453	5.596875	5.491406	5.927344
0.39675	4.661719	5.621484	5.85	5.579297	5.533594	5.944922
0.397	4.805859	5.744531	5.9625	5.695313	5.68125	6.075
0.39725	5.073047	5.987109	6.183984	5.927344	5.937891	6.317578
0.3975	5.262891	6.113672	6.328125	6.053906	6.096094	6.46875
0.39775	5.350781	6.145313	6.384375	6.089063	6.166406	6.517969
0.398	5.276953	6.039844	6.307031	5.983594	6.099609	6.423047
0.39825	5.132813	5.853516	6.162891	5.807813	5.948438	6.24375
0.3985	5.034375	5.712891	6.064453	5.684766	5.828906	6.103125
0.39875	4.995703	5.646094	6.022266	5.628516	5.772656	6.036328
0.399	4.967578	5.593359	5.990625	5.582813	5.730469	5.987109
0.39925	4.876172	5.463281	5.892188	5.459766	5.617969	5.860547
0.3995	4.672266	5.224219	5.688281	5.23125	5.4	5.614453
0.39975	4.313672	4.78125	5.312109	4.802344	4.985156	5.150391
0.4	3.649219	3.997266	4.654688	4.046484	4.246875	4.338281
0.40025	2.872266	3.135938	3.909375	3.223828	3.417188	3.43125
0.4005	2.285156	2.506641	3.353906	2.629688	2.784375	2.742188
0.40075	1.828125	2.021484	2.932031	2.176172	2.288672	2.214844
0.401	1.420313	1.606641	2.566406	1.785938	1.859766	1.754297
0.40125	1.016016	1.170703	2.179688	1.367578	1.409766	1.276172
0.4015	0.5835938	0.6960938	1.757813	0.9210938	0.9316406	0.7664063
0.40175	0.140625	0.2074219	1.339453	0.4605469	0.4394531	0.2460938
0.402	-0.2777344	-0.2496094	0.9457031	0.028125	-0.028125	-0.2496094
0.40225	-0.6117188	-0.5800781	0.646875	-0.2777344	-0.3796875	-0.61875
0.4025	-1.2375	-1.241016	0.05625	-0.9140625	-1.030078	-1.318359
0.40275	-2.207813	-2.292188	-0.8683594	-1.930078	-2.053125	-2.422266
0.403	-2.977734	-3.104297	-1.592578	-2.692969	-2.872266	-3.301172
0.40325	-3.603516	-3.733594	-2.162109	-3.290625	-3.529688	-3.990234
0.4035	-4.057031	-4.173047	-2.569922	-3.708984	-4.014844	-4.489453
0.40375	-4.282031	-4.373438	-2.770313	-3.895313	-4.271484	-4.742578
0.404	-4.570313	-4.665234	-3.0375	-4.166016	-4.591406	-5.073047
0.40425	-4.957031	-5.058984	-3.399609	-4.538672	-5.013281	-5.498438
0.4045	-5.431641	-5.551172	-3.842578	-5.013281	-5.5125	-6.015234
0.40475	-5.853516	-5.973047	-4.225781	-5.417578	-5.958984	-6.482813
0.405	-5.948438	-6.032813	-4.292578	-5.473828	-6.071484	-6.584766
0.40525	-5.987109	-6.032813	-4.306641	-5.473828	-6.120703	-6.609375
0.4055	-6.219141	-6.240234	-4.5	-5.667188	-6.349219	-6.837891
0.40575	-6.454688	-6.430078	-4.689844	-5.839453	-6.560156	-7.052344
0.406	-6.598828	-6.517969	-4.798828	-5.920313	-6.672656	-7.157813
0.40625	-6.567188	-6.440625	-4.753125	-5.853516	-6.633984	-7.094531
0.4065	-6.419531	-6.254297	-4.605469	-5.68125	-6.486328	-6.915234
0.40675	-6.307031	-6.106641	-4.489453	-5.540625	-6.359766	-6.764063
0.407	-6.250781	-6.022266	-4.429688	-5.463281	-6.278906	-6.672656
0.40725	-6.219141	-5.969531	-4.394531	-5.414063	-6.226172	-6.609375
0.4075	-6.159375	-5.878125	-4.327734	-5.326172	-6.145313	-6.510938
0.40775	-6.001172	-5.688281	-4.173047	-5.143359	-5.973047	-6.310547
0.408	-5.705859	-5.329688	-3.88125	-4.795313	-5.646094	-5.944922
0.40825	-5.136328	-4.633594	-3.308203	-4.127344	-5.002734	-5.238281
0.4085	-4.341797	-3.737109	-2.538281	-3.269531	-4.148438	-4.296094
0.40875	-3.687891	-3.030469	-1.923047	-2.601563	-3.448828	-3.526172
0.409	-3.220313	-2.524219	-1.483594	-2.133984	-2.925	-2.963672
0.40925	-2.791406	-2.088281	-1.086328	-1.719141	-2.471484	-2.471484
0.4095	-2.376563	-1.648828	-0.6996094	-1.297266	-2.021484	-1.986328
0.40975	-1.965234	-1.18125	-0.3023438	-0.8613281	-1.550391	-1.483594
0.41	-1.557422	-0.7277344	0.084375	-0.4394531	-1.082813	-0.9914063
0.41025	-1.128516	-0.2671875	0.4992188	0	-0.6082031	-0.4886719
0.4105	-0.7839844	0.084375	0.8226563	0.3339844	-0.2285156	-0.09492188
0.41075	-0.3058594	0.5835938	1.258594	0.8015625	0.2636719	0.4324219
0.411	0.5941406	1.571484	2.116406	1.747266	1.209375	1.458984
0.41125	1.466016	2.503125	2.935547	2.633203	2.1375	2.450391
0.4115	2.130469	3.181641	3.540234	3.266016	2.844141	3.188672
0.41175	2.671875	3.716016	4.035938	3.772266	3.413672	3.793359
0.412	2.939063	3.958594	4.275	3.990234	3.708984	4.088672
0.41225	3.195703	4.208203	4.492969	4.222266	3.997266	4.362891
0.4125	3.575391	4.598438	4.833984	4.587891	4.408594	4.777734
0.41275	4.004297	5.034375	5.23125	5.002734	4.855078	5.252344
0.413	4.457813	5.498438	5.653125	5.445703	5.329688	5.751563
0.41325	4.679297	5.702344	5.846484	5.628516	5.56875	5.994141
0.4135	4.710938	5.702344	5.853516	5.625	5.614453	6.01875
0.41375	4.883203	5.857031	5.990625	5.765625	5.790234	6.173438
0.414	5.129297	6.057422	6.183984	5.958984	6.011719	6.387891
0.41425	5.319141	6.176953	6.310547	6.075	6.162891	6.532031
0.4145	5.350781	6.162891	6.310547	6.053906	6.180469	6.528516
0.41475	5.210156	5.983594	6.169922	5.874609	6.039844	6.352734
0.415	5.076563	5.811328	6.036328	5.705859	5.892188	6.180469
0.41525	5.034375	5.733984	5.980078	5.632031	5.828906	6.099609
0.4155	5.023828	5.698828	5.951953	5.600391	5.800781	6.060938
0.41575	4.971094	5.607422	5.881641	5.519531	5.723438	5.969531
0.416	4.833984	5.431641	5.730469	5.350781	5.565234	5.790234
0.41625	4.594922	5.143359	5.480859	5.073047	5.298047	5.487891
0.4165	4.134375	4.577344	5.009766	4.528125	4.774219	4.904297
0.41675	3.385547	3.7125	4.275	3.701953	3.962109	4.004297
0.417	2.671875	2.932031	3.585938	2.956641	3.195703	3.167578
0.41725	2.165625	2.383594	3.09375	2.432813	2.633203	2.555859
0.4175	1.726172	1.926563	2.696484	2.000391	2.162109	2.053125
0.41775	1.314844	1.490625	2.30625	1.589063	1.708594	1.571484
0.418	0.871875	1.001953	1.866797	1.132031	1.219922	1.047656
0.41825	0.45	0.5378906	1.455469	0.6996094	0.7558594	0.5554688
0.4185	0.0421875	0.08789063	1.061719	0.2707031	0.2917969	0.06679688
0.41875	-0.3375	-0.3164063	0.6960938	-0.1125	-0.1265625	-0.3796875
0.419	-0.7277344	-0.7066406	0.3410156	-0.478125	-0.534375	-0.8050781
0.41925	-1.525781	-1.567969	-0.4113281	-1.304297	-1.364063	-1.694531
0.4195	-2.478516	-2.591016	-1.318359	-2.288672	-2.3625	-2.770313
0.41975	-3.178125	-3.315234	-1.965234	-2.967188	-3.100781	-3.557813
0.42	-3.796875	-3.948047	-2.527734	-3.564844	-3.751172	-4.243359
0.42025	-4.169531	-4.296094	-2.861719	-3.898828	-4.151953	-4.651172
0.4205	-4.380469	-4.489453	-3.058594	-4.074609	-4.383984	-4.890234
0.42075	-4.714453	-4.830469	-3.371484	-4.3875	-4.742578	-5.262891
0.421	-5.136328	-5.266406	-3.765234	-4.805859	-5.192578	-5.719922
0.42125	-5.625	-5.769141	-4.215234	-5.298047	-5.709375	-6.261328
0.4215	-5.944922	-6.071484	-4.507031	-5.593359	-6.050391	-6.612891
0.42175	-5.990625	-6.085547	-4.542188	-5.600391	-6.113672	-6.655078
0.422	-6.106641	-6.180469	-4.637109	-5.68125	-6.233203	-6.764063
0.42225	-6.345703	-6.384375	-4.8375	-5.871094	-6.461719	-6.989063
0.4225	-6.553125	-6.532031	-4.999219	-6.004688	-6.633984	-7.154297
0.42275	-6.655078	-6.591797	-5.076563	-6.053906	-6.714844	-7.224609
0.423	-6.58125	-6.472266	-4.995703	-5.944922	-6.633984	-7.119141
0.42325	-6.426563	-6.278906	-4.848047	-5.769141	-6.475781	-6.932813
0.4235	-6.328125	-6.152344	-4.749609	-5.653125	-6.363281	-6.799219
0.42375	-6.292969	-6.092578	-4.707422	-5.600391	-6.317578	-6.732422
0.424	-6.257813	-6.032813	-4.665234	-5.547656	-6.264844	-6.665625
0.42425	-6.155859	-5.899219	-4.559766	-5.414063	-6.145313	-6.517969
0.4245	-5.951953	-5.663672	-4.373438	-5.185547	-5.934375	-6.271875
0.42475	-5.586328	-5.213672	-4.011328	-4.756641	-5.526563	-5.818359
0.425	-4.928906	-4.429688	-3.360938	-4.011328	-4.795313	-5.020313
0.42525	-4.158984	-3.571875	-2.622656	-3.195703	-3.972656	-4.116797
0.4255	-3.554297	-2.910938	-2.053125	-2.569922	-3.311719	-3.399609
0.42575	-3.083203	-2.411719	-1.620703	-2.105859	-2.794922	-2.844141
0.426	-2.685938	-2.021484	-1.258594	-1.733203	-2.380078	-2.394141
0.42625	-2.285156	-1.589063	-0.8753906	-1.318359	-1.937109	-1.919531
0.4265	-1.863281	-1.107422	-0.4675781	-0.8683594	-1.448438	-1.399219
0.42675	-1.437891	-0.6398438	-0.06679688	-0.4289063	-0.9632813	-0.8894531
0.427	-1.026563	-0.2074219	0.3199219	-0.01757813	-0.5132813	-0.4148438
0.42725	-0.6996094	0.1089844	0.6152344	0.28125	-0.1722656	-0.05625
0.4275	-0.07382813	0.7769531	1.195313	0.9175781	0.4746094	0.646875
0.42775	0.8824219	1.831641	2.112891	1.926563	1.490625	1.74375
0.428	1.638281	2.622656	2.819531	2.675391	2.295703	2.601563
0.42825	2.274609	3.258984	3.392578	3.280078	2.963672	3.308203
0.4285	2.742188	3.716016	3.817969	3.705469	3.455859	3.828516
0.42875	2.956641	3.909375	4.004297	3.877734	3.701953	4.067578
0.429	3.255469	4.204688	4.275	4.158984	4.035938	4.394531
0.42925	3.659766	4.623047	4.647656	4.55625	4.475391	4.848047
0.4295	4.130859	5.111719	5.080078	5.016797	4.967578	5.368359
0.42975	4.542188	5.523047	5.45625	5.403516	5.4	5.825391
0.43	4.654688	5.600391	5.544141	5.473828	5.533594	5.937891
0.43025	4.710938	5.625	5.572266	5.494922	5.596875	5.980078
0.4305	4.925391	5.818359	5.755078	5.68125	5.811328	6.180469
0.43075	5.146875	5.990625	5.934375	5.85	6.008203	6.370313
0.431	5.283984	6.078516	6.039844	5.934375	6.124219	6.475781
0.43125	5.262891	6.015234	6.004688	5.871094	6.099609	6.426563
0.4315	5.139844	5.857031	5.878125	5.719922	5.973047	6.271875
0.43175	5.058984	5.741016	5.786719	5.610938	5.874609	6.155859
0.432	5.027344	5.677734	5.744531	5.554688	5.821875	6.096094
0.43225	4.992188	5.614453	5.695313	5.494922	5.765625	6.032813
0.4325	4.890234	5.473828	5.579297	5.361328	5.639063	5.895703
0.43275	4.710938	5.266406	5.4	5.157422	5.449219	5.674219
0.433	4.419141	4.914844	5.104688	4.819922	5.125781	5.308594
0.43325	3.846094	4.21875	4.535156	4.158984	4.482422	4.598438
0.4335	3.065625	3.332813	3.775781	3.315234	3.642188	3.670313
0.43375	2.439844	2.657813	3.174609	2.668359	2.970703	2.928516
0.434	1.96875	2.151563	2.738672	2.19375	2.457422	2.376563
0.43425	1.522266	1.680469	2.330859	1.754297	1.982813	1.863281
0.4345	1.103906	1.2375	1.930078	1.335938	1.522266	1.371094
0.43475	0.6890625	0.7839844	1.522266	0.9105469	1.065234	0.8824219
0.435	0.2707031	0.3164063	1.121484	0.4675781	0.5976563	0.3832031
0.43525	-0.1757813	-0.1757813	0.6925781	0	0.09140625	-0.1511719
0.4355	-0.5238281	-0.5308594	0.3691406	-0.3269531	-0.28125	-0.5519531
0.43575	-0.9984375	-1.0125	-0.05976563	-0.7839844	-0.7664063	-1.072266
0.436	-1.923047	-2.014453	-0.9316406	-1.747266	-1.733203	-2.116406
0.43625	-2.798438	-2.949609	-1.757813	-2.626172	-2.657813	-3.107813
0.4365	-3.459375	-3.624609	-2.358984	-3.258984	-3.353906	-3.846094
0.43675	-4.007813	-4.166016	-2.858203	-3.779297	-3.930469	-4.447266
0.437	-4.282031	-4.419141	-3.107813	-4.014844	-4.229297	-4.756641
0.43725	-4.531641	-4.661719	-3.339844	-4.229297	-4.503516	-5.037891
0.4375	-4.897266	-5.034375	-3.673828	-4.580859	-4.89375	-5.438672
0.43775	-5.34375	-5.498438	-4.085156	-5.030859	-5.368359	-5.923828
0.438	-5.821875	-5.987109	-4.524609	-5.501953	-5.871094	-6.451172
0.43825	-6.032813	-6.169922	-4.707422	-5.674219	-6.096094	-6.679688
0.4385	-6.046875	-6.148828	-4.703906	-5.649609	-6.120703	-6.683203
0.43875	-6.215625	-6.292969	-4.848047	-5.783203	-6.289453	-6.841406
0.439	-6.451172	-6.479297	-5.034375	-5.958984	-6.500391	-7.045313
0.43925	-6.626953	-6.602344	-5.167969	-6.071484	-6.648047	-7.185938
0.4395	-6.683203	-6.612891	-5.199609	-6.078516	-6.690234	-7.210547
0.43975	-6.549609	-6.433594	-5.0625	-5.913281	-6.549609	-7.041797
0.44	-6.387891	-6.226172	-4.900781	-5.726953	-6.373828	-6.841406
0.44025	-6.328125	-6.141797	-4.8375	-5.653125	-6.3	-6.75
0.4405	-6.307031	-6.096094	-4.805859	-5.610938	-6.261328	-6.697266
0.44075	-6.240234	-5.997656	-4.728516	-5.519531	-6.176953	-6.588281
0.441	-6.099609	-5.832422	-4.584375	-5.357813	-6.025781	-6.405469
0.44125	-5.874609	-5.56875	-4.362891	-5.101172	-5.786719	-6.13125
0.4415	-5.438672	-5.023828	-3.919922	-4.577344	-5.294531	-5.579297
0.44175	-4.689844	-4.148438	-3.178125	-3.744141	-4.475391	-4.679297
0.442	-3.941016	-3.325781	-2.467969	-2.967188	-3.677344	-3.807422
0.44225	-3.406641	-2.749219	-1.965234	-2.425781	-3.097266	-3.174609
0.4425	-2.974219	-2.30625	-1.567969	-2.010938	-2.633203	-2.671875
0.44275	-2.573438	-1.898438	-1.195313	-1.620703	-2.207813	-2.214844
0.443	-2.165625	-1.437891	-0.7980469	-1.188281	-1.750781	-1.722656
0.44325	-1.761328	-0.9773438	-0.4078125	-0.759375	-1.286719	-1.233984
0.4435	-1.328906	-0.5097656	0	-0.3128906	-0.8015625	-0.7207031
0.44375	-0.9386719	-0.1019531	0.3621094	0.06679688	-0.3796875	-0.2742188
0.444	-0.5554688	0.2777344	0.7101563	0.4253906	0.01054688	0.1441406
0.44425	0.2214844	1.117969	1.444922	1.2375	0.8261719	1.019531
0.4445	1.153125	2.126953	2.327344	2.200781	1.810547	2.077734
0.44475	1.849219	2.847656	2.967188	2.879297	2.548828	2.861719
0.445	2.439844	3.445313	3.508594	3.441797	3.171094	3.522656
0.44525	2.805469	3.793359	3.842578	3.765234	3.564844	3.9375
0.4455	3.033984	4.004297	4.046484	3.962109	3.825	4.187109
0.44575	3.364453	4.341797	4.352344	4.275	4.190625	4.552734
0.446	3.789844	4.777734	4.739063	4.689844	4.644141	5.027344
0.44625	4.285547	5.291016	5.196094	5.175	5.160938	5.575781
0.4465	4.608984	5.603906	5.487891	5.466797	5.505469	5.930859
0.44675	4.654688	5.614453	5.5125	5.470313	5.561719	5.969531
0.447	4.78125	5.723438	5.614453	5.565234	5.695313	6.078516
0.44725	5.023828	5.944922	5.821875	5.769141	5.930859	6.307031
0.4475	5.234766	6.089063	5.983594	5.916797	6.103125	6.475781
0.44775	5.347266	6.145313	6.060938	5.976563	6.194531	6.553125
0.448	5.273438	6.039844	5.983594	5.864063	6.127734	6.458203
0.44825	5.11875	5.842969	5.825391	5.677734	5.969531	6.271875
0.4485	5.016797	5.695313	5.712891	5.544141	5.842969	6.127734
0.44875	4.974609	5.628516	5.660156	5.480859	5.783203	6.057422
0.449	4.953516	5.582813	5.628516	5.438672	5.744531	6.011719
0.44925	4.858594	5.452734	5.526563	5.315625	5.635547	5.888672
0.4495	4.658203	5.213672	5.326172	5.090625	5.417578	5.642578
0.44975	4.299609	4.770703	4.960547	4.672266	5.013281	5.189063
0.45	3.635156	3.983203	4.303125	3.923438	4.282031	4.380469
0.45025	2.858203	3.125391	3.550781	3.100781	3.455859	3.469922
0.4505	2.285156	2.510156	3.005859	2.513672	2.840625	2.791406
0.45075	1.838672	2.028516	2.598047	2.063672	2.351953	2.271094
0.451	1.416797	1.599609	2.211328	1.652344	1.898438	1.789453
0.45125	0.9984375	1.149609	1.796484	1.223438	1.427344	1.286719
0.4515	0.5730469	0.675	1.374609	0.7734375	0.9457031	0.7734375
0.45175	0.1441406	0.2003906	0.9667969	0.3234375	0.4570313	0.2636719
0.452	-0.2671875	-0.2496094	0.5695313	-0.1089844	-0.01757813	-0.2320313
0.45225	-0.6046875	-0.5835938	0.2566406	-0.4289063	-0.3796875	-0.61875
0.4525	-1.212891	-1.219922	-0.2988281	-1.033594	-1.008984	-1.29375
0.45275	-2.176172	-2.260547	-1.209375	-2.035547	-2.021484	-2.380078
0.453	-2.960156	-3.086719	-1.947656	-2.816016	-2.854688	-3.273047
0.45325	-3.592969	-3.730078	-2.520703	-3.420703	-3.526172	-3.979688
0.4535	-4.074609	-4.194141	-2.953125	-3.863672	-4.035938	-4.503516
0.45375	-4.313672	-4.405078	-3.167578	-4.060547	-4.299609	-4.770703
0.454	-4.598438	-4.686328	-3.427734	-4.317188	-4.616016	-5.094141
0.45425	-4.981641	-5.080078	-3.782813	-4.689844	-5.027344	-5.516016
0.4545	-5.445703	-5.558203	-4.208203	-5.153906	-5.5125	-6.01875
0.45475	-5.871094	-5.987109	-4.594922	-5.561719	-5.955469	-6.482813
0.455	-5.987109	-6.064453	-4.686328	-5.628516	-6.082031	-6.598828
0.45525	-6.025781	-6.071484	-4.710938	-5.635547	-6.127734	-6.626953
0.4555	-6.261328	-6.282422	-4.907813	-5.832422	-6.35625	-6.848438
0.45575	-6.500391	-6.472266	-5.097656	-6.004688	-6.567188	-7.062891
0.456	-6.644531	-6.563672	-5.206641	-6.085547	-6.686719	-7.171875
0.45625	-6.619922	-6.489844	-5.164453	-6.015234	-6.648047	-7.115625
0.4565	-6.472266	-6.3	-5.020313	-5.842969	-6.496875	-6.936328
0.45675	-6.363281	-6.155859	-4.904297	-5.712891	-6.373828	-6.788672
0.457	-6.317578	-6.085547	-4.848047	-5.646094	-6.310547	-6.707813
0.45725	-6.296484	-6.039844	-4.819922	-5.607422	-6.268359	-6.651563
0.4575	-6.229688	-5.948438	-4.742578	-5.516016	-6.180469	-6.542578
0.45775	-6.053906	-5.744531	-4.566797	-5.322656	-5.997656	-6.328125
0.458	-5.762109	-5.392969	-4.271484	-4.978125	-5.677734	-5.973047
0.45825	-5.210156	-4.714453	-3.708984	-4.327734	-5.051953	-5.291016
0.4585	-4.426172	-3.821484	-2.942578	-3.473438	-4.204688	-4.359375
0.45875	-3.76875	-3.111328	-2.316797	-2.791406	-3.498047	-3.585938
0.459	-3.297656	-2.601563	-1.866797	-2.313281	-2.970703	-3.019922
0.45925	-2.879297	-2.179688	-1.476563	-1.9125	-2.524219	-2.541797
0.4595	-2.475	-1.757813	-1.093359	-1.508203	-2.084766	-2.070703
0.45975	-2.060156	-1.286719	-0.6890625	-1.058203	-1.610156	-1.560938
0.46	-1.655859	-0.8332031	-0.2988281	-0.6328125	-1.139063	-1.065234
0.46025	-1.226953	-0.3691406	0.1054688	-0.1933594	-0.6609375	-0.5625
0.4605	-0.8753906	-0.01054688	0.4324219	0.140625	-0.2847656	-0.1652344
0.46075	-0.4253906	0.4394531	0.8472656	0.5765625	0.1757813	0.3269531
0.461	0.4675781	1.423828	1.705078	1.525781	1.117969	1.353516
0.46125	1.357031	2.383594	2.548828	2.439844	2.067188	2.373047
0.4615	2.007422	3.044531	3.139453	3.062109	2.75625	3.09375
0.46175	2.566406	3.6	3.652734	3.592969	3.343359	3.7125
0.462	2.872266	3.88125	3.930469	3.853125	3.673828	4.053516
0.46225	3.118359	4.123828	4.151953	4.074609	3.951563	4.327734
0.4625	3.469922	4.485938	4.478906	4.419141	4.338281	4.714453
0.46275	3.898828	4.921875	4.876172	4.841016	4.788281	5.189063
0.463	4.373438	5.4	5.315625	5.301563	5.280469	5.716406
0.46325	4.598438	5.610938	5.526563	5.498438	5.530078	5.969531
0.4635	4.623047	5.600391	5.540625	5.487891	5.565234	5.983594
0.46375	4.784766	5.7375	5.684766	5.621484	5.726953	6.127734
0.464	5.030859	5.941406	5.892188	5.821875	5.955469	6.345703
0.46425	5.227734	6.085547	6.039844	5.955469	6.120703	6.503906
0.4645	5.266406	6.082031	6.057422	5.951953	6.148828	6.514453
0.46475	5.136328	5.909766	5.927344	5.783203	6.015234	6.349219
0.465	5.009766	5.733984	5.790234	5.617969	5.871094	6.176953
0.46525	4.95	5.639063	5.716406	5.526563	5.790234	6.082031
0.4655	4.921875	5.586328	5.674219	5.480859	5.741016	6.025781
0.46575	4.872656	5.505469	5.617969	5.407031	5.667188	5.948438
0.466	4.746094	5.347266	5.494922	5.262891	5.523047	5.790234
0.46625	4.514063	5.069531	5.266406	5.00625	5.273438	5.501953
