Interval=	0.00025 s
ExcelDateTime=	4.5725805696924006e+004	3/9/2025 19:20:12.214234
TimeFormat=	StartOfBlock
DateFormat=	
ChannelTitle=	Channel 2	Channel 3	Channel 4	Channel 5	Channel 6	Channel 7
Range=	112.50 mV	112.50 mV	112.50 mV	112.50 mV	112.50 mV	112.50 mV
0	4.935938	5.066016	4.686328	4.978125	5.0625	5.551172
0.00025	4.967578	5.073047	4.703906	4.978125	5.115234	5.582813
0.0005	5.013281	5.101172	4.739063	5.002734	5.171484	5.617969
0.00075	5.266406	5.329688	4.957031	5.224219	5.414063	5.864063
0.001	5.498438	5.519531	5.150391	5.407031	5.621484	6.071484
0.00125	5.663672	5.656641	5.2875	5.533594	5.776172	6.215625
0.0015	5.639063	5.617969	5.252344	5.484375	5.762109	6.180469
0.00175	5.473828	5.428125	5.094141	5.298047	5.600391	5.994141
0.002	5.371875	5.305078	4.995703	5.182031	5.494922	5.871094
0.00225	5.361328	5.280469	4.978125	5.160938	5.480859	5.839453
0.0025	5.34375	5.245313	4.946484	5.125781	5.449219	5.79375
0.00275	5.234766	5.111719	4.841016	4.999219	5.326172	5.649609
0.003	5.020313	4.876172	4.644141	4.78125	5.111719	5.4
0.00325	4.707422	4.524609	4.341797	4.440234	4.784766	5.023828
0.0035	4.127344	3.870703	3.779297	3.814453	4.173047	4.338281
0.00375	3.325781	3.012891	3.026953	2.991797	3.353906	3.427734
0.004	2.7	2.351953	2.439844	2.369531	2.707031	2.710547
0.00425	2.281641	1.905469	2.039063	1.951172	2.253516	2.221875
0.0045	1.870313	1.490625	1.655859	1.553906	1.821094	1.768359
0.00475	1.444922	1.054688	1.258594	1.139063	1.374609	1.286719
0.005	1.054688	0.6328125	0.8929688	0.7488281	0.9492188	0.8367188
0.00525	0.6785156	0.225	0.534375	0.365625	0.5378906	0.3972656
0.0055	0.2777344	-0.1933594	0.1546875	-0.03164063	0.1054688	-0.06328125
0.00575	-0.02109375	-0.4957031	-0.1195313	-0.3128906	-0.2144531	-0.3972656
0.006	-0.534375	-1.016016	-0.5835938	-0.8085938	-0.7277344	-0.9492188
0.00625	-1.539844	-2.060156	-1.51875	-1.817578	-1.740234	-2.049609
0.0065	-2.397656	-2.946094	-2.313281	-2.654297	-2.622656	-3.009375
0.00675	-3.012891	-3.571875	-2.872266	-3.241406	-3.269531	-3.694922
0.007	-3.519141	-4.067578	-3.336328	-3.7125	-3.803906	-4.246875
0.00725	-3.754688	-4.282031	-3.547266	-3.909375	-4.060547	-4.5
0.0075	-3.99375	-4.514063	-3.761719	-4.123828	-4.317188	-4.760156
0.00775	-4.338281	-4.876172	-4.081641	-4.454297	-4.689844	-5.153906
0.008	-4.791797	-5.34375	-4.496484	-4.897266	-5.167969	-5.646094
0.00825	-5.248828	-5.800781	-4.918359	-5.336719	-5.635547	-6.134766
0.0085	-5.357813	-5.881641	-5.013281	-5.410547	-5.762109	-6.250781
0.00875	-5.326172	-5.825391	-4.974609	-5.354297	-5.744531	-6.208594
0.009	-5.547656	-6.029297	-5.164453	-5.551172	-5.955469	-6.426563
0.00925	-5.814844	-6.261328	-5.389453	-5.772656	-6.198047	-6.683203
0.0095	-5.990625	-6.398438	-5.533594	-5.899219	-6.35625	-6.837891
0.00975	-6.029297	-6.4125	-5.554688	-5.902734	-6.394922	-6.858984
0.01	-5.913281	-6.275391	-5.431641	-5.765625	-6.282422	-6.714844
0.01025	-5.786719	-6.124219	-5.298047	-5.621484	-6.148828	-6.549609
0.0105	-5.726953	-6.046875	-5.238281	-5.547656	-6.085547	-6.461719
0.01075	-5.712891	-6.015234	-5.220703	-5.523047	-6.064453	-6.430078
0.011	-5.663672	-5.951953	-5.164453	-5.459766	-6.008203	-6.363281
0.01125	-5.498438	-5.776172	-5.009766	-5.2875	-5.85	-6.180469
0.0115	-5.220703	-5.466797	-4.742578	-4.988672	-5.572266	-5.864063
0.01175	-4.756641	-4.935938	-4.289063	-4.478906	-5.076563	-5.312109
0.012	-4.018359	-4.127344	-3.582422	-3.701953	-4.306641	-4.454297
0.01225	-3.283594	-3.357422	-2.893359	-2.963672	-3.554297	-3.628125
0.0125	-2.784375	-2.837109	-2.432813	-2.482031	-3.026953	-3.055078
0.01275	-2.390625	-2.429297	-2.067188	-2.102344	-2.605078	-2.601563
0.013	-1.993359	-2.025	-1.701563	-1.719141	-2.19375	-2.155078
0.01325	-1.592578	-1.599609	-1.321875	-1.314844	-1.768359	-1.698047
0.0135	-1.219922	-1.198828	-0.9667969	-0.9386719	-1.360547	-1.262109
0.01375	-0.8261719	-0.7769531	-0.5976563	-0.5449219	-0.9246094	-0.8085938
0.014	-0.4851563	-0.4253906	-0.2847656	-0.2144531	-0.5589844	-0.4253906
0.01425	-0.084375	-0.02460938	0.07734375	0.1617188	-0.1546875	0.00703125
0.0145	0.7910156	0.8859375	0.8859375	1.040625	0.7242188	0.9667969
0.01475	1.729688	1.863281	1.761328	1.975781	1.680469	2.010938
0.015	2.3625	2.503125	2.348438	2.573438	2.341406	2.710547
0.01525	2.917969	3.055078	2.851172	3.090234	2.914453	3.311719
0.0155	3.258984	3.382031	3.153516	3.396094	3.280078	3.687891
0.01575	3.501563	3.624609	3.371484	3.614063	3.554297	3.958594
0.016	3.832031	3.958594	3.673828	3.926953	3.909375	4.313672
0.01625	4.229297	4.355859	4.042969	4.310156	4.324219	4.742578
0.0165	4.707422	4.844531	4.482422	4.770703	4.819922	5.273438
0.01675	4.967578	5.097656	4.721484	5.00625	5.104688	5.561719
0.017	4.939453	5.041406	4.689844	4.946484	5.097656	5.523047
0.01725	5.058984	5.139844	4.788281	5.041406	5.213672	5.632031
0.0175	5.340234	5.396484	5.030859	5.2875	5.480859	5.909766
0.01775	5.56875	5.586328	5.220703	5.473828	5.695313	6.117188
0.018	5.646094	5.632031	5.280469	5.516016	5.769141	6.169922
0.01825	5.537109	5.498438	5.175	5.382422	5.670703	6.046875
0.0185	5.396484	5.333203	5.037891	5.224219	5.533594	5.885156
0.01875	5.308594	5.224219	4.946484	5.122266	5.438672	5.769141
0.019	5.276953	5.178516	4.911328	5.080078	5.4	5.716406
0.01925	5.252344	5.136328	4.886719	5.044922	5.371875	5.670703
0.0195	5.146875	5.00625	4.784766	4.925391	5.259375	5.533594
0.01975	4.911328	4.760156	4.566797	4.689844	5.027344	5.269922
0.02	4.528125	4.324219	4.197656	4.271484	4.623047	4.809375
0.02025	3.856641	3.575391	3.550781	3.550781	3.923438	4.025391
0.0205	3.079688	2.759766	2.826563	2.770313	3.135938	3.15
0.02075	2.527734	2.176172	2.313281	2.225391	2.552344	2.517188
0.021	2.119922	1.747266	1.926563	1.828125	2.112891	2.053125
0.02125	1.722656	1.35	1.557422	1.448438	1.701563	1.606641
0.0215	1.342969	0.9632813	1.205859	1.082813	1.300781	1.174219
0.02175	1.008984	0.5976563	0.8824219	0.7382813	0.928125	0.7769531
0.022	0.6328125	0.1863281	0.5238281	0.3480469	0.5097656	0.3375
0.02225	0.2214844	-0.2425781	0.1335938	-0.05976563	0.0703125	-0.1300781
0.0225	-0.1441406	-0.6082031	-0.196875	-0.4042969	-0.3058594	-0.5308594
0.02275	-0.8402344	-1.321875	-0.84375	-1.100391	-1.005469	-1.290234
0.023	-1.821094	-2.344922	-1.768359	-2.088281	-2.007422	-2.380078
0.02325	-2.548828	-3.09375	-2.443359	-2.791406	-2.770313	-3.199219
0.0235	-3.146484	-3.698438	-2.988281	-3.357422	-3.396094	-3.867188
0.02375	-3.554297	-4.088672	-3.360938	-3.733594	-3.832031	-4.310156
0.024	-3.751172	-4.264453	-3.540234	-3.895313	-4.053516	-4.524609
0.02425	-4.060547	-4.584375	-3.825	-4.187109	-4.3875	-4.872656
0.0245	-4.436719	-4.974609	-4.173047	-4.552734	-4.791797	-5.298047
0.02475	-4.879688	-5.424609	-4.577344	-4.985156	-5.252344	-5.772656
0.025	-5.255859	-5.79375	-4.918359	-5.333203	-5.639063	-6.169922
0.02525	-5.305078	-5.821875	-4.957031	-5.350781	-5.709375	-6.215625
0.0255	-5.336719	-5.835938	-4.974609	-5.361328	-5.751563	-6.24375
0.02575	-5.589844	-6.060938	-5.189063	-5.582813	-5.980078	-6.486328
0.026	-5.846484	-6.285938	-5.407031	-5.79375	-6.212109	-6.732422
0.02625	-5.990625	-6.398438	-5.523047	-5.892188	-6.349219	-6.866016
0.0265	-5.948438	-6.321094	-5.470313	-5.821875	-6.303516	-6.799219
0.02675	-5.79375	-6.141797	-5.315625	-5.649609	-6.148828	-6.612891
0.027	-5.688281	-6.015234	-5.210156	-5.526563	-6.039844	-6.46875
0.02725	-5.653125	-5.966016	-5.167969	-5.477344	-5.997656	-6.401953
0.0275	-5.632031	-5.930859	-5.139844	-5.442188	-5.966016	-6.359766
0.02775	-5.547656	-5.828906	-5.058984	-5.34375	-5.878125	-6.254297
0.028	-5.34375	-5.610938	-4.865625	-5.132813	-5.684766	-6.032813
0.02825	-5.020313	-5.248828	-4.549219	-4.78125	-5.350781	-5.656641
0.0285	-4.447266	-4.598438	-3.99375	-4.158984	-4.746094	-4.981641
0.02875	-3.659766	-3.747656	-3.251953	-3.346875	-3.933984	-4.081641
0.029	-3.009375	-3.062109	-2.64375	-2.703516	-3.258984	-3.343359
0.02925	-2.573438	-2.605078	-2.239453	-2.281641	-2.787891	-2.837109
0.0295	-2.190234	-2.221875	-1.887891	-1.9125	-2.387109	-2.404688
0.02975	-1.771875	-1.785938	-1.490625	-1.494141	-1.944141	-1.930078
0.03	-1.346484	-1.321875	-1.089844	-1.065234	-1.483594	-1.434375
0.03025	-0.9703125	-0.9210938	-0.7417969	-0.6925781	-1.065234	-0.9984375
0.0305	-0.5835938	-0.5132813	-0.3761719	-0.3023438	-0.6433594	-0.5554688
0.03075	-0.2566406	-0.1828125	-0.07734375	0.003515625	-0.3023438	-0.1933594
0.031	0.2707031	0.3585938	0.4007813	0.5167969	0.2285156	0.3796875
0.03125	1.233984	1.360547	1.307813	1.487109	1.198828	1.441406
0.0315	2.039063	2.190234	2.060156	2.281641	2.025	2.341406
0.03175	2.650781	2.805469	2.622656	2.865234	2.664844	3.019922
0.032	3.167578	3.31875	3.097266	3.346875	3.209766	3.596484
0.03225	3.396094	3.529688	3.301172	3.540234	3.466406	3.849609
0.0325	3.645703	3.772266	3.522656	3.765234	3.733594	4.116797
0.03275	4.011328	4.148438	3.860156	4.116797	4.123828	4.517578
0.033	4.447266	4.591406	4.260938	4.535156	4.577344	4.995703
0.03325	4.883203	5.030859	4.661719	4.953516	5.030859	5.477344
0.0335	5.027344	5.157422	4.791797	5.066016	5.203125	5.639063
0.03375	5.027344	5.132813	4.78125	5.041406	5.220703	5.632031
0.034	5.224219	5.315625	4.95	5.213672	5.417578	5.828906
0.03425	5.487891	5.544141	5.182031	5.435156	5.663672	6.078516
0.0345	5.677734	5.698828	5.340234	5.582813	5.839453	6.24375
0.03475	5.698828	5.695313	5.347266	5.572266	5.864063	6.250781
0.035	5.551172	5.519531	5.203125	5.4	5.719922	6.082031
0.03525	5.421094	5.368359	5.076563	5.252344	5.586328	5.927344
0.0355	5.378906	5.308594	5.027344	5.196094	5.537109	5.867578
0.03575	5.371875	5.2875	5.009766	5.178516	5.519531	5.839453
0.036	5.326172	5.220703	4.957031	5.115234	5.463281	5.765625
0.03625	5.178516	5.058984	4.816406	4.953516	5.315625	5.589844
0.0365	4.897266	4.749609	4.549219	4.654688	5.027344	5.255859
0.03675	4.408594	4.194141	4.078125	4.127344	4.514063	4.675781
0.037	3.691406	3.410156	3.392578	3.375	3.76875	3.849609
0.03725	2.995313	2.689453	2.745703	2.685938	3.058594	3.065625
0.0375	2.503125	2.165625	2.281641	2.197266	2.534766	2.492578
0.03775	2.102344	1.750781	1.905469	1.807031	2.109375	2.032031
0.038	1.698047	1.346484	1.525781	1.416797	1.6875	1.578516
0.03825	1.286719	0.9105469	1.135547	1.001953	1.241016	1.103906
0.0385	0.9035156	0.4886719	0.7734375	0.6117188	0.8191406	0.6539063
0.03875	0.4921875	0.04570313	0.3867188	0.196875	0.3691406	0.1757813
0.039	0.1511719	-0.2882813	0.07382813	-0.1195313	0.00703125	-0.2003906
0.03925	-0.2179688	-0.6574219	-0.253125	-0.4675781	-0.365625	-0.6011719
0.0395	-1.100391	-1.578516	-1.072266	-1.353516	-1.255078	-1.567969
0.03975	-2.049609	-2.566406	-1.961719	-2.299219	-2.228906	-2.619141
0.04	-2.689453	-3.213281	-2.552344	-2.903906	-2.889844	-3.332813
0.04025	-3.283594	-3.814453	-3.090234	-3.466406	-3.508594	-3.990234
0.0405	-3.621094	-4.130859	-3.389063	-3.765234	-3.870703	-4.352344
0.04075	-3.825	-4.317188	-3.571875	-3.933984	-4.088672	-4.570313
0.041	-4.148438	-4.651172	-3.870703	-4.243359	-4.436719	-4.932422
0.04125	-4.542188	-5.0625	-4.236328	-4.630078	-4.858594	-5.368359
0.0415	-5.016797	-5.544141	-4.672266	-5.097656	-5.354297	-5.881641
0.04175	-5.291016	-5.800781	-4.914844	-5.336719	-5.646094	-6.169922
0.042	-5.262891	-5.751563	-4.886719	-5.276953	-5.642578	-6.138281
0.04225	-5.389453	-5.860547	-4.988672	-5.382422	-5.762109	-6.254297
0.0425	-5.684766	-6.124219	-5.245313	-5.639063	-6.032813	-6.539063
0.04275	-5.90625	-6.310547	-5.428125	-5.804297	-6.229688	-6.742969
0.043	-5.994141	-6.363281	-5.494922	-5.853516	-6.314063	-6.813281
0.04325	-5.895703	-6.233203	-5.389453	-5.730469	-6.219141	-6.686719
0.0435	-5.741016	-6.057422	-5.238281	-5.561719	-6.067969	-6.500391
0.04375	-5.684766	-5.987109	-5.182031	-5.494922	-6.011719	-6.416016
0.044	-5.663672	-5.955469	-5.157422	-5.466797	-5.987109	-6.373828
0.04425	-5.596875	-5.864063	-5.087109	-5.385938	-5.913281	-6.282422
0.0445	-5.473828	-5.723438	-4.967578	-5.248828	-5.786719	-6.134766
0.04475	-5.252344	-5.484375	-4.753125	-5.013281	-5.56875	-5.885156
0.045	-4.858594	-5.041406	-4.373438	-4.584375	-5.150391	-5.424609
0.04525	-4.187109	-4.282031	-3.726563	-3.860156	-4.440234	-4.633594
0.0455	-3.427734	-3.476953	-3.002344	-3.083203	-3.663281	-3.765234
0.04575	-2.889844	-2.921484	-2.499609	-2.555859	-3.107813	-3.153516
0.046	-2.482031	-2.499609	-2.126953	-2.169141	-2.675391	-2.685938
0.04625	-2.077734	-2.084766	-1.750781	-1.775391	-2.25	-2.228906
0.0465	-1.673438	-1.659375	-1.364063	-1.374609	-1.821094	-1.768359
0.04675	-1.29375	-1.251563	-1.0125	-0.9949219	-1.40625	-1.332422
0.047	-0.9	-0.8367188	-0.6539063	-0.6082031	-0.9808594	-0.8859375
0.04725	-0.5308594	-0.4464844	-0.309375	-0.2425781	-0.5765625	-0.4640625
0.0475	-0.2320313	-0.1546875	-0.03867188	0.02460938	-0.2707031	-0.140625
0.04775	0.4605469	0.5554688	0.5941406	0.7136719	0.4148438	0.6117188
0.048	1.483594	1.624219	1.546875	1.736719	1.451953	1.740234
0.04825	2.207813	2.369531	2.221875	2.439844	2.207813	2.552344
0.0485	2.798438	2.967188	2.763281	3.005859	2.826563	3.20625
0.04875	3.213281	3.367969	3.142969	3.385547	3.266016	3.663281
0.049	3.406641	3.540234	3.311719	3.540234	3.480469	3.877734
0.04925	3.691406	3.825	3.575391	3.810938	3.793359	4.187109
0.0495	4.071094	4.211719	3.923438	4.176563	4.190625	4.594922
0.04975	4.528125	4.679297	4.348828	4.619531	4.665234	5.097656
0.05	4.900781	5.048438	4.689844	4.964063	5.055469	5.508984
0.05025	4.946484	5.076563	4.721484	4.978125	5.125781	5.554688
0.0505	4.995703	5.108203	4.756641	5.00625	5.182031	5.593359
0.05075	5.241797	5.333203	4.967578	5.220703	5.414063	5.832422
0.051	5.484375	5.533594	5.164453	5.410547	5.628516	6.050391
0.05125	5.670703	5.688281	5.312109	5.551172	5.800781	6.205078
0.0515	5.649609	5.649609	5.283984	5.501953	5.786719	6.169922
0.05175	5.470313	5.445703	5.115234	5.308594	5.614453	5.980078
0.052	5.368359	5.322656	5.013281	5.192578	5.505469	5.857031
0.05225	5.361328	5.301563	4.992188	5.164453	5.487891	5.821875
0.0525	5.340234	5.262891	4.964063	5.129297	5.45625	5.776172
0.05275	5.245313	5.139844	4.872656	5.020313	5.350781	5.649609
0.053	5.041406	4.918359	4.682813	4.809375	5.146875	5.414063
0.05325	4.728516	4.573828	4.3875	4.471875	4.823438	5.041406
0.0535	4.1625	3.930469	3.835547	3.860156	4.222266	4.373438
0.05375	3.371484	3.079688	3.090234	3.048047	3.413672	3.469922
0.054	2.731641	2.411719	2.496094	2.41875	2.75625	2.745703
0.05425	2.292188	1.947656	2.077734	1.982813	2.285156	2.239453
0.0545	1.873828	1.51875	1.683984	1.575	1.842188	1.768359
0.05475	1.451953	1.086328	1.29375	1.167188	1.399219	1.286719
0.055	1.072266	0.6785156	0.9316406	0.7839844	0.984375	0.8472656
0.05525	0.7066406	0.28125	0.5871094	0.4113281	0.5765625	0.421875
0.0555	0.3128906	-0.1300781	0.2179688	0.0140625	0.1476563	-0.03164063
0.05575	-0.00703125	-0.45	-0.0703125	-0.2777344	-0.1828125	-0.3867188
0.056	-0.5238281	-0.9808594	-0.5484375	-0.7804688	-0.7066406	-0.9492188
0.05625	-1.497656	-2.000391	-1.458984	-1.761328	-1.691016	-2.021484
0.0565	-2.341406	-2.86875	-2.239453	-2.5875	-2.559375	-2.963672
0.05675	-2.963672	-3.498047	-2.808984	-3.178125	-3.202734	-3.652734
0.057	-3.476953	-4.011328	-3.280078	-3.659766	-3.747656	-4.21875
0.05725	-3.716016	-4.232813	-3.494531	-3.863672	-4.011328	-4.482422
0.0575	-3.955078	-4.464844	-3.7125	-4.078125	-4.267969	-4.742578
0.05775	-4.306641	-4.830469	-4.039453	-4.412109	-4.640625	-5.136328
0.058	-4.760156	-5.298047	-4.450781	-4.858594	-5.115234	-5.632031
0.05825	-5.213672	-5.748047	-4.865625	-5.291016	-5.579297	-6.113672
0.0585	-5.322656	-5.832422	-4.957031	-5.368359	-5.705859	-6.222656
0.05875	-5.294531	-5.783203	-4.918359	-5.312109	-5.688281	-6.183984
0.059	-5.505469	-5.976563	-5.097656	-5.494922	-5.888672	-6.384375
0.05925	-5.776172	-6.208594	-5.322656	-5.716406	-6.124219	-6.6375
0.0595	-5.9625	-6.35625	-5.480859	-5.857031	-6.292969	-6.802734
0.05975	-6.004688	-6.377344	-5.508984	-5.867578	-6.338672	-6.830859
0.06	-5.885156	-6.233203	-5.382422	-5.726953	-6.222656	-6.683203
0.06025	-5.758594	-6.078516	-5.252344	-5.579297	-6.089063	-6.514453
0.0605	-5.691797	-5.994141	-5.182031	-5.498438	-6.015234	-6.416016
0.06075	-5.674219	-5.969531	-5.157422	-5.470313	-5.994141	-6.380859
0.061	-5.632031	-5.909766	-5.108203	-5.414063	-5.941406	-6.314063
0.06125	-5.466797	-5.730469	-4.953516	-5.241797	-5.783203	-6.134766
0.0615	-5.189063	-5.424609	-4.689844	-4.95	-5.508984	-5.821875
0.06175	-4.735547	-4.904297	-4.250391	-4.450781	-5.027344	-5.283984
0.062	-3.99375	-4.092188	-3.54375	-3.670313	-4.260938	-4.429688
0.06225	-3.251953	-3.315234	-2.851172	-2.932031	-3.505078	-3.596484
0.0625	-2.759766	-2.794922	-2.394141	-2.453906	-2.98125	-3.023438
0.06275	-2.3625	-2.387109	-2.032031	-2.077734	-2.562891	-2.569922
0.063	-1.958203	-1.979297	-1.659375	-1.6875	-2.141016	-2.119922
0.06325	-1.553906	-1.550391	-1.276172	-1.279688	-1.708594	-1.655859
0.0635	-1.18125	-1.153125	-0.9210938	-0.9070313	-1.300781	-1.226953
0.06375	-0.7875	-0.7277344	-0.5519531	-0.5097656	-0.8683594	-0.7699219
0.064	-0.4359375	-0.365625	-0.2320313	-0.1722656	-0.4921875	-0.3796875
0.06425	-0.05273438	0.01054688	0.1160156	0.1863281	-0.1019531	0.03515625
0.0645	0.8015625	0.9070313	0.9140625	1.047656	0.7558594	0.9773438
0.06475	1.757813	1.901953	1.803516	2.000391	1.729688	2.035547
0.065	2.397656	2.545313	2.390625	2.612109	2.397656	2.745703
0.06525	2.946094	3.09375	2.893359	3.128906	2.974219	3.350391
0.0655	3.283594	3.420703	3.199219	3.434766	3.339844	3.723047
0.06575	3.515625	3.652734	3.406641	3.638672	3.607031	3.983203
0.066	3.849609	3.990234	3.716016	3.958594	3.962109	4.345313
0.06625	4.257422	4.398047	4.092188	4.345313	4.380469	4.78125
0.0665	4.742578	4.890234	4.535156	4.809375	4.879688	5.322656
0.06675	5.009766	5.150391	4.770703	5.048438	5.167969	5.617969
0.067	4.978125	5.090625	4.739063	4.988672	5.160938	5.575781
0.06725	5.090625	5.182031	4.830469	5.076563	5.276953	5.68125
0.0675	5.368359	5.435156	5.066016	5.315625	5.540625	5.951953
0.06775	5.600391	5.628516	5.259375	5.498438	5.751563	6.159375
0.068	5.68125	5.68125	5.322656	5.551172	5.828906	6.222656
0.06825	5.572266	5.547656	5.217188	5.421094	5.726953	6.099609
0.0685	5.431641	5.382422	5.080078	5.255859	5.589844	5.941406
0.06875	5.361328	5.2875	4.999219	5.164453	5.508984	5.842969
0.069	5.340234	5.248828	4.971094	5.132813	5.477344	5.79375
0.06925	5.315625	5.206641	4.939453	5.094141	5.438672	5.744531
0.0695	5.206641	5.076563	4.830469	4.964063	5.322656	5.600391
0.06975	4.971094	4.830469	4.6125	4.725	5.090625	5.329688
0.07	4.584375	4.3875	4.236328	4.303125	4.682813	4.865625
0.07025	3.923438	3.652734	3.596484	3.596484	3.990234	4.095703
0.0705	3.199219	2.886328	2.914453	2.865234	3.244922	3.269531
0.07075	2.689453	2.348438	2.432813	2.355469	2.714063	2.678906
0.071	2.288672	1.916016	2.053125	1.951172	2.278125	2.211328
0.07125	1.866797	1.487109	1.655859	1.543359	1.838672	1.740234
0.0715	1.40625	1.008984	1.219922	1.086328	1.353516	1.219922
0.07175	0.984375	0.5519531	0.8226563	0.6574219	0.8929688	0.7347656
0.072	0.6011719	0.1441406	0.4640625	0.2742188	0.4710938	0.2882813
0.07225	0.2109375	-0.2566406	0.0984375	-0.1054688	0.04921875	-0.1546875
0.0725	-0.1125	-0.5800781	-0.1933594	-0.4078125	-0.2847656	-0.5167969
0.07275	-0.7734375	-1.255078	-0.7980469	-1.054688	-0.9457031	-1.233984
0.073	-1.750781	-2.267578	-1.712109	-2.032031	-1.937109	-2.309766
0.07325	-2.471484	-3.012891	-2.383594	-2.731641	-2.689453	-3.114844
0.0735	-3.069141	-3.621094	-2.928516	-3.297656	-3.308203	-3.779297
0.07375	-3.491016	-4.025391	-3.308203	-3.680859	-3.751172	-4.236328
0.074	-3.694922	-4.208203	-3.4875	-3.846094	-3.972656	-4.450781
0.07425	-4.004297	-4.528125	-3.76875	-4.137891	-4.303125	-4.791797
0.0745	-4.373438	-4.914844	-4.109766	-4.492969	-4.703906	-5.206641
0.07475	-4.816406	-5.364844	-4.514063	-4.925391	-5.167969	-5.684766
0.075	-5.203125	-5.744531	-4.865625	-5.294531	-5.56875	-6.096094
0.07525	-5.266406	-5.786719	-4.918359	-5.326172	-5.653125	-6.162891
0.0755	-5.294531	-5.797266	-4.939453	-5.333203	-5.691797	-6.183984
0.07575	-5.523047	-5.997656	-5.136328	-5.530078	-5.902734	-6.401953
0.076	-5.776172	-6.215625	-5.347266	-5.7375	-6.127734	-6.644531
0.07625	-5.927344	-6.338672	-5.470313	-5.85	-6.268359	-6.785156
0.0765	-5.878125	-6.264844	-5.417578	-5.776172	-6.226172	-6.718359
0.07675	-5.712891	-6.078516	-5.255859	-5.596875	-6.064453	-6.521484
0.077	-5.603906	-5.944922	-5.146875	-5.466797	-5.955469	-6.373828
0.07725	-5.56875	-5.895703	-5.108203	-5.421094	-5.920313	-6.317578
0.0775	-5.547656	-5.864063	-5.083594	-5.396484	-5.895703	-6.285938
0.07775	-5.466797	-5.762109	-5.002734	-5.301563	-5.811328	-6.1875
0.078	-5.269922	-5.551172	-4.816406	-5.094141	-5.617969	-5.973047
0.07825	-4.953516	-5.199609	-4.514063	-4.756641	-5.294531	-5.607422
0.0785	-4.391016	-4.559766	-3.972656	-4.144922	-4.700391	-4.942969
0.07875	-3.6	-3.705469	-3.223828	-3.325781	-3.888281	-4.039453
0.079	-2.935547	-3.005859	-2.598047	-2.664844	-3.202734	-3.280078
0.07925	-2.499609	-2.548828	-2.19375	-2.242969	-2.728125	-2.766797
0.0795	-2.133984	-2.183203	-1.852734	-1.894922	-2.341406	-2.355469
0.07975	-1.708594	-1.740234	-1.451953	-1.473047	-1.894922	-1.880859
0.08	-1.276172	-1.276172	-1.044141	-1.033594	-1.423828	-1.378125
0.08025	-0.9105469	-0.8824219	-0.703125	-0.6644531	-1.016016	-0.9492188
0.0805	-0.5238281	-0.4746094	-0.3375	-0.2777344	-0.5976563	-0.50625
0.08075	-0.2003906	-0.1476563	-0.0421875	0.028125	-0.253125	-0.1441406
0.081	0.3164063	0.3832031	0.4253906	0.534375	0.2636719	0.4183594
0.08125	1.279688	1.381641	1.328906	1.501172	1.233984	1.480078
0.0815	2.088281	2.211328	2.08125	2.295703	2.070703	2.387109
0.08175	2.703516	2.837109	2.650781	2.882813	2.714063	3.069141
0.082	3.227344	3.360938	3.135938	3.375	3.266016	3.649219
0.08225	3.452344	3.571875	3.339844	3.571875	3.522656	3.905859
0.0825	3.694922	3.810938	3.557813	3.793359	3.789844	4.166016
0.08275	4.060547	4.183594	3.891797	4.141406	4.176563	4.559766
0.083	4.489453	4.616016	4.285547	4.549219	4.619531	5.030859
0.08325	4.921875	5.051953	4.686328	4.964063	5.066016	5.508984
0.0835	5.0625	5.175	4.805859	5.073047	5.23125	5.663672
0.08375	5.058984	5.150391	4.795313	5.044922	5.245313	5.649609
0.084	5.269922	5.34375	4.971094	5.23125	5.449219	5.853516
0.08425	5.547656	5.589844	5.203125	5.463281	5.705859	6.110156
0.0845	5.7375	5.741016	5.354297	5.600391	5.878125	6.268359
0.08475	5.758594	5.7375	5.364844	5.589844	5.899219	6.271875
0.085	5.621484	5.56875	5.227734	5.428125	5.765625	6.110156
0.08525	5.484375	5.407031	5.090625	5.273438	5.621484	5.951953
0.0855	5.428125	5.333203	5.030859	5.203125	5.558203	5.874609
0.08575	5.417578	5.312109	5.016797	5.185547	5.540625	5.846484
0.086	5.375391	5.252344	4.971094	5.125781	5.491406	5.783203
0.08625	5.220703	5.083594	4.823438	4.964063	5.336719	5.600391
0.0865	4.939453	4.770703	4.552734	4.665234	5.044922	5.269922
0.08675	4.468359	4.232813	4.095703	4.148438	4.545703	4.703906
0.087	3.761719	3.459375	3.413672	3.396094	3.810938	3.88125
0.08725	3.062109	2.731641	2.75625	2.7	3.09375	3.090234
0.0875	2.573438	2.207813	2.295703	2.211328	2.569922	2.520703
0.08775	2.176172	1.789453	1.919531	1.817578	2.144531	2.067188
0.088	1.757813	1.374609	1.529297	1.416797	1.708594	1.599609
0.08825	1.332422	0.928125	1.132031	0.9949219	1.255078	1.114453
0.0885	0.9492188	0.50625	0.7628906	0.6011719	0.8296875	0.6644531
0.08875	0.5484375	0.0703125	0.3832031	0.1933594	0.3867188	0.196875
0.089	0.2109375	-0.2671875	0.07382813	-0.1265625	0.02460938	-0.1792969
0.08925	-0.1617188	-0.6398438	-0.2636719	-0.478125	-0.3515625	-0.5871094
0.0895	-1.030078	-1.546875	-1.065234	-1.35	-1.226953	-1.536328
0.08975	-1.975781	-2.53125	-1.951172	-2.292188	-2.197266	-2.5875
0.09	-2.633203	-3.199219	-2.555859	-2.925	-2.882813	-3.325781
0.09025	-3.223828	-3.796875	-3.097266	-3.483984	-3.501563	-3.979688
0.0905	-3.554297	-4.116797	-3.396094	-3.772266	-3.860156	-4.338281
0.09075	-3.758203	-4.303125	-3.575391	-3.944531	-4.081641	-4.55625
0.091	-4.081641	-4.633594	-3.874219	-4.250391	-4.422656	-4.918359
0.09125	-4.478906	-5.051953	-4.239844	-4.637109	-4.848047	-5.357813
0.0915	-4.964063	-5.540625	-4.679297	-5.104688	-5.347266	-5.874609
0.09175	-5.248828	-5.807813	-4.932422	-5.361328	-5.649609	-6.173438
0.092	-5.238281	-5.776172	-4.914844	-5.319141	-5.660156	-6.152344
0.09225	-5.357813	-5.881641	-5.013281	-5.417578	-5.776172	-6.268359
0.0925	-5.639063	-6.127734	-5.252344	-5.660156	-6.029297	-6.535547
0.09275	-5.864063	-6.314063	-5.435156	-5.832422	-6.229688	-6.742969
0.093	-5.958984	-6.380859	-5.5125	-5.888672	-6.324609	-6.820313
0.09325	-5.857031	-6.250781	-5.414063	-5.765625	-6.229688	-6.690234
0.0935	-5.709375	-6.078516	-5.266406	-5.603906	-6.082031	-6.514453
0.09375	-5.663672	-6.01875	-5.213672	-5.544141	-6.029297	-6.440625
0.094	-5.639063	-5.980078	-5.185547	-5.505469	-6.001172	-6.394922
0.09425	-5.575781	-5.895703	-5.122266	-5.428125	-5.934375	-6.307031
0.0945	-5.459766	-5.765625	-5.00625	-5.301563	-5.821875	-6.166406
0.09475	-5.241797	-5.530078	-4.791797	-5.069531	-5.607422	-5.923828
0.095	-4.858594	-5.094141	-4.422656	-4.651172	-5.203125	-5.473828
0.09525	-4.201172	-4.352344	-3.793359	-3.948047	-4.510547	-4.700391
0.0955	-3.448828	-3.554297	-3.076172	-3.178125	-3.740625	-3.846094
0.09575	-2.903906	-2.988281	-2.562891	-2.64375	-3.174609	-3.223828
0.096	-2.485547	-2.548828	-2.176172	-2.232422	-2.724609	-2.738672
0.09625	-2.074219	-2.133984	-1.8	-1.842188	-2.299219	-2.278125
0.0965	-1.676953	-1.729688	-1.427344	-1.455469	-1.884375	-1.835156
0.09675	-1.307813	-1.328906	-1.079297	-1.082813	-1.480078	-1.399219
0.097	-0.9140625	-0.9035156	-0.7101563	-0.6855469	-1.047656	-0.9421875
0.09725	-0.5449219	-0.5167969	-0.3691406	-0.3199219	-0.6503906	-0.5203125
0.0975	-0.2425781	-0.225	-0.0984375	-0.04921875	-0.3445313	-0.196875
0.09775	0.4394531	0.478125	0.5308594	0.6257813	0.3339844	0.5449219
0.098	1.444922	1.532813	1.469531	1.638281	1.353516	1.659375
0.09825	2.169141	2.278125	2.144531	2.348438	2.105859	2.475
0.0985	2.752734	2.861719	2.685938	2.900391	2.721094	3.121875
0.09875	3.167578	3.2625	3.062109	3.280078	3.164063	3.575391
0.099	3.360938	3.441797	3.237891	3.445313	3.389063	3.800391
0.09925	3.638672	3.716016	3.494531	3.705469	3.691406	4.10625
0.0995	4.011328	4.095703	3.839063	4.067578	4.085156	4.510547
0.09975	4.475391	4.570313	4.271484	4.514063	4.566797	5.020313
0.1	4.848047	4.939453	4.616016	4.862109	4.953516	5.431641
0.10025	4.886719	4.957031	4.644141	4.869141	5.016797	5.473828
0.1005	4.928906	4.981641	4.672266	4.890234	5.069531	5.508984
0.10075	5.164453	5.203125	4.876172	5.101172	5.294531	5.741016
0.101	5.4	5.4	5.069531	5.283984	5.501953	5.948438
0.10125	5.586328	5.558203	5.220703	5.428125	5.670703	6.110156
0.1015	5.565234	5.519531	5.192578	5.385938	5.653125	6.078516
0.10175	5.385938	5.308594	5.020313	5.185547	5.477344	5.871094
0.102	5.280469	5.182031	4.914844	5.0625	5.368359	5.733984
0.10225	5.269922	5.153906	4.890234	5.034375	5.350781	5.695313
0.1025	5.241797	5.111719	4.858594	4.995703	5.315625	5.646094
0.10275	5.139844	4.985156	4.763672	4.879688	5.203125	5.5125
0.103	4.939453	4.770703	4.580859	4.675781	5.00625	5.283984
0.10325	4.640625	4.436719	4.296094	4.355859	4.696875	4.928906
0.1035	4.081641	3.803906	3.751172	3.751172	4.10625	4.267969
0.10375	3.283594	2.946094	3.002344	2.932031	3.290625	3.360938
0.104	2.636719	2.267578	2.401172	2.285156	2.622656	2.622656
0.10425	2.204297	1.807031	1.989844	1.85625	2.155078	2.123438
0.1045	1.796484	1.388672	1.606641	1.458984	1.719141	1.662891
0.10475	1.371094	0.9597656	1.216406	1.051172	1.276172	1.188281
0.105	0.984375	0.5378906	0.8472656	0.6574219	0.8542969	0.7382813
0.10525	0.6082031	0.1335938	0.4921875	0.2777344	0.4429688	0.3058594
0.1055	0.2074219	-0.2847656	0.1160156	-0.1160156	0.01054688	-0.1476563
0.10575	-0.1019531	-0.5941406	-0.1617188	-0.4042969	-0.3164063	-0.4921875
0.106	-0.6046875	-1.103906	-0.61875	-0.8894531	-0.8226563	-1.033594
0.10625	-1.589063	-2.133984	-1.536328	-1.877344	-1.814063	-2.112891
0.1065	-2.443359	-3.019922	-2.330859	-2.717578	-2.692969	-3.069141
0.10675	-3.055078	-3.638672	-2.886328	-3.297656	-3.332813	-3.751172
0.107	-3.575391	-4.151953	-3.367969	-3.786328	-3.877734	-4.320703
0.10725	-3.817969	-4.369922	-3.585938	-3.990234	-4.144922	-4.580859
0.1075	-4.046484	-4.594922	-3.789844	-4.194141	-4.394531	-4.833984
0.10775	-4.405078	-4.971094	-4.120313	-4.542188	-4.78125	-5.234766
0.108	-4.851563	-5.428125	-4.528125	-4.981641	-5.248828	-5.723438
0.10825	-5.294531	-5.860547	-4.935938	-5.403516	-5.702344	-6.194531
0.1085	-5.403516	-5.941406	-5.030859	-5.484375	-5.832422	-6.307031
0.10875	-5.371875	-5.892188	-4.995703	-5.431641	-5.818359	-6.268359
0.109	-5.579297	-6.082031	-5.178516	-5.614453	-6.015234	-6.472266
0.10925	-5.846484	-6.314063	-5.403516	-5.832422	-6.261328	-6.728906
0.1095	-6.032813	-6.46875	-5.558203	-5.969531	-6.437109	-6.897656
0.10975	-6.078516	-6.493359	-5.582813	-5.983594	-6.482813	-6.929297
0.11	-5.955469	-6.345703	-5.459766	-5.842969	-6.366797	-6.785156
0.11025	-5.821875	-6.1875	-5.326172	-5.695313	-6.229688	-6.619922
0.1105	-5.762109	-6.110156	-5.262891	-5.621484	-6.155859	-6.532031
0.11075	-5.755078	-6.092578	-5.248828	-5.600391	-6.141797	-6.503906
0.111	-5.716406	-6.036328	-5.199609	-5.544141	-6.096094	-6.440625
0.11125	-5.558203	-5.867578	-5.044922	-5.371875	-5.941406	-6.257813
0.1115	-5.2875	-5.56875	-4.784766	-5.083594	-5.670703	-5.948438
0.11175	-4.833984	-5.048438	-4.341797	-4.584375	-5.185547	-5.410547
0.112	-4.095703	-4.239844	-3.635156	-3.807422	-4.422656	-4.559766
0.11225	-3.360938	-3.469922	-2.942578	-3.065625	-3.673828	-3.726563
0.1125	-2.865234	-2.949609	-2.482031	-2.583984	-3.146484	-3.153516
0.11275	-2.471484	-2.541797	-2.123438	-2.207813	-2.724609	-2.703516
0.113	-2.074219	-2.1375	-1.754297	-1.821094	-2.30625	-2.257031
0.11325	-1.669922	-1.708594	-1.371094	-1.413281	-1.873828	-1.792969
0.1135	-1.297266	-1.311328	-1.023047	-1.040625	-1.469531	-1.364063
0.11375	-0.9035156	-0.8894531	-0.6539063	-0.646875	-1.044141	-0.9140625
0.114	-0.5519531	-0.5308594	-0.3339844	-0.3128906	-0.6679688	-0.5238281
0.11425	-0.1792969	-0.1546875	0.003515625	0.03164063	-0.2917969	-0.1195313
0.1145	0.6785156	0.7382813	0.7980469	0.8929688	0.5660156	0.8226563
0.11475	1.652344	1.750781	1.701563	1.863281	1.557422	1.901953
0.115	2.288672	2.397656	2.288672	2.471484	2.225391	2.612109
0.11525	2.840625	2.949609	2.798438	2.991797	2.808984	3.220313
0.1155	3.185156	3.287109	3.107813	3.304688	3.181641	3.6
0.11575	3.410156	3.508594	3.308203	3.501563	3.43125	3.853125
0.116	3.733594	3.832031	3.603516	3.810938	3.775781	4.204688
0.11625	4.134375	4.236328	3.976172	4.194141	4.194141	4.637109
0.1165	4.616016	4.728516	4.419141	4.658203	4.693359	5.164453
0.11675	4.886719	4.985156	4.661719	4.897266	4.981641	5.459766
0.117	4.848047	4.918359	4.626563	4.830469	4.964063	5.410547
0.11725	4.957031	5.009766	4.714453	4.918359	5.076563	5.5125
0.1175	5.252344	5.280469	4.967578	5.178516	5.354297	5.804297
0.11775	5.494922	5.480859	5.167969	5.368359	5.572266	6.022266
0.118	5.579297	5.530078	5.234766	5.417578	5.649609	6.082031
0.11825	5.470313	5.396484	5.125781	5.283984	5.551172	5.951953
0.1185	5.322656	5.23125	4.985156	5.122266	5.410547	5.783203
0.11875	5.248828	5.136328	4.904297	5.034375	5.329688	5.674219
0.119	5.217188	5.090625	4.876172	4.992188	5.291016	5.621484
0.11925	5.196094	5.051953	4.851563	4.957031	5.262891	5.575781
0.1195	5.136328	4.974609	4.784766	4.883203	5.196094	5.487891
0.11975	4.95	4.774219	4.608984	4.693359	5.009766	5.269922
0.12	4.577344	4.345313	4.243359	4.282031	4.6125	4.819922
0.12025	3.905859	3.592969	3.592969	3.557813	3.909375	4.035938
0.1205	3.090234	2.724609	2.819531	2.721094	3.076172	3.107813
0.12075	2.475	2.077734	2.242969	2.105859	2.432813	2.408203
0.121	2.067188	1.652344	1.85625	1.705078	1.986328	1.933594
0.12125	1.683984	1.269141	1.490625	1.335938	1.582031	1.497656
0.1215	1.276172	0.84375	1.107422	0.9316406	1.149609	1.033594
0.12175	0.9140625	0.45	0.7628906	0.5589844	0.7453125	0.6117188
0.122	0.5378906	0.04921875	0.4042969	0.1828125	0.3375	0.1792969
0.12225	0.1300781	-0.3726563	0.02460938	-0.2179688	-0.08789063	-0.2777344
0.1225	-0.16875	-0.6609375	-0.2390625	-0.4851563	-0.39375	-0.5976563
0.12275	-0.7945313	-1.300781	-0.815625	-1.107422	-1.019531	-1.276172
0.123	-1.814063	-2.3625	-1.764844	-2.126953	-2.053125	-2.401172
0.12325	-2.552344	-3.125391	-2.443359	-2.840625	-2.823047	-3.230859
0.1235	-3.142969	-3.719531	-2.988281	-3.403125	-3.441797	-3.884766
0.12375	-3.571875	-4.134375	-3.389063	-3.803906	-3.898828	-4.355859
0.124	-3.779297	-4.324219	-3.568359	-3.972656	-4.130859	-4.580859
0.12425	-4.085156	-4.637109	-3.853125	-4.257422	-4.461328	-4.921875
0.1245	-4.44375	-5.013281	-4.183594	-4.608984	-4.851563	-5.329688
0.12475	-4.890234	-5.459766	-4.584375	-5.044922	-5.308594	-5.807813
0.125	-5.283984	-5.842969	-4.935938	-5.410547	-5.712891	-6.222656
0.12525	-5.322656	-5.860547	-4.967578	-5.414063	-5.776172	-6.261328
0.1255	-5.340234	-5.857031	-4.974609	-5.407031	-5.800781	-6.268359
0.12575	-5.603906	-6.096094	-5.199609	-5.642578	-6.039844	-6.528516
0.126	-5.871094	-6.331641	-5.428125	-5.867578	-6.289453	-6.785156
0.12625	-6.01875	-6.451172	-5.547656	-5.969531	-6.433594	-6.91875
0.1265	-5.983594	-6.387891	-5.498438	-5.902734	-6.398438	-6.866016
0.12675	-5.832422	-6.205078	-5.350781	-5.730469	-6.24375	-6.679688
0.127	-5.719922	-6.067969	-5.234766	-5.600391	-6.120703	-6.525
0.12725	-5.688281	-6.022266	-5.192578	-5.551172	-6.078516	-6.461719
0.1275	-5.670703	-5.990625	-5.167969	-5.516016	-6.050391	-6.419531
0.12775	-5.596875	-5.899219	-5.087109	-5.424609	-5.966016	-6.317578
0.128	-5.410547	-5.695313	-4.907813	-5.224219	-5.783203	-6.106641
0.12825	-5.101172	-5.347266	-4.605469	-4.886719	-5.466797	-5.751563
0.1285	-4.542188	-4.714453	-4.067578	-4.282031	-4.876172	-5.094141
0.12875	-3.747656	-3.856641	-3.31875	-3.462891	-4.060547	-4.190625
0.129	-3.076172	-3.153516	-2.689453	-2.794922	-3.371484	-3.43125
0.12925	-2.647266	-2.707031	-2.292188	-2.376563	-2.907422	-2.932031
0.1295	-2.278125	-2.330859	-1.947656	-2.025	-2.513672	-2.510156
0.12975	-1.842188	-1.873828	-1.529297	-1.582031	-2.056641	-2.021484
0.13	-1.409766	-1.413281	-1.125	-1.146094	-1.599609	-1.525781
0.13025	-1.047656	-1.023047	-0.7875	-0.7875	-1.195313	-1.100391
0.1305	-0.6609375	-0.6117188	-0.421875	-0.4007813	-0.7699219	-0.6539063
0.13075	-0.3445313	-0.2917969	-0.1371094	-0.1019531	-0.4359375	-0.2988281
0.131	0.1476563	0.2039063	0.3128906	0.3726563	0.05625	0.2390625
0.13125	1.103906	1.198828	1.209375	1.339453	1.023047	1.290234
0.1315	1.940625	2.063672	1.989844	2.165625	1.891406	2.225391
0.13175	2.573438	2.703516	2.573438	2.773828	2.555859	2.932031
0.132	3.09375	3.220313	3.055078	3.258984	3.104297	3.505078
0.13225	3.311719	3.420703	3.251953	3.441797	3.350391	3.747656
0.1325	3.554297	3.659766	3.466406	3.663281	3.614063	4.007813
0.13275	3.923438	4.039453	3.803906	4.014844	4.007813	4.408594
0.133	4.355859	4.478906	4.201172	4.429688	4.461328	4.879688
0.13325	4.795313	4.918359	4.601953	4.844531	4.914844	5.361328
0.1335	4.942969	5.048438	4.735547	4.964063	5.083594	5.526563
0.13375	4.932422	5.020313	4.714453	4.928906	5.090625	5.505469
0.134	5.139844	5.217188	4.890234	5.111719	5.294531	5.709375
0.13425	5.424609	5.470313	5.129297	5.350781	5.551172	5.976563
0.1345	5.625	5.635547	5.2875	5.498438	5.730469	6.145313
0.13475	5.656641	5.642578	5.305078	5.494922	5.762109	6.159375
0.135	5.508984	5.473828	5.164453	5.329688	5.617969	5.997656
0.13525	5.385938	5.326172	5.041406	5.189063	5.491406	5.85
0.1355	5.354297	5.276953	5.002734	5.139844	5.449219	5.79375
0.13575	5.336719	5.245313	4.974609	5.104688	5.421094	5.751563
0.136	5.283984	5.175	4.914844	5.037891	5.357813	5.670703
0.13625	5.146875	5.013281	4.777734	4.883203	5.213672	5.501953
0.1365	4.869141	4.710938	4.517578	4.594922	4.932422	5.178516
0.13675	4.412109	4.187109	4.067578	4.092188	4.440234	4.626563
0.137	3.7125	3.424219	3.396094	3.353906	3.7125	3.817969
0.13725	2.998828	2.678906	2.728125	2.64375	2.988281	3.012891
0.1375	2.503125	2.151563	2.264063	2.151563	2.457422	2.436328
0.13775	2.105859	1.736719	1.891406	1.764844	2.032031	1.986328
0.138	1.6875	1.325391	1.511719	1.371094	1.603125	1.529297
0.13825	1.269141	0.8824219	1.121484	0.9527344	1.156641	1.047656
0.1385	0.8789063	0.45	0.7558594	0.5589844	0.7277344	0.5941406
0.13875	0.4746094	0.01757813	0.3726563	0.1511719	0.2847656	0.1265625
0.139	0.140625	-0.3128906	0.06679688	-0.1652344	-0.06328125	-0.2425781
0.13925	-0.2109375	-0.6574219	-0.2460938	-0.4921875	-0.4183594	-0.61875
0.1395	-1.061719	-1.546875	-1.033594	-1.346484	-1.272656	-1.550391
0.13975	-2.035547	-2.562891	-1.944141	-2.316797	-2.267578	-2.633203
0.14	-2.7	-3.241406	-2.559375	-2.956641	-2.963672	-3.378516
0.14025	-3.287109	-3.828516	-3.090234	-3.508594	-3.571875	-4.021875
0.1405	-3.621094	-4.148438	-3.392578	-3.800391	-3.926953	-4.391016
0.14075	-3.825	-4.334766	-3.575391	-3.972656	-4.148438	-4.6125
0.141	-4.134375	-4.651172	-3.863672	-4.264453	-4.475391	-4.960547
0.14125	-4.517578	-5.051953	-4.215234	-4.640625	-4.883203	-5.389453
0.1415	-4.995703	-5.537109	-4.658203	-5.111719	-5.382422	-5.909766
0.14175	-5.273438	-5.800781	-4.911328	-5.364844	-5.68125	-6.205078
0.142	-5.245313	-5.748047	-4.876172	-5.308594	-5.677734	-6.173438
0.14225	-5.361328	-5.846484	-4.974609	-5.403516	-5.79375	-6.285938
0.1425	-5.653125	-6.106641	-5.227734	-5.656641	-6.053906	-6.567188
0.14275	-5.871094	-6.289453	-5.414063	-5.832422	-6.254297	-6.774609
0.143	-5.969531	-6.363281	-5.487891	-5.892188	-6.349219	-6.851953
0.14325	-5.874609	-6.236719	-5.385938	-5.769141	-6.254297	-6.728906
0.1435	-5.719922	-6.053906	-5.227734	-5.596875	-6.096094	-6.539063
0.14375	-5.656641	-5.976563	-5.164453	-5.519531	-6.029297	-6.447656
0.144	-5.625	-5.923828	-5.122266	-5.470313	-5.987109	-6.384375
0.14425	-5.558203	-5.835938	-5.058984	-5.392969	-5.916797	-6.296484
0.1445	-5.449219	-5.709375	-4.953516	-5.276953	-5.807813	-6.166406
0.14475	-5.23125	-5.477344	-4.742578	-5.048438	-5.600391	-5.923828
0.145	-4.851563	-5.044922	-4.376953	-4.633594	-5.203125	-5.473828
0.14525	-4.204688	-4.313672	-3.751172	-3.9375	-4.521094	-4.707422
0.1455	-3.441797	-3.505078	-3.023438	-3.157031	-3.744141	-3.839063
0.14575	-2.86875	-2.910938	-2.489063	-2.594531	-3.146484	-3.185156
0.146	-2.453906	-2.475	-2.098828	-2.186719	-2.696484	-2.7
0.14625	-2.060156	-2.074219	-1.733203	-1.807031	-2.281641	-2.257031
0.1465	-1.659375	-1.659375	-1.353516	-1.409766	-1.85625	-1.796484
0.14675	-1.279688	-1.251563	-0.9949219	-1.019531	-1.434375	-1.35
0.147	-0.8964844	-0.8402344	-0.6363281	-0.6363281	-1.008984	-0.9035156
0.14725	-0.534375	-0.4570313	-0.2953125	-0.2777344	-0.6082031	-0.4851563
0.1475	-0.2390625	-0.1722656	-0.028125	-0.00703125	-0.3058594	-0.1617188
0.14775	0.4289063	0.5203125	0.5871094	0.6539063	0.3621094	0.5660156
0.148	1.441406	1.582031	1.532813	1.673438	1.392188	1.691016
0.14825	2.169141	2.327344	2.207813	2.380078	2.151563	2.499609
0.1485	2.75625	2.914453	2.742188	2.932031	2.759766	3.142969
0.14875	3.202734	3.350391	3.146484	3.339844	3.227344	3.628125
0.149	3.399609	3.529688	3.322266	3.501563	3.448828	3.849609
0.14925	3.673828	3.803906	3.571875	3.758203	3.747656	4.144922
0.1495	4.064063	4.201172	3.930469	4.130859	4.155469	4.563281
0.14975	4.524609	4.66875	4.352344	4.577344	4.630078	5.066016
0.15	4.890234	5.030859	4.689844	4.921875	5.013281	5.473828
0.15025	4.946484	5.069531	4.728516	4.942969	5.090625	5.530078
0.1505	4.995703	5.097656	4.760156	4.964063	5.143359	5.565234
0.15075	5.238281	5.319141	4.964063	5.175	5.371875	5.800781
0.151	5.487891	5.530078	5.167969	5.371875	5.593359	6.025781
0.15125	5.68125	5.695313	5.326172	5.523047	5.769141	6.194531
0.1515	5.660156	5.653125	5.298047	5.477344	5.758594	6.162891
0.15175	5.480859	5.445703	5.129297	5.276953	5.582813	5.9625
0.152	5.375391	5.315625	5.020313	5.153906	5.470313	5.828906
0.15225	5.350781	5.280469	4.992188	5.122266	5.445703	5.786719
0.1525	5.315625	5.23125	4.957031	5.080078	5.403516	5.733984
0.15275	5.220703	5.108203	4.869141	4.974609	5.298047	5.607422
0.153	5.027344	4.897266	4.693359	4.774219	5.108203	5.382422
0.15325	4.725	4.566797	4.408594	4.457813	4.802344	5.034375
0.1535	4.180078	3.941016	3.874219	3.860156	4.21875	4.3875
0.15375	3.392578	3.090234	3.128906	3.051563	3.410156	3.483984
0.154	2.738672	2.408203	2.520703	2.404688	2.742188	2.742188
0.15425	2.302734	1.944141	2.105859	1.96875	2.271094	2.239453
0.1545	1.894922	1.522266	1.722656	1.571484	1.838672	1.778906
0.15475	1.4625	1.082813	1.325391	1.156641	1.388672	1.29375
0.155	1.065234	0.6539063	0.9527344	0.7558594	0.9597656	0.8367188
0.15525	0.6996094	0.2601563	0.6046875	0.3867188	0.5589844	0.4113281
0.1555	0.3058594	-0.1546875	0.2320313	-0.00703125	0.1265625	-0.0421875
0.15575	-0.003515625	-0.4710938	-0.05273438	-0.2988281	-0.2003906	-0.39375
0.156	-0.4816406	-0.95625	-0.4851563	-0.759375	-0.675	-0.9070313
0.15625	-1.455469	-1.96875	-1.388672	-1.733203	-1.652344	-1.972266
0.1565	-2.323828	-2.86875	-2.200781	-2.5875	-2.545313	-2.939063
0.15675	-2.939063	-3.494531	-2.759766	-3.174609	-3.188672	-3.624609
0.157	-3.480469	-4.035938	-3.251953	-3.684375	-3.751172	-4.21875
0.15725	-3.733594	-4.264453	-3.483984	-3.898828	-4.028906	-4.492969
0.1575	-3.955078	-4.478906	-3.687891	-4.099219	-4.267969	-4.739063
0.15775	-4.313672	-4.851563	-4.018359	-4.44375	-4.651172	-5.139844
0.158	-4.756641	-5.308594	-4.419141	-4.876172	-5.11875	-5.625
0.15825	-5.192578	-5.744531	-4.816406	-5.294531	-5.572266	-6.092578
0.1585	-5.312109	-5.835938	-4.925391	-5.382422	-5.712891	-6.219141
0.15875	-5.2875	-5.79375	-4.897266	-5.336719	-5.705859	-6.191016
0.159	-5.498438	-5.983594	-5.073047	-5.519531	-5.90625	-6.391406
0.15925	-5.762109	-6.212109	-5.301563	-5.744531	-6.148828	-6.648047
0.1595	-5.948438	-6.363281	-5.459766	-5.881641	-6.328125	-6.823828
0.15975	-6.008203	-6.401953	-5.498438	-5.909766	-6.391406	-6.869531
0.16	-5.885156	-6.254297	-5.375391	-5.769141	-6.271875	-6.725391
0.16025	-5.751563	-6.092578	-5.238281	-5.610938	-6.13125	-6.549609
0.1605	-5.698828	-6.025781	-5.178516	-5.544141	-6.067969	-6.472266
0.16075	-5.688281	-6.001172	-5.160938	-5.523047	-6.046875	-6.440625
0.161	-5.642578	-5.937891	-5.111719	-5.459766	-5.994141	-6.366797
0.16125	-5.491406	-5.769141	-4.960547	-5.294531	-5.842969	-6.194531
0.1615	-5.23125	-5.487891	-4.710938	-5.023828	-5.586328	-5.902734
0.16175	-4.791797	-4.985156	-4.285547	-4.538672	-5.11875	-5.378906
0.162	-4.064063	-4.183594	-3.589453	-3.772266	-4.359375	-4.538672
0.16225	-3.329297	-3.410156	-2.900391	-3.033984	-3.607031	-3.708984
0.1625	-2.823047	-2.879297	-2.432813	-2.541797	-3.069141	-3.118359
0.16275	-2.411719	-2.453906	-2.053125	-2.144531	-2.629688	-2.64375
0.163	-2.007422	-2.046094	-1.680469	-1.754297	-2.207813	-2.19375
0.16325	-1.610156	-1.627734	-1.304297	-1.357031	-1.785938	-1.74375
0.1635	-1.244531	-1.233984	-0.9597656	-0.9878906	-1.385156	-1.314844
0.16375	-0.8507813	-0.8121094	-0.590625	-0.5941406	-0.9597656	-0.8613281
0.164	-0.5097656	-0.4605469	-0.2742188	-0.2601563	-0.590625	-0.4746094
0.16425	-0.1546875	-0.1089844	0.04570313	0.06679688	-0.2390625	-0.09492188
0.1645	0.6890625	0.7699219	0.8296875	0.9175781	0.6046875	0.8261719
0.16475	1.662891	1.785938	1.736719	1.891406	1.599609	1.9125
0.165	2.288672	2.422266	2.316797	2.489063	2.257031	2.612109
0.16525	2.858203	2.988281	2.837109	3.026953	2.851172	3.234375
0.1655	3.220313	3.343359	3.171094	3.353906	3.244922	3.638672
0.16575	3.434766	3.554297	3.360938	3.54375	3.4875	3.877734
0.166	3.758203	3.88125	3.65625	3.853125	3.828516	4.225781
0.16625	4.158984	4.282031	4.028906	4.236328	4.243359	4.654688
0.1665	4.637109	4.767188	4.461328	4.689844	4.739063	5.178516
0.16675	4.907813	5.027344	4.707422	4.935938	5.034375	5.480859
0.167	4.865625	4.960547	4.672266	4.865625	5.016797	5.435156
0.16725	4.971094	5.048438	4.760156	4.95	5.122266	5.533594
0.1675	5.266406	5.319141	5.00625	5.206641	5.396484	5.825391
0.16775	5.494922	5.5125	5.196094	5.389453	5.603906	6.032813
0.168	5.586328	5.56875	5.266406	5.442188	5.688281	6.096094
0.16825	5.508984	5.463281	5.185547	5.340234	5.617969	6.001172
0.1685	5.392969	5.329688	5.069531	5.210156	5.505469	5.867578
0.16875	5.340234	5.262891	5.016797	5.146875	5.449219	5.797266
0.169	5.319141	5.220703	4.992188	5.108203	5.417578	5.748047
0.16925	5.273438	5.153906	4.939453	5.048438	5.364844	5.68125
0.1695	5.129297	4.985156	4.798828	4.886719	5.210156	5.498438
0.16975	4.862109	4.700391	4.549219	4.6125	4.942969	5.189063
0.17	4.489453	4.278516	4.194141	4.208203	4.552734	4.746094
0.17025	3.856641	3.571875	3.578906	3.529688	3.888281	4.004297
0.1705	3.076172	2.738672	2.844141	2.738672	3.090234	3.114844
0.17075	2.506641	2.133984	2.30625	2.165625	2.485547	2.453906
0.171	2.098828	1.705078	1.923047	1.764844	2.049609	1.986328
0.17125	1.698047	1.307813	1.550391	1.385156	1.634766	1.539844
0.1715	1.286719	0.8824219	1.163672	0.984375	1.198828	1.075781
0.17175	0.9105469	0.4710938	0.8121094	0.6011719	0.7839844	0.6398438
0.172	0.5238281	0.04921875	0.4464844	0.2074219	0.3585938	0.1863281
0.17225	0.1195313	-0.3691406	0.06679688	-0.1898438	-0.06679688	-0.2707031
0.1725	-0.1863281	-0.6714844	-0.2074219	-0.4710938	-0.3832031	-0.6046875
0.17275	-0.8121094	-1.311328	-0.7839844	-1.089844	-1.008984	-1.283203
0.173	-1.796484	-2.334375	-1.701563	-2.070703	-2.003906	-2.3625
0.17325	-2.541797	-3.104297	-2.387109	-2.791406	-2.773828	-3.188672
0.1735	-3.153516	-3.723047	-2.953125	-3.378516	-3.413672	-3.870703
0.17375	-3.592969	-4.148438	-3.353906	-3.782813	-3.88125	-4.348828
0.174	-3.803906	-4.341797	-3.54375	-3.958594	-4.120313	-4.580859
0.17425	-4.10625	-4.654688	-3.821484	-4.243359	-4.454297	-4.925391
0.1745	-4.464844	-5.030859	-4.151953	-4.591406	-4.844531	-5.333203
0.17475	-4.904297	-5.473828	-4.55625	-5.023828	-5.301563	-5.807813
0.175	-5.294531	-5.853516	-4.911328	-5.396484	-5.705859	-6.226172
0.17525	-5.364844	-5.899219	-4.967578	-5.431641	-5.79375	-6.296484
0.1755	-5.396484	-5.909766	-4.988672	-5.438672	-5.835938	-6.321094
0.17575	-5.632031	-6.124219	-5.192578	-5.646094	-6.053906	-6.553125
0.176	-5.881641	-6.345703	-5.4	-5.85	-6.285938	-6.792188
0.17625	-6.036328	-6.475781	-5.526563	-5.958984	-6.437109	-6.936328
0.1765	-6.001172	-6.4125	-5.484375	-5.895703	-6.405469	-6.883594
0.17675	-5.842969	-6.222656	-5.329688	-5.723438	-6.247266	-6.690234
0.177	-5.741016	-6.099609	-5.227734	-5.607422	-6.134766	-6.553125
0.17725	-5.709375	-6.050391	-5.189063	-5.558203	-6.096094	-6.496875
0.1775	-5.688281	-6.01875	-5.160938	-5.526563	-6.067969	-6.454688
0.17775	-5.621484	-5.930859	-5.090625	-5.442188	-5.997656	-6.359766
0.178	-5.431641	-5.726953	-4.904297	-5.241797	-5.811328	-6.145313
0.17825	-5.11875	-5.378906	-4.598438	-4.900781	-5.491406	-5.786719
0.1785	-4.570313	-4.756641	-4.067578	-4.303125	-4.907813	-5.139844
0.17875	-3.789844	-3.912891	-3.325781	-3.491016	-4.099219	-4.243359
0.179	-3.121875	-3.213281	-2.7	-2.826563	-3.417188	-3.4875
0.17925	-2.689453	-2.759766	-2.299219	-2.408203	-2.956641	-2.984766
0.1795	-2.313281	-2.373047	-1.954688	-2.049609	-2.559375	-2.555859
0.17975	-1.877344	-1.923047	-1.546875	-1.620703	-2.105859	-2.070703
0.18	-1.455469	-1.466016	-1.146094	-1.188281	-1.648828	-1.578516
0.18025	-1.089844	-1.06875	-0.8050781	-0.8226563	-1.244531	-1.153125
0.1805	-0.703125	-0.6644531	-0.4429688	-0.4429688	-0.8261719	-0.7101563
0.18075	-0.3761719	-0.3339844	-0.1476563	-0.1300781	-0.478125	-0.3480469
0.181	0.1125	0.1652344	0.3023438	0.3445313	0.0140625	0.1863281
0.18125	1.040625	1.132031	1.174219	1.279688	0.9492188	1.202344
0.1815	1.873828	1.989844	1.954688	2.102344	1.810547	2.133984
0.18175	2.503125	2.626172	2.538281	2.707031	2.475	2.837109
0.182	3.023438	3.146484	3.009375	3.192188	3.019922	3.410156
0.18225	3.258984	3.364453	3.220313	3.396094	3.283594	3.677344
0.1825	3.491016	3.589453	3.43125	3.603516	3.54375	3.933984
0.18275	3.853125	3.958594	3.761719	3.948047	3.919922	4.324219
0.183	4.289063	4.401563	4.1625	4.366406	4.369922	4.791797
0.18325	4.728516	4.841016	4.566797	4.784766	4.826953	5.276953
0.1835	4.890234	4.988672	4.710938	4.918359	5.009766	5.452734
0.18375	4.89375	4.974609	4.703906	4.89375	5.030859	5.449219
0.184	5.090625	5.157422	4.869141	5.0625	5.220703	5.646094
0.18425	5.350781	5.389453	5.087109	5.276953	5.459766	5.892188
0.1845	5.551172	5.547656	5.248828	5.428125	5.639063	6.064453
0.18475	5.600391	5.565234	5.276953	5.442188	5.684766	6.089063
0.185	5.449219	5.389453	5.132813	5.273438	5.544141	5.920313
0.18525	5.308594	5.224219	4.995703	5.11875	5.403516	5.751563
0.1855	5.266406	5.164453	4.95	5.0625	5.354297	5.68125
0.18575	5.255859	5.139844	4.932422	5.041406	5.336719	5.649609
0.186	5.213672	5.076563	4.886719	4.981641	5.2875	5.579297
0.18625	5.069531	4.914844	4.749609	4.823438	5.139844	5.407031
0.1865	4.795313	4.619531	4.492969	4.538672	4.865625	5.090625
0.18675	4.352344	4.109766	4.067578	4.057031	4.394531	4.563281
0.187	3.663281	3.353906	3.403125	3.332813	3.677344	3.76875
0.18725	2.935547	2.594531	2.717578	2.605078	2.939063	2.946094
0.1875	2.429297	2.042578	2.239453	2.091797	2.394141	2.355469
0.18775	2.039063	1.638281	1.870313	1.708594	1.975781	1.9125
0.188	1.63125	1.2375	1.494141	1.321875	1.557422	1.4625
0.18825	1.209375	0.7875	1.093359	0.8964844	1.100391	0.9773438
0.1885	0.8226563	0.3585938	0.7277344	0.5027344	0.675	0.5203125
0.18875	0.4359375	-0.05625	0.3585938	0.1089844	0.2496094	0.07382813
0.189	0.0984375	-0.3972656	0.03867188	-0.2144531	-0.1089844	-0.3023438
0.18925	-0.2636719	-0.7558594	-0.2847656	-0.5554688	-0.478125	-0.6925781
0.1895	-1.093359	-1.613672	-1.047656	-1.381641	-1.307813	-1.592578
0.18975	-2.049609	-2.601563	-1.940625	-2.327344	-2.278125	-2.647266
0.19	-2.707031	-3.276563	-2.548828	-2.963672	-2.963672	-3.382031
0.19025	-3.308203	-3.877734	-3.097266	-3.529688	-3.585938	-4.042969
0.1905	-3.670313	-4.21875	-3.424219	-3.853125	-3.972656	-4.433203
0.19075	-3.863672	-4.401563	-3.596484	-4.018359	-4.183594	-4.644141
0.191	-4.183594	-4.728516	-3.888281	-4.317188	-4.521094	-4.995703
0.19125	-4.570313	-5.132813	-4.239844	-4.693359	-4.928906	-5.424609
0.1915	-5.030859	-5.593359	-4.658203	-5.143359	-5.407031	-5.920313
0.19175	-5.322656	-5.867578	-4.921875	-5.4	-5.712891	-6.222656
0.192	-5.322656	-5.842969	-4.918359	-5.368359	-5.733984	-6.215625
0.19225	-5.428125	-5.930859	-5.002734	-5.452734	-5.839453	-6.317578
0.1925	-5.691797	-6.162891	-5.227734	-5.68125	-6.078516	-6.574219
0.19275	-5.909766	-6.349219	-5.414063	-5.857031	-6.282422	-6.781641
0.193	-6.015234	-6.426563	-5.498438	-5.920313	-6.387891	-6.873047
0.19325	-5.930859	-6.314063	-5.410547	-5.811328	-6.307031	-6.764063
0.1935	-5.779688	-6.138281	-5.259375	-5.642578	-6.155859	-6.58125
0.19375	-5.716406	-6.057422	-5.189063	-5.561719	-6.082031	-6.486328
0.194	-5.674219	-6.001172	-5.146875	-5.505469	-6.036328	-6.423047
0.19425	-5.600391	-5.909766	-5.076563	-5.421094	-5.9625	-6.328125
0.1945	-5.487891	-5.779688	-4.964063	-5.294531	-5.846484	-6.194531
0.19475	-5.276953	-5.551172	-4.760156	-5.073047	-5.639063	-5.966016
0.195	-4.904297	-5.129297	-4.401563	-4.66875	-5.248828	-5.533594
0.19525	-4.267969	-4.415625	-3.789844	-3.983203	-4.577344	-4.784766
0.1955	-3.512109	-3.610547	-3.065625	-3.213281	-3.800391	-3.926953
0.19575	-2.935547	-3.012891	-2.527734	-2.64375	-3.202734	-3.273047
0.196	-2.520703	-2.580469	-2.141016	-2.239453	-2.749219	-2.787891
0.19625	-2.123438	-2.176172	-1.768359	-1.85625	-2.330859	-2.337891
0.1965	-1.715625	-1.750781	-1.381641	-1.448438	-1.898438	-1.873828
0.19675	-1.335938	-1.342969	-1.026563	-1.061719	-1.483594	-1.430859
0.197	-0.95625	-0.9351563	-0.6714844	-0.6820313	-1.065234	-0.9914063
0.19725	-0.590625	-0.5449219	-0.3304688	-0.3199219	-0.6609375	-0.5695313
0.1975	-0.2953125	-0.2566406	-0.06679688	-0.05273438	-0.3585938	-0.2496094
0.19775	0.3515625	0.4078125	0.5238281	0.5800781	0.2847656	0.4535156
0.198	1.374609	1.480078	1.473047	1.606641	1.318359	1.585547
0.19825	2.123438	2.246484	2.169141	2.337891	2.095313	2.425781
0.1985	2.714063	2.844141	2.714063	2.896875	2.714063	3.076172
0.19875	3.157031	3.280078	3.114844	3.301172	3.185156	3.564844
0.199	3.339844	3.441797	3.276563	3.452344	3.392578	3.76875
0.19925	3.617578	3.723047	3.533203	3.716016	3.691406	4.078125
0.1995	4.018359	4.134375	3.902344	4.099219	4.109766	4.510547
0.19975	4.475391	4.591406	4.320703	4.535156	4.584375	5.00625
0.2	4.851563	4.971094	4.66875	4.890234	4.978125	5.428125
0.20025	4.907813	5.009766	4.714453	4.918359	5.058984	5.491406
0.2005	4.928906	5.009766	4.721484	4.911328	5.094141	5.501953
0.20075	5.160938	5.220703	4.918359	5.115234	5.315625	5.730469
0.201	5.421094	5.445703	5.132813	5.326172	5.551172	5.969531
0.20125	5.617969	5.610938	5.294531	5.480859	5.733984	6.141797
0.2015	5.600391	5.572266	5.269922	5.435156	5.719922	6.113672
0.20175	5.428125	5.371875	5.108203	5.245313	5.554688	5.920313
0.202	5.326172	5.248828	5.002734	5.129297	5.442188	5.786719
0.20225	5.305078	5.217188	4.974609	5.097656	5.410547	5.744531
0.2025	5.269922	5.164453	4.935938	5.048438	5.364844	5.684766
0.20275	5.167969	5.034375	4.841016	4.932422	5.252344	5.547656
0.203	4.988672	4.833984	4.665234	4.739063	5.069531	5.329688
0.20325	4.703906	4.517578	4.391016	4.433203	4.774219	4.992188
0.2035	4.166016	3.905859	3.867188	3.846094	4.204688	4.352344
0.20375	3.385547	3.069141	3.128906	3.0375	3.396094	3.455859
0.204	2.724609	2.376563	2.513672	2.383594	2.714063	2.707031
0.20425	2.278125	1.894922	2.088281	1.937109	2.232422	2.190234
0.2045	1.863281	1.469531	1.701563	1.536328	1.792969	1.726172
0.20475	1.427344	1.033594	1.304297	1.125	1.342969	1.241016
0.205	1.026563	0.6082031	0.9316406	0.7277344	0.9175781	0.7875
0.20525	0.6644531	0.2109375	0.590625	0.3585938	0.5238281	0.3691406
0.2055	0.2636719	-0.2074219	0.2144531	-0.03867188	0.08789063	-0.08789063
0.20575	-0.04921875	-0.5238281	-0.07382813	-0.3304688	-0.2425781	-0.4394531
0.206	-0.5238281	-1.001953	-0.5027344	-0.7839844	-0.7207031	-0.9457031
0.20625	-1.490625	-2.014453	-1.399219	-1.754297	-1.694531	-2.007422
0.2065	-2.351953	-2.907422	-2.204297	-2.605078	-2.580469	-2.967188
0.20675	-2.963672	-3.533203	-2.770313	-3.192188	-3.227344	-3.659766
0.207	-3.505078	-4.071094	-3.269531	-3.701953	-3.793359	-4.253906
0.20725	-3.754688	-4.299609	-3.494531	-3.916406	-4.071094	-4.524609
0.2075	-3.986719	-4.524609	-3.705469	-4.123828	-4.324219	-4.784766
0.20775	-4.341797	-4.897266	-4.028906	-4.461328	-4.703906	-5.178516
0.208	-4.774219	-5.336719	-4.419141	-4.883203	-5.153906	-5.642578
0.20825	-5.210156	-5.769141	-4.819922	-5.305078	-5.603906	-6.106641
0.2085	-5.347266	-5.885156	-4.946484	-5.414063	-5.769141	-6.254297
0.20875	-5.333203	-5.85	-4.925391	-5.375391	-5.772656	-6.233203
0.209	-5.526563	-6.025781	-5.087109	-5.540625	-5.951953	-6.423047
0.20925	-5.779688	-6.24375	-5.305078	-5.751563	-6.176953	-6.665625
0.2095	-5.966016	-6.398438	-5.459766	-5.895703	-6.349219	-6.837891
0.20975	-6.029297	-6.444141	-5.508984	-5.927344	-6.419531	-6.897656
0.21	-5.913281	-6.3	-5.389453	-5.786719	-6.310547	-6.760547
0.21025	-5.765625	-6.127734	-5.245313	-5.621484	-6.159375	-6.577734
0.2105	-5.705859	-6.050391	-5.182031	-5.551172	-6.092578	-6.493359
0.21075	-5.698828	-6.032813	-5.167969	-5.533594	-6.078516	-6.465234
0.211	-5.649609	-5.969531	-5.11875	-5.473828	-6.029297	-6.394922
0.21125	-5.501953	-5.807813	-4.974609	-5.312109	-5.885156	-6.219141
0.2115	-5.245313	-5.526563	-4.725	-5.041406	-5.625	-5.930859
0.21175	-4.809375	-5.027344	-4.303125	-4.563281	-5.160938	-5.417578
0.212	-4.088672	-4.236328	-3.614063	-3.803906	-4.408594	-4.584375
0.21225	-3.336328	-3.445313	-2.910938	-3.048047	-3.642188	-3.733594
0.2125	-2.830078	-2.910938	-2.432813	-2.548828	-3.100781	-3.142969
0.21275	-2.439844	-2.506641	-2.070703	-2.169141	-2.675391	-2.692969
0.213	-2.039063	-2.102344	-1.701563	-1.782422	-2.257031	-2.242969
0.21325	-1.641797	-1.680469	-1.318359	-1.381641	-1.831641	-1.785938
0.2135	-1.276172	-1.290234	-0.9773438	-1.016016	-1.434375	-1.360547
0.21375	-0.8789063	-0.8683594	-0.6082031	-0.61875	-0.9984375	-0.9035156
0.214	-0.5273438	-0.50625	-0.2847656	-0.28125	-0.6152344	-0.5097656
0.21425	-0.1617188	-0.140625	0.04570313	0.05976563	-0.2425781	-0.1125
0.2145	0.6714844	0.7242188	0.8191406	0.8964844	0.5871094	0.8015625
0.21475	1.617188	1.712109	1.701563	1.842188	1.546875	1.852734
0.215	2.25	2.355469	2.288672	2.450391	2.211328	2.559375
0.21525	2.826563	2.935547	2.823047	2.995313	2.8125	3.199219
0.2155	3.202734	3.297656	3.157031	3.332813	3.209766	3.617578
0.21575	3.424219	3.515625	3.353906	3.529688	3.459375	3.867188
0.216	3.733594	3.825	3.638672	3.825	3.796875	4.204688
0.21625	4.130859	4.229297	4.007813	4.208203	4.215234	4.630078
0.2165	4.6125	4.717969	4.447266	4.66875	4.710938	5.157422
0.21675	4.883203	4.978125	4.693359	4.911328	5.002734	5.459766
0.217	4.855078	4.921875	4.658203	4.851563	4.992188	5.421094
0.21725	4.967578	5.016797	4.756641	4.946484	5.111719	5.526563
0.2175	5.291016	5.319141	5.034375	5.234766	5.417578	5.85
0.21775	5.558203	5.551172	5.259375	5.452734	5.667188	6.092578
0.218	5.653125	5.610938	5.336719	5.508984	5.758594	6.169922
0.21825	5.547656	5.477344	5.234766	5.378906	5.663672	6.050391
0.2185	5.350781	5.262891	5.048438	5.164453	5.473828	5.832422
0.21875	5.206641	5.094141	4.904297	5.002734	5.322656	5.649609
0.219	5.175	5.041406	4.869141	4.964063	5.276953	5.586328
0.21925	5.167969	5.023828	4.858594	4.95	5.259375	5.561719
0.2195	5.069531	4.907813	4.763672	4.8375	5.153906	5.438672
0.21975	4.848047	4.66875	4.55625	4.608984	4.932422	5.182031
0.22	4.492969	4.264453	4.215234	4.222266	4.55625	4.760156
0.22025	3.853125	3.54375	3.589453	3.533203	3.884766	4.007813
0.2205	3.065625	2.707031	2.851172	2.731641	3.083203	3.114844
0.22075	2.496094	2.109375	2.320313	2.165625	2.485547	2.457422
0.221	2.091797	1.680469	1.933594	1.761328	2.042578	1.989844
0.22125	1.683984	1.269141	1.553906	1.371094	1.617188	1.529297
0.2215	1.269141	0.8367188	1.160156	0.9667969	1.177734	1.061719
0.22175	0.8929688	0.4324219	0.8050781	0.5835938	0.7628906	0.6257813
0.222	0.5097656	0.01757813	0.4429688	0.1933594	0.3410156	0.1792969
0.22225	0.1160156	-0.3902344	0.0703125	-0.1898438	-0.07734375	-0.2707031
0.2225	-0.1722656	-0.6714844	-0.1898438	-0.4570313	-0.3832031	-0.590625
0.22275	-0.7804688	-1.290234	-0.7453125	-1.054688	-0.9914063	-1.244531
0.223	-1.778906	-2.330859	-1.673438	-2.049609	-2.000391	-2.344922
0.22325	-2.541797	-3.128906	-2.383594	-2.794922	-2.791406	-3.20625
0.2235	-3.15	-3.744141	-2.939063	-3.375	-3.43125	-3.88125
0.22375	-3.6	-4.176563	-3.350391	-3.789844	-3.902344	-4.362891
0.224	-3.817969	-4.376953	-3.54375	-3.972656	-4.141406	-4.601953
0.22425	-4.102734	-4.66875	-3.807422	-4.236328	-4.454297	-4.928906
0.2245	-4.464844	-5.044922	-4.141406	-4.594922	-4.848047	-5.333203
0.22475	-4.904297	-5.487891	-4.545703	-5.027344	-5.308594	-5.807813
0.225	-5.298047	-5.864063	-4.900781	-5.396484	-5.709375	-6.215625
0.22525	-5.364844	-5.913281	-4.957031	-5.431641	-5.800781	-6.285938
0.2255	-5.392969	-5.920313	-4.974609	-5.438672	-5.835938	-6.303516
0.22575	-5.632031	-6.13125	-5.182031	-5.649609	-6.053906	-6.539063
0.226	-5.881641	-6.35625	-5.4	-5.857031	-6.292969	-6.781641
0.22625	-6.046875	-6.493359	-5.537109	-5.976563	-6.454688	-6.932813
0.2265	-6.01875	-6.433594	-5.491406	-5.916797	-6.426563	-6.883594
0.22675	-5.857031	-6.236719	-5.326172	-5.733984	-6.261328	-6.683203
0.227	-5.758594	-6.113672	-5.224219	-5.614453	-6.152344	-6.549609
0.22725	-5.730469	-6.071484	-5.192578	-5.572266	-6.117188	-6.496875
0.2275	-5.705859	-6.036328	-5.160938	-5.533594	-6.089063	-6.451172
0.22775	-5.635547	-5.948438	-5.083594	-5.445703	-6.011719	-6.349219
0.228	-5.445703	-5.744531	-4.900781	-5.245313	-5.828906	-6.138281
0.22825	-5.136328	-5.4	-4.601953	-4.914844	-5.516016	-5.786719
0.2285	-4.598438	-4.784766	-4.081641	-4.324219	-4.942969	-5.150391
0.22875	-3.821484	-3.944531	-3.346875	-3.519141	-4.141406	-4.260938
0.229	-3.153516	-3.248438	-2.724609	-2.861719	-3.459375	-3.508594
0.22925	-2.714063	-2.784375	-2.316797	-2.432813	-2.984766	-2.995313
0.2295	-2.320313	-2.387109	-1.958203	-2.060156	-2.569922	-2.552344
0.22975	-1.877344	-1.930078	-1.546875	-1.627734	-2.109375	-2.056641
0.23	-1.455469	-1.469531	-1.146094	-1.198828	-1.652344	-1.567969
0.23025	-1.093359	-1.082813	-0.8085938	-0.8402344	-1.255078	-1.142578
0.2305	-0.7171875	-0.6820313	-0.4535156	-0.4640625	-0.84375	-0.7066406
0.23075	-0.3832031	-0.3410156	-0.1511719	-0.1476563	-0.4851563	-0.3304688
0.231	0.1160156	0.1617188	0.3058594	0.3304688	0.0140625	0.2109375
0.23125	1.030078	1.114453	1.160156	1.248047	0.9386719	1.216406
0.2315	1.859766	1.972266	1.937109	2.070703	1.796484	2.1375
0.23175	2.496094	2.615625	2.517188	2.675391	2.453906	2.837109
0.232	3.030469	3.15	3.002344	3.174609	3.009375	3.420703
0.23225	3.273047	3.371484	3.216797	3.378516	3.276563	3.691406
0.2325	3.505078	3.6	3.427734	3.592969	3.526172	3.944531
0.23275	3.884766	3.986719	3.779297	3.962109	3.923438	4.352344
0.233	4.306641	4.415625	4.169531	4.362891	4.362891	4.809375
0.23325	4.728516	4.833984	4.55625	4.760156	4.798828	5.273438
0.2335	4.900781	4.988672	4.710938	4.907813	4.995703	5.459766
0.23375	4.904297	4.974609	4.707422	4.890234	5.016797	5.459766
0.234	5.080078	5.132813	4.855078	5.041406	5.189063	5.635547
0.23425	5.340234	5.357813	5.069531	5.255859	5.428125	5.878125
0.2345	5.540625	5.523047	5.234766	5.407031	5.614453	6.053906
0.23475	5.586328	5.537109	5.262891	5.417578	5.656641	6.078516
0.235	5.445703	5.375391	5.129297	5.255859	5.526563	5.923828
0.23525	5.312109	5.217188	4.995703	5.101172	5.396484	5.762109
0.2355	5.266406	5.150391	4.946484	5.037891	5.340234	5.684766
0.23575	5.262891	5.132813	4.932422	5.023828	5.329688	5.656641
0.236	5.220703	5.076563	4.886719	4.967578	5.283984	5.593359
0.23625	5.073047	4.911328	4.742578	4.809375	5.132813	5.417578
0.2365	4.798828	4.6125	4.485938	4.528125	4.855078	5.101172
0.23675	4.362891	4.113281	4.064063	4.053516	4.394531	4.584375
0.237	3.673828	3.360938	3.403125	3.325781	3.677344	3.786328
0.23725	2.942578	2.598047	2.721094	2.598047	2.939063	2.960156
0.2375	2.436328	2.053125	2.242969	2.088281	2.394141	2.373047
0.23775	2.049609	1.655859	1.880859	1.712109	1.982813	1.933594
0.238	1.641797	1.251563	1.508203	1.328906	1.560938	1.483594
0.23825	1.205859	0.7839844	1.096875	0.8929688	1.096875	0.984375
0.2385	0.815625	0.3515625	0.73125	0.4957031	0.6679688	0.5273438
0.23875	0.4359375	-0.04570313	0.3691406	0.1160156	0.2566406	0.08789063
0.239	0.0984375	-0.3867188	0.05273438	-0.2074219	-0.1019531	-0.2882813
0.23925	-0.2566406	-0.7382813	-0.2671875	-0.5449219	-0.4675781	-0.675
0.2395	-1.072266	-1.589063	-1.023047	-1.360547	-1.286719	-1.564453
0.23975	-2.032031	-2.583984	-1.916016	-2.316797	-2.264063	-2.622656
0.24	-2.696484	-3.258984	-2.527734	-2.953125	-2.946094	-3.367969
0.24025	-3.294141	-3.863672	-3.079688	-3.526172	-3.571875	-4.032422
0.2405	-3.635156	-4.190625	-3.392578	-3.832031	-3.941016	-4.408594
0.24075	-3.817969	-4.355859	-3.554297	-3.983203	-4.144922	-4.608984
0.241	-4.144922	-4.693359	-3.860156	-4.296094	-4.496484	-4.971094
0.24125	-4.535156	-5.097656	-4.21875	-4.675781	-4.914844	-5.403516
0.2415	-4.995703	-5.558203	-4.633594	-5.11875	-5.389453	-5.899219
0.24175	-5.294531	-5.85	-4.907813	-5.392969	-5.705859	-6.215625
0.242	-5.280469	-5.811328	-4.886719	-5.34375	-5.712891	-6.194531
0.24225	-5.371875	-5.885156	-4.960547	-5.414063	-5.800781	-6.278906
0.2425	-5.667188	-6.152344	-5.217188	-5.674219	-6.067969	-6.567188
0.24275	-5.902734	-6.35625	-5.414063	-5.860547	-6.285938	-6.792188
0.243	-5.997656	-6.416016	-5.484375	-5.909766	-6.373828	-6.866016
0.24325	-5.90625	-6.296484	-5.392969	-5.797266	-6.285938	-6.753516
0.2435	-5.765625	-6.127734	-5.252344	-5.639063	-6.145313	-6.58125
0.24375	-5.695313	-6.043359	-5.175	-5.551172	-6.067969	-6.479297
0.244	-5.642578	-5.976563	-5.122266	-5.491406	-6.011719	-6.405469
0.24425	-5.589844	-5.899219	-5.066016	-5.424609	-5.948438	-6.324609
0.2445	-5.484375	-5.779688	-4.964063	-5.305078	-5.842969	-6.198047
0.24475	-5.248828	-5.530078	-4.742578	-5.0625	-5.621484	-5.944922
0.245	-4.869141	-5.101172	-4.380469	-4.654688	-5.224219	-5.505469
0.24525	-4.246875	-4.394531	-3.782813	-3.983203	-4.563281	-4.767188
0.2455	-3.480469	-3.582422	-3.058594	-3.20625	-3.786328	-3.898828
0.24575	-2.893359	-2.970703	-2.506641	-2.626172	-3.178125	-3.234375
0.246	-2.482031	-2.538281	-2.119922	-2.218359	-2.731641	-2.749219
0.24625	-2.091797	-2.141016	-1.754297	-1.842188	-2.320313	-2.302734
0.2465	-1.6875	-1.719141	-1.367578	-1.437891	-1.891406	-1.842188
0.24675	-1.304297	-1.307813	-1.005469	-1.047656	-1.469531	-1.395703
0.247	-0.9210938	-0.9	-0.6503906	-0.6679688	-1.051172	-0.9527344
0.24725	-0.5554688	-0.5132813	-0.3058594	-0.3023438	-0.6539063	-0.5308594
0.2475	-0.2601563	-0.225	-0.03867188	-0.03164063	-0.3445313	-0.2074219
0.24775	0.3902344	0.4429688	0.5589844	0.6117188	0.3023438	0.4992188
0.248	1.402734	1.508203	1.504688	1.63125	1.328906	1.620703
0.24825	2.144531	2.271094	2.19375	2.351953	2.098828	2.453906
0.2485	2.749219	2.879297	2.745703	2.921484	2.724609	3.118359
0.24875	3.188672	3.308203	3.146484	3.325781	3.192188	3.603516
0.249	3.371484	3.476953	3.308203	3.476953	3.403125	3.810938
0.24925	3.649219	3.754688	3.561328	3.737109	3.701953	4.109766
0.2495	4.018359	4.130859	3.902344	4.092188	4.092188	4.503516
0.24975	4.468359	4.587891	4.317188	4.524609	4.55625	4.995703
0.25	4.865625	4.981641	4.679297	4.89375	4.967578	5.435156
0.25025	4.935938	5.034375	4.739063	4.935938	5.058984	5.5125
0.2505	4.964063	5.041406	4.753125	4.942969	5.104688	5.533594
0.25075	5.192578	5.245313	4.942969	5.139844	5.319141	5.758594
0.251	5.442188	5.459766	5.153906	5.34375	5.544141	5.983594
0.25125	5.635547	5.621484	5.312109	5.491406	5.719922	6.145313
0.2515	5.617969	5.579297	5.2875	5.442188	5.705859	6.106641
0.25175	5.438672	5.371875	5.11875	5.241797	5.533594	5.902734
0.252	5.329688	5.241797	5.002734	5.11875	5.417578	5.765625
0.25225	5.308594	5.206641	4.974609	5.083594	5.389453	5.723438
0.2525	5.276953	5.157422	4.942969	5.041406	5.350781	5.670703
0.25275	5.182031	5.034375	4.851563	4.932422	5.241797	5.544141
0.253	4.995703	4.833984	4.679297	4.739063	5.058984	5.329688
0.25325	4.703906	4.510547	4.398047	4.426172	4.756641	4.985156
0.2535	4.158984	3.888281	3.867188	3.835547	4.180078	4.338281
0.25375	3.371484	3.0375	3.125391	3.019922	3.367969	3.438281
0.254	2.710547	2.344922	2.506641	2.3625	2.685938	2.685938
0.25425	2.271094	1.880859	2.084766	1.923047	2.214844	2.176172
0.2545	1.85625	1.455469	1.701563	1.529297	1.778906	1.715625
0.25475	1.420313	1.016016	1.304297	1.114453	1.328906	1.230469
0.255	1.030078	0.5941406	0.9351563	0.7207031	0.9070313	0.7839844
0.25525	0.6679688	0.196875	0.590625	0.3515625	0.5097656	0.3621094
0.2555	0.2601563	-0.225	0.2109375	-0.04921875	0.07734375	-0.0984375
0.25575	-0.0421875	-0.5308594	-0.06679688	-0.3339844	-0.2390625	-0.4429688
0.256	-0.5132813	-1.005469	-0.4957031	-0.7875	-0.7136719	-0.9492188
0.25625	-1.494141	-2.025	-1.40625	-1.771875	-1.698047	-2.021484
0.2565	-2.351953	-2.917969	-2.204297	-2.615625	-2.583984	-2.984766
0.25675	-2.967188	-3.547266	-2.770313	-3.202734	-3.227344	-3.673828
0.257	-3.515625	-4.081641	-3.266016	-3.716016	-3.796875	-4.267969
0.25725	-3.76875	-4.310156	-3.491016	-3.926953	-4.071094	-4.538672
0.2575	-4.004297	-4.542188	-3.705469	-4.134375	-4.327734	-4.795313
0.25775	-4.352344	-4.911328	-4.032422	-4.471875	-4.703906	-5.192578
0.258	-4.784766	-5.350781	-4.422656	-4.89375	-5.160938	-5.663672
0.25825	-5.217188	-5.779688	-4.816406	-5.308594	-5.607422	-6.124219
0.2585	-5.34375	-5.878125	-4.932422	-5.403516	-5.751563	-6.250781
0.25875	-5.315625	-5.832422	-4.900781	-5.354297	-5.741016	-6.215625
0.259	-5.526563	-6.025781	-5.083594	-5.544141	-5.941406	-6.423047
0.25925	-5.804297	-6.264844	-5.326172	-5.776172	-6.198047	-6.686719
0.2595	-5.990625	-6.416016	-5.480859	-5.913281	-6.370313	-6.851953
0.25975	-6.053906	-6.461719	-5.523047	-5.944922	-6.440625	-6.904688
0.26	-5.934375	-6.314063	-5.403516	-5.804297	-6.328125	-6.760547
0.26025	-5.776172	-6.13125	-5.252344	-5.632031	-6.166406	-6.567188
0.2605	-5.719922	-6.057422	-5.189063	-5.561719	-6.099609	-6.482813
0.26075	-5.712891	-6.039844	-5.175	-5.544141	-6.085547	-6.451172
0.261	-5.663672	-5.976563	-5.122266	-5.480859	-6.029297	-6.377344
0.26125	-5.516016	-5.811328	-4.978125	-5.319141	-5.881641	-6.205078
0.2615	-5.262891	-5.533594	-4.735547	-5.055469	-5.632031	-5.916797
0.26175	-4.830469	-5.041406	-4.320703	-4.584375	-5.178516	-5.410547
0.262	-4.102734	-4.243359	-3.628125	-3.814453	-4.422656	-4.570313
0.26225	-3.346875	-3.448828	-2.921484	-3.058594	-3.652734	-3.719531
0.2625	-2.844141	-2.921484	-2.453906	-2.569922	-3.121875	-3.142969
0.26275	-2.446875	-2.510156	-2.088281	-2.19375	-2.696484	-2.692969
0.263	-2.035547	-2.091797	-1.712109	-1.8	-2.274609	-2.235938
0.26325	-1.638281	-1.669922	-1.332422	-1.399219	-1.852734	-1.778906
0.2635	-1.269141	-1.272656	-0.984375	-1.026563	-1.444922	-1.346484
0.26375	-0.8683594	-0.8472656	-0.6152344	-0.6292969	-1.0125	-0.8929688
0.264	-0.5378906	-0.50625	-0.3058594	-0.309375	-0.6539063	-0.5203125
0.26425	-0.1933594	-0.1652344	0	0.01054688	-0.309375	-0.1511719
0.2645	0.6433594	0.7066406	0.7734375	0.8507813	0.5273438	0.7628906
0.26475	1.620703	1.733203	1.6875	1.828125	1.525781	1.849219
0.265	2.267578	2.390625	2.285156	2.450391	2.204297	2.569922
0.26525	2.830078	2.953125	2.801953	2.977734	2.791406	3.188672
0.2655	3.199219	3.315234	3.132422	3.308203	3.185156	3.592969
0.26575	3.420703	3.529688	3.332813	3.505078	3.43125	3.842578
0.266	3.726563	3.835547	3.617578	3.793359	3.758203	4.173047
0.26625	4.130859	4.243359	3.986719	4.183594	4.183594	4.605469
0.2665	4.644141	4.774219	4.461328	4.682813	4.717969	5.167969
0.26675	4.946484	5.069531	4.739063	4.960547	5.041406	5.505469
0.267	4.907813	4.999219	4.700391	4.89375	5.020313	5.463281
0.26725	5.00625	5.076563	4.78125	4.971094	5.122266	5.554688
0.2675	5.255859	5.301563	4.995703	5.185547	5.364844	5.807813
0.26775	5.424609	5.424609	5.132813	5.305078	5.516016	5.955469
0.268	5.508984	5.473828	5.199609	5.354297	5.593359	6.015234
0.26825	5.421094	5.368359	5.11875	5.252344	5.519531	5.913281
0.2685	5.269922	5.196094	4.971094	5.083594	5.375391	5.7375
0.26875	5.189063	5.090625	4.886719	4.985156	5.283984	5.621484
0.269	5.164453	5.048438	4.858594	4.95	5.252344	5.572266
0.26925	5.146875	5.009766	4.833984	4.921875	5.224219	5.533594
0.2695	5.044922	4.886719	4.732031	4.802344	5.111719	5.4
0.26975	4.819922	4.644141	4.521094	4.570313	4.883203	5.139844
0.27	4.461328	4.236328	4.169531	4.176563	4.5	4.710938
0.27025	3.825	3.522656	3.547266	3.491016	3.828516	3.958594
0.2705	3.044531	2.696484	2.816016	2.7	3.033984	3.072656
0.27075	2.471484	2.091797	2.281641	2.130469	2.436328	2.41875
0.271	2.053125	1.652344	1.884375	1.719141	1.989844	1.940625
0.27125	1.641797	1.244531	1.504688	1.328906	1.564453	1.480078
0.2715	1.230469	0.8191406	1.125	0.9210938	1.128516	1.019531
0.27175	0.8613281	0.4113281	0.7769531	0.5449219	0.7171875	0.5871094
0.272	0.4816406	0.003515625	0.4113281	0.1546875	0.2988281	0.140625
0.27225	0.09140625	-0.3972656	0.03515625	-0.2285156	-0.1160156	-0.3023438
0.2725	-0.196875	-0.6820313	-0.2214844	-0.4957031	-0.4253906	-0.6222656
0.27275	-0.8121094	-1.307813	-0.7839844	-1.103906	-1.040625	-1.286719
0.273	-1.821094	-2.3625	-1.726172	-2.112891	-2.063672	-2.401172
0.27325	-2.583984	-3.15	-2.432813	-2.851172	-2.858203	-3.258984
0.2735	-3.167578	-3.740625	-2.967188	-3.406641	-3.469922	-3.905859
0.27375	-3.610547	-4.169531	-3.375	-3.814453	-3.930469	-4.380469
0.274	-3.839063	-4.383984	-3.575391	-4.011328	-4.180078	-4.633594
0.27425	-4.130859	-4.675781	-3.839063	-4.275	-4.492969	-4.957031
0.2745	-4.478906	-5.044922	-4.166016	-4.619531	-4.876172	-5.354297
0.27475	-4.925391	-5.501953	-4.577344	-5.058984	-5.340234	-5.835938
0.275	-5.329688	-5.892188	-4.946484	-5.438672	-5.751563	-6.264844
0.27525	-5.385938	-5.927344	-4.988672	-5.463281	-5.828906	-6.324609
0.2755	-5.396484	-5.916797	-4.988672	-5.445703	-5.846484	-6.328125
0.27575	-5.649609	-6.145313	-5.210156	-5.670703	-6.078516	-6.574219
0.276	-5.920313	-6.387891	-5.438672	-5.892188	-6.328125	-6.837891
0.27625	-6.075	-6.514453	-5.565234	-6.001172	-6.479297	-6.978516
0.2765	-6.039844	-6.451172	-5.519531	-5.934375	-6.447656	-6.922266
0.27675	-5.885156	-6.268359	-5.368359	-5.765625	-6.292969	-6.735938
0.277	-5.779688	-6.134766	-5.252344	-5.642578	-6.176953	-6.591797
0.27725	-5.741016	-6.078516	-5.210156	-5.589844	-6.127734	-6.528516
0.2775	-5.723438	-6.050391	-5.189063	-5.561719	-6.103125	-6.489844
0.27775	-5.653125	-5.958984	-5.115234	-5.477344	-6.025781	-6.394922
0.278	-5.463281	-5.755078	-4.932422	-5.273438	-5.842969	-6.180469
0.27825	-5.160938	-5.424609	-4.640625	-4.95	-5.537109	-5.832422
0.2785	-4.630078	-4.819922	-4.127344	-4.366406	-4.967578	-5.199609
0.27875	-3.846094	-3.965625	-3.382031	-3.550781	-4.151953	-4.296094
0.279	-3.167578	-3.255469	-2.749219	-2.879297	-3.455859	-3.526172
0.27925	-2.731641	-2.798438	-2.344922	-2.457422	-2.984766	-3.016406
0.2795	-2.341406	-2.401172	-1.989844	-2.088281	-2.573438	-2.576953
0.27975	-1.894922	-1.937109	-1.575	-1.648828	-2.109375	-2.077734
0.28	-1.480078	-1.487109	-1.18125	-1.226953	-1.655859	-1.596094
0.28025	-1.128516	-1.114453	-0.8507813	-0.8789063	-1.269141	-1.184766
0.2805	-0.7488281	-0.7066406	-0.4957031	-0.4957031	-0.8472656	-0.7417969
0.28075	-0.4289063	-0.3796875	-0.2039063	-0.1898438	-0.50625	-0.3832031
0.281	0.03164063	0.08085938	0.2179688	0.2566406	-0.0421875	0.1125
0.28125	0.9878906	1.075781	1.110938	1.216406	0.9105469	1.163672
0.2815	1.863281	1.982813	1.923047	2.077734	1.807031	2.141016
0.28175	2.478516	2.598047	2.489063	2.661328	2.450391	2.819531
0.282	3.009375	3.121875	2.974219	3.160547	3.002344	3.399609
0.28225	3.244922	3.343359	3.188672	3.357422	3.266016	3.659766
0.2825	3.469922	3.561328	3.396094	3.561328	3.519141	3.912891
0.28275	3.842578	3.941016	3.733594	3.919922	3.916406	4.313672
0.283	4.264453	4.369922	4.120313	4.320703	4.355859	4.770703
0.28325	4.700391	4.805859	4.524609	4.735547	4.805859	5.248828
0.2835	4.869141	4.957031	4.66875	4.872656	4.995703	5.428125
0.28375	4.851563	4.914844	4.644141	4.826953	4.995703	5.4
0.284	5.055469	5.101172	4.816406	5.00625	5.196094	5.603906
0.28425	5.347266	5.361328	5.0625	5.248828	5.459766	5.881641
0.2845	5.540625	5.516016	5.220703	5.396484	5.635547	6.050391
0.28475	5.572266	5.5125	5.234766	5.392969	5.667188	6.057422
0.285	5.431641	5.350781	5.097656	5.23125	5.533594	5.895703
0.28525	5.294531	5.192578	4.964063	5.076563	5.4	5.730469
0.2855	5.245313	5.129297	4.911328	5.016797	5.340234	5.653125
0.28575	5.238281	5.108203	4.900781	5.002734	5.326172	5.628516
0.286	5.189063	5.041406	4.851563	4.939453	5.269922	5.561719
0.28625	5.034375	4.865625	4.703906	4.774219	5.111719	5.378906
0.2865	4.756641	4.570313	4.450781	4.492969	4.8375	5.066016
0.28675	4.327734	4.078125	4.035938	4.025391	4.383984	4.549219
0.287	3.638672	3.322266	3.367969	3.297656	3.670313	3.747656
0.28725	2.903906	2.552344	2.682422	2.559375	2.928516	2.921484
0.2875	2.397656	2.010938	2.211328	2.056641	2.383594	2.334375
0.28775	2.010938	1.613672	1.845703	1.680469	1.965234	1.891406
0.288	1.599609	1.205859	1.4625	1.286719	1.539844	1.437891
0.28825	1.167188	0.7453125	1.058203	0.8542969	1.079297	0.9457031
0.2885	0.7875	0.3234375	0.703125	0.4675781	0.6609375	0.5027344
0.28875	0.4042969	-0.08085938	0.3375	0.084375	0.2460938	0.05976563
0.289	0.05976563	-0.4289063	0.01757813	-0.2425781	-0.1125	-0.3199219
0.28925	-0.2953125	-0.7875	-0.2988281	-0.5800781	-0.4746094	-0.703125
0.2895	-1.132031	-1.659375	-1.075781	-1.416797	-1.314844	-1.617188
0.28975	-2.102344	-2.664844	-1.979297	-2.376563	-2.302734	-2.685938
0.29	-2.75625	-3.332813	-2.583984	-3.005859	-2.991797	-3.413672
0.29025	-3.353906	-3.933984	-3.132422	-3.575391	-3.617578	-4.078125
0.2905	-3.694922	-4.257422	-3.438281	-3.877734	-3.986719	-4.447266
0.29075	-3.88125	-4.422656	-3.607031	-4.028906	-4.194141	-4.651172
0.291	-4.204688	-4.753125	-3.909375	-4.338281	-4.542188	-5.016797
0.29125	-4.587891	-5.146875	-4.257422	-4.710938	-4.953516	-5.442188
0.2915	-5.055469	-5.617969	-4.682813	-5.164453	-5.428125	-5.937891
0.29175	-5.350781	-5.902734	-4.953516	-5.438672	-5.741016	-6.254297
0.292	-5.340234	-5.871094	-4.939453	-5.396484	-5.751563	-6.24375
0.29225	-5.438672	-5.944922	-5.020313	-5.473828	-5.846484	-6.338672
0.2925	-5.719922	-6.194531	-5.259375	-5.716406	-6.099609	-6.609375
0.29275	-5.951953	-6.394922	-5.452734	-5.899219	-6.317578	-6.827344
0.293	-6.046875	-6.458203	-5.530078	-5.951953	-6.4125	-6.908203
0.29325	-5.951953	-6.331641	-5.431641	-5.832422	-6.321094	-6.788672
0.2935	-5.807813	-6.166406	-5.2875	-5.677734	-6.180469	-6.619922
0.29375	-5.744531	-6.082031	-5.217188	-5.600391	-6.113672	-6.525
0.294	-5.688281	-6.008203	-5.160938	-5.530078	-6.050391	-6.440625
0.29425	-5.625	-5.923828	-5.097656	-5.452734	-5.980078	-6.349219
0.2945	-5.530078	-5.814844	-4.999219	-5.347266	-5.885156	-6.236719
0.29475	-5.315625	-5.582813	-4.795313	-5.11875	-5.677734	-6.001172
0.295	-4.942969	-5.160938	-4.436719	-4.717969	-5.2875	-5.56875
0.29525	-4.320703	-4.461328	-3.839063	-4.046484	-4.630078	-4.8375
0.2955	-3.554297	-3.649219	-3.111328	-3.266016	-3.853125	-3.972656
0.29575	-2.953125	-3.026953	-2.559375	-2.678906	-3.241406	-3.297656
0.296	-2.534766	-2.591016	-2.176172	-2.274609	-2.794922	-2.8125
0.29625	-2.141016	-2.19375	-1.810547	-1.894922	-2.383594	-2.373047
0.2965	-1.729688	-1.768359	-1.420313	-1.490625	-1.951172	-1.908984
0.29675	-1.346484	-1.357031	-1.058203	-1.103906	-1.532813	-1.4625
0.297	-0.9667969	-0.9492188	-0.703125	-0.7242188	-1.114453	-1.019531
0.29725	-0.6011719	-0.5660156	-0.365625	-0.3691406	-0.7136719	-0.6011719
0.2975	-0.3164063	-0.2882813	-0.1054688	-0.1019531	-0.4148438	-0.2847656
0.29775	0.3339844	0.3832031	0.4957031	0.5414063	0.2355469	0.4253906
0.298	1.353516	1.455469	1.444922	1.567969	1.269141	1.557422
0.29825	2.091797	2.211328	2.126953	2.285156	2.032031	2.380078
0.2985	2.692969	2.808984	2.678906	2.847656	2.657813	3.0375
0.29875	3.135938	3.241406	3.083203	3.258984	3.125391	3.526172
0.299	3.329297	3.417188	3.255469	3.417188	3.346875	3.740625
0.29925	3.607031	3.694922	3.508594	3.680859	3.652734	4.053516
0.2995	3.983203	4.078125	3.860156	4.042969	4.05	4.454297
0.29975	4.436719	4.538672	4.278516	4.478906	4.517578	4.95
0.3	4.823438	4.925391	4.630078	4.841016	4.918359	5.378906
0.30025	4.872656	4.957031	4.66875	4.862109	4.988672	5.431641
0.3005	4.89375	4.953516	4.682813	4.858594	5.020313	5.445703
0.30075	5.136328	5.178516	4.89375	5.076563	5.255859	5.688281
0.301	5.4	5.407031	5.115234	5.294531	5.498438	5.937891
0.30125	5.586328	5.565234	5.266406	5.442188	5.674219	6.099609
0.3015	5.56875	5.523047	5.241797	5.4	5.660156	6.064453
0.30175	5.403516	5.326172	5.087109	5.213672	5.501953	5.878125
0.302	5.301563	5.206641	4.978125	5.090625	5.392969	5.744531
0.30225	5.269922	5.164453	4.942969	5.048438	5.354297	5.688281
0.3025	5.224219	5.101172	4.900781	4.992188	5.301563	5.621484
0.30275	5.129297	4.978125	4.805859	4.883203	5.196094	5.491406
0.303	4.953516	4.784766	4.640625	4.700391	5.016797	5.280469
0.30325	4.66875	4.468359	4.362891	4.391016	4.714453	4.939453
0.3035	4.134375	3.856641	3.839063	3.803906	4.144922	4.306641
0.30375	3.353906	3.009375	3.097266	2.995313	3.343359	3.410156
0.304	2.692969	2.320313	2.482031	2.341406	2.664844	2.661328
0.30425	2.257031	1.85625	2.063672	1.901953	2.19375	2.155078
0.3045	1.845703	1.434375	1.680469	1.501172	1.757813	1.6875
0.30475	1.416797	0.9984375	1.283203	1.093359	1.307813	1.205859
0.305	1.026563	0.5800781	0.9210938	0.703125	0.8859375	0.759375
0.30525	0.6574219	0.1792969	0.5730469	0.3234375	0.4816406	0.3339844
0.3055	0.253125	-0.2425781	0.1898438	-0.07382813	0.04570313	-0.1265625
0.30575	-0.05273438	-0.5484375	-0.09492188	-0.3621094	-0.2742188	-0.4710938
0.306	-0.5203125	-1.023047	-0.5167969	-0.815625	-0.7453125	-0.9738281
0.30625	-1.483594	-2.028516	-1.40625	-1.775391	-1.712109	-2.028516
0.3065	-2.355469	-2.932031	-2.218359	-2.633203	-2.612109	-3.005859
0.30675	-2.984766	-3.571875	-2.794922	-3.234375	-3.273047	-3.708984
0.307	-3.512109	-4.088672	-3.280078	-3.726563	-3.825	-4.282031
0.30725	-3.754688	-4.310156	-3.501563	-3.930469	-4.092188	-4.545703
0.3075	-3.983203	-4.531641	-3.708984	-4.137891	-4.345313	-4.802344
0.30775	-4.341797	-4.904297	-4.042969	-4.485938	-4.732031	-5.203125
0.308	-4.78125	-5.357813	-4.44375	-4.914844	-5.192578	-5.68125
0.30825	-5.210156	-5.779688	-4.833984	-5.322656	-5.635547	-6.141797
0.3085	-5.350781	-5.899219	-4.967578	-5.431641	-5.79375	-6.289453
0.30875	-5.340234	-5.867578	-4.942969	-5.392969	-5.790234	-6.271875
0.309	-5.530078	-6.039844	-5.097656	-5.558203	-5.969531	-6.458203
0.30925	-5.790234	-6.264844	-5.322656	-5.776172	-6.208594	-6.704297
0.3095	-5.983594	-6.430078	-5.491406	-5.930859	-6.394922	-6.887109
0.30975	-6.046875	-6.475781	-5.540625	-5.9625	-6.465234	-6.939844
0.31	-5.913281	-6.314063	-5.410547	-5.811328	-6.338672	-6.781641
0.31025	-5.765625	-6.134766	-5.262891	-5.646094	-6.180469	-6.595313
0.3105	-5.712891	-6.067969	-5.206641	-5.579297	-6.113672	-6.514453
0.31075	-5.702344	-6.043359	-5.185547	-5.554688	-6.089063	-6.482813
0.311	-5.660156	-5.983594	-5.136328	-5.498438	-6.039844	-6.4125
0.31125	-5.523047	-5.821875	-4.995703	-5.340234	-5.899219	-6.247266
0.3115	-5.269922	-5.551172	-4.753125	-5.073047	-5.649609	-5.9625
0.31175	-4.841016	-5.0625	-4.334766	-4.598438	-5.192578	-5.452734
0.312	-4.116797	-4.267969	-3.638672	-3.832031	-4.44375	-4.616016
0.31225	-3.371484	-3.480469	-2.935547	-3.079688	-3.680859	-3.775781
0.3125	-2.872266	-2.956641	-2.464453	-2.583984	-3.146484	-3.195703
0.31275	-2.475	-2.541797	-2.095313	-2.200781	-2.721094	-2.742188
0.313	-2.063672	-2.130469	-1.722656	-1.810547	-2.299219	-2.285156
0.31325	-1.659375	-1.705078	-1.339453	-1.40625	-1.870313	-1.828125
0.3135	-1.286719	-1.304297	-0.9914063	-1.030078	-1.458984	-1.392188
0.31375	-0.9	-0.8859375	-0.6292969	-0.6433594	-1.033594	-0.9421875
0.314	-0.5554688	-0.5308594	-0.3058594	-0.309375	-0.6609375	-0.5484375
0.31425	-0.1863281	-0.1652344	0.02460938	0.03515625	-0.2847656	-0.1476563
0.3145	0.6363281	0.6960938	0.7875	0.8613281	0.5378906	0.7558594
0.31475	1.599609	1.698047	1.6875	1.821094	1.51875	1.828125
0.315	2.246484	2.355469	2.288672	2.443359	2.19375	2.545313
0.31525	2.8125	2.925	2.805469	2.98125	2.791406	3.164063
0.3155	3.216797	3.325781	3.174609	3.357422	3.230859	3.617578
0.31575	3.469922	3.571875	3.406641	3.582422	3.512109	3.902344
0.316	3.779297	3.877734	3.687891	3.870703	3.842578	4.236328
0.31625	4.166016	4.271484	4.042969	4.243359	4.253906	4.658203
0.3165	4.6125	4.721484	4.450781	4.661719	4.717969	5.150391
0.31675	4.833984	4.932422	4.654688	4.855078	4.957031	5.4
0.317	4.809375	4.879688	4.623047	4.802344	4.95	5.361328
0.31725	4.939453	4.992188	4.725	4.907813	5.080078	5.480859
0.3175	5.220703	5.252344	4.967578	5.157422	5.34375	5.755078
0.31775	5.452734	5.442188	5.153906	5.333203	5.547656	5.9625
0.318	5.558203	5.516016	5.234766	5.4	5.646094	6.046875
0.31825	5.466797	5.403516	5.143359	5.2875	5.561719	5.937891
0.3185	5.312109	5.224219	4.992188	5.111719	5.410547	5.751563
0.31875	5.217188	5.104688	4.89375	4.999219	5.308594	5.617969
0.319	5.189063	5.0625	4.865625	4.964063	5.269922	5.565234
0.31925	5.171484	5.030859	4.844531	4.935938	5.245313	5.526563
0.3195	5.076563	4.911328	4.749609	4.823438	5.139844	5.4
0.31975	4.862109	4.682813	4.549219	4.601953	4.925391	5.150391
0.32	4.510547	4.285547	4.208203	4.21875	4.552734	4.732031
0.32025	3.874219	3.571875	3.592969	3.536719	3.884766	3.990234
0.3205	3.090234	2.738672	2.858203	2.742188	3.083203	3.100781
0.32075	2.506641	2.123438	2.316797	2.165625	2.471484	2.436328
0.321	2.091797	1.6875	1.926563	1.757813	2.025	1.961719
0.32125	1.6875	1.286719	1.553906	1.374609	1.610156	1.511719
0.3215	1.272656	0.8542969	1.167188	0.9703125	1.174219	1.047656
0.32175	0.8964844	0.4464844	0.8121094	0.5835938	0.759375	0.6082031
0.322	0.5203125	0.0421875	0.4570313	0.2003906	0.3480469	0.1722656
0.32225	0.1300781	-0.365625	0.084375	-0.1828125	-0.06679688	-0.2671875
0.3225	-0.1511719	-0.6433594	-0.1757813	-0.4464844	-0.3621094	-0.5765625
0.32275	-0.7558594	-1.255078	-0.7347656	-1.044141	-0.9667969	-1.230469
0.323	-1.764844	-2.313281	-1.680469	-2.060156	-1.989844	-2.344922
0.32325	-2.520703	-3.090234	-2.380078	-2.791406	-2.773828	-3.195703
0.3235	-3.104297	-3.677344	-2.914453	-3.350391	-3.385547	-3.842578
0.32375	-3.564844	-4.134375	-3.339844	-3.782813	-3.877734	-4.345313
0.324	-3.789844	-4.341797	-3.54375	-3.972656	-4.127344	-4.594922
0.32425	-4.071094	-4.626563	-3.800391	-4.229297	-4.429688	-4.911328
0.3245	-4.426172	-4.995703	-4.127344	-4.573828	-4.812891	-5.305078
0.32475	-4.862109	-5.438672	-4.531641	-5.00625	-5.269922	-5.783203
0.325	-5.262891	-5.828906	-4.897266	-5.385938	-5.684766	-6.208594
0.32525	-5.333203	-5.881641	-4.953516	-5.428125	-5.779688	-6.282422
0.3255	-5.347266	-5.874609	-4.960547	-5.417578	-5.800781	-6.292969
0.32575	-5.586328	-6.089063	-5.167969	-5.628516	-6.022266	-6.532031
0.326	-5.857031	-6.328125	-5.403516	-5.853516	-6.275391	-6.795703
0.32625	-6.011719	-6.458203	-5.533594	-5.969531	-6.430078	-6.939844
0.3265	-5.973047	-6.387891	-5.484375	-5.899219	-6.394922	-6.876563
0.32675	-5.825391	-6.201563	-5.336719	-5.726953	-6.24375	-6.690234
0.327	-5.716406	-6.071484	-5.220703	-5.600391	-6.127734	-6.546094
0.32725	-5.670703	-6.011719	-5.167969	-5.540625	-6.075	-6.472266
0.3275	-5.653125	-5.983594	-5.139844	-5.508984	-6.046875	-6.430078
0.32775	-5.596875	-5.90625	-5.076563	-5.431641	-5.983594	-6.345703
0.328	-5.417578	-5.709375	-4.900781	-5.238281	-5.804297	-6.138281
0.32825	-5.104688	-5.368359	-4.605469	-4.911328	-5.487891	-5.786719
0.3285	-4.566797	-4.756641	-4.088672	-4.33125	-4.918359	-5.157422
0.32875	-3.782813	-3.902344	-3.346875	-3.515625	-4.109766	-4.253906
0.329	-3.100781	-3.188672	-2.707031	-2.837109	-3.410156	-3.480469
0.32925	-2.671875	-2.742188	-2.313281	-2.422266	-2.953125	-2.98125
0.3295	-2.281641	-2.344922	-1.954688	-2.049609	-2.538281	-2.538281
0.32975	-1.831641	-1.870313	-1.529297	-1.599609	-2.067188	-2.028516
0.33	-1.420313	-1.434375	-1.142578	-1.184766	-1.620703	-1.553906
0.33025	-1.06875	-1.065234	-0.815625	-0.8367188	-1.233984	-1.149609
0.3305	-0.6855469	-0.6539063	-0.4535156	-0.45	-0.8085938	-0.6996094
0.33075	-0.3585938	-0.3199219	-0.1546875	-0.1441406	-0.4640625	-0.3304688
0.331	0.1125	0.1546875	0.2742188	0.3128906	0.003515625	0.1757813
0.33125	1.033594	1.117969	1.139063	1.244531	0.9316406	1.191797
0.3315	1.884375	1.996875	1.933594	2.08125	1.807031	2.141016
0.33175	2.520703	2.64375	2.520703	2.692969	2.475	2.851172
0.332	3.058594	3.174609	3.009375	3.195703	3.041016	3.438281
0.33225	3.287109	3.382031	3.216797	3.385547	3.301172	3.691406
0.3325	3.515625	3.607031	3.427734	3.596484	3.554297	3.944531
0.33275	3.877734	3.976172	3.758203	3.944531	3.9375	4.334766
0.333	4.278516	4.391016	4.130859	4.33125	4.362891	4.774219
0.33325	4.728516	4.8375	4.545703	4.756641	4.823438	5.269922
0.3335	4.918359	5.013281	4.714453	4.918359	5.030859	5.477344
0.33375	4.911328	4.985156	4.700391	4.886719	5.044922	5.466797
0.334	5.087109	5.146875	4.848047	5.041406	5.220703	5.646094
0.33425	5.347266	5.378906	5.069531	5.262891	5.466797	5.899219
0.3345	5.540625	5.533594	5.227734	5.407031	5.639063	6.064453
0.33475	5.575781	5.537109	5.248828	5.407031	5.674219	6.078516
0.335	5.442188	5.375391	5.11875	5.252344	5.547656	5.923828
0.33525	5.301563	5.213672	4.981641	5.097656	5.410547	5.755078
0.3355	5.248828	5.139844	4.921875	5.030859	5.350781	5.674219
0.33575	5.238281	5.115234	4.900781	5.009766	5.333203	5.642578
0.336	5.196094	5.051953	4.851563	4.946484	5.280469	5.575781
0.33625	5.048438	4.883203	4.710938	4.784766	5.125781	5.392969
0.3365	4.777734	4.587891	4.454297	4.503516	4.844531	5.073047
0.33675	4.352344	4.102734	4.042969	4.039453	4.391016	4.566797
0.337	3.670313	3.357422	3.385547	3.31875	3.684375	3.775781
0.33725	2.935547	2.5875	2.7	2.583984	2.935547	2.949609
0.3375	2.429297	2.042578	2.218359	2.070703	2.394141	2.355469
0.33775	2.032031	1.63125	1.838672	1.680469	1.965234	1.898438
0.338	1.606641	1.212891	1.448438	1.283203	1.529297	1.430859
0.33825	1.18125	0.759375	1.054688	0.8613281	1.072266	0.9457031
0.3385	0.8121094	0.3445313	0.703125	0.478125	0.6539063	0.50625
0.33875	0.4253906	-0.05976563	0.3339844	0.08789063	0.2320313	0.05976563
0.339	0.08085938	-0.4078125	0.0140625	-0.2390625	-0.1300781	-0.3304688
0.33925	-0.2777344	-0.7734375	-0.3128906	-0.5835938	-0.5027344	-0.7242188
0.3395	-1.107422	-1.63125	-1.075781	-1.409766	-1.332422	-1.624219
0.33975	-2.063672	-2.622656	-1.961719	-2.351953	-2.299219	-2.682422
0.34	-2.735156	-3.308203	-2.576953	-2.991797	-2.988281	-3.43125
0.34025	-3.336328	-3.919922	-3.132422	-3.564844	-3.617578	-4.092188
0.3405	-3.684375	-4.250391	-3.445313	-3.874219	-3.990234	-4.464844
0.34075	-3.891797	-4.436719	-3.624609	-4.046484	-4.215234	-4.686328
0.341	-4.211719	-4.763672	-3.916406	-4.345313	-4.549219	-5.034375
0.34125	-4.594922	-5.157422	-4.260938	-4.710938	-4.953516	-5.449219
0.3415	-5.073047	-5.635547	-4.696875	-5.175	-5.445703	-5.958984
0.34175	-5.378906	-5.927344	-4.974609	-5.45625	-5.765625	-6.282422
0.342	-5.364844	-5.888672	-4.953516	-5.414063	-5.776172	-6.264844
0.34225	-5.45625	-5.966016	-5.030859	-5.487891	-5.874609	-6.35625
0.3425	-5.730469	-6.212109	-5.269922	-5.726953	-6.124219	-6.626953
0.34275	-5.951953	-6.401953	-5.45625	-5.902734	-6.331641	-6.837891
0.343	-6.053906	-6.479297	-5.540625	-5.9625	-6.433594	-6.922266
0.34325	-5.969531	-6.366797	-5.459766	-5.857031	-6.35625	-6.813281
0.3435	-5.825391	-6.198047	-5.319141	-5.698828	-6.212109	-6.644531
0.34375	-5.751563	-6.103125	-5.238281	-5.614453	-6.138281	-6.546094
0.344	-5.698828	-6.036328	-5.185547	-5.551172	-6.078516	-6.465234
0.34425	-5.649609	-5.973047	-5.139844	-5.494922	-6.022266	-6.394922
0.3445	-5.558203	-5.871094	-5.048438	-5.389453	-5.934375	-6.289453
0.34475	-5.333203	-5.625	-4.830469	-5.146875	-5.716406	-6.036328
0.345	-4.957031	-5.203125	-4.471875	-4.742578	-5.322656	-5.596875
0.34525	-4.345313	-4.510547	-3.884766	-4.081641	-4.66875	-4.876172
0.3455	-3.578906	-3.698438	-3.157031	-3.301172	-3.888281	-4.007813
0.34575	-2.977734	-3.076172	-2.598047	-2.714063	-3.273047	-3.332813
0.346	-2.555859	-2.633203	-2.211328	-2.30625	-2.819531	-2.840625
0.34625	-2.165625	-2.235938	-1.849219	-1.933594	-2.408203	-2.404688
0.3465	-1.764844	-1.821094	-1.466016	-1.536328	-1.989844	-1.954688
0.34675	-1.388672	-1.413281	-1.107422	-1.149609	-1.575	-1.511719
0.347	-1.0125	-1.008984	-0.7523438	-0.7699219	-1.160156	-1.075781
0.34725	-0.6539063	-0.6328125	-0.4148438	-0.4113281	-0.7664063	-0.6644531
0.3475	-0.3585938	-0.3445313	-0.140625	-0.1335938	-0.4640625	-0.3410156
0.34775	0.2882813	0.3199219	0.4535156	0.5027344	0.1757813	0.365625
0.348	1.29375	1.374609	1.395703	1.51875	1.195313	1.483594
0.34825	2.049609	2.155078	2.098828	2.257031	1.979297	2.327344
0.3485	2.647266	2.752734	2.64375	2.819531	2.601563	2.98125
0.34875	3.083203	3.178125	3.041016	3.216797	3.062109	3.459375
0.349	3.273047	3.353906	3.213281	3.371484	3.280078	3.673828
0.34925	3.547266	3.628125	3.462891	3.631641	3.582422	3.979688
0.3495	3.926953	4.014844	3.810938	3.997266	3.983203	4.391016
0.34975	4.383984	4.475391	4.229297	4.433203	4.454297	4.883203
0.35	4.777734	4.865625	4.587891	4.802344	4.865625	5.315625
0.35025	4.855078	4.921875	4.651172	4.848047	4.964063	5.4
0.3505	4.883203	4.928906	4.66875	4.848047	5.002734	5.414063
0.35075	5.104688	5.129297	4.851563	5.034375	5.213672	5.628516
0.351	5.368359	5.357813	5.073047	5.252344	5.45625	5.878125
0.35125	5.56875	5.530078	5.238281	5.410547	5.646094	6.060938
0.3515	5.537109	5.470313	5.199609	5.350781	5.621484	6.015234
0.35175	5.368359	5.269922	5.034375	5.160938	5.45625	5.821875
0.352	5.266406	5.150391	4.932422	5.044922	5.350781	5.691797
0.35225	5.23125	5.104688	4.890234	4.995703	5.308594	5.632031
0.3525	5.196094	5.051953	4.855078	4.95	5.262891	5.572266
0.35275	5.115234	4.946484	4.770703	4.851563	5.171484	5.459766
0.353	4.942969	4.760156	4.6125	4.672266	4.999219	5.262891
0.35325	4.658203	4.44375	4.334766	4.366406	4.700391	4.925391
0.3535	4.113281	3.828516	3.807422	3.775781	4.127344	4.282031
0.35375	3.336328	2.991797	3.072656	2.974219	3.325781	3.392578
0.354	2.685938	2.309766	2.464453	2.330859	2.657813	2.654297
0.35425	2.239453	1.838672	2.035547	1.884375	2.179688	2.141016
0.3545	1.821094	1.413281	1.645313	1.476563	1.736719	1.666406
0.35475	1.399219	0.9808594	1.255078	1.072266	1.29375	1.188281
0.355	1.008984	0.5554688	0.8859375	0.675	0.871875	0.7347656
0.35525	0.646875	0.1617188	0.5414063	0.3058594	0.4675781	0.3128906
0.3555	0.2566406	-0.2425781	0.1722656	-0.07734375	0.04921875	-0.1265625
0.35575	-0.05625	-0.5589844	-0.1195313	-0.3796875	-0.28125	-0.4816406
0.356	-0.534375	-1.040625	-0.5484375	-0.8402344	-0.7628906	-0.9949219
0.35625	-1.487109	-2.035547	-1.430859	-1.789453	-1.715625	-2.035547
0.3565	-2.366016	-2.942578	-2.242969	-2.647266	-2.615625	-3.012891
0.35675	-2.991797	-3.582422	-2.816016	-3.244922	-3.273047	-3.7125
0.357	-3.522656	-4.109766	-3.301172	-3.744141	-3.828516	-4.292578
0.35725	-3.779297	-4.341797	-3.526172	-3.958594	-4.10625	-4.566797
0.3575	-4.007813	-4.563281	-3.737109	-4.155469	-4.359375	-4.819922
0.35775	-4.369922	-4.939453	-4.067578	-4.507031	-4.746094	-5.220703
0.358	-4.795313	-5.371875	-4.450781	-4.925391	-5.189063	-5.68125
0.35825	-5.210156	-5.779688	-4.830469	-5.319141	-5.614453	-6.120703
0.3585	-5.364844	-5.913281	-4.974609	-5.445703	-5.786719	-6.278906
0.35875	-5.364844	-5.892188	-4.964063	-5.417578	-5.800781	-6.271875
0.359	-5.547656	-6.057422	-5.122266	-5.575781	-5.976563	-6.454688
0.35925	-5.804297	-6.278906	-5.347266	-5.790234	-6.212109	-6.700781
0.3595	-6.008203	-6.454688	-5.519531	-5.948438	-6.408984	-6.897656
0.35975	-6.071484	-6.496875	-5.561719	-5.980078	-6.479297	-6.946875
0.36	-5.934375	-6.335156	-5.428125	-5.828906	-6.345703	-6.788672
0.36025	-5.790234	-6.159375	-5.2875	-5.670703	-6.194531	-6.605859
0.3605	-5.733984	-6.082031	-5.224219	-5.596875	-6.124219	-6.514453
0.36075	-5.716406	-6.053906	-5.199609	-5.572266	-6.099609	-6.479297
0.361	-5.670703	-5.990625	-5.150391	-5.508984	-6.046875	-6.408984
0.36125	-5.516016	-5.821875	-5.002734	-5.34375	-5.895703	-6.236719
0.3615	-5.259375	-5.547656	-4.763672	-5.080078	-5.649609	-5.955469
0.36175	-4.8375	-5.0625	-4.352344	-4.6125	-5.203125	-5.452734
0.362	-4.116797	-4.267969	-3.659766	-3.846094	-4.447266	-4.616016
0.36225	-3.367969	-3.480469	-2.953125	-3.09375	-3.684375	-3.76875
0.3625	-2.854688	-2.939063	-2.478516	-2.591016	-3.15	-3.178125
0.36275	-2.457422	-2.53125	-2.112891	-2.211328	-2.724609	-2.724609
0.363	-2.060156	-2.126953	-1.74375	-1.828125	-2.30625	-2.278125
0.36325	-1.648828	-1.694531	-1.353516	-1.409766	-1.866797	-1.803516
0.3635	-1.279688	-1.29375	-0.9984375	-1.033594	-1.455469	-1.367578
0.36375	-0.9	-0.8859375	-0.6433594	-0.6539063	-1.037109	-0.9316406
0.364	-0.5589844	-0.5308594	-0.3269531	-0.3234375	-0.6679688	-0.5484375
0.36425	-0.2039063	-0.1792969	-0.003515625	0.00703125	-0.309375	-0.1617188
0.3645	0.6539063	0.7136719	0.7910156	0.8753906	0.5484375	0.7734375
0.36475	1.669922	1.775391	1.740234	1.894922	1.585547	1.908984
0.365	2.299219	2.415234	2.323828	2.496094	2.25	2.615625
0.36525	2.872266	2.988281	2.851172	3.033984	2.847656	3.241406
0.3655	3.223828	3.332813	3.164063	3.350391	3.227344	3.635156
0.36575	3.364453	3.459375	3.287109	3.459375	3.392578	3.793359
0.366	3.659766	3.754688	3.568359	3.744141	3.7125	4.113281
0.36625	4.074609	4.180078	3.951563	4.148438	4.144922	4.559766
0.3665	4.545703	4.661719	4.3875	4.601953	4.637109	5.083594
0.36675	4.826953	4.928906	4.644141	4.858594	4.935938	5.392969
0.367	4.812891	4.886719	4.626563	4.812891	4.942969	5.368359
0.36725	4.918359	4.981641	4.717969	4.904297	5.058984	5.473828
0.3675	5.206641	5.245313	4.960547	5.157422	5.329688	5.762109
0.36775	5.438672	5.431641	5.150391	5.340234	5.537109	5.969531
0.368	5.530078	5.491406	5.227734	5.396484	5.625	6.039844
0.36825	5.449219	5.389453	5.146875	5.291016	5.554688	5.944922
0.3685	5.301563	5.217188	4.995703	5.122266	5.410547	5.772656
0.36875	5.203125	5.094141	4.89375	5.002734	5.308594	5.635547
0.369	5.182031	5.058984	4.865625	4.967578	5.280469	5.589844
0.36925	5.167969	5.030859	4.841016	4.935938	5.255859	5.554688
0.3695	5.066016	4.904297	4.739063	4.819922	5.146875	5.421094
0.36975	4.848047	4.672266	4.538672	4.594922	4.935938	5.171484
0.37	4.492969	4.271484	4.197656	4.211719	4.563281	4.749609
0.37025	3.863672	3.561328	3.582422	3.529688	3.902344	4.011328
0.3705	3.083203	2.735156	2.854688	2.738672	3.107813	3.128906
0.37075	2.510156	2.130469	2.316797	2.169141	2.503125	2.464453
0.371	2.105859	1.708594	1.933594	1.771875	2.063672	1.996875
0.37125	1.701563	1.304297	1.557422	1.388672	1.641797	1.546875
0.3715	1.283203	0.871875	1.167188	0.9773438	1.198828	1.072266
0.37175	0.9070313	0.4640625	0.8085938	0.590625	0.7875	0.6328125
0.372	0.5167969	0.0421875	0.4359375	0.1933594	0.3585938	0.1792969
0.37225	0.1160156	-0.3761719	0.06328125	-0.196875	-0.06679688	-0.2742188
0.3725	-0.16875	-0.646875	-0.1863281	-0.45	-0.3621094	-0.5835938
0.37275	-0.7769531	-1.269141	-0.7523438	-1.051172	-0.9703125	-1.241016
0.373	-1.775391	-2.316797	-1.680469	-2.053125	-1.982813	-2.341406
0.37325	-2.524219	-3.086719	-2.373047	-2.784375	-2.759766	-3.181641
0.3735	-3.121875	-3.691406	-2.921484	-3.353906	-3.382031	-3.842578
0.37375	-3.568359	-4.127344	-3.336328	-3.772266	-3.849609	-4.334766
0.374	-3.789844	-4.33125	-3.533203	-3.955078	-4.095703	-4.580859
0.37425	-4.074609	-4.623047	-3.796875	-4.222266	-4.401563	-4.904297
0.3745	-4.422656	-4.981641	-4.120313	-4.559766	-4.777734	-5.294531
0.37475	-4.865625	-5.431641	-4.524609	-4.992188	-5.238281	-5.772656
0.375	-5.276953	-5.835938	-4.897266	-5.382422	-5.663672	-6.208594
0.37525	-5.347266	-5.885156	-4.953516	-5.414063	-5.758594	-6.282422
0.3755	-5.368359	-5.881641	-4.957031	-5.407031	-5.783203	-6.289453
0.37575	-5.621484	-6.110156	-5.175	-5.632031	-6.015234	-6.539063
0.376	-5.878125	-6.335156	-5.389453	-5.839453	-6.250781	-6.781641
0.37625	-6.025781	-6.454688	-5.505469	-5.941406	-6.391406	-6.908203
0.3765	-6.001172	-6.398438	-5.470313	-5.888672	-6.366797	-6.858984
0.37675	-5.842969	-6.212109	-5.319141	-5.712891	-6.212109	-6.669141
0.377	-5.723438	-6.071484	-5.199609	-5.575781	-6.089063	-6.514453
0.37725	-5.691797	-6.025781	-5.160938	-5.533594	-6.050391	-6.458203
0.3775	-5.677734	-5.997656	-5.139844	-5.508984	-6.029297	-6.423047
0.37775	-5.610938	-5.913281	-5.069531	-5.424609	-5.955469	-6.328125
0.378	-5.424609	-5.705859	-4.886719	-5.224219	-5.772656	-6.117188
0.37825	-5.115234	-5.361328	-4.591406	-4.89375	-5.459766	-5.762109
0.3785	-4.577344	-4.753125	-4.074609	-4.310156	-4.89375	-5.132813
0.37875	-3.800391	-3.909375	-3.336328	-3.501563	-4.088672	-4.243359
0.379	-3.128906	-3.209766	-2.707031	-2.840625	-3.399609	-3.483984
0.37925	-2.7	-2.763281	-2.309766	-2.422266	-2.942578	-2.984766
0.3795	-2.299219	-2.351953	-1.940625	-2.035547	-2.517188	-2.53125
0.37975	-1.852734	-1.884375	-1.51875	-1.589063	-2.049609	-2.025
0.38	-1.451953	-1.451953	-1.146094	-1.188281	-1.613672	-1.557422
0.38025	-1.096875	-1.075781	-0.815625	-0.8367188	-1.226953	-1.149609
0.3805	-0.6996094	-0.6503906	-0.4464844	-0.4359375	-0.7945313	-0.6890625
0.38075	-0.3796875	-0.3269531	-0.1511719	-0.1335938	-0.4570313	-0.3269531
0.381	0.08085938	0.1335938	0.2671875	0.309375	0.003515625	0.1652344
0.38125	1.030078	1.121484	1.146094	1.258594	0.9492188	1.202344
0.3815	1.901953	2.032031	1.958203	2.116406	1.842188	2.172656
0.38175	2.527734	2.661328	2.534766	2.714063	2.496094	2.865234
0.382	3.041016	3.171094	3.009375	3.192188	3.0375	3.434766
0.38225	3.280078	3.392578	3.223828	3.396094	3.301172	3.698438
0.3825	3.505078	3.610547	3.434766	3.607031	3.557813	3.948047
0.38275	3.849609	3.965625	3.751172	3.941016	3.926953	4.327734
0.383	4.264453	4.3875	4.137891	4.341797	4.362891	4.777734
0.38325	4.717969	4.841016	4.55625	4.774219	4.826953	5.273438
0.3835	4.897266	5.00625	4.717969	4.925391	5.027344	5.473828
0.38375	4.89375	4.981641	4.700391	4.89375	5.037891	5.463281
0.384	5.080078	5.157422	4.865625	5.0625	5.224219	5.660156
0.38425	5.350781	5.396484	5.097656	5.291016	5.473828	5.920313
0.3845	5.547656	5.551172	5.255859	5.435156	5.653125	6.089063
0.38475	5.593359	5.561719	5.283984	5.442188	5.695313	6.113672
0.385	5.449219	5.396484	5.146875	5.280469	5.565234	5.955469
0.38525	5.305078	5.23125	5.002734	5.122266	5.421094	5.779688
0.3855	5.252344	5.157422	4.942969	5.051953	5.361328	5.698828
0.38575	5.241797	5.132813	4.928906	5.030859	5.34375	5.667188
0.386	5.206641	5.080078	4.883203	4.978125	5.294531	5.603906
0.38625	5.0625	4.914844	4.746094	4.819922	5.143359	5.431641
0.3865	4.798828	4.630078	4.5	4.549219	4.876172	5.125781
0.38675	4.394531	4.166016	4.102734	4.10625	4.44375	4.633594
0.387	3.708984	3.410156	3.438281	3.378516	3.733594	3.839063
0.38725	2.953125	2.615625	2.735156	2.622656	2.963672	2.984766
0.3875	2.443359	2.074219	2.257031	2.116406	2.422266	2.390625
0.38775	2.060156	1.673438	1.884375	1.736719	2.003906	1.947656
0.388	1.638281	1.255078	1.497656	1.335938	1.564453	1.483594
0.38825	1.205859	0.7945313	1.096875	0.9105469	1.103906	0.984375
0.3885	0.8296875	0.3761719	0.7417969	0.5238281	0.6855469	0.5378906
0.38875	0.4570313	-0.01757813	0.3867188	0.1476563	0.28125	0.1089844
0.389	0.1160156	-0.365625	0.06679688	-0.1757813	-0.08085938	-0.2742188
0.38925	-0.253125	-0.7347656	-0.2636719	-0.5273438	-0.4605469	-0.6785156
0.3895	-1.072266	-1.585547	-1.019531	-1.342969	-1.276172	-1.571484
0.38975	-2.035547	-2.5875	-1.916016	-2.302734	-2.257031	-2.633203
0.39	-2.710547	-3.276563	-2.538281	-2.949609	-2.956641	-3.389063
0.39025	-3.301172	-3.870703	-3.079688	-3.505078	-3.571875	-4.042969
0.3905	-3.65625	-4.208203	-3.399609	-3.821484	-3.948047	-4.426172
0.39075	-3.853125	-4.3875	-3.575391	-3.986719	-4.166016	-4.644141
0.391	-4.169531	-4.710938	-3.863672	-4.282031	-4.5	-4.992188
0.39125	-4.552734	-5.108203	-4.215234	-4.654688	-4.907813	-5.410547
0.3915	-5.016797	-5.579297	-4.633594	-5.104688	-5.385938	-5.90625
0.39175	-5.329688	-5.878125	-4.914844	-5.389453	-5.712891	-6.236719
0.392	-5.34375	-5.867578	-4.918359	-5.368359	-5.744531	-6.247266
0.39225	-5.442188	-5.948438	-4.995703	-5.442188	-5.842969	-6.338672
0.3925	-5.709375	-6.183984	-5.224219	-5.674219	-6.085547	-6.598828
0.39275	-5.934375	-6.380859	-5.417578	-5.853516	-6.292969	-6.809766
0.393	-6.036328	-6.454688	-5.498438	-5.916797	-6.398438	-6.894141
0.39325	-5.941406	-6.328125	-5.4	-5.797266	-6.307031	-6.771094
0.3935	-5.79375	-6.155859	-5.255859	-5.635547	-6.159375	-6.591797
0.39375	-5.712891	-6.050391	-5.175	-5.540625	-6.075	-6.475781
0.394	-5.649609	-5.969531	-5.111719	-5.463281	-6.008203	-6.387891
0.39425	-5.607422	-5.913281	-5.069531	-5.414063	-5.9625	-6.321094
0.3945	-5.519531	-5.811328	-4.978125	-5.315625	-5.874609	-6.215625
0.39475	-5.280469	-5.558203	-4.756641	-5.069531	-5.642578	-5.955469
0.395	-4.904297	-5.129297	-4.401563	-4.661719	-5.252344	-5.519531
0.39525	-4.292578	-4.44375	-3.807422	-4.000781	-4.601953	-4.802344
0.3955	-3.533203	-3.642188	-3.086719	-3.230859	-3.832031	-3.941016
0.39575	-2.949609	-3.030469	-2.538281	-2.654297	-3.227344	-3.273047
0.396	-2.53125	-2.591016	-2.151563	-2.246484	-2.773828	-2.787891
0.39625	-2.141016	-2.197266	-1.789453	-1.866797	-2.3625	-2.344922
0.3965	-1.740234	-1.782422	-1.40625	-1.466016	-1.940625	-1.891406
0.39675	-1.353516	-1.371094	-1.040625	-1.075781	-1.522266	-1.441406
0.397	-0.9808594	-0.9738281	-0.6925781	-0.7066406	-1.114453	-1.008984
0.39725	-0.6363281	-0.6046875	-0.3621094	-0.3550781	-0.7277344	-0.6046875
0.3975	-0.3445313	-0.3234375	-0.09140625	-0.08085938	-0.4253906	-0.2847656
0.39775	0.2953125	0.3339844	0.4992188	0.5519531	0.2144531	0.4148438
0.398	1.311328	1.399219	1.441406	1.567969	1.248047	1.539844
0.39825	2.063672	2.172656	2.141016	2.302734	2.032031	2.380078
0.3985	2.664844	2.770313	2.689453	2.86875	2.661328	3.044531
0.39875	3.111328	3.209766	3.09375	3.276563	3.135938	3.536719
0.399	3.287109	3.375	3.251953	3.424219	3.339844	3.740625
0.39925	3.564844	3.652734	3.508594	3.687891	3.638672	4.046484
0.3995	3.951563	4.05	3.867188	4.064063	4.05	4.464844
0.39975	4.394531	4.5	4.275	4.482422	4.507031	4.95
0.4	4.788281	4.890234	4.637109	4.851563	4.918359	5.385938
0.40025	4.862109	4.942969	4.696875	4.89375	5.013281	5.459766
0.4005	4.872656	4.939453	4.696875	4.879688	5.034375	5.463281
0.40075	5.108203	5.153906	4.897266	5.090625	5.255859	5.698828
0.401	5.389453	5.407031	5.132813	5.326172	5.5125	5.966016
0.40125	5.589844	5.572266	5.294531	5.473828	5.702344	6.134766
0.4015	5.558203	5.5125	5.255859	5.410547	5.677734	6.082031
0.40175	5.382422	5.312109	5.087109	5.217188	5.508984	5.888672
0.402	5.280469	5.189063	4.978125	5.097656	5.407031	5.758594
0.40225	5.252344	5.143359	4.942969	5.055469	5.371875	5.702344
0.4025	5.217188	5.090625	4.911328	5.009766	5.329688	5.642578
0.40275	5.136328	4.981641	4.826953	4.907813	5.234766	5.530078
0.403	4.960547	4.788281	4.661719	4.721484	5.058984	5.326172
0.40325	4.66875	4.468359	4.380469	4.415625	4.760156	4.985156
0.4035	4.137891	3.860156	3.863672	3.835547	4.190625	4.352344
0.40375	3.360938	3.019922	3.132422	3.033984	3.392578	3.462891
0.404	2.7	2.327344	2.510156	2.376563	2.717578	2.710547
0.40425	2.25	1.849219	2.08125	1.930078	2.235938	2.190234
0.4045	1.835156	1.423828	1.694531	1.525781	1.796484	1.715625
0.40475	1.402734	0.984375	1.300781	1.114453	1.342969	1.230469
0.405	1.016016	0.5625	0.9316406	0.7171875	0.9140625	0.7769531
0.40525	0.6574219	0.1757813	0.590625	0.3515625	0.5167969	0.3550781
0.4055	0.2566406	-0.2425781	0.2144531	-0.03867188	0.084375	-0.1019531
0.40575	-0.05625	-0.5589844	-0.0703125	-0.3339844	-0.2460938	-0.4535156
0.406	-0.50625	-1.0125	-0.4816406	-0.7664063	-0.6960938	-0.9386719
0.40625	-1.473047	-2.025	-1.381641	-1.740234	-1.669922	-1.996875
0.4065	-2.3625	-2.946094	-2.207813	-2.612109	-2.583984	-2.984766
0.40675	-2.967188	-3.561328	-2.763281	-3.185156	-3.223828	-3.663281
0.407	-3.512109	-4.102734	-3.2625	-3.701953	-3.796875	-4.257422
0.40725	-3.772266	-4.334766	-3.494531	-3.919922	-4.078125	-4.535156
0.4075	-3.99375	-4.549219	-3.698438	-4.113281	-4.317188	-4.78125
0.40775	-4.359375	-4.932422	-4.032422	-4.464844	-4.707422	-5.185547
0.408	-4.777734	-5.361328	-4.408594	-4.872656	-5.146875	-5.639063
0.40825	-5.199609	-5.776172	-4.795313	-5.276953	-5.579297	-6.089063
0.4085	-5.357813	-5.909766	-4.942969	-5.407031	-5.751563	-6.250781
0.40875	-5.347266	-5.878125	-4.921875	-5.364844	-5.758594	-6.233203
0.409	-5.533594	-6.039844	-5.076563	-5.526563	-5.934375	-6.4125
0.40925	-5.807813	-6.275391	-5.315625	-5.758594	-6.183984	-6.672656
0.4095	-6.001172	-6.447656	-5.484375	-5.913281	-6.370313	-6.855469
0.40975	-6.053906	-6.479297	-5.523047	-5.934375	-6.433594	-6.901172
0.41	-5.927344	-6.317578	-5.396484	-5.790234	-6.310547	-6.746484
0.41025	-5.779688	-6.134766	-5.252344	-5.632031	-6.159375	-6.560156
0.4105	-5.712891	-6.053906	-5.189063	-5.554688	-6.089063	-6.46875
0.41075	-5.691797	-6.022266	-5.164453	-5.526563	-6.060938	-6.426563
0.411	-5.642578	-5.955469	-5.115234	-5.463281	-6.008203	-6.352734
0.41125	-5.498438	-5.79375	-4.974609	-5.312109	-5.864063	-6.1875
0.4115	-5.252344	-5.526563	-4.735547	-5.051953	-5.617969	-5.913281
0.41175	-4.830469	-5.044922	-4.327734	-4.584375	-5.171484	-5.414063
0.412	-4.113281	-4.253906	-3.642188	-3.825	-4.422656	-4.580859
0.41225	-3.353906	-3.452344	-2.928516	-3.062109	-3.645703	-3.716016
0.4125	-2.837109	-2.910938	-2.443359	-2.555859	-3.100781	-3.121875
0.41275	-2.446875	-2.506641	-2.084766	-2.179688	-2.682422	-2.678906
0.413	-2.046094	-2.098828	-1.712109	-1.792969	-2.260547	-2.225391
0.41325	-1.638281	-1.673438	-1.321875	-1.381641	-1.828125	-1.761328
0.4135	-1.244531	-1.244531	-0.9492188	-0.9808594	-1.395703	-1.304297
0.41375	-0.8121094	-0.7769531	-0.5484375	-0.5484375	-0.9246094	-0.8085938
0.414	-0.4570313	-0.4113281	-0.2214844	-0.2039063	-0.5449219	-0.4078125
0.41425	-0.1195313	-0.07734375	0.08085938	0.1054688	-0.2074219	-0.04570313
0.4145	0.6714844	0.7453125	0.815625	0.9	0.5835938	0.8226563
0.41475	1.585547	1.698047	1.673438	1.814063	1.51875	1.845703
0.415	2.214844	2.330859	2.253516	2.415234	2.165625	2.538281
0.41525	2.819531	2.942578	2.805469	2.995313	2.794922	3.199219
0.4155	3.199219	3.315234	3.146484	3.336328	3.202734	3.617578
0.41575	3.396094	3.501563	3.322266	3.505078	3.420703	3.835547
0.416	3.716016	3.821484	3.621094	3.810938	3.758203	4.180078
0.41625	4.116797	4.229297	3.99375	4.197656	4.180078	4.616016
0.4165	4.591406	4.710938	4.426172	4.651172	4.66875	5.136328
0.41675	4.872656	4.978125	4.686328	4.907813	4.964063	5.445703
0.417	4.855078	4.932422	4.665234	4.862109	4.964063	5.421094
0.41725	4.971094	5.037891	4.760156	4.957031	5.083594	5.530078
0.4175	5.262891	5.308594	5.013281	5.217188	5.361328	5.825391
0.41775	5.487891	5.491406	5.199609	5.392969	5.56875	6.025781
0.418	5.586328	5.554688	5.273438	5.452734	5.656641	6.096094
0.41825	5.494922	5.442188	5.182031	5.336719	5.575781	5.990625
0.4185	5.336719	5.259375	5.027344	5.157422	5.424609	5.811328
0.41875	5.248828	5.146875	4.939453	5.051953	5.333203	5.691797
0.419	5.224219	5.111719	4.911328	5.016797	5.308594	5.646094
0.41925	5.203125	5.073047	4.883203	4.981641	5.280469	5.607422
0.4195	5.108203	4.960547	4.788281	4.872656	5.182031	5.487891
0.41975	4.897266	4.732031	4.591406	4.651172	4.971094	5.241797
0.42	4.542188	4.334766	4.250391	4.271484	4.601953	4.826953
0.42025	3.912891	3.628125	3.638672	3.592969	3.941016	4.088672
0.4205	3.128906	2.791406	2.900391	2.794922	3.142969	3.199219
0.42075	2.552344	2.183203	2.358984	2.218359	2.538281	2.534766
0.421	2.144531	1.750781	1.96875	1.810547	2.095313	2.063672
0.42125	1.740234	1.342969	1.589063	1.423828	1.673438	1.613672
0.4215	1.328906	0.9210938	1.202344	1.019531	1.244531	1.153125
0.42175	0.9527344	0.5203125	0.8472656	0.6398438	0.8332031	0.7207031
0.422	0.5625	0.09492188	0.478125	0.2425781	0.4042969	0.2601563
0.42225	0.1757813	-0.3058594	0.1125	-0.1335938	-0.00703125	-0.1792969
0.4225	-0.08085938	-0.5519531	-0.1195313	-0.3691406	-0.2777344	-0.4640625
0.42275	-0.6785156	-1.160156	-0.6714844	-0.9597656	-0.871875	-1.107422
0.423	-1.705078	-2.239453	-1.63125	-1.996875	-1.916016	-2.242969
0.42325	-2.485547	-3.041016	-2.355469	-2.749219	-2.724609	-3.111328
0.4235	-3.072656	-3.631641	-2.896875	-3.311719	-3.336328	-3.765234
0.42375	-3.522656	-4.071094	-3.304688	-3.726563	-3.814453	-4.260938
0.424	-3.744141	-4.278516	-3.505078	-3.916406	-4.067578	-4.507031
0.42425	-4.018359	-4.552734	-3.758203	-4.169531	-4.362891	-4.805859
0.4245	-4.355859	-4.900781	-4.067578	-4.492969	-4.728516	-5.182031
0.42475	-4.795313	-5.347266	-4.468359	-4.921875	-5.189063	-5.660156
0.425	-5.217188	-5.762109	-4.844531	-5.319141	-5.617969	-6.103125
0.42525	-5.2875	-5.811328	-4.897266	-5.354297	-5.709375	-6.173438
0.4255	-5.301563	-5.804297	-4.900781	-5.347266	-5.733984	-6.173438
0.42575	-5.575781	-6.053906	-5.132813	-5.586328	-5.980078	-6.437109
0.426	-5.846484	-6.289453	-5.364844	-5.807813	-6.226172	-6.700781
0.42625	-5.997656	-6.4125	-5.487891	-5.909766	-6.373828	-6.837891
0.4265	-5.966016	-6.352734	-5.449219	-5.846484	-6.349219	-6.788672
0.42675	-5.800781	-6.155859	-5.291016	-5.667188	-6.183984	-6.591797
0.427	-5.684766	-6.01875	-5.178516	-5.540625	-6.064453	-6.440625
0.42725	-5.635547	-5.955469	-5.129297	-5.480859	-6.011719	-6.370313
0.4275	-5.607422	-5.913281	-5.097656	-5.442188	-5.976563	-6.324609
0.42775	-5.544141	-5.832422	-5.027344	-5.364844	-5.902734	-6.236719
0.428	-5.361328	-5.635547	-4.851563	-5.167969	-5.723438	-6.032813
0.42825	-5.055469	-5.298047	-4.559766	-4.848047	-5.410547	-5.688281
0.4285	-4.531641	-4.703906	-4.053516	-4.278516	-4.851563	-5.069531
0.42875	-3.758203	-3.860156	-3.322266	-3.473438	-4.053516	-4.187109
0.429	-3.076172	-3.15	-2.685938	-2.801953	-3.357422	-3.417188
0.42925	-2.640234	-2.7	-2.285156	-2.380078	-2.889844	-2.910938
0.4295	-2.235938	-2.281641	-1.9125	-1.993359	-2.460938	-2.453906
0.42975	-1.778906	-1.803516	-1.483594	-1.539844	-1.982813	-1.937109
0.43	-1.371094	-1.367578	-1.100391	-1.132031	-1.543359	-1.4625
0.43025	-1.019531	-0.9949219	-0.7699219	-0.7804688	-1.156641	-1.058203
0.4305	-0.6257813	-0.5765625	-0.4078125	-0.3902344	-0.7277344	-0.6082031
0.43075	-0.3058594	-0.253125	-0.1160156	-0.08789063	-0.3867188	-0.2460938
0.431	0.140625	0.1933594	0.2917969	0.3410156	0.05976563	0.2320313
0.43125	1.075781	1.170703	1.160156	1.279688	0.9949219	1.262109
0.4315	1.961719	2.095313	1.982813	2.155078	1.905469	2.246484
0.43175	2.591016	2.728125	2.559375	2.749219	2.559375	2.942578
0.432	3.111328	3.244922	3.033984	3.237891	3.107813	3.519141
0.43225	3.371484	3.4875	3.2625	3.462891	3.396094	3.807422
0.4325	3.610547	3.719531	3.476953	3.677344	3.659766	4.067578
0.43275	3.962109	4.074609	3.800391	4.011328	4.032422	4.440234
0.433	4.359375	4.478906	4.176563	4.398047	4.450781	4.879688
0.43325	4.802344	4.921875	4.587891	4.826953	4.907813	5.368359
0.4335	4.978125	5.087109	4.749609	4.981641	5.111719	5.56875
0.43375	4.964063	5.051953	4.728516	4.942969	5.115234	5.544141
0.434	5.153906	5.227734	4.89375	5.108203	5.301563	5.733984
0.43425	5.435156	5.473828	5.132813	5.347266	5.565234	6.004688
0.4345	5.635547	5.639063	5.298047	5.501953	5.748047	6.183984
0.43475	5.670703	5.649609	5.326172	5.508984	5.790234	6.208594
0.435	5.526563	5.484375	5.189063	5.350781	5.663672	6.053906
0.43525	5.389453	5.322656	5.055469	5.192578	5.526563	5.888672
0.4355	5.329688	5.241797	4.992188	5.115234	5.459766	5.800781
0.43575	5.315625	5.210156	4.971094	5.090625	5.442188	5.758594
0.436	5.280469	5.153906	4.928906	5.041406	5.396484	5.695313
0.43625	5.129297	4.981641	4.784766	4.876172	5.238281	5.516016
0.4365	4.855078	4.686328	4.535156	4.598438	4.964063	5.196094
0.43675	4.450781	4.225781	4.141406	4.158984	4.531641	4.707422
0.437	3.765234	3.473438	3.480469	3.43125	3.817969	3.912891
0.43725	3.016406	2.685938	2.780859	2.682422	3.051563	3.058594
0.4375	2.517188	2.155078	2.309766	2.183203	2.520703	2.475
0.43775	2.141016	1.761328	1.940625	1.807031	2.112891	2.039063
0.438	1.719141	1.335938	1.546875	1.402734	1.673438	1.567969
0.43825	1.276172	0.871875	1.135547	0.9632813	1.202344	1.065234
0.4385	0.8964844	0.4535156	0.7804688	0.5765625	0.7875	0.6222656
0.43875	0.5203125	0.05273438	0.4253906	0.196875	0.3832031	0.1828125
0.439	0.1792969	-0.2917969	0.1019531	-0.1300781	0.01757813	-0.2003906
0.43925	-0.1652344	-0.6328125	-0.2039063	-0.45	-0.3304688	-0.5730469
0.4395	-0.9703125	-1.469531	-0.9421875	-1.255078	-1.135547	-1.448438
0.43975	-1.954688	-2.496094	-1.866797	-2.235938	-2.1375	-2.534766
0.44	-2.633203	-3.185156	-2.489063	-2.882813	-2.837109	-3.287109
0.44025	-3.220313	-3.779297	-3.026953	-3.441797	-3.452344	-3.9375
0.4405	-3.575391	-4.120313	-3.346875	-3.761719	-3.835547	-4.320703
0.44075	-3.761719	-4.289063	-3.515625	-3.916406	-4.039453	-4.517578
0.441	-4.074609	-4.605469	-3.803906	-4.211719	-4.373438	-4.862109
0.44125	-4.457813	-5.002734	-4.155469	-4.580859	-4.784766	-5.2875
0.4415	-4.921875	-5.473828	-4.577344	-5.030859	-5.273438	-5.797266
0.44175	-5.23125	-5.772656	-4.862109	-5.319141	-5.603906	-6.127734
0.442	-5.220703	-5.7375	-4.848047	-5.276953	-5.617969	-6.110156
0.44225	-5.312109	-5.811328	-4.918359	-5.347266	-5.712891	-6.191016
0.4425	-5.600391	-6.071484	-5.171484	-5.600391	-5.980078	-6.46875
0.44275	-5.825391	-6.254297	-5.361328	-5.779688	-6.183984	-6.683203
0.443	-5.916797	-6.321094	-5.438672	-5.839453	-6.275391	-6.767578
0.44325	-5.832422	-6.208594	-5.354297	-5.730469	-6.194531	-6.662109
0.4435	-5.691797	-6.050391	-5.217188	-5.575781	-6.057422	-6.489844
0.44375	-5.607422	-5.948438	-5.132813	-5.473828	-5.973047	-6.373828
0.444	-5.544141	-5.867578	-5.066016	-5.396484	-5.902734	-6.289453
0.44425	-5.508984	-5.814844	-5.023828	-5.347266	-5.857031	-6.229688
0.4445	-5.424609	-5.716406	-4.932422	-5.245313	-5.769141	-6.120703
0.44475	-5.203125	-5.477344	-4.717969	-5.009766	-5.544141	-5.871094
0.445	-4.844531	-5.069531	-4.373438	-4.619531	-5.167969	-5.449219
0.44525	-4.243359	-4.391016	-3.786328	-3.969141	-4.528125	-4.735547
0.4455	-3.480469	-3.582422	-3.065625	-3.188672	-3.747656	-3.867188
0.44575	-2.886328	-2.960156	-2.510156	-2.601563	-3.128906	-3.192188
0.446	-2.453906	-2.506641	-2.112891	-2.186719	-2.664844	-2.692969
0.44625	-2.053125	-2.098828	-1.740234	-1.8	-2.246484	-2.242969
0.4465	-1.652344	-1.683984	-1.360547	-1.399219	-1.824609	-1.792969
0.44675	-1.279688	-1.286719	-1.0125	-1.026563	-1.416797	-1.364063
0.447	-0.9105469	-0.8894531	-0.6679688	-0.6574219	-1.008984	-0.928125
0.44725	-0.5449219	-0.5027344	-0.3234375	-0.2953125	-0.6082031	-0.5097656
0.4475	-0.2496094	-0.2179688	-0.05976563	-0.028125	-0.309375	-0.1933594
0.44775	0.3832031	0.4324219	0.5238281	0.5941406	0.3199219	0.4921875
0.448	1.409766	1.515234	1.487109	1.634766	1.364063	1.638281
0.44825	2.155078	2.278125	2.179688	2.3625	2.141016	2.471484
0.4485	2.735156	2.861719	2.717578	2.914453	2.745703	3.107813
0.44875	3.185156	3.304688	3.125391	3.329297	3.216797	3.6
0.449	3.371484	3.473438	3.290625	3.483984	3.43125	3.807422
0.44925	3.638672	3.744141	3.540234	3.740625	3.723047	4.102734
0.4495	4.004297	4.120313	3.884766	4.099219	4.109766	4.496484
0.44975	4.450781	4.570313	4.296094	4.524609	4.570313	4.981641
0.45	4.851563	4.967578	4.672266	4.904297	4.988672	5.428125
0.45025	4.921875	5.016797	4.732031	4.95	5.083594	5.505469
0.4505	4.921875	4.999219	4.721484	4.928906	5.101172	5.498438
0.45075	5.157422	5.210156	4.921875	5.136328	5.326172	5.726953
0.451	5.445703	5.473828	5.167969	5.378906	5.593359	6.001172
0.45125	5.635547	5.632031	5.322656	5.526563	5.769141	6.166406
0.4515	5.600391	5.565234	5.280469	5.459766	5.730469	6.113672
0.45175	5.431641	5.368359	5.122266	5.269922	5.565234	5.923828
0.452	5.326172	5.245313	5.016797	5.150391	5.459766	5.797266
0.45225	5.2875	5.192578	4.971094	5.101172	5.410547	5.726953
0.4525	5.245313	5.125781	4.925391	5.044922	5.357813	5.656641
0.45275	5.175	5.027344	4.851563	4.95	5.269922	5.554688
0.453	5.013281	4.855078	4.696875	4.777734	5.108203	5.368359
0.45325	4.725	4.531641	4.419141	4.468359	4.812891	5.027344
0.4535	4.194141	3.926953	3.898828	3.888281	4.253906	4.398047
0.45375	3.420703	3.090234	3.164063	3.083203	3.462891	3.515625
0.454	2.752734	2.390625	2.541797	2.41875	2.780859	2.75625
0.45425	2.299219	1.9125	2.109375	1.965234	2.295703	2.232422
0.4545	1.884375	1.483594	1.719141	1.560938	1.852734	1.757813
0.45475	1.451953	1.044141	1.325391	1.153125	1.402734	1.276172
0.455	1.058203	0.6257813	0.95625	0.759375	0.9773438	0.8191406
0.45525	0.6996094	0.2320313	0.6117188	0.39375	0.5800781	0.3972656
0.4555	0.309375	-0.1792969	0.2425781	0.003515625	0.1511719	-0.04921875
0.45575	-0.003515625	-0.4921875	-0.0421875	-0.2882813	-0.1792969	-0.4007813
0.456	-0.4675781	-0.9632813	-0.4570313	-0.7347656	-0.6433594	-0.9
0.45625	-1.430859	-1.965234	-1.35	-1.694531	-1.613672	-1.947656
0.4565	-2.316797	-2.882813	-2.169141	-2.559375	-2.520703	-2.925
0.45675	-2.949609	-3.522656	-2.738672	-3.157031	-3.178125	-3.624609
0.457	-3.491016	-4.060547	-3.227344	-3.663281	-3.747656	-4.215234
0.45725	-3.744141	-4.292578	-3.455859	-3.874219	-4.021875	-4.485938
0.4575	-3.972656	-4.514063	-3.663281	-4.078125	-4.271484	-4.739063
0.45775	-4.327734	-4.879688	-3.990234	-4.419141	-4.654688	-5.139844
0.458	-4.739063	-5.301563	-4.366406	-4.819922	-5.090625	-5.589844
0.45825	-5.164453	-5.726953	-4.760156	-5.23125	-5.530078	-6.046875
0.4585	-5.336719	-5.881641	-4.921875	-5.375391	-5.723438	-6.229688
0.45875	-5.329688	-5.853516	-4.904297	-5.340234	-5.733984	-6.215625
0.459	-5.505469	-6.004688	-5.048438	-5.491406	-5.902734	-6.384375
0.45925	-5.776172	-6.240234	-5.283984	-5.723438	-6.145313	-6.644531
0.4595	-5.980078	-6.423047	-5.459766	-5.885156	-6.338672	-6.841406
0.45975	-6.046875	-6.46875	-5.508984	-5.920313	-6.4125	-6.897656
0.46	-5.916797	-6.303516	-5.375391	-5.765625	-6.285938	-6.739453
0.46025	-5.762109	-6.117188	-5.217188	-5.593359	-6.127734	-6.542578
0.4605	-5.702344	-6.046875	-5.153906	-5.523047	-6.060938	-6.454688
0.46075	-5.698828	-6.029297	-5.139844	-5.501953	-6.046875	-6.426563
0.461	-5.663672	-5.976563	-5.094141	-5.445703	-5.997656	-6.363281
0.46125	-5.523047	-5.814844	-4.95	-5.283984	-5.853516	-6.191016
0.4615	-5.269922	-5.544141	-4.707422	-5.020313	-5.607422	-5.913281
0.46175	-4.855078	-5.069531	-4.303125	-4.55625	-5.167969	-5.417578
0.462	-4.144922	-4.289063	-3.624609	-3.807422	-4.433203	-4.594922
0.46225	-3.399609	-3.501563	-2.917969	-3.051563	-3.670313	-3.751172
0.4625	-2.861719	-2.939063	-2.411719	-2.517188	-3.100781	-3.132422
0.46275	-2.415234	-2.471484	-1.996875	-2.077734	-2.619141	-2.622656
0.463	-2.000391	-2.053125	-1.617188	-1.683984	-2.190234	-2.162109
0.46325	-1.613672	-1.645313	-1.255078	-1.300781	-1.775391	-1.722656
0.4635	-1.265625	-1.272656	-0.9316406	-0.9632813	-1.395703	-1.321875
0.46375	-0.9246094	-0.9070313	-0.6222656	-0.6328125	-1.023047	-0.9246094
0.464	-0.5976563	-0.5660156	-0.3269531	-0.3199219	-0.6714844	-0.5554688
0.46425	-0.2285156	-0.2003906	0.003515625	0.02109375	-0.3023438	-0.1617188
0.4645	0.590625	0.6503906	0.759375	0.8402344	0.5132813	0.7277344
