-7.62289,-6.74673,-4.38759,-6.61612,-4.99134,-2.20812,-4.77524,-2.83219,-8.04095,-5.79869,-5.02437,-5.19237,-2.30168,-3.54881,-4.83308,-3.75135,56.12,-845.216,-528.992,1960,-1820,-280
-5.71086,-4.40894,-2.03744,-3.88169,-2.98888,-0.782002,-2.99347,-1.31759,-7.21893,-3.52886,-2.5203,-3.42401,-0.695134,-1.6958,-2.88544,-2.40728,54.168,-849.608,-531.92,1960,-1680,-140
0.0817412,0.444414,1.54404,0.435287,0.237523,0.545748,0.752128,-0.360068,-0.77161,1.46427,2.23132,0.840124,1.7086,0.756867,0.841489,-0.2162,55.144,-846.68,-531.432,2380,-1540,140
5.2796,6.04491,5.4738,5.71512,5.42087,2.97418,5.70428,2.15474,4.96285,5.74715,5.94638,5.79759,4.70812,4.16389,7.33112,4.06465,55.144,-847.168,-533.384,3080,-1540,280
4.99102,4.8265,5.45317,4.57829,5.24039,2.63184,3.83791,1.41452,4.09642,5.90261,6.18786,5.48815,4.58084,4.2372,5.71753,3.60357,55.144,-844.728,-532.408,3360,-1540,700
2.13188,1.31612,2.03593,0.920558,1.21577,-0.688801,-0.499189,-1.70238,0.795101,2.34073,2.51203,1.70052,1.58194,0.8635,-0.214579,-0.204821,57.096,-842.288,-534.848,3640,-1680,700
1.66197,0.968422,0.0956678,-0.0460849,-0.40416,-2.24295,-2.51378,-3.52498,0.224967,1.15554,1.18271,0.361493,-0.263157,-0.991427,-2.18874,-2.46794,50.752,-843.752,-531.432,3920,-1540,980
5.25132,5.54171,2.80017,3.54176,2.62733,-1.58876,0.0330465,-3.18892,5.47936,4.67548,3.64682,4.82813,1.76254,0.805387,1.62435,-0.737851,53.192,-839.36,-535.824,4200,-1540,1120
6.39986,4.2767,3.67148,3.0455,2.61257,-0.228436,1.0094,-1.27466,5.23229,6.30112,5.25437,4.43947,2.83536,1.07596,1.66591,-0.223226,54.168,-839.36,-535.336,4340,-1260,1400
5.31754,0.614466,1.73856,-1.43362,-1.20415,-0.43406,-2.44761,-2.42376,4.30696,6.32627,5.93463,1.39573,2.35595,-0.854923,-3.19252,-2.22693,53.192,-839.36,-538.264,4200,-840,1540
2.45712,0.0622826,-0.961873,-1.30966,-1.32074,-0.936375,-1.05722,-1.58931,3.62628,2.06887,1.3011,-0.462917,-0.635504,-1.26379,-1.09386,-1.32097,50.264,-840.824,-535.336,4200,-840,1540
6.0448,7.25751,0.680568,6.71023,4.75449,1.11466,5.5496,1.70415,9.91652,1.59186,-1.29841,3.30463,-2.07735,2.238,7.05879,3.43599,51.728,-841.312,-534.36,4060,-280,1540
7.65617,10.242,3.09806,10.4812,7.70835,2.94934,9.09993,4.04734,12.0156,2.28031,-1.16263,6.1489,-0.474912,5.28293,10.5774,6.44188,51.728,-844.24,-532.408,3500,0,1400
5.27941,7.91765,3.54844,10.7421,7.9303,3.35029,10.6198,5.2843,8.3341,2.25725,-0.135647,5.71226,0.775703,5.61333,13.2563,7.71392,50.752,-842.776,-533.384,3220,140,1400
2.01943,3.44982,1.61144,6.6806,4.58916,2.07086,8.18934,3.6041,3.50846,1.07608,0.379794,2.89481,1.16426,3.00115,10.5638,5.54444,52.216,-845.216,-529.48,2800,700,1260
0.801714,0.833521,0.400028,1.68412,0.946964,0.491758,2.1065,1.01911,1.89716,0.769089,0.99136,0.697809,1.24099,0.514218,3.53594,0.962625,48.8,-848.632,-528.016,2240,840,1260
-1.94259,-2.99236,-0.917949,-4.48208,-3.60261,-0.851975,-4.37115,-1.95004,-1.88654,-0.465162,1.15076,-2.06048,0.612263,-2.17729,-4.47335,-3.27352,48.8,-845.704,-526.064,2100,980,700
-2.6334,-4.14036,-0.91504,-5.9387,-3.90682,-0.275581,-4.3741,-1.00707,-3.29666,-1.02717,1.1807,-2.60923,0.680167,-1.86288,-6.80328,-2.60443,47.824,-846.192,-526.552,1960,1260,700
0.436334,-0.815001,1.24149,-2.26507,-0.709695,1.50029,-1.73498,1.22047,-0.874192,0.904607,1.42202,0.175597,1.5143,0.953823,-4.14745,0.592349,48.312,-845.704,-527.04,1680,980,560
-0.371151,-1.71049,1.22748,-2.37461,-0.971924,1.23832,-1.63187,1.61982,-2.79559,0.410245,0.581589,-0.0199528,0.643556,0.791732,-4.3532,0.49869,47.336,-846.192,-525.088,1540,980,420
-0.562659,-1.4643,0.28127,-1.74825,-0.954234,0.2349,-0.485004,1.14026,-2.3031,0.0987181,0.216155,-0.410482,-0.0011753,-0.00448116,-2.31664,0.272459,48.312,-844.24,-526.552,1400,420,140
1.51268,0.659397,0.124867,0.257665,-0.808254,-0.990939,-1.1927,-0.109764,0.544881,1.55036,1.28614,0.413255,0.0730762,-0.724734,-1.45675,-1.03974,49.288,-842.776,-525.576,980,140,0
1.565,2.78421,0.641148,3.7188,1.97348,-0.95703,1.77686,0.866384,1.81318,1.51166,1.24505,1.96863,-0.0966923,0.315838,3.28075,1.2515,50.752,-846.192,-522.648,840,0,-140
0.566788,3.84826,0.840305,3.80547,3.24612,0.470961,2.7992,1.53731,1.9705,-0.185,-0.407365,2.61489,0.314866,1.75398,4.15067,2.38968,48.312,-847.168,-520.208,560,-420,-420
-1.65685,1.30992,0.873335,1.09258,1.61615,1.32796,0.608468,0.861302,-1.17083,-1.11825,-1.60603,1.04878,0.542711,1.27253,-0.267209,0.685941,52.704,-844.24,-524.6,420,-840,-700
-6.68798,-5.41156,-2.13625,-4.03651,-2.57591,-0.228582,-2.77348,-0.664354,-8.02297,-4.23057,-3.36056,-3.82161,-0.953771,-1.41624,-4.60454,-1.72335,53.68,-844.728,-520.208,280,-840,-840
-9.35107,-8.16783,-4.77411,-5.21235,-4.28986,-1.15581,-2.63888,-0.684198,-10.2787,-7.07254,-4.89486,-6.67667,-2.85137,-3.39255,-3.42658,-2.1401,55.632,-848.632,-523.136,560,-700,-1120
-8.80497,-6.43339,-4.95492,-2.72335,-3.12525,-1.30972,-0.683523,-0.803485,-8.98731,-7.51392,-5.25148,-6.08142,-3.38575,-2.94939,0.280661,-1.21671,52.216,-848.144,-524.6,700,-1260,-1260
-3.6185,-2.67496,-4.08113,-1.46238,-2.57104,-2.30025,-2.9156,-2.14558,-2.25042,-4.67272,-4.58113,-3.59966,-3.27028,-2.57194,-1.41765,-2.89602,56.608,-846.68,-524.112,980,-1260,-1540
-1.17819,-1.90087,-2.80348,-3.20239,-2.95277,-2.4607,-5.14211,-3.35315,-0.368076,-2.4108,-2.28187,-2.16455,-2.67924,-2.94064,-5.05844,-4.39831,55.632,-847.168,-523.624,1120,-1680,-1820
-1.08734,-3.64682,-1.86136,-6.04019,-3.96584,-0.89312,-5.65376,-2.37855,-1.7412,-1.32388,-0.506461,-3.2018,-0.904731,-2.62434,-8.69176,-3.91541,57.584,-847.168,-524.112,1540,-2100,-1960
-0.0341352,-4.04886,-0.708572,-6.18412,-4.04388,-0.627566,-4.54502,-1.95852,-0.976747,0.912299,0.60756,-2.80039,0.605762,-1.77828,-7.85306,-2.82745,54.656,-849.12,-525.576,2100,-2520,-2240
1.16522,-1.64909,1.40729,-2.88282,-1.13161,0.603359,-1.27196,-0.737269,-0.0916486,2.39554,2.67341,-0.21567,2.0981,0.205407,-2.57282,-0.983247,60.024,-851.072,-528.504,3080,-3500,-2380
6.03449,4.56694,4.94398,4.61052,4.37217,2.79978,4.5854,1.30456,4.88254,5.19418,4.42599,5.12171,4.28464,3.7435,6.36965,2.95936,62.952,-850.096,-531.92,3640,-3920,-2380
7.14758,6.42304,5.62554,6.54143,5.93674,2.97244,5.31541,2.03414,6.13908,5.46599,2.77566,6.67614,3.37252,4.65196,7.83931,4.48483,61.976,-850.584,-532.896,4480,-4200,-2660
5.41718,5.25585,3.52033,4.2859,4.38382,2.18592,3.85531,2.43534,5.0177,3.90059,0.8007,4.96299,1.01338,3.32264,5.53106,3.54961,64.416,-848.144,-530.456,5740,-4480,-2520
3.86473,3.21928,2.14285,2.09389,2.5262,1.0901,1.83824,1.20156,3.70666,3.11915,1.79692,3.31723,0.568452,2.02772,2.72165,1.55429,60.512,-846.192,-529.968,6440,-4620,-2380
3.70747,4.38135,2.13347,3.02913,2.45874,0.651877,1.21191,0.292255,4.83144,2.84269,2.14786,3.44246,1.01209,1.55538,1.21965,1.02083,60.512,-843.752,-531.92,7700,-4340,-2100
4.51143,8.66601,3.26815,7.69093,5.24475,0.57578,4.45472,-0.285548,6.62833,3.15604,1.75039,5.56726,1.94479,3.01347,6.44029,2.79514,58.56,-842.288,-532.408,8400,-3640,-1540
2.31137,5.94571,2.2052,5.46619,2.81479,-1.43971,1.85127,-4.17072,3.25039,2.6503,2.58613,3.93357,1.72002,0.58788,4.27394,-1.21334,55.144,-841.312,-534.848,9100,-2940,-1120
-1.93357,0.0160535,-2.5525,1.68586,-1.45849,-4.70432,-0.204197,-5.5788,-1.58915,-1.0807,0.466616,-1.22374,-2.59078,-3.52929,1.5039,-3.4977,55.144,-841.312,-537.288,9520,-1540,-420
-5.83039,-4.87361,-7.21847,-2.56775,-4.05086,-4.63261,-1.22595,-0.857585,-4.77634,-6.68409,-4.55127,-6.32841,-6.01895,-4.91991,-0.832631,-1.64892,52.704,-842.288,-534.36,9660,-840,280
-3.10027,-3.19196,-4.80805,-1.52589,-2.45009,-0.947548,0.900519,3.31381,-1.703,-5.12862,-4.31485,-4.38905,-4.37923,-2.11426,1.52342,0.840803,48.312,-840.824,-534.36,9660,280,1120
-1.05807,-2.64476,-1.77641,-0.621132,-0.733163,1.57919,3.38721,5.00379,-0.304234,-1.29696,-1.06448,-2.42232,-1.27115,0.479204,4.12406,3.63427,46.36,-840.824,-540.704,9240,1820,1960
-2.53006,-3.32362,-0.984167,-0.825654,0.519483,2.54118,3.70703,5.77646,-2.58243,-1.05906,-0.35402,-2.08701,0.561167,1.65502,2.87217,4.63261,35.624,-835.944,-540.216,8540,2520,2800
-2.90422,-3.16786,-0.0992675,-1.51369,0.120725,2.99507,1.3494,4.8337,-2.87836,-0.782722,0.108436,-2.42266,0.619861,1.45595,-0.419718,3.38398,32.696,-837.408,-541.192,7560,3640,3920
-5.75273,-7.69512,-1.4238,-7.05498,-4.16,0.574451,-3.82855,0.920067,-7.03731,-1.85593,0.764752,-4.7604,0.498031,-1.4816,-6.13854,-0.649196,28.304,-834.48,-541.68,7000,4200,4620
-6.05793,-8.52789,-1.86186,-8.28153,-5.63469,-1.18447,-5.65521,-1.09422,-8.5765,-2.05305,0.214876,-5.31525,0.329422,-2.93119,-7.95165,-2.89933,25.864,-831.552,-540.704,5880,5180,5740
-1.65564,-4.21699,-0.802525,-4.87782,-3.73112,-1.07992,-4.04568,-0.441036,-3.0309,-0.73341,0.670576,-2.87013,0.432261,-1.98983,-4.99395,-2.44562,20.496,-832.04,-544.608,4760,5740,6720
-0.115106,-2.54773,-0.703432,-3.75784,-3.48915,-1.23574,-4.06534,-0.845288,-0.279408,-0.270059,1.11518,-2.08269,0.622432,-1.82557,-5.03626,-3.08656,20.984,-833.992,-542.656,3640,6020,7280
0.584807,-0.930712,-0.559224,-3.23201,-3.32573,-1.19402,-5.9842,-2.55288,0.487424,0.914873,1.57153,-1.12979,0.795262,-1.87186,-6.95291,-3.96415,16.104,-834.48,-540.216,2380,6160,7700
1.2409,1.99778,1.11858,1.31791,0.30361,-0.000411104,-2.48676,-1.34781,0.857751,0.567536,0.271116,1.61179,1.03677,0.144361,-3.24238,-2.14363,16.592,-838.872,-538.264,1260,6160,7980
4.32841,4.77806,2.87559,2.63373,1.97961,0.105937,-1.67874,-3.22321,5.04962,2.67898,-0.116048,4.28039,1.49841,0.85939,-2.23994,-2.39932,20.008,-841.312,-537.288,0,5880,7840
7.77932,7.90469,4.77858,4.40867,3.46279,-0.856832,-0.0433731,-7.10137,8.48327,5.22901,1.92882,7.32376,2.60369,1.30712,0.904292,-3.0927,19.52,-844.24,-531.432,-840,5740,7280
8.47817,9.46827,5.22009,5.29273,4.6885,-0.18689,1.47755,-5.11373,9.56349,5.06408,1.16161,8.00004,2.65458,2.06419,2.53556,-1.70742,26.84,-845.216,-531.92,-1680,5040,6440
6.90889,10.5403,4.00015,6.55978,6.41404,1.38116,2.27784,-0.900684,9.19605,2.99571,-1.33203,8.1,-0.0326067,3.62276,3.19703,0.957572,29.28,-848.632,-529.48,-1960,4200,5180
3.43614,9.09482,4.63542,8.56784,8.71507,4.69087,5.36888,4.57319,4.40508,1.45904,-1.71109,7.7954,0.718363,6.60503,4.45561,5.33945,35.624,-848.632,-525.088,-2100,3080,4200
-2.64109,2.78328,1.1965,5.3165,6.33249,3.79875,5.04493,4.46628,-4.12116,-3.25282,-6.23214,3.25399,-1.23532,4.57005,3.13627,5.00273,41.48,-849.12,-530.944,-2240,1680,2380
-5.51155,-0.823902,-3.41525,3.69331,3.07044,-0.874177,6.31425,1.42699,-5.88034,-6.19109,-7.09388,-1.39959,-5.21948,-0.331592,7.53267,3.37018,44.408,-851.56,-527.04,-1820,-140,980
-1.52713,0.157433,-3.63795,4.15788,1.21403,-2.64527,7.41125,0.903984,0.942526,-2.71863,-0.582765,-2.41998,-4.33141,-1.67841,12.1984,3.71461,47.824,-849.608,-529.48,-1540,-1120,-420
0.311454,-3.56182,-3.15473,-1.42752,-4.38022,-3.21514,0.500669,-1.37095,2.26782,0.590277,5.11089,-4.5131,-0.90368,-3.6812,4.66935,-0.240668,54.168,-849.12,-528.992,-980,-3080,-1960
-2.88237,-10.5855,-3.60406,-10.5326,-9.89405,-2.8463,-7.79617,-3.09002,-4.88489,0.778335,6.46226,-8.5225,1.67439,-5.88421,-7.77214,-5.2097,57.096,-847.168,-532.408,-420,-4480,-2940
-0.875319,-7.85629,-0.925493,-9.65518,-8.0172,-1.13057,-8.21135,-3.39745,-3.25484,3.57471,6.85752,-5.37865,3.68723,-3.63253,-9.46905,-5.82994,62.464,-849.608,-533.872,420,-6440,-4060
0.969008,-3.86601,2.63994,-5.17847,-3.3237,1.91183,-4.20681,-0.39517,-1.3493,4.96735,6.3186,-0.919135,5.07729,0.292521,-5.45076,-2.07866,64.416,-851.56,-533.872,1680,-7840,-5040
-7.12951,-11.6152,-0.47991,-10.9654,-6.23611,2.7742,-5.46464,2.72686,-12.4235,-1.71004,0.801866,-6.08296,2.32248,-0.486863,-9.29507,-0.818984,66.368,-849.608,-543.632,2660,-8960,-5460
-5.16517,-5.65012,0.222056,-5.78072,-1.32731,3.07514,-1.95084,4.49985,-8.28721,-2.61013,-2.84146,-2.63791,0.849442,1.64744,-5.19324,2.10132,68.32,-848.144,-541.192,4340,-9660,-6020
-0.869395,1.87871,0.708652,1.75175,3.23922,2.71417,2.77642,4.88665,-0.831365,-2.6953,-4.38234,1.65639,-1.49331,3.69149,0.174494,4.05238,67.832,-849.608,-539.728,5460,-9800,-6300
2.02763,4.97294,1.09173,5.09326,4.963,2.65306,5.06789,5.21327,4.8421,-0.355201,-2.81393,3.60525,-0.982295,4.35865,3.75983,5.47304,67.832,-850.096,-540.704,6860,-9520,-6160
-0.0483756,3.99605,0.100631,4.93718,4.69367,0.84431,5.50838,3.93586,2.99381,-0.921913,-2.04125,1.77284,-0.855706,2.47461,5.64304,3.92484,67.344,-848.144,-546.072,8120,-8680,-6160
0.831857,5.05504,-1.12955,6.3348,3.49035,-1.12086,4.66583,1.08978,4.08578,-1.62419,-2.82678,2.11699,-1.92313,0.521712,6.53613,1.85742,66.856,-849.608,-544.12,8960,-7840,-5740
-1.84984,1.4237,-2.59848,3.92104,1.66909,-0.559828,3.21163,0.75932,-0.907056,-4.64737,-5.92717,0.0827306,-2.87498,-0.400561,4.48969,1.78906,65.392,-851.56,-541.192,10080,-6720,-5320
-9.41655,-7.71802,-5.82137,-2.57661,-2.37038,-1.10696,1.66481,0.832608,-12.6443,-9.70758,-7.83799,-6.34444,-4.86742,-2.13789,1.36993,0.603926,63.44,-846.68,-539.728,10920,-5880,-4900
-7.7124,-3.30109,-8.19455,0.824922,-1.63526,-5.02988,2.40576,-1.57485,-7.3072,-10.6103,-8.90832,-6.1014,-8.35938,-5.11908,4.67443,-1.21505,62.952,-846.68,-541.68,11760,-4340,-4200
-0.35503,1.58466,-6.2931,2.61304,-2.51099,-7.28944,-0.504175,-6.07021,3.32138,-3.80682,-2.87802,-2.75242,-6.55461,-7.95764,3.97704,-5.40487,63.928,-840.824,-544.608,12180,-2520,-3640
11.4966,10.2439,3.34131,9.15462,2.79681,-3.09819,2.3716,-4.35889,15.0773,9.32637,7.58838,6.55435,2.52213,-1.78141,8.9833,-1.68812,63.44,-839.848,-541.192,12320,-1540,-2940
10.4632,7.91557,5.35368,3.99413,0.272246,-1.69017,-2.31054,-3.79513,11.884,10.7716,9.69742,5.67651,5.19667,-0.669227,1.58485,-3.29758,61.976,-838.384,-540.704,12320,-420,-1960
5.32201,-0.682,2.53253,-6.73612,-5.79503,-1.44896,-10.26,-4.52117,3.50571,7.27829,7.85067,0.211375,3.66449,-2.5109,-11.305,-6.93679,61,-836.432,-536.8,12320,420,-1400
2.90647,-3.50089,2.8465,-9.13232,-4.64764,1.46794,-8.02615,-0.922414,0.895653,5.3865,6.3498,-0.513762,3.97453,0.211345,-12.3386,-2.80484,61,-837.896,-535.824,12040,1960,-560
-3.26549,-8.2589,0.83326,-10.6373,-4.5619,1.57257,-6.74325,-0.332447,-5.88576,0.834831,2.68488,-3.4969,2.40086,0.171874,-12.0832,-1.64742,59.048,-833.504,-534.848,11340,2660,140
-3.83219,-5.5666,0.00842431,-6.46806,-2.92799,0.675149,-5.09233,-1.70076,-5.04689,-0.977816,0.391654,-2.73997,1.34664,0.130315,-8.72291,-2.07351,55.144,-832.528,-536.312,10640,3220,700
6.63971,8.08459,6.95947,6.78969,6.41095,3.6489,4.04846,-1.21351,8.37954,5.51985,2.83417,7.72364,5.00194,5.98106,3.89066,2.15729,57.096,-831.552,-532.896,9380,3500,1260
11.0312,12.1512,9.19893,10.9184,9.23687,4.32588,6.97897,0.420261,12.1285,8.39636,4.97684,11.1513,6.05809,7.50022,8.72062,4.52744,54.168,-834.48,-534.848,8540,3640,1680
8.13539,8.88681,6.65159,7.52739,6.53956,3.76883,4.54812,2.17769,8.60897,7.22282,5.42578,8.20123,3.71305,5.24219,5.98223,3.40673,54.168,-833.016,-534.36,7140,3220,1960
0.192713,1.77713,1.78754,1.86335,2.43068,1.43207,0.579868,1.38691,-0.960585,1.76874,1.16867,2.15192,0.1113,1.73142,0.874379,1.21088,52.216,-835.456,-534.36,6300,3360,2380
-5.21909,-2.0267,-1.25772,0.0258012,1.47469,0.421892,1.3631,1.25149,-8.08286,-3.31753,-3.60654,-0.81602,-1.52411,0.766523,0.14265,2.02247,51.24,-836.432,-536.8,4900,3220,2520
-7.40409,-2.44023,-2.32624,-0.109571,0.894951,0.404894,1.97126,1.18291,-9.46858,-5.82628,-6.28052,-1.89561,-2.49381,0.331083,0.00997722,1.31163,46.848,-834.48,-536.312,3640,3080,2520
-5.43984,-3.4169,-3.17698,-2.28133,-1.58134,-0.853421,-0.622872,0.0607058,-6.01405,-5.27772,-4.51553,-3.16274,-2.41489,-1.36985,-1.90135,-0.624027,48.312,-838.384,-534.848,2800,2940,2520
-5.40456,-5.35428,-5.38576,-3.78452,-2.47723,-1.71697,0.205053,0.852649,-4.53631,-6.62897,-5.58573,-5.14841,-4.34361,-2.45058,-0.827146,-0.0774192,44.896,-837.896,-534.36,1820,2660,2240
-3.54668,-4.47887,-5.12454,-4.53926,-3.41417,-1.70736,-1.83782,0.640665,-0.902923,-6.67354,-8.00947,-4.83711,-4.90949,-3.18033,-2.53717,-0.988481,42.456,-839.36,-534.848,1120,2240,1820
-0.674159,-2.62434,-3.24196,-2.26434,-2.59604,-1.03218,-1.6098,0.464184,1.73072,-4.39965,-5.96453,-2.95263,-3.29267,-2.2348,-1.16269,-1.34451,41.48,-837.408,-530.456,420,2100,1540
0.669331,0.419924,-1.62471,0.790116,-0.70947,-0.170332,0.505491,0.735591,3.40444,-1.66521,-2.16489,-1.37659,-1.55762,-0.630188,1.95481,-0.298003,40.504,-843.264,-532.896,-420,1820,980
-1.59599,0.726837,-0.823107,4.15858,1.98435,2.0609,5.30002,3.38584,0.552828,-2.26184,-1.6299,-0.811512,-0.153779,1.39283,7.76662,3.91353,42.456,-842.288,-534.36,-980,1540,700
-7.32762,-4.63622,-2.6876,1.76275,0.683782,1.58216,5.16666,4.41574,-8.97063,-4.67671,-1.95234,-3.95126,-0.438771,0.776979,7.05438,4.30439,42.456,-844.24,-534.848,-1400,700,140
-7.50543,-8.19129,-2.91112,-3.95021,-2.65115,0.249727,-0.0806342,2.25315,-12.3311,-3.15017,0.770588,-5.8419,-0.516716,-1.01598,-0.531568,0.83133,42.456,-848.144,-532.408,-1540,840,-280
-7.36472,-11.7401,-3.27366,-9.56141,-5.79778,-0.613224,-3.30761,1.57182,-12.6691,-2.10952,2.4607,-7.4721,-0.134181,-2.51585,-5.61054,-0.713089,41.48,-846.68,-532.408,-1680,280,-560
2.44756,-0.481464,1.55008,-1.58571,-0.413754,-0.730322,0.000347552,0.14769,1.2037,3.92771,4.59755,1.06264,1.89145,0.347884,-1.15438,0.327452,37.088,-849.12,-532.896,-1680,280,-980
7.20067,5.99148,3.39269,2.98269,1.57028,-1.37634,-0.665419,-1.85283,8.37964,5.92494,5.01366,5.00583,2.20471,-0.139847,-0.841161,-0.99142,38.552,-849.12,-531.92,-1540,420,-1400
6.77526,7.58753,3.34464,4.19307,2.21954,-1.25687,-1.04325,-2.56229,7.9177,5.26193,3.97517,5.62499,2.17154,-0.217247,-0.581756,-1.87517,39.528,-845.704,-532.896,-1400,0,-1680
2.60131,2.61248,0.716329,-1.39139,-1.80776,-1.82021,-3.87986,-2.55705,3.4929,1.5246,1.91917,1.3849,0.59297,-1.47794,-5.18506,-3.21073,37.576,-848.144,-532.408,-700,0,-1960
4.01931,1.05157,0.461386,-3.57387,-3.55635,-1.71299,-6.46635,-4.08332,4.72618,2.78749,3.16175,-0.0039569,0.917674,-2.31011,-7.58998,-4.88598,40.504,-847.168,-536.8,-560,-420,-2240
9.68884,11.5548,4.87747,8.02843,4.50525,0.362223,0.975289,-3.52016,13.3624,6.7778,4.15312,7.63253,2.42083,2.08285,3.442,-1.138,40.504,-847.168,-533.872,-140,-700,-2380
11.1743,15.9005,7.20556,14.6998,9.28575,1.78399,6.68054,-1.63439,15.1457,7.50125,3.97596,11.6872,3.45056,5.04841,11.5804,2.77373,39.528,-842.288,-535.824,420,-980,-2520
4.37506,5.68243,2.96106,4.61169,3.0149,-0.15264,1.61333,-2.26024,4.43806,3.81294,2.04799,4.55251,1.729,1.24319,3.62396,-0.209134,40.016,-845.704,-535.824,700,-1120,-2660
-4.59319,-7.78061,-2.20645,-8.64169,-5.5037,-1.48519,-5.35581,-1.53554,-7.46021,-1.66771,-0.754336,-4.99749,-0.611072,-3.22815,-7.53096,-3.60293,42.456,-846.192,-535.336,1120,-1400,-2800
-6.62485,-9.25582,-3.03991,-6.84122,-4.26945,-0.221051,-1.599,1.03396,-10.3875,-3.87384,-1.39944,-5.7138,-0.879767,-1.57221,-2.54935,-0.287856,43.92,-847.656,-540.216,1820,-1960,-2800
-2.38928,-4.56968,-2.05111,-4.2865,-2.29078,0.311971,-0.303205,2.06257,-2.34985,-1.99961,-1.97813,-2.88953,-1.08284,-0.373497,-1.37844,1.48012,44.896,-848.632,-533.872,2520,-1820,-2660
0.478051,1.22075,-0.159653,3.23794,3.00136,1.57954,5.23264,2.60216,3.1471,-0.917679,-4.32269,1.3328,-1.22952,2.0423,6.95225,4.08913,45.384,-842.776,-533.872,3220,-1960,-2380
-7.51159,-4.09172,-3.63058,1.74983,1.82139,1.27938,5.7708,3.3829,-7.58607,-8.5413,-9.92843,-3.19661,-4.23165,1.31132,7.85931,4.46935,45.872,-847.168,-536.312,3780,-1960,-2100
-10.2916,-9.76211,-6.3265,-6.18771,-3.89512,-0.0580436,-1.7201,2.31518,-12.0503,-10.2647,-8.86064,-7.74582,-5.70891,-2.05647,-3.87623,-0.415488,49.288,-848.144,-536.312,4200,-1960,-1960
-4.98884,-4.62661,-2.666,-5.61966,-3.09704,-0.400424,-4.94048,-0.144297,-5.37477,-3.92141,-2.76488,-3.78026,-2.18595,-2.02846,-7.29616,-2.57483,50.752,-844.728,-534.36,5040,-1820,-1680
1.5219,2.14585,1.25319,-0.430807,0.397545,0.36058,-4.10261,-1.33667,2.27191,1.83044,1.94283,1.3255,1.18069,0.00812341,-5.1696,-2.1511,55.144,-843.264,-536.312,5460,-1960,-1120
3.23034,5.09337,2.87156,3.43929,2.37924,0.926576,-0.425821,0.016066,3.91398,3.52591,3.58896,3.0296,2.30974,1.22243,-0.579741,0.313971,56.608,-840.336,-538.264,5740,-1680,-840
0.619267,2.41196,1.25844,3.76581,1.89227,-0.0695116,3.06705,0.664644,0.418826,1.46307,2.10587,0.991512,0.919359,0.612272,4.88703,1.75834,53.68,-841.312,-535.336,6020,-1820,-560
-1.50059,-1.47464,-1.92382,0.887607,-0.503201,-1.2894,2.28797,-0.794881,-2.26632,0.0954303,1.51384,-2.09062,-1.60981,-1.1915,3.99258,-0.0346389,56.12,-842.776,-534.848,5880,-1680,-140
5.36507,4.09271,1.03911,1.56718,0.23957,-0.0169627,-1.1372,-0.822498,7.28071,4.51734,4.68947,1.8846,0.24878,0.215429,-3.2246,-0.98221,55.144,-840.336,-537.288,5600,-1820,280
6.83584,6.64313,3.41094,4.68387,3.08352,1.04379,1.71823,0.667042,9.05543,5.29507,4.8361,4.57921,2.45334,2.59463,0.444905,1.43175,57.096,-839.36,-533.872,5320,-1820,140
3.27863,2.86881,3.50672,3.31214,2.54637,0.217894,2.17869,-0.77044,2.45562,4.0207,4.09304,3.39308,3.18889,2.08754,2.993,0.8213,56.608,-840.824,-534.36,4900,-1960,420
-1.51035,-4.41377,-0.266533,-4.61853,-2.88698,-0.204884,-3.33859,-1.19734,-4.51711,0.406961,1.10915,-1.62139,1.5788,-1.04283,-5.30357,-2.24264,54.656,-844.24,-532.408,4060,-1960,560
-1.04638,-5.98821,-1.60228,-8.80465,-5.3955,-1.18808,-6.09135,-1.94213,-4.13468,-0.532551,-0.389424,-2.90222,0.356663,-2.99496,-9.59952,-3.83409,57.584,-841.8,-542.168,3780,-1960,560
2.02774,0.0590573,1.1574,-0.324744,0.802236,0.314585,1.34795,-0.0587378,0.728162,0.681904,0.22356,1.05524,0.979254,0.641029,2.07927,0.164546,60.512,-843.752,-538.752,3920,-1120,700
-1.81935,2.17292,1.41752,4.42786,4.25892,2.14243,5.3514,3.09893,-1.03335,-2.89823,-3.68688,1.66754,0.202083,2.67189,7.23117,4.10344,57.096,-845.216,-537.288,3920,-700,840
-0.782832,2.28359,1.34237,1.37242,1.32578,0.523585,-0.230696,0.850431,0.652059,-1.94168,-1.97211,1.83495,0.5314,0.864834,-1.08094,0.176038,54.656,-844.24,-529.968,3500,-560,980
-2.62682,-1.97304,-1.26138,-2.9269,-2.59466,-1.51258,-3.57857,-2.04979,-2.1872,-3.14116,-2.07696,-1.48043,-0.617146,-1.54624,-3.74517,-2.83437,55.144,-844.728,-530.944,2660,-420,980
-4.14837,-4.12178,-3.47811,-2.58096,-2.88353,-1.84715,-0.87807,-1.66871,-3.87445,-4.15292,-3.23602,-3.65956,-2.28631,-2.5043,-0.00655308,-1.40301,54.168,-844.24,-529.48,1680,-420,980
-3.98011,-5.1008,-3.51677,-3.20257,-3.19858,-1.39767,-0.151112,-0.281893,-3.68171,-3.10787,-2.43263,-4.3807,-2.26044,-2.39924,0.887141,-0.575235,59.536,-845.216,-534.36,980,-420,980
-1.70766,-2.58784,-1.44105,-0.367087,-1.05169,-0.175422,1.41039,0.762403,-1.70979,-1.59225,-1.11073,-2.16484,-0.96856,-0.579577,3.30629,0.767098,57.096,-842.288,-537.288,140,-420,700
3.9894,5.12638,2.44435,4.65282,3.24128,1.5791,3.89253,2.34428,6.40303,3.24072,1.43681,3.46384,1.10055,2.68095,5.77346,3.06116,58.072,-845.704,-534.848,-280,-420,420
5.98227,5.30423,2.37523,3.12575,2.02727,0.789546,1.38362,1.55452,9.06093,5.40854,3.42926,4.13563,0.99188,1.85118,2.28939,1.53793,57.096,-844.728,-534.848,-700,-700,420
3.7043,1.8463,-0.442372,0.542912,0.255489,0.00292353,0.560488,0.852198,4.60946,2.83957,1.9741,0.992144,-0.929757,0.0412155,1.60972,0.449544,54.656,-843.264,-534.36,-700,-420,0
2.53969,2.82416,-0.571345,2.58026,1.29538,-0.0256763,0.988721,0.430881,3.01923,1.4439,-0.207765,0.791982,-1.10531,0.101545,1.45102,0.901133,60.512,-844.728,-537.288,-840,-840,-420
-0.435333,-0.502686,-1.05132,0.585399,-0.290739,-0.494769,-1.64202,-0.752493,-2.20651,-0.359775,-0.372764,-0.884046,-0.51262,-1.21121,-2.14456,-1.05736,56.12,-842.776,-538.752,-980,-1260,-700
-1.52029,-3.17491,-0.953555,-2.61516,-1.69464,-0.454023,-3.21253,-1.67853,-3.98079,-0.587973,0.705419,-1.8718,0.0268075,-1.35085,-3.99103,-2.43699,56.12,-841.8,-533.872,-980,-1400,-1260
2.72896,4.88905,2.80065,6.9999,5.29923,2.13907,5.79837,1.34494,2.59022,2.32902,1.96365,3.75398,1.86915,3.10235,6.73784,3.83951,56.12,-840.824,-537.288,-1120,-1820,-1820
3.08189,7.26208,4.14753,8.48605,7.22011,2.30959,7.75544,2.40591,3.43734,2.82381,1.22349,5.89784,2.61093,4.5227,8.27087,6.04056,56.608,-841.8,-537.776,-1400,-2380,-2240
-7.00985,-5.48946,-1.03385,-3.24426,-0.449612,0.126778,0.905451,1.56238,-9.43556,-4.08379,-2.60335,-2.77879,-0.361294,0.351747,-0.821136,2.07362,54.656,-839.36,-539.728,-1540,-2660,-2800
-8.98718,-7.73126,-2.14114,-5.84572,-2.59597,-0.25365,-1.57513,0.373976,-11.4134,-6.72595,-4.69582,-4.64718,-1.63397,-1.16434,-2.65137,-0.466726,54.656,-842.288,-543.632,-1260,-3220,-3220
-0.538599,1.2093,0.840206,-1.10711,-0.60946,-0.310586,-1.99131,-1.67918,0.0641267,-0.588932,-0.720618,1.04671,0.114005,-0.295098,-2.50805,-1.87711,53.192,-839.36,-540.704,-1260,-3500,-3780
2.44259,2.69072,1.83591,-1.83557,-1.2328,-0.820703,-4.03482,-2.90799,4.32394,2.67099,1.69355,2.22108,0.936559,-0.77337,-5.99097,-3.16452,51.728,-839.848,-542.656,-1260,-4200,-4200
2.28025,1.34506,0.531945,-1.28209,-1.38632,-0.558358,-2.24549,-0.495015,3.56021,1.66413,0.869618,0.670013,0.362142,-0.633894,-4.17518,-1.86149,50.752,-842.288,-544.12,-1540,-4340,-4620
0.666377,1.43552,-0.781554,3.00226,0.618321,0.129046,1.68248,1.48258,1.58152,-0.178817,0.182649,-0.216112,-0.617953,-0.0454968,4.06226,0.82186,51.24,-839.36,-542.168,-1400,-4480,-4900
1.87228,1.38668,-0.181863,2.44338,-0.129323,-0.666521,-1.57487,-1.80969,2.36876,1.07567,1.77231,-0.0173274,0.162146,-0.837198,0.907748,-2.06699,48.8,-843.264,-546.56,-1260,-4480,-5180
-0.734636,-3.9282,-2.0907,-5.62972,-5.17261,-1.2987,-7.51225,-2.7535,-1.4801,-0.529688,1.26408,-3.66556,-0.805205,-3.30479,-9.66287,-5.05798,48.312,-842.776,-542.656,-1260,-4760,-5460
-0.895545,-4.98753,-1.94011,-7.59166,-5.43682,-1.50145,-7.67042,-2.5734,-2.20282,-0.879265,0.889012,-4.03798,-0.876536,-3.46259,-10.7744,-4.80127,47.336,-844.728,-539.728,-980,-4900,-5740
-4.66348,-5.40358,-2.03348,-3.63555,-2.11537,-0.329316,-1.39984,0.0874574,-6.85167,-3.35076,-2.00851,-4.10266,-1.14654,-0.984431,-2.80564,-0.461175,46.36,-849.608,-543.632,-700,-4760,-5880
-2.97788,-0.922778,-0.464873,1.67428,1.59546,0.52872,3.31937,0.969428,-3.96843,-1.97699,-1.84535,-0.591551,-0.205821,0.869908,4.6609,2.41354,43.92,-851.072,-543.144,-700,-4480,-6020
5.1061,3.38121,1.1363,-0.485359,-0.985125,-1.06901,-3.34453,-2.95129,5.24158,4.29474,3.34847,2.51514,1.38061,-0.969661,-2.92744,-3.42493,43.432,-849.608,-537.776,-420,-4340,-6440
3.77014,-1.1506,-0.208019,-6.10483,-4.4069,-1.32166,-7.45822,-3.27436,3.95233,3.39007,2.94674,0.0519632,0.566819,-2.34456,-8.99113,-5.37752,39.528,-852.536,-540.216,-140,-4200,-6580
-0.685723,-1.86438,0.380647,-0.426484,0.794994,0.795748,2.74639,1.18077,-1.33193,-0.220127,-0.639158,0.031259,0.423662,1.34181,2.60304,2.37831,39.04,-849.12,-542.168,0,-3500,-6720
-1.59087,0.363337,0.43305,4.05136,4.08142,1.56292,8.30323,3.92013,-2.0541,-1.84709,-2.29618,0.980856,0.185409,3.07221,9.70153,5.91336,39.04,-851.56,-542.168,560,-3080,-6720
0.0015859,0.982139,-0.452893,1.53514,1.66494,0.174924,3.93055,2.39006,1.60967,-0.801321,-1.45656,0.686479,-0.589444,1.07044,5.09917,2.58755,35.136,-849.12,-543.144,980,-2520,-6860
-2.63891,-2.33674,-1.94701,-1.48114,-1.33557,-1.12241,0.454394,0.462716,-1.31952,-2.15249,-1.50682,-1.8652,-1.23341,-0.723659,0.261276,-0.0801814,38.064,-849.608,-542.656,1120,-2240,-6860
-1.47034,0.439488,-0.824853,3.41723,1.90971,0.860989,5.68686,2.25164,-0.645972,-2.10877,-2.38561,-0.649394,-0.810492,0.924838,7.87129,3.29567,36.6,-850.584,-542.656,1400,-2100,-6580
-1.34066,0.533441,-0.337384,3.53228,2.44635,0.77226,5.62389,1.89219,-1.42083,-1.96192,-2.0928,-0.374894,-0.829213,1.26276,8.87164,3.59597,37.576,-849.608,-542.656,1260,-1680,-6580
-0.858355,-2.24421,-0.529926,-0.226193,0.40534,-0.0331042,1.06436,0.838456,-1.58817,-1.36979,-1.38382,-1.47145,-0.528885,0.280429,3.06877,1.40841,38.552,-850.584,-544.12,1680,-1540,-6300
2.80002,0.449115,0.820451,0.761252,1.28582,1.07855,1.23365,1.87802,3.77398,1.46363,0.740385,0.924875,-0.0218596,0.963696,1.86264,1.7157,36.6,-851.56,-541.192,1540,-1400,-6020
6.83028,7.6617,3.55851,7.4901,5.18269,2.10631,4.76535,2.30737,9.13222,4.30339,2.88704,5.34114,1.4097,3.31561,6.20981,3.06704,39.04,-850.584,-541.192,1400,-1120,-5880
5.76443,8.20489,3.09555,6.75996,3.40151,1.15559,0.64968,0.267765,8.26514,4.3676,2.35907,5.27869,0.969691,1.89216,1.33068,0.490591,36.6,-850.584,-539.728,1400,-1120,-5460
6.37689,7.6017,2.848,1.97949,0.164613,-0.800992,-5.558,-3.09483,9.34905,4.94441,3.07205,5.06819,1.23237,-0.287572,-8.7232,-4.01817,38.064,-849.12,-539.728,1260,-980,-5180
3.23145,4.80301,2.59756,-0.801141,-0.00175002,0.159488,-4.59095,-1.91003,4.67999,2.86764,0.836563,3.58432,1.46222,0.389972,-10.1193,-2.86513,40.992,-848.144,-536.312,980,-1260,-5040
-1.51896,-2.66594,0.534053,-5.04694,-2.04374,0.372449,-2.92767,-0.893871,-3.15345,0.187764,0.0163297,-0.677245,1.00012,-0.623944,-7.34642,-1.55001,40.016,-848.144,-538.264,420,-1540,-4760
-1.36053,-2.71762,-0.054839,-2.35369,-0.887447,-0.249691,0.337585,-0.507188,-3.05582,0.357872,0.593184,-1.05822,0.713634,-0.564679,-0.692696,-0.456852,44.408,-850.584,-536.312,0,-1400,-4760
-9.35892,-5.97952,-2.54556,-0.224328,0.0938052,0.694802,3.51069,2.55315,-11.541,-6.51904,-4.14511,-4.07317,-1.57363,-0.0477866,4.53551,2.62243,43.92,-846.192,-537.776,-140,-1960,-4760
-11.4679,-9.69485,-5.5354,-6.007,-5.097,-1.53731,-2.67768,0.330451,-15.1841,-8.25347,-3.90437,-7.99654,-2.87718,-3.7304,-2.71541,-1.1352,48.312,-845.704,-537.288,-140,-2240,-4620
-2.34015,-1.04911,-2.26798,-1.27881,-2.48102,-2.1578,-2.46637,-2.11707,-3.1646,-1.05139,1.09613,-1.89288,-1.02777,-2.50034,-0.429716,-1.93554,49.288,-843.264,-540.704,-140,-2660,-4480
4.34187,8.25519,3.67127,7.91857,4.91092,0.956568,4.23114,-0.484066,7.04477,3.78671,2.682,5.95919,1.88095,2.8996,7.54235,2.4013,53.68,-842.288,-538.752,-280,-3220,-4480
-1.53715,1.31776,1.97202,1.28321,1.52671,0.890303,-0.37481,-1.00594,-3.10114,-0.320149,-0.0477663,2.12011,1.50074,1.96112,-0.578616,0.316803,51.728,-841.312,-540.216,-420,-3920,-4620
-5.8242,-6.96743,-0.32045,-5.23823,-1.5152,0.0120419,-2.92279,-1.69059,-11.0546,-2.70087,-0.922062,-2.78641,0.621884,0.0274832,-4.52491,-1.15887,54.168,-842.288,-539.728,-140,-4340,-4620
-0.966143,-6.31947,-0.976432,-4.72691,-2.55095,-1.50317,-2.54057,-2.46385,-3.9386,0.36251,2.18855,-3.15367,0.412295,-1.64871,-2.0044,-2.40533,57.096,-842.288,-538.752,280,-4900,-4900
2.06161,-2.18312,-1.81269,-0.553479,-1.21361,-1.30565,0.0837518,-0.993952,2.51421,0.564395,1.46258,-2.26552,-0.834398,-1.82573,3.44872,-1.49671,57.584,-843.264,-534.36,280,-5180,-5040
1.95567,-1.57561,-2.57887,-1.66067,-2.35688,-1.32471,-1.54823,-0.310438,3.74023,0.207119,-0.520232,-2.76724,-1.60012,-2.71397,-0.857548,-2.29225,61,-845.216,-536.8,980,-5740,-5460
1.14709,-3.46052,-3.38777,-3.34807,-3.97813,-1.62217,-2.61663,-0.375524,1.78693,-0.486143,-0.482254,-3.93769,-1.60918,-2.86225,-2.47163,-2.71477,61.976,-847.168,-534.36,1680,-6160,-5740
0.868249,-3.79876,-2.56563,-3.60818,-3.45607,-1.20204,-1.8479,0.272057,0.998644,0.10933,0.24186,-3.25994,-1.37918,-2.45783,-1.86952,-0.975151,59.536,-848.632,-531.92,2380,-6300,-5880
9.3802,7.5214,2.67332,2.74731,1.07723,0.231755,-0.399728,-0.50323,11.7458,5.8908,3.79104,4.44294,1.82276,0.517628,-1.2432,-0.45388,64.416,-849.12,-529.968,3080,-6160,-6160
7.49154,8.72948,3.0045,3.74899,2.45306,0.909567,-0.258644,0.452487,10.1096,4.44026,2.16869,5.30234,1.64137,1.84254,-2.15857,0.131566,59.536,-848.632,-529.48,3780,-6160,-6160
-1.99129,3.12813,0.411306,4.56365,2.80221,0.638112,3.34144,1.64864,-1.90373,-1.95887,-2.04854,1.54036,-0.303915,1.70125,4.69525,2.92731,61.488,-849.12,-524.6,4340,-5600,-6160
-2.91272,3.01505,0.931,4.64982,3.46227,1.28921,4.79799,1.77189,-2.64973,-2.56812,-2.97262,1.63745,-0.495461,2.05916,6.42609,3.37509,61.976,-845.704,-528.016,4760,-5320,-6020
-3.18639,-0.746798,0.48139,-1.79005,0.0938496,0.982527,-0.44351,0.553392,-3.4606,-2.06054,-3.72001,-0.0597205,-0.426026,0.651032,-2.50659,0.609556,62.952,-843.264,-530.944,4900,-4900,-6020
1.07709,0.986376,0.827677,-0.36946,0.0173658,0.464427,-1.42022,-0.511144,2.57318,0.646372,-1.26494,1.49096,0.240296,0.364202,-3.13579,-0.340967,64.904,-841.312,-531.432,5040,-3920,-6020
10.4257,6.51409,3.07609,0.115498,0.941422,0.54494,-2.65185,0.33293,15.3921,6.02578,2.84484,4.98468,1.05463,0.963768,-4.95365,-0.637895,64.904,-839.848,-533.872,5180,-3360,-5880
9.9035,8.26124,4.66175,3.84959,4.9669,2.5693,3.32484,2.88484,14.5342,6.15161,2.53812,6.69654,2.16588,4.33653,2.50466,3.4548,62.464,-839.848,-536.8,5040,-2100,-5320
-4.98759,0.551525,1.31841,5.40892,5.44219,3.17444,7.35988,4.88317,-4.87469,-3.21543,-3.11849,1.42052,0.0770468,4.57372,9.20734,6.3721,60.512,-838.384,-539.24,5040,-1260,-5040
-12.2933,-7.76638,-2.58348,-2.8993,-1.05933,0.600514,0.527726,1.76669,-17.1907,-7.79841,-4.23468,-4.74037,-1.586,-0.0510339,-0.141682,1.51018,61.976,-837.896,-539.728,5180,-560,-4900
-10.2032,-9.19429,-2.71409,-4.79107,-2.89373,-0.169219,-0.273155,0.332733,-15.9091,-5.35255,-1.67423,-5.52453,-1.25588,-1.89892,-1.56008,-0.0579358,60.024,-839.848,-538.752,5180,0,-4340
-2.88129,-2.7494,0.000829428,0.00249863,0.2376,0.0632734,2.66282,-0.0153989,-5.66633,-0.841375,0.268614,-1.47706,0.175989,0.11904,4.58157,0.844051,60.024,-836.92,-539.728,4900,420,-3780
-3.58259,-4.01723,-1.36023,-1.61494,-1.68596,-1.07092,-0.281146,-1.95748,-5.07453,-2.05146,-0.233985,-2.11666,-0.354865,-1.24889,0.284157,-1.61637,58.56,-839.36,-542.656,4480,1120,-3080
0.302524,-2.59018,-1.013,-2.17609,-2.74106,-1.66491,-3.34678,-3.19688,0.283794,0.376471,1.76345,-1.69171,-0.300767,-2.34272,-2.71468,-3.70247,56.608,-837.896,-538.264,4200,1680,-2100
3.16852,1.28677,0.304929,1.73933,-0.136756,-1.48447,-0.79995,-2.52231,4.25086,2.23083,2.67002,0.215558,0.315055,-0.968271,1.55887,-2.04826,53.68,-840.824,-540.216,3780,2100,-1400
-0.328495,0.695437,-0.769916,2.90254,0.254535,-1.08021,1.79423,-0.540196,0.21285,-0.198857,0.843432,-0.591908,-0.404262,-0.680511,4.09904,-0.231222,53.192,-837.896,-543.632,3500,2660,-280
-3.36394,-3.77337,-3.4689,-3.5972,-4.13238,-1.6043,-3.14622,-0.951415,-4.10474,-2.07601,-0.0538867,-3.9574,-1.21651,-2.85152,-2.89721,-2.62218,51.728,-840.336,-541.192,3500,3080,280
-5.80453,-8.42502,-4.77722,-8.06372,-6.02365,-1.83676,-5.21818,-1.15186,-7.79112,-3.68456,-1.75163,-6.59319,-2.00074,-3.50534,-7.09799,-2.80547,48.312,-840.336,-536.312,3360,3360,840
0.41975,-4.97644,-2.36809,-8.8233,-5.75695,-2.36466,-6.59339,-2.22916,-0.645014,0.352786,0.758719,-3.71043,-0.568685,-3.39731,-10.9962,-4.27066,45.872,-838.384,-538.264,2800,3640,1400
7.9516,2.79014,0.28784,-3.24394,-2.64711,-1.41567,-4.34653,-2.54095,9.57504,5.45043,3.92422,1.77432,1.02042,-1.95877,-7.119,-3.43071,45.384,-839.848,-538.264,2800,3920,1260
11.6589,9.97179,3.23567,3.77134,2.29489,0.176571,1.40677,-0.231256,16.2887,7.34424,3.68851,6.52517,1.53258,1.1039,1.55227,0.731621,42.944,-841.312,-536.8,2940,3920,1260
4.41731,6.96509,2.43112,4.83765,3.85532,1.10047,3.71508,2.13038,7.73371,1.50661,-0.345593,3.86743,0.925136,2.47011,4.68245,3.26878,44.896,-842.288,-539.728,2940,3640,1120
-0.854193,4.6689,2.47562,9.68761,8.00739,3.21289,10.6004,5.0905,-0.301726,-1.2627,-2.38948,3.54312,1.19184,5.31225,14.3429,7.9097,43.432,-841.8,-538.264,3080,3080,420
0.66757,5.8645,2.37676,12.6361,8.61086,3.34683,10.9338,4.17925,1.89466,0.586135,-1.67527,4.64063,0.670821,5.25239,17.0231,7.76357,43.92,-841.312,-536.8,3080,2520,-140
2.65591,6.13087,2.8096,8.07959,5.42017,2.20385,4.10477,1.79297,4.66657,1.33454,-0.645229,4.85798,0.893503,3.25351,6.33178,3.06079,45.384,-842.776,-537.288,2800,1540,-840
0.246669,3.97326,2.62341,0.884607,1.12745,0.835406,-4.25214,-0.580513,-0.381842,-0.0238674,-0.620456,3.40789,0.865477,1.03908,-8.11823,-2.57829,45.384,-843.752,-535.824,2380,560,-1820
-5.29729,-6.40789,-0.90499,-10.1619,-5.75757,-1.70034,-13.8915,-4.87314,-10.1121,-1.92023,-0.0656381,-2.80568,-0.181249,-3.15752,-20.4943,-8.95149,46.36,-845.216,-531.92,2240,-280,-2520
-11.9984,-17.3078,-5.40245,-18.2497,-10.9191,-3.06452,-13.0971,-4.27067,-18.3456,-6.88346,-2.26166,-10.9096,-2.12169,-6.6882,-18.9801,-8.0135,47.824,-845.704,-535.824,2100,-980,-3500
-6.23363,-12.3505,-4.73595,-12.2872,-8.17696,-2.63421,-5.00074,-1.99703,-9.84652,-3.86822,-0.95062,-8.82142,-1.90872,-5.22806,-5.97751,-3.53714,48.312,-844.24,-537.288,2100,-1540,-4060
2.02185,2.5658,1.60786,6.05704,3.75979,0.581487,8.04652,1.0415,1.65848,2.47518,1.71812,1.86258,0.803582,2.05179,13.0701,4.16436,48.8,-846.68,-537.288,2240,-2520,-4760
4.39255,7.35745,2.91867,10.7661,7.8248,2.39254,11.6366,3.37121,5.99556,2.77251,1.04608,4.58502,0.553131,4.58058,16.7686,7.42136,47.336,-848.632,-536.8,1960,-2940,-5460
6.1685,6.37428,2.52416,7.14229,4.52919,0.704653,5.48667,0.836962,8.09196,3.56521,2.05428,4.356,1.1095,2.34109,9.68393,2.4127,51.24,-847.168,-540.216,1960,-3360,-5740
10.3426,12.1288,4.87712,9.07862,4.62217,0.209797,1.56124,-1.92817,14.6519,6.52444,3.95285,7.7439,2.38516,2.4645,4.57934,-0.688041,48.8,-845.216,-538.752,1960,-3500,-6160
4.6807,5.29003,1.52514,0.102131,-0.796391,-0.52416,-5.15629,-2.14843,6.94994,2.47369,1.53328,3.45918,1.19211,-0.66253,-7.86929,-3.49749,54.168,-846.68,-537.288,2100,-3500,-6300
-4.46948,-5.27191,-3.17563,-6.47015,-5.39934,-1.17471,-5.62857,-0.397369,-4.8758,-3.34112,-1.72263,-4.37365,-1.5076,-3.39718,-10.0717,-3.05854,53.68,-844.24,-543.144,2100,-3640,-6440
-8.30086,-7.7225,-3.67692,-3.9552,-2.8941,0.289082,1.35173,3.4557,-8.79695,-6.27928,-4.06177,-6.22909,-2.71657,-1.08334,-0.218588,2.47451,54.168,-844.24,-544.608,2940,-3220,-6440
-7.26847,-7.67254,-4.40668,-5.22872,-3.98649,-0.0538742,-1.40122,2.15943,-7.42794,-5.85005,-4.15891,-6.06566,-2.85656,-1.81156,-2.08204,0.656302,54.656,-841.312,-545.096,3080,-3080,-6300
1.9176,2.10827,0.0299723,1.34841,0.83731,1.06908,1.20793,1.14935,4.09315,0.488105,0.123169,0.831246,-0.264053,0.709444,1.85056,1.25202,57.096,-843.752,-546.072,3500,-2660,-6300
3.97347,6.09422,1.24763,3.91693,1.94196,0.90175,0.749037,0.0881863,7.76883,2.21648,0.33735,3.52492,0.60736,0.709326,0.567603,0.682382,59.536,-841.8,-548.512,4200,-2380,-6160
0.185176,-5.29155,-3.13924,-12.0839,-8.58262,-2.41831,-11.8364,-3.36155,0.688127,0.272581,0.601271,-4.19268,-1.10881,-4.98532,-19.2254,-6.58131,58.56,-846.192,-549.488,5040,-1820,-5880
-0.159867,-4.94836,-1.59597,-5.51181,-3.22332,-0.986431,-1.59272,-0.76333,-1.45309,0.812821,1.51991,-2.78428,0.0530162,-1.83016,-4.54645,-0.709667,61,-840.824,-552.416,5740,-1540,-5320
5.00231,6.44238,3.40971,11.1682,8.16451,1.5565,10.9897,2.59145,5.41601,4.30632,2.27957,5.78301,2.24591,4.40252,16.4929,6.60168,61.976,-843.264,-551.928,6580,-840,-5180
2.3873,5.68202,3.77671,8.23152,7.11866,1.98744,8.72886,3.10838,1.74336,2.38752,0.857491,5.15366,2.12719,4.42747,12.4885,5.94023,60.512,-840.336,-555.832,7980,-140,-4620
1.10765,7.95369,4.94692,8.53677,7.74798,2.95693,6.46124,1.96392,-0.270595,1.19426,-0.883594,6.60741,2.12139,5.228,8.58428,4.18339,59.048,-842.288,-551.44,8680,420,-4060
-2.73073,3.86944,3.89712,6.68875,6.49809,2.56477,2.56695,0.111608,-7.24561,-1.36871,-1.35734,4.64459,2.31388,4.74402,3.35999,1.74548,61.488,-841.312,-551.928,9520,840,-3080
-9.6145,-8.92463,-1.23045,-5.18778,-2.2085,-0.0673477,-6.0577,-2.21036,-15.2615,-6.06611,-2.73341,-4.07741,0.0179284,-0.156877,-9.30795,-3.32877,62.464,-839.848,-551.44,10220,1540,-2660
-15.0571,-20.7792,-7.41986,-18.0829,-11.2404,-3.10268,-11.4301,-2.97078,-22.6758,-10.4225,-5.32434,-13.0043,-3.26139,-5.39012,-16.0959,-6.52468,60.512,-842.288,-549,10500,1540,-2240
-4.93898,-13.4955,-7.29718,-12.3867,-9.31727,-3.60908,-3.20932,-1.0839,-6.17854,-3.6403,-0.736055,-10.5368,-3.51329,-5.85956,-2.23807,-2.7953,65.392,-842.288,-551.928,10780,2100,-1400
11.9977,6.83144,0.215554,5.3236,1.5003,-1.26283,8.39137,1.58104,19.1401,7.47258,4.95966,1.95225,-0.409551,-0.407288,15.6828,3.2945,60.512,-843.752,-549.488,10780,2240,-1120
12.5031,8.85839,1.47217,5.76183,1.60293,-1.24791,5.2312,0.241064,19.459,7.6599,5.0084,3.49657,0.565141,-0.410748,10.7304,0.928116,65.392,-841.312,-549,10780,2520,-420
5.90034,4.58291,0.549137,2.17695,-0.811063,-1.75786,-0.721056,-2.1819,9.56894,3.92677,2.8873,1.49586,-0.296787,-1.51253,1.72999,-2.71739,61.976,-842.776,-546.56,10360,2660,-140
-2.34015,-1.40438,-1.92899,0.222583,-1.22396,-0.774225,1.0264,0.370208,-1.76663,-1.45536,-1.40448,-2.09558,-1.77865,-1.43559,3.23094,-0.0447544,61.976,-847.168,-543.632,10080,2520,280
-3.215,2.47904,0.424609,6.20881,3.1769,1.17974,5.25612,1.87512,-2.76135,-2.0243,-1.62774,1.09592,-0.514734,1.8532,8.80476,3.21717,59.048,-845.704,-545.584,9380,2380,420
-1.25115,11.3608,5.13641,16.4236,11.0063,3.30436,8.23721,2.08519,-1.53178,-1.10629,-1.92269,8.22882,1.35526,6.34543,11.5051,5.38142,61.488,-846.192,-542.656,8680,2380,560
0.714915,7.07136,3.42658,5.19771,3.63209,0.716076,-5.45791,-1.67919,0.21707,0.398275,-0.160887,5.81433,1.60875,2.13482,-10.7506,-2.71678,57.096,-848.144,-540.704,7980,2240,560
4.77512,-4.40234,-1.24468,-16.6552,-11.0528,-3.28121,-19.0925,-5.83076,4.66751,3.24612,3.43021,-2.4293,0.0945271,-5.8553,-30.218,-11.3443,59.048,-848.144,-542.656,7280,1960,560
-0.726405,-4.81695,-1.09879,-12.706,-7.10389,-0.519726,-9.59657,-1.3841,-2.25085,-0.887757,-1.05474,-2.52459,-0.478747,-3.51742,-17.4405,-5.23068,61,-850.096,-546.072,7140,1960,420
-8.2898,-6.24733,-1.37161,-8.04787,-2.86071,1.14498,-5.26271,0.67045,-12.0345,-6.29779,-5.5418,-3.21952,-0.852966,-0.725642,-12.3588,-1.7543,59.048,-848.144,-544.608,6300,1680,140
-7.19691,-13.2713,-4.80175,-15.5875,-8.18547,-0.77209,-8.38826,0.131351,-9.9233,-5.23242,-3.08893,-8.9729,-2.05149,-4.22434,-14.5607,-3.50473,60.024,-850.096,-545.096,6020,1400,0
-2.38089,-8.77957,-3.25898,-5.64781,-3.26636,-0.246908,2.87013,1.25755,-4.44327,-0.987951,0.65486,-6.04294,-0.437876,-2.31726,6.3376,1.86601,58.56,-848.144,-547.048,6020,1400,-420
7.32269,9.69982,4.40716,17.2885,11.2179,3.3057,17.3369,3.46797,10.4495,5.48824,2.8953,7.42932,2.40274,5.8598,27.9162,9.60103,56.12,-849.608,-545.096,5460,1120,-700
13.2406,15.5079,6.12165,13.9835,8.30936,1.48866,6.25239,-0.725283,19.7129,9.72675,6.10206,10.4749,3.56083,3.91903,9.94621,3.2681,56.12,-851.56,-544.12,5320,980,-980
8.60502,6.04088,1.55389,0.748853,-0.875364,-1.59405,-4.8935,-3.87497,13.2016,6.74584,6.269,3.08057,1.50231,-2.17344,-6.63217,-3.49371,56.12,-852.048,-541.68,5460,980,-1260
6.43431,12.6462,4.57078,10.517,5.73147,0.548277,0.67777,-1.74163,9.54061,5.30091,3.38952,8.60285,2.29721,2.58634,0.321551,-0.536896,55.632,-848.632,-542.168,5600,840,-1680
-8.15794,7.45504,4.10213,14.4953,10.1902,3.87946,7.33776,3.30247,-12.2892,-4.98508,-5.18975,7.03117,1.96122,6.72311,7.77616,5.64729,53.192,-849.12,-542.168,5180,1120,-2100
-25.6671,-16.1539,-5.53511,-3.9505,-0.764838,1.90991,3.24389,5.3592,-36.0822,-16.7769,-11.1751,-9.71676,-3.21723,0.928306,1.44023,4.6902,56.12,-852.048,-538.264,5600,1260,-2660
-19.5846,-24.603,-9.70042,-15.8312,-9.4422,-1.57705,-1.60001,3.50478,-27.8095,-12.7602,-7.16223,-17.2182,-5.06875,-4.81025,-2.96188,1.03753,53.192,-850.584,-542.168,5740,1540,-2940
8.45424,2.21622,0.811193,1.48851,0.976771,-0.350385,3.58575,0.813523,12.2538,5.34711,3.02674,1.22956,0.501596,0.804975,7.42566,2.11904,53.68,-848.144,-543.144,6020,1680,-3220
22.0332,14.8582,5.54225,4.62843,2.65234,-0.784719,1.22909,-1.89888,30.7282,13.5569,7.65832,9.7294,3.03118,2.11467,5.23359,0.353869,56.12,-851.072,-542.656,6580,1820,-3500
3.79709,-3.4532,-1.78073,-5.88903,-4.39644,-1.36902,-1.65079,-0.446338,5.37647,1.89483,0.824412,-2.82524,-1.08977,-2.25258,0.724936,-0.937794,56.608,-845.216,-540.216,7420,1820,-3360
-0.271737,-5.38215,-3.85901,-6.89866,-6.20087,-2.44112,-4.38825,-2.03488,-0.211956,-0.886371,0.264976,-5.1827,-2.57016,-4.10422,-3.24434,-3.95529,57.584,-849.12,-543.632,7980,2240,-3500
2.05578,5.99048,1.19831,6.85194,3.215,-0.0360257,2.28548,-0.41338,2.67582,0.151447,0.607292,2.90276,-0.336799,1.31195,4.25309,0.0450439,56.608,-846.192,-542.656,8400,2100,-3360
-1.45794,0.451859,0.297222,0.455294,0.460393,-0.697838,-2.59515,-2.16244,-2.41015,-1.17593,0.583561,0.0830944,0.184542,0.136246,-4.80035,-2.9125,55.632,-843.752,-542.656,9240,1960,-3080
1.34852,3.80836,1.96545,-0.848704,0.164757,0.0595483,-4.34299,-2.327,2.76186,0.465518,-0.147324,2.70652,1.1527,0.504838,-7.45368,-3.23768,57.584,-842.288,-542.656,9380,1960,-2800
-7.68538,0.940196,1.81083,2.87167,3.45084,1.96117,2.28314,1.49914,-11.5177,-4.86451,-4.67049,2.18249,0.760021,2.98209,0.156064,2.01332,58.072,-843.264,-538.752,9660,1820,-2520
-15.5161,-20.0663,-6.4806,-17.1863,-9.84405,-1.72302,-7.75507,-0.402956,-23.5435,-9.33596,-4.75251,-12.3167,-2.61303,-4.77605,-13.7109,-3.912,58.56,-840.824,-538.752,10080,1820,-2240
-1.70942,-15.8968,-6.76755,-22.1506,-14.2269,-3.49433,-14.6576,-2.53057,-2.22797,-1.26928,1.3437,-11.2896,-2.52165,-7.99355,-22.0805,-8.27065,59.536,-839.848,-535.336,10220,1680,-1820
7.20955,1.80868,0.29941,-3.74108,-2.24184,-0.709383,-2.73659,-0.501672,9.87526,4.61114,3.39433,0.810652,0.486348,-1.41517,-2.03426,-1.4451,60.512,-839.848,-535.336,10080,1680,-1400
1.19649,7.78474,3.02235,16.1281,10.0438,2.15765,15.7986,3.5766,1.0934,0.519977,-0.727645,5.11937,1.14872,4.90324,26.3527,8.93732,55.144,-837.896,-533.384,9940,1540,-980
-7.23111,-4.20346,-2.69243,9.86416,4.92735,0.857714,15.5633,4.46566,-8.63834,-5.51724,-3.41454,-3.74425,-1.67136,1.90597,24.9005,9.15203,51.728,-836.92,-537.776,9940,1120,-280
7.02863,2.66933,-0.509186,2.78543,-0.835952,-1.33117,3.2142,-0.730526,12.9603,4.98006,3.06702,0.85555,-0.078007,-1.37604,8.05041,0.549726,53.68,-836.92,-537.288,9800,840,0
23.6932,19.7834,6.00754,10.4137,3.83536,-0.824278,0.703732,-2.59735,35.5194,15.6517,9.18663,12.1161,3.15481,1.18802,4.09919,-1.92169,53.192,-836.92,-537.776,9520,980,140
32.4318,29.5802,10.1214,14.7327,7.22446,0.262249,-2.159,-4.26273,44.9496,21.3257,12.9118,18.5966,5.14802,2.99139,-1.18506,-3.64306,55.144,-840.336,-533.872,9380,700,140
21.3887,17.3794,6.83192,2.96645,1.39859,-0.00332977,-7.82101,-3.93954,27.8122,14.3978,9.27667,11.5369,3.72564,0.715827,-13.1528,-5.35153,52.216,-837.408,-537.288,9660,560,280
-0.410834,6.20237,4.39684,0.830221,2.89401,2.5562,-3.30221,0.535989,-2.65339,0.441301,-0.577046,5.51754,2.14077,3.30412,-10.861,0.214863,54.168,-837.896,-534.848,9380,420,140
-18.1434,-7.72068,-0.145976,-2.7988,2.03962,2.51929,-1.99319,1.72854,-27.8827,-11.0881,-7.63938,-2.91824,-0.529429,2.20857,-9.85351,1.49292,53.192,-835.456,-536.312,9380,280,280
-20.4569,-17.9236,-4.95499,-9.84797,-3.49739,0.426083,-2.58322,1.91152,-29.1699,-13.0936,-7.52355,-10.5157,-2.8029,-0.78895,-8.80107,0.0850863,53.192,-836.432,-538.264,9240,0,420
-8.17029,-8.63792,-2.36902,-5.25072,-1.84967,-0.165165,0.838639,1.14055,-12.1062,-5.05792,-3.26898,-4.92146,-1.14623,-0.594049,0.638806,1.1799,55.632,-834.48,-539.728,8960,-280,280
-15.772,-11.3089,-3.3798,-2.15197,-0.407177,0.543549,5.37236,2.49437,-21.7472,-10.2689,-7.00535,-6.64204,-1.98825,-0.148986,8.52101,3.85802,52.704,-835.944,-542.656,8680,-560,420
-24.1958,-14.1548,-5.07177,-2.57267,-1.31278,-0.0294516,1.47291,1.25983,-32.7588,-15.868,-9.86113,-8.95717,-3.51531,-1.14407,2.40077,1.2543,53.192,-835.944,-540.704,8680,-840,140
-31.5702,-17.8526,-7.59438,-0.183254,0.183588,0.622589,3.83588,3.02199,-42.4669,-21.0734,-13.4788,-11.6732,-4.7185,-0.195429,5.60562,2.95934,56.12,-834.48,-539.728,8680,-980,-140
-26.006,-12.8232,-5.65601,9.69342,6.35506,3.05574,16.4423,7.34695,-33.9446,-18.0773,-12.3535,-8.70035,-3.73086,3.65959,25.5096,11.003,50.752,-837.896,-542.168,8680,-1400,-420
-3.7266,0.632339,-1.24648,18.4539,10.8044,2.90601,22.3451,7.32808,-1.85826,-3.99979,-4.12757,-0.686293,-1.75178,4.66813,38.433,13.8445,51.728,-840.336,-538.264,8540,-1400,-840
30.4974,18.2288,4.95008,6.67269,1.83464,-0.48588,1.34759,-1.70822,44.0985,19.0063,11.5267,10.4738,3.11628,-0.112376,5.31946,-0.929784,48.8,-840.336,-537.776,8820,-1400,-1400
32.983,17.9857,4.66739,-5.92302,-6.07182,-2.16224,-11.9293,-4.77946,47.0116,20.8414,12.9851,9.78179,3.62415,-3.79295,-17.4487,-8.44016,49.288,-841.8,-539.24,8960,-1400,-1820
18.5761,12.4448,3.95216,-1.72753,-1.76017,-0.062927,-8.02292,-2.03645,26.0474,12.0291,6.71163,7.47718,2.81962,-0.371269,-13.4774,-4.77569,47.824,-842.776,-537.776,8960,-1400,-2520
18.8115,17.485,8.589,-3.92099,-2.2911,-0.563226,-21.2545,-7.78443,22.7006,13.7999,8.98867,13.4675,5.08842,0.303857,-35.8928,-13.2568,47.824,-843.752,-535.336,8680,-1120,-2800
-1.67223,-4.83788,0.682796,-18.6699,-11.2277,-2.46797,-25.5287,-7.08716,-6.81482,1.57178,2.8332,-0.877158,1.28338,-4.47738,-41.8459,-14.957,45.872,-842.776,-538.264,8820,-1120,-3220
-20.2098,-33.9045,-12.0306,-31.3351,-20.8033,-5.143,-17.0549,-3.32433,-30.6782,-10.7454,-2.48832,-22.5955,-4.9843,-11.8595,-24.2305,-10.1102,47.336,-842.776,-536.312,8680,-840,-3780
-7.06319,-20.593,-9.88239,-21.1547,-15.9093,-5.60857,-11.5174,-4.10764,-8.63878,-4.25079,0.681218,-16.0814,-4.23402,-11.161,-12.8934,-8.42985,45.872,-846.192,-535.336,8540,-140,-4060
-1.22983,-7.42023,-3.38613,-11.0082,-7.00841,-2.3118,-5.45377,-2.2787,-2.43763,-0.41315,0.674842,-5.82931,-1.07443,-4.78716,-7.45202,-3.90534,48.8,-845.704,-539.24,8820,140,-4480
-9.13691,-13.1412,-5.1519,-6.48699,-3.229,-0.602413,6.06669,3.29856,-12.8919,-6.32623,-3.74077,-9.17562,-2.83651,-1.89831,9.09687,4.52501,47.824,-842.776,-533.872,8820,560,-4620
8.10153,6.7102,1.68036,12.9352,8.58143,1.89601,17.1523,5.41694,12.9604,3.27508,1.05297,4.0725,0.273297,4.93722,27.5691,11.255,49.288,-842.776,-538.264,8540,840,-4900
28.852,28.9433,10.7636,22.0318,14.1085,2.30488,11.237,-0.0756576,40.9756,17.9089,9.98241,19.412,5.04617,8.08304,19.5945,5.76539,46.848,-843.264,-533.872,7980,1120,-4900
21.2258,21.0837,8.66242,12.8133,7.90883,0.40376,2.51808,-3.44635,29.426,14.147,8.36876,14.3364,4.40929,4.0872,6.12857,-0.825531,42.456,-841.312,-535.336,6860,1120,-5180
7.91493,12.2007,4.62851,14.2136,9.35786,1.7577,11.9365,1.30145,11.9002,4.55289,1.86645,8.103,1.90585,5.2393,18.2081,6.1716,44.408,-839.848,-532.408,6020,980,-5320
7.76961,16.2211,6.87495,18.8681,13.0133,2.98538,15.2552,2.40972,11.0258,4.82403,1.86533,11.296,3.02295,7.42551,22.5298,9.11535,44.896,-839.848,-526.064,4900,700,-5740
-1.25816,8.91266,4.59342,11.8385,9.50908,3.07822,10.8608,3.54508,-2.03901,-0.822482,-2.13262,7.13014,1.92315,6.38557,14.9933,7.91254,45.384,-835.944,-524.6,3780,840,-5880
-12.185,4.36227,2.6997,12.4596,10.4549,3.70082,10.963,4.50936,-17.7864,-7.82813,-6.81352,4.37692,0.588807,6.81508,14.4847,8.10154,46.848,-837.408,-522.648,2240,560,-6160
-24.4288,-8.00663,-0.944805,8.14007,6.95093,2.48982,7.87365,2.96421,-35.988,-14.4514,-9.57396,-3.49305,-0.993413,4.54512,10.3503,5.21601,46.848,-837.896,-520.696,420,140,-6300
-20.9132,-18.241,-7.52206,-8.00676,-6.01818,-2.3035,-4.81446,-1.27745,-30.2448,-12.8035,-5.85823,-12.9093,-3.79761,-4.22117,-6.46224,-4.00804,47.824,-833.504,-523.136,-980,0,-6440
-5.55305,-11.5646,-5.78494,-15.7651,-11.2721,-4.04754,-15.2337,-5.6588,-8.06282,-4.23765,-0.409472,-9.17203,-2.91563,-7.98936,-22.5654,-10.7296,48.8,-836.92,-515.328,-2940,-280,-6300
-9.16733,-17.58,-8.87814,-24.6285,-16.4889,-4.76806,-20.1203,-4.31754,-11.124,-7.74492,-4.10978,-13.0667,-4.79763,-9.81498,-30.6573,-11.5568,48.8,-833.016,-518.744,-4760,-420,-6160
-18.535,-19.5236,-8.84907,-14.927,-9.1253,-2.19286,-5.95548,1.7591,-24.4183,-13.5989,-9.33458,-13.6253,-5.19174,-5.27595,-9.91108,-1.57839,53.192,-832.04,-517.28,-6160,-840,-5880
-12.1412,-4.07384,-0.0638813,7.725,8.20874,4.54873,12.466,8.98258,-16.8951,-9.92117,-8.6442,-0.756419,-0.725205,6.61161,13.3616,11.3954,52.216,-832.04,-514.84,-8260,-1120,-5460
13.6032,15.3598,9.61933,12.2637,11.0275,5.1815,6.28542,3.86191,17.0727,9.16827,4.20048,13.4994,5.66318,9.03576,4.68723,6.30866,55.144,-829.6,-507.032,-9660,-1260,-5180
18.7821,14.0849,8.40723,7.83147,6.66847,2.94838,4.07445,1.61811,24.3612,12.8778,6.91852,11.7059,4.82385,5.36771,4.08507,3.63339,57.584,-831.064,-506.056,-11620,-1260,-4480
14.7091,11.6258,4.00043,10.6305,5.44789,1.29024,10.4328,2.90432,22.3118,8.79838,5.44311,7.33409,1.87122,2.65678,17.1,5.51791,59.048,-832.04,-507.032,-13580,-1400,-3780
8.44222,7.48651,0.563603,9.54627,2.59049,0.243555,8.11706,1.45327,15.6293,4.43156,2.45521,2.52407,-0.115256,0.026503,15.337,2.85723,57.096,-831.064,-505.08,-14980,-1400,-3360
4.83311,0.437032,-1.53852,-3.47773,-6.37057,-2.787,-8.19708,-4.1013,8.63524,3.92724,3.09953,-1.82767,-0.163417,-4.65263,-9.90892,-7.33411,59.536,-827.16,-503.616,-16520,-1260,-2380
0.420346,-5.70017,-3.10716,-12.8758,-10.442,-3.62451,-14.1086,-5.43313,-0.169924,2.16638,2.58514,-4.27294,-0.447301,-6.5303,-19.4529,-10.2556,63.44,-828.624,-500.688,-17640,-1820,-1960
-8.63164,-12.5099,-5.29869,-11.5694,-8.59027,-1.59853,-8.01884,-1.69343,-13.552,-4.55752,-1.62635,-8.85172,-2.0017,-5.49908,-10.01,-5.40914,63.44,-826.184,-501.176,-18620,-1820,-980
4.24972,-4.57241,-2.55737,-11.4056,-9.60054,-2.71539,-12.5051,-5.37692,5.79548,4.49445,4.6693,-4.1034,-0.0993369,-6.19599,-16.6217,-9.21827,65.88,-827.16,-503.128,-19320,-2100,-420
7.28985,-3.40902,-2.81187,-11.5736,-9.63133,-3.18834,-11.8722,-4.85564,11.5085,4.72524,4.2077,-4.0061,-1.03114,-6.69537,-16.0688,-8.14966,67.344,-827.16,-504.104,-19460,-1820,0
7.61698,2.20682,-1.10211,-2.89099,-3.46885,-1.63451,-2.97067,-1.50882,12.2941,4.37051,3.39523,-0.498876,-0.698662,-3.36787,-3.25905,-2.21733,69.784,-827.16,-506.544,-19040,-1960,700
3.77336,1.77585,-1.16474,-1.61744,-2.15859,-1.17978,-1.28491,-0.734928,7.07934,1.86879,1.0938,-0.345072,-1.16903,-1.81054,-1.72766,-1.1917,72.224,-825.208,-504.592,-18200,-1820,1260
2.85787,3.06692,0.357496,1.42037,0.788277,-0.618189,0.57124,-0.891577,3.99679,2.06611,1.80447,1.49083,-0.151794,0.314053,1.33996,-0.259002,73.2,-823.744,-507.032,-16800,-1820,2240
5.75697,13.9347,6.37769,13.7331,10.7627,2.51769,7.62521,1.54167,7.57972,4.11912,1.14565,10.8945,2.80488,6.57697,9.41997,4.88466,74.664,-822.768,-508.496,-15120,-1820,3080
-0.953319,8.6926,5.71062,10.8842,9.60499,3.30043,7.02368,2.14228,-1.85625,-0.0432759,-1.68716,8.25847,2.38904,6.72309,7.01163,5.20674,77.592,-819.84,-509.96,-13860,-2100,3780
-0.385863,5.15179,3.60395,3.36894,4.51947,2.41295,1.62588,0.880133,-1.21876,0.590714,-0.912964,4.55276,1.68017,4.0652,0.0123609,2.2234,75.64,-814.472,-510.448,-11480,-1960,4340
-14.8907,-1.12383,1.85163,1.67106,2.93995,1.88797,-4.1678,-1.40693,-23.4263,-8.20689,-6.10339,0.322673,0.608278,2.78638,-7.14223,-1.6143,74.664,-811.544,-510.936,-9800,-2380,5040
-49.5429,-22.5721,-5.79301,1.18864,4.10055,3.09393,4.26834,3.1801,-74.2573,-31.0314,-20.4276,-12.0504,-3.61588,3.57988,4.00459,5.21284,72.712,-812.032,-512.888,-8120,-2800,6020
-50.9115,-41.8569,-15.1742,-12.5031,-6.19671,-0.20246,8.00736,6.13474,-72.0585,-33.557,-19.4485,-26.7639,-8.50459,-3.02743,12.2419,6.94268,72.712,-813.984,-509.472,-7560,-3360,6720
1.92518,-16.1298,-8.53901,-15.9459,-12.5723,-4.45892,-4.77648,-1.45515,4.19833,-0.289561,2.38929,-13.2494,-4.24396,-8.48348,-2.01914,-3.78065,72.224,-801.784,-507.52,-6160,-3920,7140
28.3614,13.148,2.9899,-2.24127,-3.65162,-2.7281,-6.80222,-4.6304,41.0164,16.5995,10.7758,6.9185,2.01015,-3.42647,-7.63967,-5.75617,71.736,-815.448,-511.424,-5600,-2660,7560
16.2486,7.88595,2.31166,-1.73634,-1.21526,-0.857617,-2.42163,-1.53848,24.002,9.72998,6.4814,4.89225,1.757,-1.20232,-2.00398,-1.60345,70.272,-821.792,-513.376,-8260,-3360,7560
8.83851,6.17261,1.58754,5.13291,3.62073,0.75595,7.72805,2.42534,13.5818,4.28398,1.6101,3.58294,0.66315,1.59276,12.4666,4.45561,66.368,-815.448,-513.376,-7140,-4060,8120
6.28787,7.12394,2.39593,8.40581,6.07986,1.55527,9.77882,2.71327,10.5197,2.45215,0.619918,4.60564,0.969246,3.42354,13.9844,4.73216,64.416,-822.28,-512.888,-5740,-3780,8120
5.86896,6.6359,2.29126,5.10249,3.92898,0.689628,3.80251,0.659853,8.59158,2.73411,1.12376,4.48057,1.15097,1.84074,5.43716,1.38537,67.344,-829.6,-514.352,-6860,-3920,8260
7.76037,4.08674,0.563387,-0.864176,-0.67494,-0.972549,-0.936742,-0.232139,10.2296,4.81241,3.67021,2.00523,0.631741,-0.805933,-1.43123,-1.56761,62.464,-828.624,-511.912,-7000,-3360,7980
12.2115,7.54468,2.20622,0.659752,-0.161169,-0.29901,-2.25103,-0.316311,17.1972,8.3329,5.53285,4.85712,1.319,0.200494,-3.44727,-1.61148,58.56,-835.456,-516.304,-6720,-2940,7700
11.2756,8.90888,3.39963,3.87912,1.51445,-0.0656369,-1.95968,-0.837391,15.6259,8.12662,4.95036,6.67354,1.90467,1.50638,-3.93704,-0.830029,59.048,-853.512,-512.4,-9240,-4480,7700
9.1007,8.59164,4.07095,7.27548,3.78383,0.797919,1.80309,0.455429,12.1567,6.76937,4.77499,6.23979,2.11991,2.19603,2.6335,1.92613,56.12,-841.312,-515.328,-8120,-4340,7280
5.96259,7.98566,4.46344,9.97595,6.28323,1.30784,5.24331,0.643325,7.50447,5.12316,3.0653,6.27205,2.07145,3.4927,7.38393,3.41575,52.216,-833.992,-513.376,-6440,-2380,6580
4.6553,7.16811,4.94979,7.10672,6.43726,2.5257,4.72764,1.8965,5.51889,4.81691,2.44728,6.61543,2.97014,5.1605,4.16673,4.44243,50.264,-846.192,-520.696,-8540,-1960,6020
4.53462,7.3325,5.20602,8.82535,7.69683,3.18973,8.09185,3.5645,4.7168,3.77904,2.01828,6.32016,2.847,5.72882,8.82377,6.83796,50.752,-840.824,-512.888,-8680,-1820,5460
2.55879,3.06929,2.61105,5.32957,4.04432,1.58305,7.09207,2.65489,1.97994,2.87227,2.54973,2.24794,1.7343,2.4539,7.64924,4.956,46.36,-831.552,-513.376,-6440,-700,4200
4.25582,-0.826718,0.729033,-2.3746,-1.32126,0.269029,-0.269072,0.940081,4.63415,3.98326,3.93427,-0.356365,1.16154,-0.304199,-1.84296,0.629218,44.408,-839.848,-515.816,-7840,-840,3780
11.0259,4.92649,2.86933,-7.19479,-4.56035,-1.15671,-12.4089,-4.27317,13.5452,8.3608,5.82154,3.50909,2.16602,-2.05779,-19.3601,-7.67662,46.36,-841.8,-514.84,-10080,-840,3080
-0.967931,1.62107,3.20675,-4.22917,-1.29898,0.449318,-9.77373,-3.29168,-3.32461,1.10609,0.676386,2.62902,2.04857,0.296954,-15.883,-6.03891,45.384,-834.968,-520.208,-11900,-840,1820
-13.1869,-4.63444,0.396856,5.4672,5.11521,2.71037,6.32063,2.38715,-19.5032,-7.69015,-5.27872,-1.4167,0.303691,4.16588,10.6848,4.59381,42.944,-843.752,-519.72,-14980,-1680,1120
-12.3512,-4.31396,-1.60706,7.31949,4.43351,1.81636,9.41357,2.80424,-15.9187,-8.53677,-5.79109,-2.83954,-1.1261,2.29806,14.9898,5.99679,47.824,-842.776,-525.088,-18200,-3220,700
-15.7453,-18.3297,-8.84122,-10.6934,-8.61216,-3.1498,-1.82367,-0.730143,-21.3365,-10.8102,-4.57635,-13.1497,-4.64494,-6.38738,-0.892997,-2.11117,46.848,-834.968,-525.576,-18620,-2100,-420
-13.6016,-20.3501,-11.5116,-16.5001,-12.9927,-4.51117,-4.99009,-1.06781,-17.7703,-9.93759,-4.4876,-16.0934,-5.97463,-9.17941,-4.24397,-5.07644,43.92,-829.6,-526.552,-20020,-1260,-700
0.295327,-3.12708,-4.42198,-6.37793,-5.9291,-2.50568,-3.72704,-1.42403,2.75772,-1.49319,-1.52539,-4.07693,-2.32815,-3.96773,-2.26406,-3.51948,46.36,-849.12,-528.504,-24500,-1960,-1260
9.83923,12.0695,3.43338,5.13981,2.8369,-0.0580299,-2.68493,-2.41833,15.8978,4.02566,-0.236451,7.45364,0.838924,1.46713,-2.55002,-2.33765,51.728,-851.56,-527.04,-25060,-2660,-1540
-0.788981,12.2358,4.54307,6.17833,4.94735,1.54941,-6.65334,-2.34403,0.371449,-3.01432,-6.9081,8.63747,0.691628,3.21343,-12.9364,-3.88267,51.728,-846.192,-524.112,-21840,-2660,-1680
-26.9104,-13.0212,-5.67581,-8.28782,-4.71962,-0.833798,-6.92974,-0.457798,-36.9398,-18.7698,-14.8777,-8.88684,-4.18163,-2.47476,-12.4429,-3.21455,55.632,-846.192,-529.48,-21140,-2520,-980
-36.6043,-32.4067,-15.897,-19.7775,-14.2009,-3.96104,-5.91811,0.894748,-47.4762,-26.6015,-17.4709,-24.146,-9.25344,-9.41983,-8.0814,-3.56903,57.096,-840.824,-525.576,-20720,-1540,-980
-20.7476,-27.2206,-15.2447,-20.5569,-16.4441,-5.53524,-10.3605,-2.04786,-23.8599,-16.3436,-10.2229,-21.5139,-8.51978,-11.362,-11.0213,-7.82888,57.584,-839.36,-527.528,-21420,-700,-840
-11.6542,-16.4579,-10.6791,-10.6024,-9.81255,-4.12132,-5.84284,-2.3363,-11.9969,-10.0917,-6.46262,-14.4946,-6.31971,-8.09012,-2.32172,-5.49749,61.488,-825.208,-512.4,-20440,-420,-840
-5.22303,-8.37265,-5.60578,-8.05715,-7.37098,-3.00815,-7.96424,-3.35189,-4.04374,-4.65625,-3.28493,-7.86606,-3.43991,-5.84389,-8.86273,-6.49237,48.312,-851.072,-523.136,-13440,2100,-560
-2.83529,-9.32978,-4.99949,-13.5355,-9.7309,-3.02836,-10.9003,-3.08651,-1.96784,-2.10515,-0.896558,-7.34185,-2.54587,-6.06008,-15.5699,-6.9584,62.464,-857.416,-532.408,-18060,280,1400
6.22068,0.823574,-0.473988,-3.2736,-2.54124,-1.42444,-2.57966,-1.86127,8.84121,3.55006,3.11839,-0.0564418,-0.0907374,-2.02168,-1.99677,-2.30941,65.88,-861.808,-539.24,-23240,-1120,1540
18.8997,13.6453,6.24766,6.98175,4.04737,0.0928932,1.87377,-2.7893,24.6908,13.1047,9.77742,9.62543,3.6877,1.94356,3.81815,-0.585306,66.368,-858.88,-537.288,-24640,-1540,980
28.3634,22.7742,10.8518,7.18059,5.03192,0.00982729,-3.85087,-5.4242,37.212,20.6763,15.6905,16.5866,6.84215,3.2705,-7.1929,-3.63701,64.904,-855.952,-536.8,-21840,-1400,840
23.7615,20.7198,11.9849,7.41928,7.17368,1.9881,-1.90769,-3.62938,27.2631,19.4298,15.4838,16.7865,7.87927,5.25601,-6.99854,-1.39772,63.44,-848.144,-533.384,-17080,-280,700
7.14553,4.92915,6.40053,2.91721,5.00257,2.76188,4.44565,1.80556,3.5104,9.66235,9.69326,6.47265,5.07827,4.35517,3.42139,4.27009,66.368,-843.752,-528.016,-13860,420,1540
10.4755,7.68865,6.3387,11.0778,9.69542,3.80327,16.6004,7.54254,10.2224,10.5823,8.72544,7.94839,4.54634,7.28481,22.7798,12.4135,65.392,-843.264,-530.456,-11340,280,2380
17.4247,19.1578,10.0837,24.5048,17.8713,6.00664,23.428,9.10778,22.2108,13.5213,8.23703,15.218,5.7356,12.1856,32.4137,16.8253,63.44,-847.168,-527.04,-10920,-420,3360
26.4423,32.4721,17.5658,37.5148,27.5874,8.95495,29.1876,9.39369,33.3422,19.6128,11.1324,25.3691,9.49127,18.2093,39.904,20.3692,66.368,-847.656,-527.528,-11060,-980,4200
33.5534,39.7214,20.639,38.3379,27.7673,9.49839,24.3346,6.42555,42.3361,24.4376,14.244,30.5564,11.0357,18.02,32.8975,17.003,63.928,-845.216,-530.944,-10780,-2240,4900
20.3399,25.9797,12.2961,24.3519,17.0518,6.07206,14.3466,4.4658,26.8636,14.0985,8.17262,18.9694,6.12931,10.7777,18.587,10.507,63.928,-843.752,-528.992,-10780,-3360,5460
5.45294,5.86575,2.50842,7.97644,5.50611,2.70004,7.758,4.45565,5.81275,3.20198,1.77929,4.0013,1.24149,3.41471,10.0651,6.10976,62.952,-844.728,-529.968,-10500,-3780,5880
-4.68804,-8.74664,-3.82944,-8.05412,-5.69673,-1.07628,-2.8998,1.2503,-6.74474,-3.263,-1.54649,-6.73659,-1.68194,-3.11347,-3.95026,-1.10084,64.904,-841.312,-528.992,-10780,-4340,6160
-12.698,-16.3444,-7.83936,-18.3311,-12.2047,-3.31353,-10.1157,-0.559153,-15.4992,-9.40413,-6.06067,-12.4711,-4.02178,-6.53491,-14.8048,-5.23687,65.392,-838.384,-527.528,-10220,-4340,6160
-21.6818,-18.7005,-8.12029,-16.8242,-10.5626,-2.1987,-9.74122,-1.07828,-28.1902,-15.3735,-10.4787,-13.181,-4.26565,-5.67247,-15.3582,-5.27507,65.88,-836.92,-528.016,-8820,-4340,6300
-28.4349,-21.6369,-8.01023,-13.1656,-7.27466,-0.87825,-5.93962,-0.479182,-39.0569,-20.1874,-14.0148,-13.9086,-4.87937,-3.90176,-10.4492,-3.21254,62.952,-836.432,-526.552,-7560,-3920,6300
-27.4552,-23.8399,-10.8038,-16.2927,-11.2447,-2.75371,-8.3085,-1.35655,-35.3059,-20.5266,-14.1364,-17.3112,-6.80273,-7.06519,-12.6905,-5.0933,63.928,-833.504,-526.552,-5880,-2940,6300
-20.5148,-16.1427,-8.77738,-8.36568,-6.7735,-1.97982,-3.43071,-0.410507,-25.5633,-16.7324,-12.86,-12.714,-5.8009,-5.06001,-4.33667,-2.75875,62.464,-832.528,-529.48,-4480,-2520,6580
-17.0624,-17.0155,-9.02457,-12.4247,-10.4561,-3.7649,-9.49941,-4.44941,-20.2788,-12.9081,-9.43922,-13.0335,-5.50863,-7.32011,-10.4163,-8.20007,61.488,-831.552,-530.944,-3780,-2380,6440
-2.7915,-7.02693,-5.73876,-12.3386,-11.0961,-5.58961,-15.6912,-9.24072,0.0980802,-2.84786,-1.58931,-6.7297,-2.90412,-8.16886,-17.5724,-13.6728,61,-829.112,-535.824,-3500,-2800,6720
5.57799,-0.033306,-3.95764,-9.60656,-9.84556,-5.64792,-15.9303,-8.78962,10.7041,2.13126,1.91194,-2.97621,-1.86703,-8.13126,-18.1706,-13.6219,58.56,-833.504,-538.264,-3080,-2800,6580
4.3975,3.39812,-2.5905,-0.867075,-3.67002,-3.11248,-5.64999,-2.82767,7.89794,1.76161,0.458823,-0.622429,-1.94356,-4.49797,-5.64191,-5.71875,61,-827.648,-536.8,-4060,-2800,6580
2.26348,4.01841,-0.820619,2.10623,0.366989,-0.451713,-1.48761,0.305878,2.8431,0.661134,-0.516982,1.37603,-1.05569,-0.814309,-1.97308,-1.20383,57.584,-833.992,-540.704,-4760,-2800,6300
-4.19467,-7.69535,-3.3258,-10.5233,-6.6464,-1.06557,-8.58108,-1.45714,-7.19816,-2.76231,-1.02374,-5.11794,-1.45637,-3.90616,-13.4332,-5.22673,60.024,-835.944,-541.192,-5600,-3920,6020
-5.92969,-10.9411,-4.39858,-12.3948,-8.38448,-1.43138,-7.63737,-2.01971,-9.26493,-3.326,-0.886331,-7.4032,-1.59459,-5.04968,-10.7993,-4.9024,61,-836.432,-543.632,-4620,-4480,6020
-10.8642,-4.67892,-1.98688,2.68261,1.8289,1.36976,5.56771,2.92833,-12.9547,-7.50618,-4.32845,-2.98579,-0.890798,1.22367,7.24292,4.68183,59.536,-834.48,-541.68,-3080,-3920,5740
-8.98692,5.98834,4.127,14.1376,11.9859,5.06713,11.8533,5.53215,-10.6938,-6.88587,-5.94106,5.91031,1.52055,8.64947,13.2415,9.78462,57.584,-829.112,-545.096,-1120,-2940,5460
-9.22163,-5.18018,-0.246957,2.32987,3.23697,2.34724,7.48718,4.62384,-12.0115,-5.94083,-3.29073,-2.78827,-0.441612,3.3002,9.25873,6.73991,53.192,-833.992,-543.144,1400,-840,4760
5.18902,1.89791,0.6939,2.2202,1.26524,0.0141079,4.56317,1.08085,7.44644,4.1025,3.58616,0.861137,0.607787,0.848446,7.63409,3.1128,61,-822.768,-541.192,2800,-280,4760
12.4535,7.97087,3.67644,2.45878,0.907207,-0.795336,-0.643711,-2.54962,15.5918,9.95707,7.57421,5.71488,2.2362,0.447982,0.113432,-1.30826,59.536,-817.888,-527.528,6720,1680,3500
10.509,7.22816,4.65914,6.09233,3.80549,-0.114775,3.52279,-0.772312,12.0246,8.79514,6.81604,6.43505,2.47362,2.35249,6.54479,1.69627,45.384,-817.888,-530.944,12320,3220,2800
13.8968,10.609,6.32534,4.65686,3.70391,-0.157014,-1.79466,-2.86497,16.738,11.1848,7.42418,9.03843,3.42729,2.56323,-3.17067,-2.00877,44.408,-845.216,-534.848,13720,1960,3920
16.0678,7.15856,5.57955,-5.25396,-1.60983,-1.05789,-6.80196,-3.24085,18.4332,13.2291,9.28126,6.53046,3.8393,-0.389007,-11.5791,-4.70799,50.264,-852.048,-542.656,12180,4340,4340
11.6744,9.07316,5.66412,5.55359,5.90363,2.17302,7.12687,3.02917,14.3681,8.84431,4.86186,7.47539,3.04522,4.29646,8.59299,5.41731,49.776,-840.824,-542.656,11060,6720,3220
8.27019,3.22512,2.56749,-0.237786,1.88734,1.17362,1.98893,2.42187,10.005,5.81044,3.0684,3.07238,1.663,2.29231,0.717436,2.94172,48.8,-835.944,-542.168,10500,5740,2940
11.5236,-0.3978,-0.820227,-10.7802,-6.82195,-2.61885,-7.03977,-1.18335,15.3458,7.71499,6.09021,-1.03825,0.782958,-3.85042,-10.1568,-3.43041,47.336,-846.68,-546.072,8680,4760,3360
5.29853,-1.21104,-2.87491,-3.5889,-4.05655,-2.48554,-1.48072,0.0792447,9.67419,2.57348,2.56715,-3.44433,-1.4251,-3.85267,0.884327,-0.903312,51.728,-858.392,-544.12,5600,2660,3640
4.28573,5.47493,0.571487,4.99846,1.6342,-1.34359,-0.631177,-1.96091,7.5349,2.13479,1.38517,2.20714,0.212424,-0.1567,2.29422,-1.81419,48.8,-865.712,-541.68,4900,3360,3500
4.20899,10.0888,3.58838,7.68194,3.85375,-0.223611,-2.25538,-3.82425,6.11235,2.45587,1.01789,6.70781,1.96458,1.92087,-2.3961,-3.27916,49.776,-861.808,-544.608,4760,5040,2940
-5.0936,-1.6873,-0.459976,0.51521,0.403841,0.0644066,-1.06634,-0.847802,-7.48473,-3.72051,-3.05326,-1.20813,-0.586793,0.233705,-2.47838,-1.2508,50.752,-858.88,-545.096,3920,4060,2940
-7.18572,-1.58976,-1.12235,8.78207,5.22306,1.6508,10.804,4.57803,-10.2982,-6.03377,-4.93843,-1.70866,-1.21394,2.91899,16.6084,7.29363,49.288,-865.224,-546.072,2800,2940,3220
-1.86919,11.8135,4.64215,20.7383,13.4754,4.44383,14.5193,4.75062,-3.29702,-2.06639,-4.18134,8.66073,1.61936,7.88027,21.0523,9.53632,48.8,-864.248,-544.12,2100,1960,3220
-9.20256,4.45723,3.74878,10.7951,8.09425,3.68346,4.47619,2.11093,-13.7062,-5.56403,-5.81854,5.30517,1.37406,5.76861,2.0799,3.41257,53.192,-863.76,-540.704,2380,2100,2940
-24.6197,-18.3668,-7.62928,-10.6654,-7.63345,-1.1055,-8.45377,-0.915133,-35.135,-16.0215,-9.43131,-12.4909,-3.89759,-4.31347,-14.3759,-5.16274,49.776,-857.904,-540.704,2380,1960,2800
-33.9374,-28.2967,-12.049,-11.248,-7.27492,-0.433604,3.68391,4.27181,-47.2173,-22.3726,-12.9278,-19.4417,-6.26612,-4.02673,4.51557,2.99234,50.752,-857.904,-538.752,2100,1540,2940
-25.0083,-21.0368,-7.04898,1.23629,3.21999,3.64142,22.3,11.2118,-33.0207,-16.9415,-10.2894,-12.9059,-3.94182,3.1056,32.1809,16.273,53.68,-858.88,-535.824,1960,980,3220
7.95171,3.07759,0.996845,8.69421,6.14455,2.82372,15.937,5.34881,14.0967,4.34828,2.97584,2.10262,0.726627,3.73201,25.1009,10.798,58.072,-857.416,-536.8,1820,840,3220
31.5174,17.8037,4.76144,4.76692,-0.0668022,-1.34811,-0.635962,-4.67693,45.3454,20.0628,14.2482,10.2856,3.08371,-1.69972,3.19347,-3.088,58.56,-858.88,-534.36,1960,700,3360
23.1447,18.6594,5.15456,3.73934,0.832088,-1.00732,-5.00178,-5.24475,33.2242,14.1071,9.28469,11.0121,2.30284,-1.19212,-5.61123,-5.80798,63.44,-855.464,-537.288,2660,280,3500
-4.9619,-2.99967,-1.78658,-1.03735,0.664687,0.78462,1.15739,0.362687,-4.2673,-4.47795,-2.90126,-2.60254,-1.85704,-0.0641223,1.69134,1.26154,65.392,-858.392,-534.36,3220,140,3780
2.3336,-4.05841,-3.06387,-4.38787,-3.64012,-0.686947,-0.557445,-0.604096,6.10078,0.547255,1.58489,-4.42791,-1.70697,-2.76678,2.46916,-0.479493,69.784,-859.856,-536.312,3640,-140,3780
18.5376,9.98449,3.07482,-2.54825,-2.84567,-0.0354176,-5.12085,-1.5754,27.0024,11.993,7.98339,5.1352,1.44373,-2.11316,-6.87638,-3.43557,69.296,-856.928,-540.704,4760,-700,3920
12.2277,22.2155,11.3266,12.4275,10.2693,5.15576,-4.01795,-0.704339,15.1956,8.80467,3.39913,17.3291,5.25444,7.10504,-10.7179,-1.02192,73.688,-856.44,-539.728,6160,-840,3780
3.29061,7.49386,6.89196,-7.14062,-2.70042,1.00568,-25.2339,-7.52907,-0.419087,3.92766,1.74884,8.39706,3.82667,0.654469,-41.9999,-14.3878,73.688,-854.976,-543.632,7700,-1680,3780
-14.4425,-18.9391,-4.39541,-23.5948,-13.6304,-2.5306,-24.4906,-5.6764,-24.9931,-7.51263,-3.69549,-10.3811,-1.43295,-6.35613,-39.0432,-13.7554,79.544,-852.536,-546.56,10220,-2520,3640
-23.521,-17.7955,-3.36347,-14.0044,-5.7758,-0.00753595,-11.8921,-1.76855,-37.2182,-13.3343,-8.39594,-8.88535,-0.466667,-1.37279,-21.0694,-5.56981,80.52,-853.024,-551.928,12180,-3500,3640
-21.8862,-22.8387,-7.17874,-19.4213,-11.4196,-2.10288,-12.7382,-1.89761,-32.682,-12.6493,-7.27875,-13.9023,-2.6222,-5.62003,-21.34,-7.19273,83.936,-852.536,-551.928,15400,-4760,3500
11.8782,0.876579,-1.31207,-15.6862,-12.6003,-5.09562,-18.7405,-7.29878,16.5789,8.00696,5.85072,-0.869724,0.58457,-7.8882,-25.2415,-13.246,84.912,-849.608,-554.856,18760,-5460,3780
14.4249,-5.18486,-5.71023,-28.0048,-21.8058,-8.80959,-24.399,-9.96478,22.0139,8.89668,8.06148,-6.74663,-1.94989,-13.7578,-30.9139,-17.8991,83.936,-850.096,-552.416,21840,-6020,3780
-0.663209,-3.95256,-4.50873,-0.0914468,-2.55961,-2.15492,8.25766,2.12839,1.94786,-1.52791,-0.359531,-4.52982,-2.63636,-2.90106,16.4121,3.89987,83.448,-846.192,-551.44,25340,-6160,3780
-4.73331,2.20127,-0.297836,17.2039,10.9307,3.21884,25.0741,8.35524,-4.42612,-3.67806,-3.26206,0.698012,-0.570846,6.32168,37.9127,15.691,83.448,-841.8,-550.464,27440,-6300,4060
-0.0115184,1.79375,0.701552,13.7649,9.33767,1.76493,20.3448,5.09246,0.329783,0.159067,-0.221706,0.922608,0.154391,4.7337,30.9813,11.7426,81.008,-837.896,-548.512,29820,-5600,4340
4.87795,3.01852,1.11886,8.54604,5.16891,-1.10232,11.3553,1.45836,5.94358,3.84095,2.2965,1.2458,0.726789,1.89173,19.8078,5.59993,76.616,-838.872,-546.072,31640,-5180,4760
2.76964,5.97286,-0.480265,14.2129,6.15105,-2.31298,14.1352,3.33056,6.91953,0.668598,-0.567192,1.44497,-1.57533,1.02009,24.0887,6.84857,72.224,-836.92,-542.656,32340,-4340,5180
14.3923,19.0749,4.08696,19.8958,9.2709,-1.56291,12.3539,2.2296,24.1025,7.61222,2.91866,10.0316,0.598877,2.93908,20.1088,6.63791,69.784,-839.848,-544.608,33180,-3080,5880
12.9364,17.0504,5.7366,14.6601,9.54285,-0.302094,8.71821,1.98809,20.0959,7.51147,2.74721,10.6952,1.96192,5.18922,10.5561,5.76262,62.952,-837.408,-543.632,33320,-2380,6160
-1.04664,14.0772,5.27501,21.2456,14.7316,1.88696,13.9218,4.50437,-0.0682457,-2.09709,-3.75178,9.55216,1.11793,8.51323,18.6259,9.66257,59.536,-835.456,-543.144,32900,-700,6860
-26.9724,-4.08852,-0.128494,13.8528,12.611,3.54263,14.2131,8.09365,-37.846,-18.3162,-14.1822,-1.06853,-1.49572,9.2443,15.5054,12.1798,54.656,-832.04,-540.704,32340,840,7280
-26.5569,-17.5959,-3.03479,-2.34012,2.02965,0.68226,4.14161,4.54077,-40.5179,-15.598,-10.1116,-8.2782,-1.5813,3.2278,2.36283,4.70888,48.312,-832.04,-546.072,31080,1960,7840
-7.48337,-19.6708,-3.08379,-12.9254,-6.17678,-3.09794,-3.91959,-1.24601,-15.5447,-2.30975,0.817747,-9.57669,-0.0226528,-2.50317,-8.00268,-2.43333,44.896,-831.552,-543.632,29260,3360,8120
4.68288,-14.2652,-3.25112,-18.1905,-9.73661,-1.92425,-9.94724,-3.62195,3.31068,4.6175,6.07275,-7.78634,0.0330641,-5.80224,-15.3188,-6.55822,34.648,-831.064,-540.216,27580,4340,8400
17.9375,6.05338,-1.663,-3.52787,-2.47021,2.26,0.295715,-1.02261,29.1042,9.78679,8.02548,0.846195,-0.633553,-2.65548,4.80055,-0.714896,29.28,-829.6,-540.704,25200,5320,8820
20.0429,26.4846,8.87681,27.2454,19.3512,8.71097,22.7347,5.27588,32.9215,10.3154,5.50927,16.3733,3.70746,12.0214,36.3049,13.7361,26.84,-831.064,-537.776,22400,5600,8960
10.785,18.3106,8.88149,17.0461,10.4774,8.1424,4.18656,1.88343,16.0296,6.44901,3.03666,13.1595,4.46613,9.81292,5.91855,4.23312,24.888,-828.136,-534.848,19740,6020,9100
2.28811,0.470459,3.55202,-27.3061,-19.5528,-0.151904,-50.2657,-14.6113,-2.7515,4.54307,3.51603,3.34032,3.72312,-7.91758,-77.7542,-29.573,24.4,-828.136,-528.504,16100,5880,8960
-21.4415,-23.773,-8.20248,-48.745,-33.0504,-7.09678,-59.9839,-17.7242,-36.82,-10.2651,-3.20846,-14.3763,-2.31025,-19.9868,-90.2883,-37.9811,21.96,-832.528,-522.16,12740,5740,8540
-33.7595,-39.4969,-18.9189,-31.1203,-23.3598,-8.54751,-14.8916,-4.67509,-46.8091,-21.5609,-9.48616,-29.2335,-9.943,-17.5964,-17.551,-10.7809,22.448,-837.408,-520.696,8260,5180,7840
-5.25486,-11.2442,-8.17223,2.14165,-0.720556,-1.65016,19.8369,5.6779,-2.91386,-5.20381,-2.41032,-10.829,-5.35965,-3.83556,34.5541,11.5277,20.008,-836.432,-514.84,3920,4480,7000
19.6306,17.4361,4.78184,21.1072,12.6076,4.89665,25.7293,8.32025,30.3694,10.3299,4.08473,9.96602,1.74406,6.31164,38.5825,16.1764,23.912,-837.408,-511.912,840,3640,6160
13.4516,13.4983,7.57382,13.6786,11.5608,6.16141,14.8491,6.63207,18.9105,7.35262,1.04093,11.0676,3.51584,8.51675,17.2288,11.0135,27.816,-840.336,-509.96,-3080,2240,4760
7.74575,7.92936,6.42248,7.78372,9.25935,5.0487,9.99234,5.03693,9.1329,3.79373,-0.279189,7.59814,3.10311,7.83675,9.31045,8.25776,30.256,-842.776,-505.08,-6300,1120,3500
2.74381,-1.50205,-1.2528,-4.01404,-2.47624,-0.21377,0.115525,2.6503,3.04492,1.45329,0.519663,-1.80355,-0.40398,-1.04249,1.15142,1.44479,33.672,-843.752,-506.056,-9940,-700,1820
0.47974,2.07746,-0.325487,5.33106,2.45419,-0.801459,5.44376,2.0131,0.0962111,1.10658,1.36632,0.827745,0.0720356,0.433491,10.6012,2.56137,32.696,-842.288,-502.64,-13300,-3220,0
8.75987,7.53796,4.55037,4.30199,1.83147,-1.73703,-3.75938,-5.3584,9.06697,7.86256,6.03918,6.78851,3.23786,0.586782,-2.47206,-4.82199,38.552,-841.8,-506.544,-16100,-4480,-1260
13.6214,8.85574,2.93998,-0.737804,-3.61251,-3.42232,-11.1003,-7.79976,18.7184,10.2412,7.09913,5.74367,2.35682,-2.71853,-11.3043,-10.2656,41.968,-841.8,-505.568,-19460,-7000,-2940
11.7786,9.49593,2.16879,-2.41386,-4.03551,-3.81942,-13.2401,-8.05165,16.5461,9.37151,7.03789,4.86899,1.56501,-3.56197,-17.7505,-11.5089,45.872,-837.896,-503.616,-21840,-8960,-4200
-1.75896,3.96319,-1.71137,-3.94802,-3.91972,-3.30594,-9.81073,-3.42431,2.2427,-1.31823,-0.187646,-0.273076,-1.50662,-3.2794,-16.0569,-6.39132,47.336,-838.384,-506.544,-24780,-11620,-5320
-11.6597,9.19877,4.42347,20.7188,15.81,2.78894,16.9753,2.99823,-13.2829,-8.71453,-5.98239,7.31372,1.23248,9.28078,21.7431,10.9004,50.264,-841.312,-511.912,-26740,-14000,-6440
-12.7408,-3.52133,3.51834,6.78503,8.70674,3.27228,9.65321,3.75368,-20.2977,-6.89362,-4.70403,2.06702,1.8675,7.87861,6.38909,8.61942,53.192,-837.896,-511.424,-28560,-15820,-7000
-5.51905,-18.8122,-3.8885,-25.9257,-14.2778,-2.42335,-17.7254,-2.38522,-10.7321,-2.36514,-0.884093,-10.1599,-0.843894,-5.76701,-32.1508,-8.45006,53.192,-838.384,-514.352,-29820,-17360,-7840
-19.9134,-23.0639,-8.96139,-16.654,-9.98918,-1.68164,-3.93071,2.62161,-26.0167,-15.8536,-11.6112,-16.2662,-5.112,-5.51133,-7.00938,-1.55208,57.584,-837.408,-521.672,-30520,-18200,-8120
-25.5109,-13.8617,-8.08754,9.7177,5.00766,0.494635,16.9526,6.91595,-29.489,-20.8517,-15.964,-11.5712,-6.30483,1.30231,28.3165,9.23944,58.56,-834.968,-526.064,-30940,-19180,-8400
-1.65154,1.71052,-0.505693,13.8347,9.76588,0.818455,17.2856,2.96103,0.546725,-2.05748,-1.7865,0.0681585,-1.33887,3.46846,28.9893,9.01698,59.536,-833.992,-530.456,-30800,-19600,-8680
13.855,6.35211,2.12324,2.94226,5.06634,0.608354,9.21705,2.07228,19.3215,8.95377,6.47128,3.71344,1.22083,2.73878,13.1777,6.37841,61.488,-830.576,-533.384,-30660,-19880,-8540
11.4536,2.55093,-1.73256,-5.95049,-5.9494,-2.0503,-5.36346,-1.69733,16.8886,6.82524,5.70717,-0.928714,-0.795822,-2.43726,-2.90977,-2.9154,63.928,-814.472,-534.36,-30660,-18200,-8680
9.04295,5.79717,-0.936449,-2.81878,-10.0467,-3.50495,-14.3206,-6.78086,11.4367,6.793,6.27655,0.623684,-0.319624,-5.77913,-11.9598,-11.762,59.048,-821.304,-540.216,-32060,-14840,-9940
9.24392,12.6544,6.34052,6.18153,1.35606,1.27344,-9.01778,-3.83183,8.03367,7.87427,3.82653,10.0785,3.78046,-0.122883,-11.708,-7.72145,59.048,-829.6,-536.312,-35420,-13440,-10500
-8.72135,-7.32408,1.73582,-4.39706,1.84247,3.98774,0.324869,5.80999,-16.2961,-4.59379,-5.04147,-1.42665,1.46352,2.26755,-7.06009,4.29653,59.048,-834.968,-535.336,-35140,-14840,-10080
3.76267,2.66689,3.82596,-7.12544,-2.17971,-0.624765,-12.6236,-4.72439,2.65938,4.02207,2.43363,4.53842,3.32596,-0.0405515,-21.895,-7.47642,49.776,-849.608,-533.872,-32620,-15680,-9520
7.74761,5.43091,2.73987,4.22711,3.45675,0.818173,3.54431,1.42235,9.11922,5.63482,3.59252,4.82802,1.77742,2.22598,4.77568,2.77596,52.216,-845.704,-526.064,-31500,-17920,-7840
-9.68238,-2.70862,-0.786034,17.3322,13.8985,6.60727,30.2842,17.2762,-13.8913,-6.87928,-5.96455,-0.961279,-2.01065,9.13457,38.9855,24.181,49.288,-843.264,-530.456,-28980,-17640,-7280
-8.58512,2.21425,-1.96813,21.376,13.4395,4.3484,27.4089,12.3116,-9.039,-7.29621,-6.14269,-0.292038,-2.7827,6.97729,38.2563,19.3624,49.288,-836.92,-530.944,-27300,-17780,-6300
2.38712,-3.49856,-5.88041,4.19147,0.247152,-1.75742,12.3135,3.63681,4.37377,1.12494,3.68579,-5.54173,-3.31409,-2.75644,21.0795,7.11361,56.608,-828.136,-526.064,-26460,-15960,-6440
6.29578,8.99955,2.04772,7.71605,3.35865,-1.69904,2.03563,-4.48194,8.60889,5.30295,4.79557,5.18842,1.26882,-0.517319,7.2254,-1.76222,53.192,-823.256,-529.48,-26600,-12460,-7280
-9.67797,-7.52953,-1.68498,-11.8616,-7.98245,-3.46522,-15.9397,-8.5935,-13.961,-4.31468,-0.87318,-4.38476,-0.399061,-4.82793,-23.6914,-10.9688,52.216,-820.816,-531.92,-30100,-7980,-8960
2.27025,-11.5902,-6.70988,-31.5434,-22.4857,-7.66588,-31.5539,-12.1409,6.71117,1.85683,4.83325,-9.83678,-2.40458,-13.0157,-46.9544,-20.7363,48.8,-838.384,-542.168,-33180,-6160,-10080
26.3802,14.2717,3.3013,-13.0381,-10.2153,-4.87828,-21.3386,-12.0427,39.8613,16.6562,11.5875,7.5792,2.82101,-6.01754,-28.7415,-15.66,50.264,-840.824,-540.216,-36680,-7560,-10080
20.8196,18.6967,10.1495,8.73798,7.10993,1.30193,-0.148128,-4.79532,26.2336,14.8386,9.06555,14.7315,5.75993,4.81967,0.600496,-0.985953,50.752,-830.576,-545.584,-35280,-9520,-9380
14.9286,12.1854,10.4866,2.69947,4.79913,2.47956,-5.10002,-5.49286,15.328,11.0205,5.76512,12.3736,6.63306,5.05482,-8.69351,-4.10407,37.576,-857.416,-556.808,-32480,-7700,-9380
-10.5849,-15.6792,-4.53519,-21.0889,-14.0071,-2.27013,-20.1282,-5.6924,-15.2201,-7.78048,-5.32503,-9.86521,-0.924813,-7.06581,-24.9972,-13.4839,45.872,-856.928,-556.32,-32060,-11480,-7000
-41.8853,-33.052,-16.5882,-23.6974,-20.2748,-4.97722,-21.3561,-3.87032,-51.4068,-30.2301,-19.2364,-25.7221,-8.66029,-13.3221,-22.6974,-15.3986,46.36,-837.408,-557.296,-25760,-13020,-5880
-50.5073,-34.3024,-14.3103,-10.6336,-5.30311,1.80487,5.31661,10.0952,-65.9357,-35.1996,-23.9816,-23.4733,-9.06219,-2.53417,3.23314,6.97676,43.92,-846.68,-561.2,-18620,-11760,-4900
-11.3896,-6.28649,-0.460415,14.5342,15.4837,8.89004,32.9888,20.196,-14.7049,-8.86582,-8.74965,-2.72106,-1.92286,11.7109,36.946,27.7896,48.312,-843.752,-557.784,-18340,-10780,-4480
34.7702,33.5679,11.7331,31.3162,20.657,5.69916,26.2873,9.7332,48.7609,20.7834,10.1532,21.536,4.39273,12.3217,35.7075,17.5321,42.944,-835.944,-555.832,-16100,-9660,-4760
25.2406,24.2136,6.0815,24.5415,11.9955,0.704626,17.5044,3.10275,35.5847,15.7868,10.3159,13.8786,2.32838,4.31702,29.6496,8.19434,42.456,-833.992,-552.416,-13720,-10780,-4340
6.58996,-0.057275,-0.159204,-6.33826,-4.53072,-1.69197,-5.46897,-2.83619,10.299,4.1911,4.54603,-0.546776,1.1334,-2.67882,-9.18114,-4.47819,45.384,-838.872,-545.584,-13160,-11760,-3780
9.98234,0.872227,2.97479,-11.0571,-7.10192,-2.91314,-17.0077,-9.57185,10.6832,8.51903,6.94237,2.59071,3.11508,-3.7486,-23.3836,-13.5575,47.824,-833.016,-547.048,-13440,-10640,-3780
25.2559,20.8259,10.3242,8.674,4.03351,-1.61589,-9.60214,-10.9265,26.7566,21.118,15.1211,16.3942,6.32839,1.267,-10.1819,-11.4969,44.408,-829.112,-542.168,-12880,-9240,-4340
0.21056,-0.87109,1.13541,4.52044,4.15134,1.48107,7.45037,2.3679,-4.97656,2.33584,2.83925,0.914644,0.209254,2.66544,8.15736,4.29873,57.096,-801.784,-536.312,-13020,-7980,-5180
-12.8574,-15.4671,-7.65864,-9.17657,-6.11522,-1.15985,0.638247,3.01507,-18.0615,-8.41966,-4.39709,-11.5924,-4.40347,-4.0741,1.59162,1.30662,46.36,-802.272,-535.824,-15260,-420,-8400
-35.1074,-16.8848,-10.3537,5.8068,3.50114,1.36194,15.6965,8.67784,-43.6643,-25.144,-16.2269,-14.5301,-6.9334,0.74287,23.4061,11.5977,39.04,-825.696,-541.192,-21840,2940,-10640
-52.7986,-39.5222,-12.9783,-12.1962,-3.52833,2.31454,5.90098,8.84267,-74.1946,-33.5955,-21.3402,-24.6726,-6.69143,0.132724,2.22181,8.54423,40.016,-828.624,-534.848,-29120,0,-9940
-27.0588,-36.5772,-6.46709,-44.7663,-24.3681,-4.9648,-40.4535,-11.8896,-48.0441,-11.4404,-5.10884,-18.3579,-0.288363,-10.6171,-63.7942,-23.3779,32.208,-831.064,-535.824,-27860,-3360,-9100
1.83121,-3.60304,0.302823,-18.1781,-11.9669,-4.41595,-25.313,-9.84659,0.0833683,3.99699,3.49744,-1.26238,0.994461,-6.89605,-37.1151,-16.4742,37.576,-836.92,-541.192,-27160,-7840,-6300
24.397,16.1529,1.22788,-2.11896,-6.38264,-4.63182,-9.52107,-6.14511,40.7977,13.6284,8.20026,6.16552,0.513242,-5.93808,-7.07169,-8.81537,40.504,-836.432,-540.216,-26320,-6580,-5180
27.3519,19.4323,4.93314,8.75701,4.21796,-0.0629314,9.21657,1.04148,44.5996,14.1791,7.74805,10.7067,2.26224,1.71189,17.9213,4.79221,40.016,-829.112,-541.192,-25900,-5460,-5040
27.6167,27.9189,9.7568,25.2762,16.2445,4.64081,23.1374,7.26217,42.5667,13.9052,5.82465,17.9599,3.76555,9.71295,34.4672,15.706,44.408,-823.744,-540.704,-26040,-6160,-4620
36.0499,43.8171,18.6806,38.9181,26.5586,7.67951,24.8768,5.18606,52.2378,20.7684,7.8489,31.1462,8.53204,16.3173,35.1189,16.3725,45.384,-830.088,-544.12,-26460,-6020,-4620
42.2948,51.8153,21.5192,45.513,31.7066,8.508,27.9991,5.97726,61.475,24.4213,9.66978,36.7535,9.28384,18.9217,38.69,18.3113,44.896,-832.528,-538.752,-27860,-7000,-4480
26.5366,44.6505,18.01,48.2745,32.3058,8.11285,32.8864,6.07964,38.7725,14.9031,5.04374,30.9046,7.53213,18.3431,48.6505,20.0996,49.288,-834.968,-537.288,-26180,-7560,-4200
3.29274,22.3901,9.02385,31.7791,21.122,4.81246,20.882,2.07211,6.26422,1.13222,-1.01649,15.6626,3.418,11.2777,31.4162,11.5766,42.456,-843.264,-537.776,-24360,-7140,-4060
3.6975,8.23676,4.26535,6.17858,3.28052,-0.294034,-4.87954,-6.03152,3.0592,3.22461,1.55841,6.95517,2.22751,1.4345,-4.64809,-5.24383,48.8,-845.704,-537.776,-23940,-8260,-3500
-16.9871,-17.5219,-4.64423,-14.4212,-8.94309,-2.0039,-11.2186,-3.24978,-29.8981,-7.64784,-2.44372,-9.66352,-1.23672,-4.66418,-15.9212,-7.15948,44.408,-840.336,-534.36,-22120,-8680,-2940
-57.3405,-62.2211,-25.6201,-39.565,-26.2745,-5.87444,-13.7159,2.33943,-79.7266,-36.5016,-17.5805,-43.4474,-12.5624,-15.3393,-21.1313,-6.24603,43.92,-840.336,-535.824,-20020,-9380,-2380
-37.2364,-52.2466,-23.3089,-57.2753,-38.9926,-10.5154,-46.5693,-10.1538,-49.8976,-24.4168,-11.1245,-37.3909,-11.0179,-23.1704,-70.2681,-28.6771,48.8,-834.968,-537.288,-19460,-9940,-2100
-21.6803,-21.7512,-8.83398,-28.9064,-18.7089,-4.90673,-30.2774,-8.1551,-31.5531,-13.0644,-5.6712,-14.3775,-3.91345,-10.9796,-45.2499,-19.068,49.776,-826.672,-535.824,-19180,-9240,-2380
-40.9393,-36.5772,-10.905,-10.0968,-3.34824,2.87767,10.358,9.54352,-60.9196,-24.5899,-14.0763,-22.3802,-5.66772,-0.287119,11.1681,9.97154,45.384,-824.72,-533.384,-18340,-8820,-3080
-23.0799,-35.1325,-14.8341,-21.3251,-15.1136,-2.83579,-1.88806,4.39749,-32.138,-13.8313,-5.14478,-25.6784,-7.01489,-9.06331,-2.25158,-0.298755,47.824,-823.256,-536.312,-18340,-8540,-3360
25.6105,10.3757,0.204709,-6.76556,-9.22826,-4.51349,-13.172,-5.44894,37.6135,17.6047,12.855,3.41302,1.21552,-7.06039,-14.0169,-11.2195,44.408,-818.864,-535.824,-18900,-7840,-3920
36.0434,12.4756,3.10622,-8.17038,-8.60229,-3.05499,-9.01575,-3.79499,47.9348,24.8649,16.8069,6.32465,2.80738,-5.95098,-8.85141,-8.06661,44.408,-817.888,-536.312,-19460,-7140,-3920
17.6197,3.63547,0.624173,-1.59257,-0.740641,0.422398,8.78934,5.87182,22.5464,12.6471,7.99257,1.17227,0.63992,-0.250636,9.22457,6.74646,45.872,-819.352,-539.728,-21000,-6300,-4340
8.49417,8.48975,1.8682,2.682,2.16299,1.14865,4.42142,4.54659,12.5215,5.64562,2.1053,4.13719,0.69768,1.38705,0.0687197,4.7532,44.408,-823.744,-535.824,-22960,-5460,-5180
-0.275041,-0.541491,-5.51074,-8.84554,-9.19272,-3.44826,-9.91037,-0.895383,4.49829,-1.9928,-0.306832,-5.04414,-2.97808,-7.12109,-14.0347,-5.5036,44.408,-834.48,-545.584,-23520,-6300,-5320
-21.2696,-29.5123,-19.6916,-30.2522,-25.5464,-7.59217,-17.2905,-0.715185,-21.3447,-17.0624,-7.84515,-26.9394,-9.48262,-16.6706,-21.0349,-9.44215,46.848,-836.92,-546.072,-23240,-6580,-5740
1.53822,-7.32938,-3.67222,-11.1343,-8.52173,-3.28684,-7.32987,-4.57124,3.27626,0.561384,1.51096,-5.84806,-0.655072,-4.97555,-6.90563,-5.69769,46.36,-835.944,-549,-21560,-6300,-6300
28.2901,29.9406,16.0089,23.7255,16.2654,0.746127,9.01796,-8.17042,30.5943,23.3245,16.2676,24.1519,9.33822,8.22093,16.0996,0.608028,44.896,-835.944,-554.368,-20020,-5320,-6440
7.27134,23.6659,11.5752,32.5637,20.5909,2.08477,18.6609,-4.33996,4.66742,6.93981,6.35876,18.0694,5.7754,10.1865,32.1619,7.04706,47.336,-832.04,-554.856,-17500,-5040,-6160
-16.6647,5.72401,5.04297,27.1657,20.6754,5.39974,24.2874,5.20654,-24.561,-11.6108,-8.20481,6.64014,0.895653,12.6303,35.5267,14.6971,48.8,-830.088,-556.808,-16520,-4760,-6020
-6.27645,13.537,6.66243,25.723,21.2815,7.83409,21.7534,9.83816,-6.68355,-5.90591,-7.68664,11.0321,0.987507,14.1088,25.858,17.0179,50.752,-823.256,-556.32,-15540,-5320,-5880
4.0681,22.4006,9.55915,19.3898,14.7025,5.21271,5.12555,1.96286,9.49521,0.708224,-3.56467,16.3357,3.47607,10.2861,5.25824,4.57299,49.288,-825.696,-557.296,-14700,-5600,-5740
9.49315,19.4308,9.74066,27.8609,21.5521,7.39337,26.1154,10.5235,13.1135,5.35506,-0.34898,15.5033,4.23028,14.3832,34.3126,18.9133,50.752,-824.72,-561.2,-13860,-4340,-5880
41.9426,39.291,23.0226,41.1039,33.3625,9.86761,36.7777,9.58121,50.3503,29.4788,13.4418,33.7667,11.1825,22.085,47.6898,25.0347,49.288,-823.744,-563.152,-13300,-2800,-6300
34.3726,18.2494,9.59593,0.546357,-0.72722,-3.36365,-9.89074,-10.8911,43.0544,24.7238,15.528,14.7041,5.63474,-1.47254,-10.4396,-10.2899,50.752,-825.696,-565.592,-13020,-1960,-6580
-5.86123,-11.3906,-7.2116,-25.4051,-19.442,-5.21376,-29.0676,-7.57844,-2.93486,-6.662,-5.91062,-10.3203,-3.96681,-11.6553,-38.7051,-18.6192,49.288,-831.064,-568.52,-12320,-1960,-6440
-53.8232,-48.8975,-16.1094,-47.9152,-25.4999,-0.0158277,-34.0656,1.63729,-67.8491,-40.0022,-29.4717,-30.5044,-8.70386,-9.18648,-57.9848,-13.9388,52.704,-833.016,-569.496,-11620,-3080,-6300
-72.5179,-59.3689,-18.6464,-49.3522,-25.5695,-0.809171,-31.4609,-0.406979,-96.5094,-49.3359,-32.8286,-36.9389,-8.80656,-9.79724,-55.7981,-14.0434,52.216,-829.112,-570.96,-9940,-3360,-6160
-59.7134,-26.7197,-1.74122,-5.24249,2.05157,3.86556,-7.7132,-4.74848,-83.6439,-38.6872,-27.3516,-10.9988,-0.764644,4.45519,-9.65822,-6.21674,55.144,-825.208,-565.592,-8120,-2800,-6020
-12.2438,-5.43435,2.72052,10.285,10.6083,5.38345,11.4076,4.15797,-18.2374,-8.99148,-7.80461,1.08438,0.220871,7.61213,16.2182,7.51818,53.68,-823.256,-566.08,-8400,-2800,-5600
37.0404,6.9901,-0.522195,-10.05,-10.515,-4.54921,-6.50793,-3.56634,50.0053,24.478,18.2197,1.58773,0.794724,-7.64054,-5.39304,-6.29823,57.096,-817.4,-562.664,-8820,-2660,-5180
50.6293,26.7096,6.92601,4.89725,-2.55716,-4.72622,-2.09862,-8.33004,68.7569,34.6917,25.9004,14.2447,5.43503,-4.3679,3.87643,-6.49007,56.608,-815.936,-555.344,-10640,-3220,-4620
45.7021,36.9498,11.1652,29.3784,15.0427,0.877249,20.9401,1.53249,62.4336,30.3242,21.4898,21.7977,5.68027,5.19101,34.2148,9.32978,55.632,-809.104,-535.824,-13160,-3640,-4340
28.4813,28.9498,5.06269,24.7444,10.7066,-1.25364,11.906,-0.558604,40.4692,17.5821,13.4237,14.8163,1.97067,1.73158,21.7261,3.615,54.656,-805.2,-524.112,-18340,-3920,-4340
15.2722,6.96916,-5.84012,-3.86045,-9.62439,-7.75719,-9.55583,-6.09453,21.7371,10.7717,12.2307,-1.92115,-2.66789,-10.9519,-10.8025,-9.51192,53.192,-807.64,-512.888,-23940,-3920,-4200
16.1716,-11.9691,-12.1046,-22.6229,-22.117,-9.42174,-13.1706,-4.729,20.9625,12.8012,14.7403,-14.7359,-4.29284,-17.0872,-13.3017,-10.4919,53.68,-813.984,-509.472,-32060,-3360,-4060
17.679,3.59907,-4.87313,-6.13687,-9.38605,-4.06573,-6.87763,-0.842067,27.3634,11.8377,10.3266,-3.62763,-1.20894,-8.33606,-7.89452,-4.19617,55.632,-825.208,-514.84,-38500,-2240,-4060
-2.82621,-2.65269,-3.54175,-5.51675,-5.51588,-1.42267,-7.10114,0.315908,-2.70258,-0.553526,0.724822,-4.16982,-0.978305,-3.52929,-11.5966,-2.72712,55.144,-841.312,-521.184,-41160,280,-4480
8.23059,-6.36859,-2.76216,-10.6848,-7.69991,-2.2276,-2.43928,0.699113,8.26951,7.93356,6.51155,-4.79881,-0.808005,-4.64172,-3.74997,-0.676261,52.704,-850.096,-533.384,-44520,1400,-4620
22.1899,10.2219,1.41135,-1.44456,-2.97347,-2.1554,-0.0199381,-0.81776,32.3415,14.7975,9.64509,4.7016,0.303178,-2.89847,1.48404,-0.982727,57.584,-856.928,-536.8,-43820,1400,-4200
-24.4918,7.85999,6.1835,29.77,24.0197,8.97245,29.8615,12.6304,-34.5164,-16.526,-15.7785,8.49765,0.518945,15.3489,38.583,21.8358,55.632,-856.928,-542.168,-41300,2660,-3500
-60.5788,-17.0803,2.10795,32.0294,31.1108,14.4838,43.2572,20.7114,-87.5307,-38.8662,-29.6692,-3.54476,-1.52772,22.2126,50.9399,33.5508,53.192,-864.736,-545.584,-38920,3220,-2660
-11.0159,-20.133,-1.3516,-13.9587,-5.7956,-0.602556,-6.54738,-4.13169,-18.2796,-5.21227,-1.963,-8.4989,0.741311,-1.05623,-9.09865,-4.89039,57.584,-862.784,-554.856,-36540,3500,-2240
10.7036,6.44824,7.77427,-18.3833,-9.84519,-2.9784,-31.3339,-15.668,15.3,6.24472,1.28802,7.90092,4.92601,-3.64785,-41.3526,-22.4217,58.072,-857.416,-560.224,-33320,4200,-1680
-70.4102,-17.9905,-2.57887,7.60532,11.157,7.66752,6.67824,5.88696,-90.7522,-48.8724,-36.781,-8.10363,-3.46569,10.6736,4.57619,7.79496,54.656,-841.8,-563.64,-31780,4060,-1400
-98.3072,-41.4486,-16.2899,18.8777,16.7131,9.15225,36.7308,21.7675,-128.905,-68.2253,-46.9322,-27.2493,-12.4647,11.2871,46.1529,29.4767,53.192,-833.016,-555.344,-31780,2380,-1260
-34.3426,-42.484,-19.2301,-13.3038,-7.52492,-0.548382,14.9296,13.2282,-47.3155,-23.7672,-12.5744,-30.5454,-11.1803,-5.04506,18.5692,13.4983,54.656,-827.648,-554.368,-33180,-280,-840
23.5621,-13.8395,-8.52978,-29.3892,-23.1176,-8.80208,-21.7212,-7.03029,31.029,16.9007,15.3722,-11.5525,-2.52922,-15.028,-25.9198,-14.7704,55.632,-830.088,-555.344,-34300,-1400,-840
41.1457,17.6558,4.304,-16.5474,-14.8171,-6.80625,-32.3103,-14.3546,56.2898,28.2005,19.7747,9.82382,4.0883,-9.05825,-42.8469,-22.3938,52.216,-830.576,-553.392,-34860,-1680,-980
36.2592,7.3905,5.6552,-25.8949,-15.3967,-3.25049,-26.9481,-9.70826,46.4386,25.3725,17.1409,6.64498,6.01285,-5.91171,-42.3383,-16.4681,49.288,-834.968,-556.808,-34580,-1820,-1260
26.3181,13.6775,8.93441,-6.56027,0.144428,3.04523,-5.67775,0.401502,33.4237,16.7824,8.42557,12.2478,6.22633,4.28193,-15.5775,-0.155186,49.288,-836.92,-552.904,-34160,-2380,-1260
23.7876,25.7501,7.34475,22.6472,12.1011,1.02165,13.3104,0.642292,30.3743,15.4546,10.4207,15.6036,3.87786,5.03208,21.95,6.50638,51.24,-834.968,-556.808,-33040,-3220,-1400
54.5387,36.3405,8.32746,10.1275,-1.97664,-7.1582,-14.981,-13.3067,72.3063,36.8547,26.7222,20.1811,4.66379,-6.47869,-11.8492,-15.8545,52.704,-837.408,-550.464,-32340,-3780,-1400
70.7231,31.0564,9.95565,-17.8769,-16.2344,-8.2905,-34.3353,-17.1441,94.5859,46.8506,32.6228,18.9029,6.99216,-10.9578,-44.7723,-26.1231,53.68,-839.848,-550.464,-31640,-4060,-1540
31.5779,30.9651,10.988,20.7654,11.7556,1.99873,11.5411,-0.524961,42.7471,20.0155,11.6709,20.1398,5.32551,5.58976,20.5626,4.69696,55.144,-837.896,-554.368,-30240,-3640,-1540
-50.9525,-2.21633,-1.17804,46.5582,32.4262,11.8315,51.2913,21.2399,-64.0592,-36.4802,-27.825,-1.79756,-4.47043,18.2002,71.0326,35.5444,55.632,-833.504,-553.88,-29260,-2940,-1120
-55.2549,-31.1996,-10.8923,9.43747,9.36631,7.59057,31.2809,19.1067,-68.4607,-39.9807,-28.5186,-21.2858,-7.83094,7.16191,39.8467,24.9914,54.656,-835.944,-553.392,-28840,-2800,-980
-23.6739,-19.8463,-6.2159,-9.25448,-6.01919,-0.0389023,-1.10922,1.02773,-29.1131,-15.0295,-9.13976,-13.4701,-2.76782,-2.62777,0.00695897,-0.445034,52.216,-837.896,-561.688,-27300,-2660,-1120
-27.0802,-18.0879,-7.28621,-6.25569,-4.05821,-1.113,-1.50394,0.173899,-33.9325,-17.9771,-11.8938,-12.7501,-4.27845,-2.66882,-0.96423,-1.37127,51.24,-837.896,-562.664,-26040,-1960,-1680
-8.92156,-6.56387,-0.442397,-6.67434,-2.02275,-0.512583,-7.92364,-2.82172,-13.7117,-5.84075,-5.51299,-1.89139,-0.4976,-0.381315,-13.8575,-5.3627,48.8,-831.552,-562.176,-24500,-1400,-2520
22.0906,23.7253,12.1457,8.73339,7.49463,-0.53327,-9.38194,-9.66262,26.5783,16.4116,9.198,19.2159,6.03682,4.0247,-15.6359,-8.74309,48.8,-831.064,-551.928,-23380,-1400,-3920
27.3754,24.9722,10.3753,15.8281,8.87756,-2.3763,-1.40333,-10.2848,30.864,21.0204,15.562,17.9904,5.54538,2.35503,2.67882,-7.01052,52.704,-838.384,-564.128,-23240,-2380,-4480
2.345,-6.38025,-2.0846,-16.4458,-14.1625,-9.06587,-26.749,-18.769,-1.80914,5.6286,9.60649,-3.89304,1.34533,-11.1205,-29.024,-24.2799,55.144,-840.336,-566.568,-21420,-2240,-4760
-11.243,-8.17427,-2.02713,-15.8694,-10.6055,-4.75832,-23.1397,-11.5815,-18.1791,-5.60938,-1.47449,-4.19994,-0.266837,-6.25514,-30.8466,-17.0273,66.856,-861.32,-650.504,-18900,-2240,-5320
-46.2317,-38.5457,-13.577,-18.5739,-8.53689,0.89553,1.41663,6.64261,-66.3415,-30.2483,-18.0082,-25.0303,-7.04573,-2.71556,-3.72053,4.01608,55.632,-810.08,-589.016,-9240,140,-6580
-5.47793,-25.9006,-12.3718,-23.3354,-15.9255,-3.08031,-3.40773,3.47755,-6.30804,-4.30877,-0.958145,-19.3408,-5.02746,-8.87723,-6.30088,-1.08653,53.192,-829.6,-602.68,-5740,-560,-7420
57.6289,33.919,11.0976,9.77904,4.91582,0.503099,7.47583,1.76565,80.6802,36.2282,21.2472,21.2101,6.17131,2.57891,10.3054,3.84534,64.416,-837.896,-596.336,-4480,-1260,-6580
32.5555,18.4481,4.2343,3.86421,-1.02483,-1.47375,3.20867,0.675729,45.9195,21.0416,13.075,9.58383,2.21881,-1.74801,8.41075,0.387977,62.952,-835.456,-574.864,1260,420,-6020
-11.1575,-22.8041,-11.8687,-26.1496,-20.0806,-4.70804,-16.6305,-0.224097,-13.2557,-7.32783,-2.82984,-18.3424,-5.27053,-11.6193,-22.0903,-8.97422,57.584,-835.456,-568.52,3920,1960,-5040
-17.3908,-6.5478,-1.32871,7.56411,9.39015,7.75756,19.9182,16.6794,-22.3096,-12.9041,-10.5575,-3.70294,-2.05228,8.54531,19.9335,20.5981,62.464,-845.704,-595.848,5320,2660,-4480
-18.7515,1.55659,4.66671,25.6378,23.2588,11.9005,36.0468,19.4607,-22.7993,-14.1457,-12.0365,4.8003,0.641267,16.8413,43.5847,29.6168,60.024,-835.456,-569.008,11900,5040,-4060
5.14827,14.4324,7.85978,19.1036,17.1003,8.10409,19.9045,9.80876,13.8536,-0.116526,-3.95927,11.5658,3.0452,12.5605,23.7404,16.1791,53.192,-834.48,-589.992,14980,6440,-3640
32.0979,37.9039,16.7643,21.8114,14.6,3.86169,-2.08127,-5.32901,46.0473,20.4999,9.35046,27.3292,8.44965,9.09523,-1.75039,-2.78991,50.752,-817.4,-586.088,18060,7420,-2940
14.9773,22.9892,12.3008,7.64688,7.25387,3.6888,-10.3895,-3.71575,19.6799,10.6565,2.8168,18.1776,6.4556,6.15878,-19.0267,-5.65331,55.144,-820.328,-594.384,20020,6860,-2940
9.41574,6.44364,1.84968,0.967769,-0.0176084,1.09241,-0.26577,1.63649,12.3497,5.74854,2.15801,3.66385,1.02697,-0.320552,0.960345,0.0732018,50.752,-828.136,-573.4,21140,6720,-2380
-1.24424,-3.79071,-6.12733,-4.99909,-8.11648,-4.76695,-5.13521,-3.61597,-2.20147,0.345305,2.81999,-6.32428,-2.80453,-8.70683,-1.03387,-5.66151,54.656,-845.704,-576.328,22540,7420,-1400
-39.8933,-15.0569,-8.43978,7.73931,4.81569,1.26245,12.8079,6.31735,-52.8937,-26.4502,-16.571,-11.9285,-5.74384,1.0795,16.2042,9.53231,50.264,-844.728,-557.784,24640,9520,-280
-54.8238,-37.9082,-15.4659,-9.77858,-6.74471,-2.56922,-0.782407,0.378894,-76.0642,-35.2358,-19.4555,-25.5784,-8.43129,-4.95354,-1.43241,-0.110279,52.704,-863.76,-580.72,27580,11060,1260
-34.6309,-37.5079,-14.2785,-21.6618,-14.3946,-5.1843,-8.6819,-2.74763,-53.3219,-19.4101,-9.13148,-24.539,-6.40585,-8.70777,-12.2965,-5.06694,60.024,-886.696,-678.32,36540,13440,3080
-34.693,-25.4571,-10.6257,7.45121,6.24107,2.41204,25.2797,11.0159,-49.4257,-22.7997,-13.721,-16.9819,-6.22705,3.23159,35.3695,18.4974,40.504,-798.368,-579.744,50400,17220,2940
-6.67818,-12.4161,-9.00747,7.4449,3.01333,-0.35428,23.3042,8.89165,-6.28039,-6.58129,-1.34283,-11.7857,-5.26285,-0.238019,35.3645,15.8619,36.112,-825.208,-602.68,49840,13860,3360
25.9105,17.8613,3.27127,21.4232,11.2458,0.511099,24.427,4.85705,38.1676,14.6446,11.3262,8.44205,1.4899,4.12081,39.8889,14.4993,39.04,-840.824,-592.432,50820,10640,5040
30.387,36.4121,13.1473,33.0031,20.5328,3.99944,19.2853,3.2018,44.0923,17.6517,9.50581,23.3717,5.80936,11.5226,28.7558,11.8197,38.064,-854.976,-587.552,47880,8120,6160
51.2327,35.8658,17.1637,-11.0941,-7.48071,-3.91229,-45.502,-20.3244,66.274,35.068,20.9139,26.7233,10.4979,-2.66646,-67.9317,-30.7976,37.576,-839.848,-567.544,51240,1260,7980
41.3143,12.5302,10.2643,-55.7439,-38.3355,-13.4809,-89.5943,-38.8508,47.7183,32.7089,23.3513,12.0931,9.23295,-21.0312,-124.007,-62.5056,33.184,-843.264,-569.496,56000,280,8540
-16.7577,-35.7356,-10.7223,-66.9477,-46.7569,-14.1882,-72.1236,-26.7909,-25.9616,-7.35223,-0.959241,-22.5351,-3.06281,-26.0207,-96.3533,-50.6579,39.04,-844.24,-569.496,60340,-280,8680
-18.5681,-24.132,-7.29179,-18.214,-9.03928,0.274732,1.03626,4.83723,-23.8562,-13.6689,-9.73758,-14.5543,-4.48337,-3.14696,-0.902675,2.01393,43.92,-828.136,-566.08,63280,-420,7980
-4.01651,-14.7255,-7.10512,-0.90409,-1.31753,1.03958,21.1385,10.1287,-4.39624,-3.49105,-0.786795,-11.9831,-4.56068,-0.790201,29.569,14.061,41.968,-802.76,-552.904,67900,-840,7140
4.58451,-5.10098,-6.5309,-4.46242,-7.2738,-3.62833,2.32926,-1.45585,9.19437,2.1433,3.71002,-7.76165,-3.27431,-6.44847,7.18463,-1.8467,41.48,-809.592,-544.608,66780,-1120,6300
18.7817,16.4674,5.26938,7.05818,3.90688,-0.284137,1.86456,-3.77011,27.3673,11.3478,5.49458,10.6827,2.46834,1.24356,3.31316,-2.01157,49.776,-813.008,-540.216,64540,-1820,5880
5.117,14.8326,5.17979,13.8306,8.45017,0.402645,1.37546,-4.85252,6.68813,4.06343,0.961031,10.5207,1.84292,3.02302,3.86536,-2.07631,44.896,-835.944,-543.144,64680,1680,4060
-15.0635,-5.10045,-1.97108,4.35544,3.41478,0.939491,3.42887,1.10853,-20.3151,-8.86309,-5.95758,-3.35957,-0.984411,1.34855,6.55951,1.95496,60.024,-848.632,-630.984,62720,1400,3500
7.59235,8.25215,6.73924,11.1813,12.036,6.73013,14.6301,7.80953,11.801,5.14597,0.537469,7.83643,4.13126,9.7763,17.4878,11.5452,37.576,-773.48,-545.096,67340,1400,1400
52.4656,64.1008,29.1959,64.3919,48.5918,15.6157,53.0027,16.6503,71.413,32.9579,13.2277,47.8859,13.7087,30.7361,70.6498,35.7104,52.216,-810.08,-583.648,59780,-8260,1120
22.2883,37.6972,13.0849,49.7,31.4924,7.76998,40.3597,12.042,31.3789,13.0859,5.13461,24.8418,4.92626,16.9422,60.2148,25.3384,59.048,-819.84,-573.888,59220,-8680,840
-7.37923,-6.93777,-8.72811,-1.73113,-6.73841,-4.76703,-1.72255,-0.756692,-7.6095,-5.23791,0.526201,-9.3408,-4.6966,-7.07097,2.46224,-2.76006,60.024,-821.304,-557.296,54740,-7420,-980
-30.5125,-23.3748,-10.7474,-18.8761,-13.4406,-3.8688,-15.7025,-2.68723,-41.1016,-18.6241,-7.54839,-17.497,-4.5384,-7.95892,-25.4061,-8.62512,61.976,-827.16,-577.304,53480,-8260,-1820
-47.6385,-26.6718,-1.75419,-9.96054,1.55477,5.63809,-2.1918,5.0518,-71.8039,-28.1242,-19.0697,-11.1042,0.329153,6.33764,-14.1315,4.26664,61,-807.152,-587.064,55020,-5880,-2940
-28.0545,-28.1409,2.77282,-14.4917,2.19992,7.31843,2.04508,8.52953,-49.5398,-14.9657,-11.9667,-8.05904,2.45442,8.70433,-9.97231,8.27321,62.952,-806.176,-596.824,53060,-7280,-4060
-15.0314,0.502563,4.41505,21.7798,20.5608,9.64585,35.1345,17.9029,-20.1021,-12.4463,-12.2495,4.13761,-0.00846019,14.621,43.8472,27.1521,68.808,-800.32,-571.936,53060,-9100,-4760
-39.9581,-10.009,-12.2678,27.7433,14.5905,3.71321,36.8811,18.4443,-47.1375,-32.145,-21.7171,-12.277,-10.6758,4.93546,55.6978,25.4503,76.616,-812.52,-565.104,49000,-12320,-4760
-39.0312,-48.6748,-29.3712,-34.4641,-29.282,-9.52852,-17.5634,1.27034,-45.8537,-29.1563,-12.8916,-41.1202,-16.4597,-20.746,-21.5632,-10.3263,74.176,-811.544,-552.904,48580,-10640,-4900
27.7414,-20.7557,-15.7287,-61.3775,-48.1096,-17.2963,-59.7105,-20.5526,41.5074,19.1385,19.4177,-20.7441,-5.30567,-31.09,-79.113,-41.5919,70.272,-806.176,-558.76,46340,-7980,-5180
44.3149,16.0418,1.41314,-25.2586,-21.9914,-9.36673,-39.0066,-16.0914,64.5384,28.0819,18.4915,7.04644,1.91333,-15.0807,-51.1861,-27.9793,69.296,-796.904,-561.688,41300,-8120,-4620
28.1005,28.1275,10.7685,16.0095,10.9152,2.23293,6.07817,-0.643503,39.9089,16.8911,6.37008,18.964,4.96268,5.65935,8.80628,3.24285,62.464,-793.976,-551.928,37660,-8540,-4340
11.016,21.5678,9.07474,24.8662,15.8797,3.18196,15.4934,0.39809,14.1076,8.11346,3.05063,14.8814,4.17019,8.08292,25.3865,7.73527,61.976,-810.568,-564.128,32900,-8540,-3780
6.64734,12.1541,3.84301,15.5227,8.24365,-0.143855,8.86808,-1.77897,10.6404,4.58567,3.42377,7.67194,1.4581,3.05216,17.1055,3.2507,65.88,-828.136,-564.128,31500,-7560,-2940
21.755,19.7053,8.17413,7.3926,4.34192,-1.15242,-5.41103,-7.07344,29.0653,15.1093,10.1913,13.3509,4.75035,1.39069,-6.6886,-4.98342,46.848,-882.792,-583.16,29540,-5600,-2520
15.8388,15.1718,10.3904,2.72012,4.34103,1.58511,-5.99333,-5.31245,18.4481,11.9348,6.61661,13.9995,6.75029,4.74123,-12.8397,-3.23839,57.584,-897.92,-610,16940,-11760,1260
12.2156,2.77669,3.1845,-5.63142,-5.10207,-1.85204,-8.73175,-5.96556,13.3066,10.4288,8.65012,2.89921,3.747,-2.14819,-9.13427,-6.9494,76.616,-871.08,-633.912,11620,-12320,2660
1.67794,6.19942,4.05179,7.19634,4.696,1.88194,5.34822,0.666431,-1.28758,2.89912,2.00411,4.93905,2.86608,3.697,9.20756,3.01802,66.368,-817.888,-611.952,7000,-9940,-560
-34.6709,-20.2816,-5.68683,3.22151,5.37714,4.15835,15.3161,7.69686,-49.3702,-21.983,-13.077,-12.4383,-3.19314,3.96646,18.9001,11.7009,61,-799.344,-599.264,7420,-13580,-700
-36.9916,-42.9766,-16.8818,-30.9671,-19.9153,-4.28054,-13.2931,-1.58809,-50.2145,-24.2139,-11.3941,-29.9722,-8.01969,-11.5503,-19.0171,-7.92939,55.632,-818.864,-597.8,12460,-13440,140
-1.63139,-23.9369,-6.99447,-38.7452,-24.0396,-5.55427,-27.9988,-9.05868,-5.6201,0.394094,3.45395,-15.1983,-1.57507,-12.4052,-42.7334,-17.8394,47.824,-818.376,-566.08,15960,-12740,1120
20.0125,20.9384,9.77965,11.0546,9.11027,2.84876,2.95651,-2.11188,26.2159,12.0613,4.98807,16.0374,5.25013,6.26812,2.73569,0.998273,55.144,-813.496,-570.96,12320,-13160,1260
-2.16658,11.8803,4.4565,17.9398,10.6698,2.59201,6.95414,-0.273934,-2.89578,-2.37365,-4.68901,8.40016,1.05364,5.54718,11.9777,3.17076,55.144,-796.904,-572.912,9520,-11480,-280
-20.938,-17.6157,-7.7019,-11.607,-10.2668,-4.39395,-14.4659,-7.02453,-29.3692,-13.3383,-7.80884,-12.315,-4.42888,-7.24675,-17.3618,-12.0705,41.48,-779.336,-566.08,9940,-10360,-2380
4.46979,5.01801,1.53316,5.58387,3.32849,-0.347643,4.3677,-1.51685,6.66785,3.12971,0.529246,3.88503,0.34813,1.34019,8.6038,0.306242,43.432,-804.712,-549.488,8120,-14420,-2380
2.26224,18.1986,10.031,31.8715,24.2029,10.2292,33.2409,14.0926,2.81532,1.44249,-3.39064,14.7435,4.01923,16.1821,43.9477,24.4928,43.432,-811.056,-547.536,5320,-13720,-2380
-29.4322,-15.7128,-4.02835,10.3911,9.57236,6.71665,25.2136,16.3271,-41.5556,-18.241,-11.7674,-8.94523,-2.68717,7.51318,30.7615,21.441,50.264,-822.28,-550.952,3780,-12320,-2520
-10.9199,-15.8083,-6.19689,-9.98036,-5.32592,-0.498677,0.935118,4.47296,-15.2331,-6.21807,-2.50659,-11.0183,-2.84025,-3.0152,-1.40708,2.74794,44.896,-802.272,-541.192,4200,-8120,-4200
45.7576,27.0683,7.38132,-0.472455,-3.72057,-4.26872,-13.9991,-7.8921,64.8997,28.9342,17.8843,16.2203,4.34599,-3.94768,-15.0937,-12.1049,23.912,-822.28,-545.096,6300,-6440,-5040
50.4229,34.4971,8.10434,6.68013,-0.71603,-3.68322,-11.1274,-7.38999,74.4322,31.1848,20.0003,18.7763,3.77543,-3.23701,-8.43485,-10.6343,33.672,-841.8,-565.104,3500,-9800,-3780
34.263,20.3509,5.93733,-4.75777,-5.48016,-2.70768,-17.357,-7.25209,47.0586,22.49,15.4407,11.9783,3.75052,-3.62429,-23.1282,-11.8972,32.696,-821.792,-550.952,3080,-8680,-3640
4.39815,-3.77341,0.796169,-13.3134,-7.30884,-1.40537,-11.6161,-3.82747,2.93311,5.27355,5.94671,-0.973491,1.88138,-2.64633,-19.5381,-6.45055,29.28,-819.352,-540.216,2520,-7000,-4760
-22.7925,-12.9857,-1.64774,-4.62563,2.60069,3.00114,5.53315,5.3198,-29.5403,-15.5759,-11.5138,-6.03296,-1.30557,4.54093,-0.350583,7.22063,27.816,-812.032,-548.512,6020,-4480,-5600
-30.4634,-15.6154,-8.22366,4.50547,4.71072,1.93676,15.7377,9.16417,-37.8757,-23.0316,-16.6927,-11.5705,-6.34476,2.14592,19.4024,12.1755,27.816,-807.64,-538.264,8960,-3360,-5460
-14.3503,-7.59002,-9.50229,7.71074,2.11328,-0.999503,14.2218,6.8936,-11.6123,-14.4299,-9.42414,-10.0198,-6.88536,-1.72187,23.1344,8.14934,20.008,-814.472,-549.976,10360,-2520,-5180
12.0247,16.5739,0.614125,14.598,6.28283,-0.186042,8.64935,2.92353,23.6856,3.32349,-0.128505,6.98753,-1.73639,1.54034,14.9682,4.2946,30.256,-806.176,-561.688,8120,-4340,-4060
-33.8986,-8.40186,-3.84625,9.00318,5.18311,1.20885,5.04318,2.90443,-48.1548,-22.2811,-15.4268,-5.51128,-3.66533,2.81822,7.84975,3.17241,29.768,-795.928,-555.832,6860,-3640,-4480
-73.11,-59.9057,-24.1359,-23.1646,-16.7119,-5.22456,-3.71404,2.98487,-105.54,-44.5285,-22.8766,-41.3282,-12.9426,-11.0581,-4.08803,-1.25144,21.96,-787.632,-545.584,6300,-2380,-6020
-27.6794,-34.4891,-12.8537,-19.4611,-13.8194,-4.71773,-6.72968,-2.89364,-42.568,-14.7079,-4.67626,-23.0011,-5.98272,-8.78319,-7.38792,-5.44095,24.888,-799.344,-536.8,4340,-3780,-5320
36.4912,26.6063,15.6595,9.49879,9.96441,3.96944,-0.966007,-5.05496,48.3655,24.6219,13,22.5142,9.22956,8.37692,-2.15487,-1.81488,24.4,-811.544,-532.896,4340,-3640,-4900
33.8345,32.249,19.49,16.2327,16.3818,7.80472,5.14515,0.0866821,44.5707,22.5282,10.4564,26.8218,10.9804,13.024,2.39923,5.72715,25.376,-814.96,-532.896,4620,-3500,-4340
14.6641,5.86164,8.59625,-4.06743,2.3477,4.44129,-0.723995,2.25791,14.5372,11.5405,7.4019,7.84867,6.27895,4.78867,-9.47792,3.19215,26.352,-818.376,-536.312,4060,-3080,-3780
23.1873,-0.999112,0.296303,-15.0984,-9.64105,-1.47002,-6.17182,-0.225906,30.7026,15.224,11.2819,-0.534537,1.64107,-4.91123,-11.6531,-2.34167,25.864,-820.328,-530.456,3080,-2800,-3360
21.0561,3.13108,-2.05395,-13.7469,-15.1147,-6.50585,-17.8068,-8.4421,30.3991,14.0712,11.2394,-1.04484,0.756078,-10.7567,-17.7976,-14.1652,25.376,-821.304,-528.016,2660,-1680,-3920
8.08728,17.0641,7.02486,14.7546,8.54564,1.50592,5.85693,0.0750388,11.3591,5.35951,2.25818,11.4629,3.73791,4.56712,11.0856,2.60021,28.304,-831.064,-534.848,1680,-1540,-4340
-6.74671,19.8781,13.7581,32.1189,25.7098,8.29181,21.8099,4.60532,-13.2844,-2.97445,-5.55087,19.1152,6.39921,16.4394,29.515,13.9525,33.184,-829.112,-533.384,420,-1820,-4200
-12.5405,-10.9874,-2.13562,-15.9782,-10.4256,-4.16278,-22.7961,-10.6139,-21.4641,-4.68449,-1.26893,-5.64346,0.153402,-6.24605,-30.3598,-16.905,38.064,-834.48,-533.384,-420,-1120,-4760
-11.1402,-28.2777,-17.3747,-41.4721,-33.4932,-13.1609,-40.578,-15.4465,-12.2785,-6.36317,1.28955,-24.1189,-7.41423,-22.8157,-52.3842,-29.7535,43.92,-834.48,-529.48,-2100,-1120,-5460
22.1785,-2.31432,-9.17978,-19.2449,-20.8177,-11.0686,-20.8795,-11.774,31.5202,15.3873,15.4745,-8.18924,-3.65903,-16.5926,-21.3893,-18.7829,47.336,-837.896,-534.848,-3080,-1540,-6020
39.4922,36.2426,10.6916,28.7478,15.3851,1.32823,17.4793,0.801404,56.2479,23.9233,14.7472,21.7353,4.37049,6.73035,29.8827,7.73744,49.776,-846.192,-533.872,-5040,-2380,-6300
10.4755,34.1985,12.2032,50.1921,33.8342,9.30613,40.1217,12.2725,18.584,2.92765,-4.09735,23.1166,3.28442,18.9814,55.9611,25.9737,51.24,-851.072,-534.36,-5880,-2520,-6580
-40.8662,-13.4714,-2.44537,14.7464,14.5232,7.60609,23.2746,12.8685,-56.5626,-28.1266,-21.4398,-6.45966,-2.84599,10.1697,26.5838,19.388,53.68,-850.584,-536.8,-5880,-2660,-6720
-39.8851,-34.3287,-10.3315,-9.37413,-1.55956,3.62924,13.7146,11.0817,-56.6255,-25.7466,-16.3108,-21.1396,-5.47251,1.06834,15.1702,13.4282,54.168,-850.096,-535.824,-5460,-3220,-6300
16.7237,8.14244,2.52455,1.81854,1.63824,0.573723,3.82989,2.05899,25.7471,9.72916,4.31913,4.79876,0.920402,1.62936,5.6283,3.52462,51.728,-847.656,-541.68,-5600,-3640,-6020
1.69805,11.4208,3.85325,11.5954,9.03977,4.08074,9.60397,6.30827,8.26981,-1.93496,-5.31192,7.55866,0.310618,6.44407,10.2531,8.66662,54.656,-845.216,-544.608,-6300,-3920,-5600
-27.6939,-17.5717,-5.02534,-4.32259,0.274892,2.79325,4.30133,6.88284,-38.5604,-17.8032,-12.2891,-10.3388,-3.57655,1.66938,-0.0670534,6.22967,61,-838.384,-551.928,-6300,-4200,-5740
-12.132,-24.5495,-7.92331,-30.4444,-19.2974,-4.53894,-23.013,-5.34012,-18.2915,-6.35868,-1.05459,-15.8712,-2.71439,-10.4624,-34.2885,-14.0445,60.512,-829.112,-546.072,-4620,-3360,-6440
16.1273,0.665015,0.815273,-21.1737,-14.6522,-3.82606,-27.1168,-9.6486,21.865,11.3051,7.87667,0.748631,1.85914,-7.82156,-39.9337,-17.9188,56.12,-821.792,-546.56,-1680,-2800,-7000
7.51381,9.02029,5.61445,5.39438,5.98252,3.41557,3.27219,1.8384,9.91001,5.06546,1.42916,8.05534,3.182,4.93097,0.691988,3.65319,56.608,-825.208,-542.168,-1120,-3920,-6300
-5.00882,-4.16443,-0.86002,4.80428,5.03508,2.02283,13.1077,5.63437,-6.70219,-3.61574,-3.07329,-2.30684,-0.849129,3.55852,17.9081,9.28938,60.512,-831.064,-549,-2100,-5460,-5600
22.6528,6.80998,-1.67494,-9.44423,-10.4323,-5.73961,-16.0156,-6.45196,32.3698,13.4645,9.27731,1.36884,-0.784672,-7.58799,-17.8967,-12.5123,61.976,-836.92,-555.832,-3640,-6580,-5040
21.4527,-0.607626,-2.95466,-27.4132,-21.5486,-8.80612,-34.7784,-13.4879,27.232,14.6011,12.2713,-2.51813,-0.165589,-13.3565,-45.7667,-24.9744,58.56,-834.48,-556.32,-5460,-6580,-4900
-9.20187,-14.2398,-5.47811,-21.1506,-15.1393,-4.73874,-20.5924,-7.68389,-16.192,-3.81806,1.21044,-10.1176,-1.51694,-8.4264,-27.8291,-14.4025,60.024,-832.528,-559.248,-6160,-7000,-4480
-28.5621,-11.9258,-5.27051,5.71507,3.45394,0.847361,11.4156,3.19959,-38.5785,-18.1374,-8.11117,-8.71787,-2.39803,1.73815,18.4702,6.80558,60.512,-826.184,-555.344,-5880,-7140,-3780
-29.7947,-3.50038,-2.19774,25.8332,16.7513,3.86968,28.1153,7.00027,-40.2309,-19.0911,-9.50128,-2.80766,-1.90281,7.87825,44.0549,16.612,56.608,-827.16,-556.32,-3780,-6300,-3640
-10.9142,-6.56937,-2.51499,9.39503,5.69755,0.773314,13.8881,3.27934,-16.65,-5.94008,-2.17474,-4.26654,-1.51871,2.07001,21.6626,8.06432,56.608,-830.576,-551.928,-3080,-6720,-2520
-2.03919,-1.04401,2.68403,3.38108,3.41758,1.33791,5.31522,-0.572447,-4.57808,-0.444261,-1.01731,1.66987,1.21871,2.59605,7.20028,2.55346,61,-829.6,-556.808,-3640,-6300,-2240
22.4247,21.4074,12.2115,19.0705,14.3677,4.63829,12.0536,0.547272,28.6083,14.9777,6.41967,17.9198,5.9099,9.42566,16.8813,7.11419,62.952,-826.672,-550.464,-3080,-5460,-2380
45.1531,36.2188,16.3341,21.3186,15.2436,3.48748,9.67231,-1.09968,60.2536,29.7871,15.6368,26.2121,8.99211,9.61598,11.8302,5.39092,59.048,-820.328,-549,-1400,-4200,-2660
20.4124,15.2354,4.5773,3.62215,0.574216,-0.904677,-4.28313,-3.05836,29.3547,13.1719,7.25314,8.74162,2.43223,-0.655991,-5.19275,-3.24313,58.072,-820.816,-549.976,0,-3780,-2800
8.18474,0.424377,-2.00762,-9.38049,-8.38632,-2.33441,-11.352,-2.38701,14.8243,4.11921,2.1419,-1.89872,-1.05515,-5.85178,-15.4195,-6.9658,58.072,-821.792,-549,280,-3500,-2800
9.36414,11.8803,2.52895,7.40079,4.55212,2.75595,4.36585,4.02937,17.6489,2.80228,-1.78064,6.10042,0.395292,2.25939,5.32308,4.02314,56.608,-827.648,-547.048,560,-3500,-3220
-2.13123,7.45146,3.15667,7.55842,6.42645,3.8365,4.42429,4.90374,-1.99294,-3.58295,-6.15047,5.39965,0.615373,5.00251,3.11174,4.97431,56.608,-826.184,-550.952,420,-4480,-2800
-20.5701,-7.05051,0.0861217,1.97653,4.67602,4.58483,4.14304,5.78768,-30.331,-14.001,-11.0934,-2.11553,-0.683392,4.80182,1.6557,5.8148,55.144,-825.696,-552.904,420,-3780,-2940
-31.4002,-21.363,-5.98792,-5.08036,-0.716539,1.89683,3.68542,4.1768,-45.0266,-18.9432,-12.0987,-11.9074,-3.20786,0.422341,3.18245,3.99092,56.12,-827.16,-561.688,280,-3640,-3080
-37.8694,-30.9363,-14.5748,-16.0262,-11.0616,-3.23307,-2.6028,2.74326,-49.9121,-24.6651,-13.245,-22.839,-8.03719,-6.92855,-5.62029,-0.402419,58.56,-820.816,-562.176,280,-3220,-3360
-31.672,-31.31,-14.6959,-24.0571,-17.3263,-5.77239,-13.177,-2.00132,-42.7557,-20.3202,-9.35175,-23.6531,-7.81898,-11.1057,-19.815,-7.88642,54.168,-815.448,-565.592,560,-2800,-3780
4.50763,-9.97823,-6.22938,-18.4111,-16.2652,-7.83169,-20.2097,-10.9049,6.2611,4.80568,7.47921,-8.86286,-1.53586,-11.8403,-23.5987,-16.7546,53.192,-815.448,-568.032,1400,-2100,-4200
28.3997,11.6158,0.785024,-5.86658,-8.55342,-6.25666,-14.4322,-9.67786,40.2359,18.8811,14.1599,5.0746,1.15177,-7.89608,-12.6434,-13.2035,54.168,-809.104,-566.568,1540,-1540,-4200
25.2306,15.6122,3.7269,7.22515,2.94434,-1.5245,3.30327,-0.825302,34.8885,15.8082,9.74658,9.45632,1.14006,-0.0311454,8.08411,0.0363734,52.216,-807.152,-564.128,3080,-980,-4760
22.3404,15.4473,6.16077,6.41045,4.47435,0.700323,2.95201,0.398408,29.6632,12.7423,6.38876,10.9012,2.86076,3.03872,3.93768,1.52638,55.144,-808.616,-566.08,3640,-1680,-5040
11.9753,13.5015,7.2868,7.32152,7.3686,3.55032,4.66844,2.23291,17.5257,6.37541,0.83285,11.2167,3.72228,6.53315,3.70522,4.50604,54.168,-812.032,-569.496,3920,-2100,-5320
-5.47486,0.780247,0.623721,5.76069,5.32067,2.50529,6.01304,3.35758,-5.54151,-4.61308,-4.35551,0.947621,-0.143382,4.2121,7.52065,5.59814,50.752,-812.52,-566.08,3780,-2100,-5740
-17.6242,-12.7659,-4.14923,-3.40134,-2.24451,-0.855848,-1.19355,-0.642277,-26.1553,-10.0039,-4.2578,-8.97854,-1.85582,-1.4244,0.17379,-0.559246,49.776,-810.08,-564.616,3780,-2240,-5600
-10.0625,-14.0849,-6.30289,-7.49966,-6.09157,-2.4611,-1.14914,-1.28253,-14.4653,-5.48718,0.234839,-10.437,-2.60854,-4.18188,0.0727074,-1.42639,49.776,-808.616,-561.2,5320,-1820,-6020
-5.97845,-5.88244,-3.44704,-5.32527,-4.29907,-1.31395,-3.64436,-1.87726,-6.05054,-4.55786,-1.05899,-5.03891,-1.69954,-2.70111,-4.48813,-3.27952,47.336,-809.104,-560.712,6580,-1960,-6160
2.2569,3.60244,3.24745,3.30933,3.66046,1.81155,2.90185,0.267182,3.0805,2.72143,1.8621,4.17324,2.14115,3.03632,1.57926,1.72711,48.8,-816.424,-568.52,7420,-2240,-6300
27.4616,19.3379,10.0022,7.25597,5.33397,0.171888,-0.523841,-4.46063,33.9367,20.2102,13.4546,15.3523,6.22565,3.26969,-1.14712,-2.11572,47.336,-816.912,-565.592,6580,-3080,-6300
9.30358,10.5905,5.07038,6.89622,4.51091,0.43417,1.54557,-1.56568,10.4569,7.70614,5.53667,7.64113,2.9037,2.66783,2.93087,0.168151,49.776,-818.376,-570.96,5600,-4060,-6440
-17.0265,-13.3572,-4.4626,-5.17325,-2.14027,0.907532,2.69804,4.77431,-24.1464,-9.93493,-5.5501,-8.74855,-1.71671,0.00967898,0.522971,3.79776,53.192,-816.912,-574.376,5040,-4340,-7280
-4.56634,-0.145942,2.94926,4.57255,6.62821,4.55168,9.86645,7.99453,-7.67483,-2.54268,-2.6722,1.76235,1.8793,5.9751,7.89891,9.45319,56.608,-813.496,-574.864,5600,-4340,-7700
21.1341,22.3123,13.9806,18.9224,16.6426,6.93373,15.3271,6.3103,25.3056,15.1474,7.17313,18.9589,7.30478,11.8544,17.2505,11.9253,49.288,-813.984,-576.328,7840,-3500,-8820
23.7694,29.0609,15.3579,24.887,19.5747,6.98417,15.5404,5.06095,30.5289,16.5901,7.71863,22.8971,7.58285,12.617,21.0912,11.419,52.704,-812.52,-571.448,8820,-4480,-8540
7.60699,18.0286,12.0822,18.7187,16.9048,6.87757,12.2199,4.65129,7.05531,5.87658,1.67122,15.4876,6.13564,11.7939,14.1049,10.2819,55.632,-811.544,-573.888,9240,-5040,-8400
-12.4842,0.592923,2.56881,10.3512,9.68085,5.30987,12.1644,7.38337,-18.4785,-8.50212,-7.44578,1.67461,1.05333,7.51607,12.9927,10.8241,56.12,-811.544,-575.352,7980,-6300,-8260
-33.0433,-19.6328,-7.72559,0.361213,0.6335,2.68256,8.2214,7.01618,-45.569,-22.3783,-15.5744,-13.3374,-4.6281,1.25088,9.76294,7.92039,57.584,-810.08,-575.84,6720,-6580,-7980
-24.9569,-32.9776,-14.8865,-24.6777,-19.4655,-5.86981,-14.4155,-4.19771,-34.7014,-15.6978,-6.32286,-23.9255,-6.66972,-12.5843,-16.6178,-10.4514,55.632,-814.472,-577.304,5880,-6580,-8400
9.28663,-11.309,-9.79637,-23.8681,-21.5611,-9.56983,-21.8883,-11.1731,15.608,6.23026,7.97343,-11.4772,-4.08239,-16.0644,-24.1023,-18.1403,57.584,-814.472,-576.328,5180,-6860,-7840
16.9074,0.942466,-5.47853,-14.2566,-15.5115,-8.50593,-18.4366,-11.6491,25.9551,10.4256,8.82951,-4.11028,-2.975,-12.6562,-18.4342,-16.6863,58.56,-817.4,-574.376,5040,-6720,-7420
-2.25601,-10.56,-9.7693,-16.0136,-15.0667,-6.25167,-14.6534,-5.28347,0.880497,-4.13501,-2.14753,-11.552,-5.97079,-10.9313,-16.5359,-11.3583,58.56,-824.72,-579.256,4620,-6860,-6720
1.13905,-0.550774,-3.16502,-5.50353,-4.75376,-1.60048,-6.2814,-0.352439,5.38845,-2.52528,-4.04411,-2.21101,-2.37862,-3.05043,-10.228,-4.01012,61.976,-824.232,-578.768,3920,-6860,-6160
6.37709,14.9082,6.11194,13.5751,10.5188,3.5442,7.80325,2.77021,11.4303,1.23085,-4.40526,10.6487,1.64225,6.76659,8.79647,5.02042,61,-823.744,-578.768,3220,-6160,-5740
-5.3595,4.95659,1.50901,7.89685,5.18298,1.20468,3.88919,0.112445,-4.52381,-5.53752,-7.95128,3.73777,-1.21057,3.06183,6.12805,1.98039,60.024,-827.648,-573.4,3780,-5180,-5320
-26.5211,-16.1111,-10.061,-4.49698,-4.53352,-1.20894,0.0177677,1.42187,-30.8168,-20.5527,-15.0091,-13.2788,-6.73686,-3.70405,1.52366,0.664713,60.024,-825.208,-573.4,3920,-5040,-4900
-23.9822,-19.872,-10.9885,-12.1455,-8.85011,-2.89605,-6.33507,-1.5083,-28.5635,-18.0728,-12.5363,-15.3135,-6.66122,-6.60888,-7.72382,-3.73965,58.56,-826.184,-569.496,4900,-4340,-4060
-10.656,-18.756,-12.6676,-23.5864,-19.6324,-8.23232,-20.651,-9.07277,-10.5191,-9.18839,-6.0013,-16.5876,-7.34763,-14.592,-24.4753,-15.738,59.536,-813.008,-568.032,5600,-4060,-3920
-7.78043,-16.2151,-11.0766,-23.4757,-20.5965,-8.87581,-24.3789,-11.2958,-8.47435,-6.03014,-2.30549,-14.7315,-5.98909,-15.1583,-28.5082,-19.5786,54.168,-814.96,-565.592,7980,-4200,-3500
3.02203,-0.206882,-1.68076,-4.96513,-5.44706,-3.42375,-9.34518,-4.51756,5.05151,1.65711,2.124,-0.809223,-1.04208,-4.12769,-10.014,-7.83766,53.192,-818.376,-564.128,7700,-5180,-2520
7.16981,6.95028,3.92144,5.52188,5.35488,1.58043,3.94996,1.2703,8.52564,3.4288,2.05911,6.00232,2.04466,3.95949,4.26617,2.82478,55.632,-818.376,-562.176,7420,-5040,-2100
-1.42081,-7.88857,-1.77701,-12.1509,-7.59232,-2.80827,-11.2966,-5.01734,-6.08779,1.16653,4.56535,-4.15127,1.05314,-3.85292,-16.5181,-8.03468,54.168,-817.4,-564.128,7560,-4480,-2240
-1.48935,-7.93279,-1.33384,-8.63098,-5.60189,-2.28114,-5.87289,-3.02832,-6.56557,3.09248,7.38562,-3.65462,1.40512,-2.87135,-9.40138,-3.80171,55.144,-814.96,-568.52,7560,-3920,-2520
12.1142,8.86586,7.90165,7.33508,6.90708,2.27117,7.04434,0.157738,10.5949,12.8217,12.2692,9.06927,5.81434,5.11698,7.94188,4.24071,56.608,-810.08,-568.032,7840,-3920,-3080
25.4148,35.9242,21.7385,38.8619,31.995,12.5117,33.7685,11.7909,30.2484,20.0113,11.8952,30.1906,12.4736,22.192,41.1456,24.5209,57.096,-810.08,-567.544,8400,-3920,-3500
26.3788,39.2585,26.1434,46.3015,39.1877,16.326,41.6506,16.6845,30.4755,21.382,12.1511,34.4634,14.8698,28.2514,49.2771,32.0365,55.632,-809.592,-568.032,9520,-4200,-3640
16.1357,18.7096,15.0136,22.3625,20.7729,9.59825,23.2106,11.287,16.9464,14.5695,10.3429,17.8282,9.32695,15.8412,26.1749,19.2425,59.536,-808.128,-568.032,9660,-4480,-3920
3.68362,5.04777,5.35908,9.56916,9.10218,4.60135,13.7084,8.37855,1.57931,4.38578,3.3268,5.53811,3.44228,7.21017,16.4995,11.5973,59.536,-810.568,-564.616,10220,-4620,-4060
4.32415,0.130872,0.21859,0.170817,-0.388704,-0.525684,1.21966,0.737367,3.45091,4.74757,5.46752,0.0768111,0.911057,-0.616074,2.99301,0.381019,58.56,-811.056,-572.424,10080,-5600,-4340
12.841,8.61776,2.82445,3.98162,1.98709,-0.709881,0.516534,-1.29977,17.0418,9.05483,7.01549,5.7135,1.55201,0.272762,2.54033,-1.22327,61.488,-808.616,-572.424,9380,-6440,-4340
2.40986,5.43508,1.17101,7.31109,3.98725,0.915302,5.05704,1.89408,4.16083,0.911767,0.578672,2.42348,-0.497372,1.83168,7.9955,2.81489,59.048,-809.104,-571.448,9380,-6440,-4480
-3.60449,0.869035,-0.78575,4.21071,3.01571,1.10999,4.61453,3.21585,-3.68305,-3.04375,-2.97714,-0.938339,-1.0283,1.63556,5.68946,3.69629,59.536,-807.152,-574.376,9100,-7000,-4620
1.90779,-1.50517,-1.61736,-5.08829,-4.522,-2.00089,-5.42128,-2.41089,2.50483,0.594231,-0.474437,-2.91853,-1.02284,-3.08278,-6.13385,-4.68453,60.512,-806.176,-568.032,8960,-7420,-4340
