6.38964,6.42759,1.95754,4.34823,2.85771,0.129223,0.507671,-1.19749,9.13254,3.6511,1.97474,4.30364,0.571196,1.30725,1.54927,-0.116656,18.056,-886.696,-465.064,-1120,-560,0
7.8671,9.28353,2.86425,8.18503,5.31047,0.989967,5.02685,1.31276,11.7452,4.15683,1.38578,6.25374,0.671447,2.58376,7.43161,3.01316,21.96,-884.256,-461.648,-980,-280,0
8.70307,11.7297,4.45989,11.795,8.00381,2.45399,9.5856,3.89623,13.9317,5.16288,1.63364,7.81905,1.94676,4.67711,12.568,6.45629,21.96,-883.768,-464.576,-840,-560,0
7.11792,10.0459,4.26693,10.7788,7.42724,2.85528,8.8244,3.99079,11.5629,4.06191,1.45444,7.20722,2.14031,4.79477,12.0946,6.36191,20.496,-888.648,-466.528,-840,-560,-140
0.953317,0.88123,0.407962,0.956236,0.603233,1.05678,2.2736,1.63344,2.50855,0.0259239,0.182937,0.730452,0.0956891,0.650056,2.89869,1.81127,20.008,-886.696,-463.112,-700,-560,-140
-3.02702,-3.35975,-1.69084,-3.81581,-3.16031,0.249535,-1.47705,0.121375,-2.55807,-1.36092,-0.368455,-2.89247,-0.331372,-1.75848,-3.18119,-1.22689,19.032,-887.184,-462.624,-560,-280,0
-4.65391,-8.14973,-4.22153,-12.0936,-8.75848,-2.09418,-9.24507,-2.44596,-6.40095,-2.84719,-0.808105,-6.78947,-1.50798,-5.73077,-13.8124,-6.59997,17.08,-886.696,-457.256,-280,-420,0
-4.51404,-9.45576,-5.45032,-14.427,-10.4891,-3.32251,-12.5946,-4.28524,-6.55006,-3.20876,-1.00189,-7.77227,-2.38874,-7.00931,-17.2786,-8.17491,18.056,-891.576,-459.208,-280,-420,140
2.24051,2.77804,-0.0521382,0.901388,0.0605963,-0.209933,-1.32635,-0.591321,3.23215,0.65621,-0.808162,1.07476,-0.717554,-0.412973,-0.845627,-0.923704,17.568,-887.672,-462.624,0,-280,280
5.08261,8.63216,3.03626,9.35621,6.37061,1.72859,6.81456,2.84599,6.84042,2.39256,-0.729561,5.29788,0.454626,3.7937,9.72153,4.59434,17.568,-887.672,-459.208,560,-140,280
0.441278,3.15943,1.02074,4.70219,4.17125,1.5569,5.97364,3.84013,0.381686,-0.526443,-1.73606,1.68233,0.0402666,2.98083,7.24798,5.58689,15.616,-885.72,-458.72,560,0,560
-5.13347,-4.81104,-2.3311,-3.1188,-1.84023,0.0517006,-0.791098,1.97161,-7.0192,-3.07053,-2.48619,-3.6981,-1.24948,-0.902385,-1.00312,1.42138,16.592,-885.72,-463.112,980,0,280
-8.07573,-8.48306,-3.2441,-5.23855,-3.41534,0.0640209,-1.08882,1.89468,-11.7805,-5.05432,-2.70346,-5.70585,-1.16234,-1.44502,-1.64637,0.515452,17.568,-886.208,-458.232,560,0,420
-14.2929,-15.8354,-6.24547,-10.5177,-7.09063,-1.71784,-3.41315,0.4465,-20.3588,-9.63111,-4.0359,-10.9221,-2.41741,-3.81552,-4.21971,-1.95326,16.104,-885.232,-456.768,840,140,420
-7.84076,-8.44021,-3.09,-4.07715,-3.38029,-1.42282,-1.70723,-1.34934,-11.6241,-5.24838,-1.1383,-5.75413,-1.04618,-2.17535,-1.08438,-1.73031,13.664,-882.304,-462.624,560,140,280
3.65489,4.96875,1.78301,6.89763,3.36036,-0.459268,3.80424,-2.24676,5.22414,1.94576,0.549031,3.41994,0.384606,1.09732,6.64179,0.319468,14.64,-885.72,-458.232,560,140,140
6.05386,8.04223,2.1693,8.9005,3.90653,-1.5324,3.78492,-2.69461,9.73119,3.30432,-0.574457,5.01656,-0.5002,0.633203,8.54704,-0.274169,16.104,-883.28,-462.136,280,-140,0
4.16366,5.07853,0.678557,4.90773,1.65331,-2.06248,0.96626,-3.25035,6.69672,1.97791,0.200179,2.69619,-0.552844,-0.654383,5.0503,-1.65369,15.128,-882.792,-460.672,0,-140,-140
-0.771186,-2.19514,-1.31103,-4.24137,-3.8837,-2.4238,-7.20465,-5.31824,-1.60668,0.161095,1.00841,-1.8169,-0.33346,-3.30474,-7.58593,-6.72211,14.152,-882.792,-459.208,-140,-280,-280
-2.06455,-2.26515,-0.15556,-6.59184,-3.89753,-1.09457,-9.70234,-4.83294,-3.38648,-0.884222,-0.51616,-0.723754,0.357688,-1.82069,-15.3485,-6.70404,12.2,-882.792,-460.184,-420,-420,-700
-5.41991,-5.11802,-2.38128,-7.24642,-3.55955,-1.16885,-8.42202,-4.27132,-6.48008,-4.49024,-3.17855,-3.17407,-1.63173,-1.83255,-14.9419,-5.76789,16.592,-882.304,-462.136,-560,-420,-700
-5.01068,-4.99085,-2.00178,-5.88148,-2.59821,-0.525161,-5.18289,-1.49509,-5.80363,-3.30749,-1.81614,-3.24298,-1.48801,-1.717,-9.82329,-2.88836,14.64,-883.768,-462.624,-700,-560,-840
1.92673,1.08195,2.41369,-0.160061,0.706818,1.12992,0.226403,1.44078,1.67928,3.26091,3.12669,2.31938,1.99123,1.24338,-1.81547,1.22034,15.616,-883.768,-463.6,-840,-560,-840
4.84891,3.76574,4.85002,3.24881,2.66801,2.61551,3.09331,2.84483,4.96688,6.32763,5.3958,4.43801,4.03408,3.16955,2.70141,3.10932,13.176,-883.768,-460.184,-980,-420,-980
4.32756,1.35058,3.06918,-0.315737,0.394051,2.29435,1.76835,3.2139,3.97459,5.24764,5.22573,2.10603,3.13326,1.87521,1.05023,2.71814,12.688,-882.792,-465.064,-1260,-280,-1120
4.67204,3.59405,3.44548,2.05704,3.02984,2.67207,4.16365,3.26027,4.3549,4.54228,4.05725,4.00446,2.94076,3.26207,4.0096,4.14653,14.64,-881.816,-465.064,-1260,-280,-1120
1.49667,1.53849,1.1005,1.63095,1.618,0.795175,3.1695,1.88014,1.54953,2.18782,1.74843,1.73931,0.90325,1.31468,3.4345,2.58661,13.664,-883.28,-466.04,-1400,-560,-1120
0.613299,0.0234857,0.162701,1.33772,0.779712,0.01704,2.89986,1.19106,-0.88852,0.461668,1.29626,0.10485,-0.561739,0.19161,4.7403,1.54607,13.176,-885.232,-465.064,-980,-420,-1120
5.35055,7.59915,2.76924,10.5432,7.60092,1.97391,9.16882,2.79421,6.9219,3.01706,2.26909,5.40297,0.789533,3.51701,14.4086,5.91259,12.688,-883.768,-466.528,-980,-280,-1120
6.74331,8.67333,0.530822,9.49179,5.67486,0.680584,6.39289,1.38326,11.8819,1.52623,-0.00763295,3.98165,-0.400016,2.33951,10.6939,3.99665,11.224,-890.112,-463.112,-700,-280,-1120
4.00069,3.29342,-1.75505,0.908888,-0.613202,-1.4159,-0.840423,-1.46436,8.74091,-0.607686,-0.865068,-0.246266,-1.52461,-1.22297,-0.331063,-1.34046,12.2,-889.136,-461.16,-560,-140,-980
0.0489018,-1.12981,-2.97419,-2.68581,-2.70247,-1.56724,-3.05048,-1.39493,3.03381,-2.56355,-1.88022,-2.73728,-2.40225,-2.13188,-3.33033,-2.08612,14.152,-887.672,-462.136,-140,-280,-980
-5.33439,-6.05845,-3.99551,-3.90807,-2.58108,-0.41615,0.102924,1.75497,-6.54155,-5.03342,-3.61706,-5.32853,-2.70961,-1.37941,0.830997,1.02821,14.152,-891.088,-459.696,140,0,-980
-8.9106,-14.4355,-5.02903,-13.0228,-7.8719,-1.13589,-4.09175,2.5995,-14.349,-4.40356,-1.22908,-10.1731,-1.97598,-3.57428,-7.13325,-0.65124,13.176,-889.136,-457.744,560,-140,-980
-1.80416,-5.37786,0.667377,-6.19267,-2.40023,1.24696,-1.52474,2.61734,-4.64894,0.40351,0.041368,-2.28684,1.35888,0.10396,-4.71661,0.947536,14.64,-888.648,-457.256,980,-420,-980
8.73369,14.4692,8.02746,16.4015,12.6557,4.57805,11.9985,3.8775,11.5254,5.09864,0.258701,11.9691,4.72439,8.00502,15.3965,8.71689,14.64,-889.136,-462.136,980,-280,-1120
6.58648,11.7501,3.64017,12.9924,9.29185,1.93228,8.74132,1.44701,11.5226,1.81265,-1.67388,8.33795,1.84896,5.21218,12.4696,5.76373,13.664,-885.72,-463.112,980,-140,-1120
1.40513,3.16441,-0.705142,4.0843,2.41455,0.268715,3.72585,1.78485,4.58667,-0.956912,-2.57309,1.60988,-1.4038,1.6245,4.85415,2.95234,17.568,-885.72,-460.672,1260,-280,-1120
12.584,19.2421,8.68879,20.3168,14.0534,4.56136,13.1383,4.26249,17.6702,9.13508,3.40918,13.998,2.68345,8.91069,18.9941,8.96384,16.592,-885.232,-465.552,1260,-560,-1120
15.2678,22.3283,12.1798,22.744,15.5405,4.53015,12.9075,2.20717,18.2667,13.7037,7.72317,17.5653,5.9757,8.98199,18.9491,6.88774,19.032,-883.768,-466.04,1260,-420,-1120
6.35275,8.79633,7.73933,7.02953,4.73557,0.740063,1.29089,-3.01767,3.74883,9.7236,8.09991,8.41678,5.75841,2.95789,2.08607,-1.6187,15.616,-879.376,-463.112,1260,-560,-1260
0.0533423,-4.42898,2.70307,-9.45157,-5.81248,-1.58646,-10.1658,-6.60966,-5.77477,5.54493,6.04956,-0.133059,3.48118,-2.88355,-14.0373,-8.34114,17.568,-879.864,-467.992,1400,-700,-1260
-3.01925,-8.82207,-0.760333,-13.0303,-7.85978,-1.94417,-10.2083,-3.9614,-9.21128,0.161197,2.17903,-4.28161,1.32658,-3.72907,-16.0874,-6.81828,15.616,-879.376,-466.04,1400,-840,-1260
-4.80206,-6.67984,-2.36767,-8.07073,-5.44981,-1.72718,-6.38753,-2.34424,-7.83846,-3.82503,-0.916865,-4.35575,-0.521555,-2.92146,-9.14332,-4.39832,14.64,-883.28,-465.552,840,-700,-1400
-8.40162,-9.92221,-6.3015,-11.0101,-8.82868,-2.98857,-8.8717,-2.6202,-8.54704,-7.83823,-5.40751,-8.54128,-3.9808,-5.86568,-12.0645,-6.16663,15.128,-878.888,-465.064,1120,-980,-1400
-10.6381,-10.1904,-7.62952,-9.87633,-8.57145,-2.45371,-7.75584,-1.55079,-10.2389,-10.4113,-9.08592,-9.7089,-5.04644,-5.84886,-10.3694,-5.55956,13.176,-878.888,-464.088,840,-840,-1260
-24.5546,-23.3557,-15.8056,-18.7202,-15.6836,-5.26257,-12.3386,-2.34928,-26.9493,-21.515,-16.1606,-20.4404,-10.0442,-11.0199,-15.0475,-8.70987,12.688,-881.816,-464.088,700,-560,-1260
-39.4648,-43.3528,-28.1654,-36.5353,-29.0342,-10.9554,-21.494,-4.79673,-44.3565,-33.2521,-21.4971,-36.9205,-17.5018,-20.4349,-27.0645,-15.0141,14.64,-881.816,-464.088,560,0,-1260
-39.6218,-47.9074,-28.7002,-42.7267,-33.2056,-11.7637,-26.5541,-5.95929,-46.3587,-31.8449,-18.7797,-39.9085,-17.392,-22.9817,-33.6967,-18.1572,9.76,-881.816,-463.6,700,-280,-1260
-25.6245,-30.9026,-17.5013,-28.7929,-22.1581,-7.24242,-19.8886,-4.35008,-29.2892,-19.5256,-11.0929,-25.5943,-10.5222,-15.2788,-25.328,-13.2722,11.712,-882.792,-464.088,420,-140,-1400
-11.0028,-15.9841,-7.54121,-16.3987,-13.1845,-4.00478,-14.3466,-4.72886,-13.4945,-7.21738,-3.4307,-12.1332,-3.95935,-8.91579,-17.9794,-9.75164,13.664,-884.256,-463.6,280,0,-1260
5.38056,2.87028,2.76553,-0.257914,0.00531478,0.00326392,-4.73155,-3.01927,5.50806,5.73716,3.72855,3.08458,2.62579,-0.197732,-4.16422,-3.2866,9.76,-886.208,-459.696,0,560,-1260
20.5674,27.3665,14.4409,26.6052,19.9834,6.07076,15.8184,3.29766,25.6177,15.5166,7.68678,21.6376,8.14347,12.9011,23.0501,10.4669,8.296,-887.184,-463.112,-140,560,-1260
27.7887,37.1978,18.7667,35.3823,26.4493,7.21644,22.0296,3.59241,34.0284,20.5073,11.6708,28.4474,10.1724,16.6888,30.2616,14.1226,10.248,-886.208,-465.064,140,700,-1540
29.0107,35.8,19.0583,32.9221,24.9781,7.30901,21.556,3.53322,34.2865,21.5903,14.6879,28.1811,10.9212,15.7533,27.2327,14.0048,9.272,-885.232,-465.552,420,840,-1540
29.7315,33.2088,19.0138,29.9751,23.0942,7.70613,21.2,4.86,34.6265,22.7679,16.4182,26.9212,11.284,15.8066,25.6122,14.377,9.76,-886.208,-463.112,420,840,-1680
31.0285,32.3945,18.6851,27.985,22.1775,7.38342,19.9929,5.37686,36.086,23.5082,16.7255,26.6392,11.2119,15.8173,24.0824,14.187,10.248,-883.768,-459.208,700,700,-1820
26.1973,27.0194,16.1025,24.0899,19.3642,6.70447,17.8051,5.63019,31.0102,19.6189,13.2326,22.665,9.65708,13.77,20.601,12.9751,12.2,-886.208,-463.6,420,700,-1960
18.2809,19.6353,12.1384,19.9277,16.7216,5.96166,16.7582,5.34535,21.7059,15.2072,10.9183,16.6008,7.66345,11.3733,20.3625,12.237,9.76,-883.768,-460.672,560,700,-2100
4.75299,5.33169,5.39831,10.4397,9.16618,4.09498,13.6316,4.96013,3.72781,5.50007,5.41829,5.96446,3.66883,6.59368,17.3914,9.90953,9.76,-887.184,-463.112,140,560,-2520
-5.54098,-11.1572,-2.69845,-7.61516,-4.07246,-0.105716,0.770328,1.82986,-10.8245,-1.15924,2.24883,-6.51897,-0.215294,-1.61639,-0.909896,1.4292,10.736,-885.232,-463.112,280,560,-2660
-13.2959,-19.7849,-8.3158,-17.2676,-12.2089,-2.64045,-7.40459,0.754153,-19.1461,-7.78696,-2.1705,-14.2615,-3.60564,-6.88904,-11.9869,-3.77968,11.224,-881.816,-463.112,0,280,-2660
-18.305,-22.5759,-10.1781,-19.2313,-13.608,-2.52228,-8.07864,2.08247,-23.8109,-11.7393,-5.90014,-16.5372,-4.97627,-7.39702,-11.872,-3.47708,12.2,-885.72,-461.648,-140,140,-3080
-9.60552,-16.1646,-7.1412,-18.0175,-13.0014,-3.11142,-13.0233,-1.47338,-12.4757,-5.39031,-2.81259,-11.3271,-2.7988,-7.42546,-17.3176,-7.09704,10.248,-884.256,-460.672,-140,0,-3360
2.11794,-0.120596,-0.865994,-5.59274,-4.48965,-1.18422,-8.34917,-1.9237,4.84258,1.11801,-1.58102,-0.686168,-0.826981,-2.82955,-9.62488,-4.82012,9.272,-883.28,-467.016,-420,-420,-3780
-0.202554,4.5837,0.41096,3.83434,3.01312,1.25243,1.33032,1.83972,3.04014,-2.36333,-5.68723,2.0982,-1.36013,1.51356,2.47348,1.80761,8.296,-885.232,-463.6,-560,-560,-4340
-6.57204,-2.57388,-4.07415,-2.11886,-2.55991,-1.28281,-3.4288,-0.273191,-4.3932,-7.25113,-8.21195,-3.95877,-3.8424,-2.45688,-3.30017,-2.52856,11.224,-883.28,-465.552,-840,-840,-4760
-5.92136,-1.67388,-5.0844,-3.25472,-4.5625,-3.07727,-6.86279,-3.89861,-2.20769,-7.47618,-8.71869,-4.00125,-4.45473,-4.54696,-6.63116,-6.703,9.272,-881.328,-459.696,-1400,-1400,-5460
-3.55545,0.509725,-4.12676,-4.07095,-5.22623,-3.51721,-9.03779,-5.97863,0.69536,-6.07477,-7.11952,-2.87977,-4.26329,-5.35375,-9.75463,-9.16376,13.176,-880.84,-459.208,-1960,-1820,-5740
-6.22751,-2.85261,-3.40852,-3.6616,-4.09548,-2.17278,-5.3778,-3.42699,-5.38977,-7.38829,-6.70241,-4.23259,-3.49794,-3.69411,-5.74131,-5.40218,10.248,-883.768,-461.648,-2520,-2520,-6440
-8.21471,-8.47631,-4.69144,-6.54032,-5.4191,-2.20624,-4.94412,-2.82793,-9.9087,-6.45538,-3.90339,-6.6244,-2.83017,-4.05827,-4.78075,-4.32177,11.224,-885.72,-457.256,-3360,-2800,-6860
-7.51906,-8.75075,-4.49343,-7.3805,-5.46167,-2.16472,-4.61989,-2.00692,-9.6133,-4.91824,-2.92028,-6.95741,-2.8033,-3.72589,-5.5602,-3.50962,16.104,-888.648,-452.864,-4340,-3220,-7280
-8.83886,-7.6032,-3.3534,-2.44585,-1.49729,-0.259741,1.6487,0.411012,-11.5615,-6.79649,-5.83694,-5.68536,-2.06825,-1.12517,1.07608,0.569693,15.128,-888.16,-456.768,-5320,-3780,-7840
-4.58273,-4.41598,-1.30389,-0.647567,-0.221492,0.460977,1.8265,0.285103,-7.02581,-2.6649,-2.34388,-2.38577,-0.104202,0.170235,2.6596,1.11409,15.128,-891.088,-454.816,-6020,-4060,-8260
-0.650376,0.459881,1.10805,4.80518,3.5691,1.32357,5.4588,1.01089,-2.74394,0.62125,1.09123,1.56509,1.1791,2.43404,8.80522,3.65635,15.616,-891.088,-455.304,-6160,-3920,-8400
-7.25992,-6.677,-3.08178,-1.34144,-1.42505,-0.590293,1.82303,1.10326,-10.2707,-4.25822,-0.710042,-4.24118,-1.23562,-0.807497,3.38987,1.39759,15.128,-889.624,-456.768,-6020,-4200,-8820
-5.99265,-6.50785,-3.8312,-3.51559,-3.82334,-2.02005,-1.4464,0.558843,-7.80237,-4.85401,-1.08936,-5.53202,-2.09215,-2.72339,-0.982461,-0.77928,18.544,-887.672,-459.208,-5740,-4340,-8960
-0.0611209,-4.41485,-2.24549,-5.68677,-5.03123,-2.05203,-4.83758,-1.36888,-2.46753,0.147028,3.05923,-3.25995,-0.458523,-3.0563,-6.54256,-3.50786,18.544,-888.648,-461.648,-5180,-4620,-9380
1.87266,-3.83164,-1.16554,-9.97934,-7.57691,-2.77031,-11.7244,-4.77143,-0.885731,2.16617,4.22735,-2.67631,0.553135,-4.11415,-16.8133,-7.80943,17.08,-888.648,-462.624,-4900,-4480,-9520
10.5624,8.716,5.49625,0.327914,1.6343,0.57071,-5.00331,-3.26487,10.7882,8.08744,5.96605,7.03289,3.88048,1.33296,-8.98982,-3.05583,19.032,-886.696,-467.992,-4200,-4340,-9660
9.8511,11.4857,6.41677,6.94743,7.04962,2.47312,3.26456,0.342768,10.1614,7.10421,4.44065,9.56012,4.02953,4.23011,1.46712,2.37387,19.032,-883.28,-467.016,-3640,-4340,-9520
5.17587,7.66034,4.29575,9.21914,7.54777,2.16066,7.50719,2.17825,4.80786,3.55118,1.6287,6.343,2.11301,4.27841,9.56101,4.78787,19.52,-883.28,-469.456,-2800,-3780,-9660
4.36293,6.38103,3.56316,10.4345,7.16962,2.49378,9.50385,3.17573,5.78298,3.05479,1.3995,5.59293,1.57982,4.59516,13.3493,6.45357,18.544,-880.352,-470.92,-2520,-3500,-9520
-1.76593,-2.33511,-0.973589,1.41978,0.478523,0.369025,3.16723,2.393,-1.68239,-1.41061,-0.159116,-1.9081,-0.519949,0.412927,4.66802,2.58842,19.032,-880.84,-467.992,-2100,-3220,-9240
1.27862,-0.0153739,0.517337,-0.292364,0.221798,1.04486,1.03991,2.5077,2.22193,1.17658,1.36941,-0.152007,0.295587,0.758111,-0.196286,1.94358,15.128,-879.864,-467.504,-2520,-2380,-8960
8.47634,3.68348,2.00825,-4.73263,-2.67909,-0.625843,-5.83608,-1.14866,11.8545,6.95629,4.98883,2.42646,1.39541,-1.0142,-10.0598,-2.99646,17.568,-882.792,-467.992,-2800,-1820,-8540
15.6141,12.0217,6.03187,2.62314,2.88866,1.04662,-1.5287,-0.34225,21.4504,11.9571,7.16564,8.7673,3.62301,2.52753,-3.57257,-0.805872,13.664,-883.768,-459.208,-3220,-980,-8400
15.985,19.1069,9.0243,16.7018,12.306,4.20294,11.7161,3.37701,24.1914,10.7216,4.7097,14.2484,4.44164,7.72813,14.8538,7.2249,15.616,-887.672,-464.576,-3220,-140,-7700
7.03508,9.99552,4.55785,10.4373,7.36981,2.57269,8.9849,2.87862,12.5754,4.41804,0.757262,7.08062,2.06436,4.84762,12.5923,5.60519,15.616,-892.064,-463.6,-3640,420,-7560
-7.42902,-6.38706,-3.12513,-3.50274,-2.37713,0.23605,1.33608,1.32638,-7.35769,-5.01373,-3.24606,-4.88286,-1.90425,-1.06138,2.55103,1.15298,13.664,-892.064,-461.16,-3220,1120,-7140
-20.2566,-21.4004,-10.5393,-15.9179,-11.1033,-2.99682,-6.03187,-0.355543,-25.1903,-13.2324,-7.04005,-16.1471,-5.60179,-7.03335,-7.49651,-3.29441,12.688,-890.6,-459.208,-3220,1540,-6720
-10.5808,-9.02446,-5.02778,-3.99061,-3.41534,-1.63737,-0.917895,-0.591962,-13.0909,-7.06418,-4.11447,-7.16212,-3.08892,-2.89291,-0.0126487,-0.538746,15.128,-889.624,-461.16,-2520,1680,-6300
-7.21701,-5.15205,-2.50804,-0.614088,-1.21663,-1.338,-0.422413,-1.05573,-10.2813,-4.39146,-2.90887,-3.45461,-1.75572,-1.57652,0.55338,-0.759556,19.52,-886.208,-458.72,-2520,1680,-5740
-11.4864,-9.67476,-4.74174,-4.22939,-3.95234,-1.75818,-3.04675,-1.46467,-15.7503,-7.06482,-4.54587,-6.95748,-2.71826,-2.89901,-2.04341,-2.51453,21.472,-885.72,-463.6,-2380,1820,-5460
-14.5255,-14.0755,-6.67075,-9.56002,-7.03483,-2.16252,-6.17523,-2.33492,-20.3385,-9.21756,-5.2136,-10.3286,-3.531,-4.54318,-6.8988,-4.2109,23.912,-883.768,-462.624,-2100,1400,-5320
-3.9067,-6.43367,-2.59917,-9.05889,-6.1406,-2.01394,-9.95687,-3.68475,-7.26305,-2.63991,-1.05608,-4.15448,-1.193,-3.6877,-13.5816,-6.33939,25.376,-879.376,-464.576,-1820,1260,-5180
10.9395,10.8669,5.52822,7.57531,5.18358,0.794997,-0.0614904,-2.10637,12.409,6.58333,3.88434,8.66442,2.83472,3.34692,1.10524,-0.561185,30.744,-878.4,-461.16,-1960,700,-5040
12.9613,15.2403,7.64179,13.6763,10.0812,3.14438,7.75264,1.85949,15.9788,7.64454,3.80571,11.8537,4.18419,6.9601,10.8272,5.80295,30.744,-878.888,-463.112,-2240,280,-4760
9.88312,9.82096,4.53441,6.96472,5.05248,1.86016,4.65256,1.77967,12.4518,5.15011,3.00929,7.09753,2.59793,3.89196,5.36622,4.25896,32.208,-879.376,-457.744,-2380,0,-4480
5.70969,3.44254,1.53475,-0.661003,-0.257843,-0.0724173,-0.240786,-0.148269,6.52383,3.24133,1.83906,2.2641,0.839975,0.318111,-1.52799,0.206223,35.136,-884.256,-461.16,-2800,-280,-4060
4.98115,3.25355,1.18876,-0.494967,-0.405356,-0.522695,-0.667228,-0.723751,5.47683,2.89584,1.50326,1.64973,0.647181,-0.670407,-1.11983,-0.745136,35.624,-883.768,-461.648,-2940,-700,-3640
-0.00574063,1.18868,-0.0859591,1.95849,1.06163,-0.267587,2.72474,-0.423138,-0.0317201,-0.254899,-0.0962774,0.121739,0.170691,-0.184813,3.75884,0.468121,35.624,-885.232,-461.16,-2940,-1260,-3220
-0.754557,3.19305,1.05541,5.91004,3.97481,0.910513,6.05053,0.973681,0.0542178,-0.396009,-0.566441,1.66084,0.341887,1.97374,8.76302,2.93124,36.112,-887.184,-466.04,-2940,-1680,-2660
-4.61732,-4.04688,-1.66031,-0.485442,-0.508555,-0.143815,1.42738,0.702683,-6.23464,-2.05307,-0.390682,-3.09527,-0.854268,-0.687076,3.49549,0.707741,36.6,-886.696,-466.04,-2380,-1960,-2240
-1.47563,-2.51963,-1.14679,-2.07283,-1.38126,-0.018039,-1.10535,0.812469,-2.02014,-0.234564,0.113744,-1.77439,-0.359375,-1.16352,-2.05027,-0.812781,37.576,-885.72,-467.992,-1680,-2100,-1960
-2.53498,-2.91313,-1.35076,-3.29409,-1.81332,0.804876,-0.7309,2.92982,-2.81046,-2.00277,-1.78126,-1.66908,-0.690048,-0.313634,-2.71822,0.197999,36.6,-885.72,-466.04,-980,-2660,-1680
-1.41128,-0.885825,-0.522639,-1.40393,-0.484104,0.950846,0.480338,2.73726,-0.560543,-1.90199,-1.95799,-0.33147,-0.663484,0.0613644,-1.25484,0.289372,36.6,-885.72,-468.968,0,-3220,-1260
7.48283,8.04962,3.05454,4.98668,3.1983,0.77757,1.25848,0.360194,11.104,3.46096,1.20481,5.62211,1.49049,1.65947,0.857204,-0.0973391,38.552,-885.72,-468.968,1400,-3500,-1400
4.97224,1.97215,0.152165,-2.12758,-2.09992,-1.07828,-4.01715,-2.44945,6.53546,2.8354,2.42046,1.18557,0.377268,-1.77466,-5.10372,-3.22523,39.04,-878.888,-468.968,2800,-3780,-1120
-0.786116,-2.93528,-1.00444,-3.19564,-2.15871,-0.35286,-2.18441,-0.699609,-1.16328,0.128727,0.877426,-1.91542,0.0280487,-1.31375,-3.31313,-0.962125,38.552,-882.304,-468.968,4200,-3920,-980
-8.7421,-9.06545,-2.87755,-5.17468,-3.13934,0.216762,-2.62801,0.320778,-10.9827,-4.82012,-2.10564,-5.88368,-1.0449,-1.55065,-4.18106,-0.752072,35.624,-877.424,-469.456,5180,-3920,-700
-6.68934,-6.30942,-2.0107,-2.45498,-2.09051,-0.628719,-1.81488,-0.530882,-8.62123,-3.54147,-1.74516,-4.71588,-1.09283,-1.55478,-1.6265,-1.29039,37.088,-878.4,-467.992,6020,-3220,-140
-0.408534,-2.49895,-1.14906,-3.22628,-2.95564,-1.62083,-3.20471,-1.77529,-0.119391,0.371248,0.591449,-2.01035,-0.434393,-1.79904,-2.96531,-2.55644,33.672,-877.424,-466.528,6720,-3220,420
1.63321,-2.0386,-1.24383,-5.06934,-3.7038,-2.22669,-5.12176,-3.0499,2.47775,1.47116,1.58942,-1.63618,-0.699014,-2.68538,-5.55988,-3.53973,31.232,-875.96,-469.456,6860,-2100,1120
1.91764,4.32258,1.96403,5.41382,4.4285,1.11951,3.92434,0.41979,2.84646,2.00065,0.0948715,3.78938,1.04609,2.62651,6.55648,2.99655,29.768,-875.96,-470.432,7140,-840,1960
-5.87406,-4.04324,-1.69127,-0.792843,0.0778575,0.614186,1.78547,1.7998,-8.8804,-3.84354,-3.15445,-2.57147,-1.16809,0.257262,2.6998,2.12593,23.424,-871.568,-468.48,7280,0,2800
-8.16586,-8.01305,-3.27531,-4.37458,-2.87097,-0.603858,-0.22674,1.69888,-10.544,-5.77369,-4.04165,-5.62835,-2.39619,-1.29383,-1.3283,0.75991,21.472,-872.544,-470.92,7140,1540,3920
-6.36707,-6.81522,-3.44262,-4.7532,-3.3812,-1.02056,-1.58053,0.623311,-7.42413,-4.68733,-2.65733,-5.45526,-2.62022,-1.65115,-3.06787,-0.751748,19.032,-870.104,-468.48,7000,2800,4620
-5.3049,-8.56704,-3.87734,-9.24895,-6.66308,-2.47466,-7.08647,-1.84139,-7.90467,-3.27828,-0.292532,-6.34579,-2.23783,-3.9761,-10.6441,-4.52828,15.128,-872.544,-470.432,6720,4200,6020
6.86292,7.33606,3.88276,3.54346,2.67018,0.483749,-0.633614,-1.31721,8.29444,4.86779,3.052,5.96277,2.32125,1.90406,-3.30094,-0.403917,9.76,-872.544,-474.336,6300,5460,7000
16.2455,23.0355,11.3449,20.18,15.1093,4.7251,11.2984,1.59999,20.9913,10.5234,4.52629,17.5524,5.85287,10.1345,13.4464,7.10945,7.32,-874.984,-470.432,5880,6440,7840
13.2671,18.8439,9.21324,17.2057,12.6668,3.91653,9.94674,0.131351,17.1445,8.82299,3.35044,14.0985,4.68194,8.03114,13.9946,5.71041,3.416,-876.448,-469.944,4760,7560,8680
3.8027,1.45514,0.0219923,-0.697211,-1.58284,-1.23022,-1.94841,-2.94615,4.13716,1.95514,0.833321,-0.00804316,-0.122673,-1.44148,-0.348072,-2.43095,1.952,-875.96,-468.48,4340,7980,9380
-5.42569,-9.23411,-5.61753,-9.34091,-8.18301,-3.55089,-5.85912,-3.07743,-7.47776,-3.69644,-1.16865,-7.87692,-2.70331,-5.69996,-6.18677,-4.97217,-0.488,-876.936,-470.92,3640,8400,9940
-5.96235,-4.54833,-3.87775,-2.60809,-2.14061,-1.15748,0.447273,0.506868,-7.21692,-4.38416,-1.86892,-4.4126,-1.90249,-2.22215,1.80578,0.386042,-0.488,-878.888,-468.968,2520,8820,10080
-3.50071,-3.84428,-2.68537,-5.84388,-3.46376,-0.7448,-3.20609,0.493259,-3.24673,-2.78207,-1.30825,-3.77608,-1.27844,-2.50077,-4.64118,-1.12364,-3.904,-879.376,-467.504,1960,8820,10080
1.28823,1.49114,0.428541,-0.488827,0.116066,0.26831,-0.666421,0.850353,1.74376,0.510642,0.0756699,0.235766,0.164326,-0.0850198,-1.04498,0.355908,-2.928,-881.328,-464.088,700,8540,9800
4.12946,7.76269,3.07015,8.93026,6.44238,2.53456,6.86059,3.67874,6.64739,1.91627,0.0744345,5.62502,1.14359,3.98822,9.48377,5.40502,0,-886.208,-466.528,560,8400,9380
0.650728,2.97325,1.24571,5.04701,3.72968,1.4756,5.41198,2.90707,2.66867,-0.506663,-0.733344,2.67167,0.441442,2.13605,7.15476,3.70157,3.904,-885.72,-465.064,140,7560,8540
-1.96393,-0.410676,0.0875029,2.39128,1.03146,0.388709,3.1075,1.54184,-1.71311,-1.64636,-0.610512,0.543011,0.276519,1.2726,3.74291,1.7099,5.856,-887.672,-462.136,140,6580,7560
-5.0116,-6.91983,-2.64942,-5.725,-5.13915,-1.33158,-4.38479,-1.41895,-7.23883,-2.70338,0.264612,-4.82394,-0.51059,-2.63698,-6.84488,-3.69387,11.224,-893.528,-462.624,560,5460,6580
1.08004,-4.43411,-1.86916,-8.08239,-6.58515,-2.2846,-8.92933,-3.81924,0.693437,1.65225,3.36985,-3.28114,-0.381631,-4.42466,-12.0078,-7.15038,14.64,-894.504,-464.088,1400,4480,5180
0.610636,-7.97495,-3.00577,-12.483,-9.15585,-2.98752,-10.8912,-4.19797,-0.871837,1.85544,3.35847,-5.366,-0.924313,-5.82155,-13.5111,-7.82289,17.08,-891.088,-463.112,1960,2940,4200
0.834653,0.188535,0.809093,0.809875,1.2713,0.318633,1.12945,0.387603,-0.467939,1.19709,1.44491,0.588122,0.522246,0.708634,3.38532,0.793302,20.984,-890.112,-464.088,3080,1400,2660
0.206183,1.89986,1.45132,5.13614,3.91147,1.52108,4.8374,1.78843,-0.641571,0.722478,-0.274574,2.28726,0.448655,2.79979,7.93412,3.90757,23.424,-889.136,-467.504,4200,0,1260
-10.4915,-13.3499,-4.48257,-7.3317,-4.68948,-0.249061,-1.37378,1.36269,-16.2216,-5.70797,-3.38176,-8.55639,-1.9273,-2.0741,-2.05202,0.216127,25.376,-887.672,-470.432,5320,-1120,280
-4.20331,-3.73237,-0.185697,0.375816,1.2688,1.81844,3.4933,2.16734,-6.32146,-2.42627,-2.5324,-1.71427,0.0944641,1.581,2.89739,2.84054,25.864,-885.72,-468.968,5600,-2520,-700
1.82325,5.73226,3.77597,9.67807,8.29131,3.53782,10.0867,4.13544,1.54088,0.3838,-1.54527,4.49037,1.36277,5.30532,12.2385,6.96286,27.816,-886.696,-471.408,6300,-3360,-1400
1.69623,5.65887,2.96876,8.81401,7.27593,2.40329,7.93175,3.11465,2.48059,0.443519,-1.58221,4.27692,1.14008,4.12135,10.5949,5.66931,26.352,-885.232,-473.848,6580,-3920,-2100
8.53535,11.5285,4.28053,8.98236,6.34849,1.02874,3.28205,-0.482104,11.9459,5.12775,0.641078,8.50614,1.96635,3.43883,4.2084,2.18892,27.816,-885.72,-474.824,7140,-4200,-2520
10.8581,15.8859,5.57994,11.2569,7.24811,0.978274,3.5656,-0.364073,16.1887,5.98986,1.90281,10.4871,2.49269,3.59485,3.22194,1.77764,25.864,-882.304,-476.776,7280,-4200,-2800
4.4775,5.28261,1.10692,-0.340173,-0.797343,-0.821484,-3.74035,-1.81469,7.4755,1.63124,0.599316,2.90842,0.407881,-1.11569,-6.71428,-2.90278,24.888,-880.352,-475.8,7700,-3640,-2940
-1.97364,-4.73319,-2.79048,-9.28009,-6.97771,-2.51861,-9.24891,-3.25309,-1.24887,-1.50883,-0.265712,-3.9476,-1.42017,-4.72857,-13.6262,-6.50146,26.84,-882.304,-474.824,7840,-3220,-2940
-1.70787,-5.46768,-2.51434,-8.61132,-6.38298,-2.57717,-8.06854,-2.85889,-0.635125,-0.502778,0.633868,-4.30012,-1.32131,-4.18373,-10.4382,-5.83591,23.912,-879.376,-473.848,7980,-2100,-2800
1.0389,-1.23891,-1.41253,-3.92755,-3.02961,-1.39609,-3.48347,-1.52479,2.25152,0.635825,0.853654,-1.87644,-1.004,-2.20465,-2.90549,-2.61324,22.936,-876.936,-474.824,7560,-1400,-2520
0.26293,-2.04886,-1.44711,-4.32021,-3.61283,-1.25727,-3.62202,-1.6658,0.926554,0.593567,1.00801,-2.35358,-0.536876,-1.98957,-3.66466,-2.33536,22.448,-879.376,-476.288,7140,-840,-2240
-4.30122,-4.78737,-2.06536,-3.58088,-2.80441,-0.529308,-2.37188,-0.432718,-5.91175,-1.63409,-0.481742,-3.35114,-1.06031,-1.10461,-2.26189,-1.16536,21.96,-876.936,-476.776,6580,700,-1680
-5.6771,-4.91417,-1.47171,-1.87006,-1.14285,-0.15665,-0.400157,0.609573,-8.20073,-2.9147,-1.0711,-2.95277,-0.82177,-0.57374,0.454902,0.181394,22.936,-877.912,-475.8,5880,1260,-1260
-1.70946,-4.9954,-1.79426,-6.61317,-4.27929,-1.43205,-5.56772,-1.55308,-3.416,-0.512032,0.551502,-3.0893,-0.364351,-2.35089,-6.90674,-3.15997,20.496,-877.912,-473.848,5040,1960,-700
-0.88577,-3.60632,-2.43719,-6.28994,-4.29743,-1.61362,-4.24613,-1.06279,-1.37044,-0.245072,0.236079,-2.64181,-0.538882,-2.03433,-6.00783,-2.30165,18.544,-878.888,-474.336,4200,2380,140
-4.60961,-3.78649,-2.15631,-0.924381,-0.491135,0.17589,2.84182,2.24104,-6.39381,-3.76677,-1.90545,-3.05581,-1.15027,0.430342,3.26653,1.90113,21.96,-876.448,-472.384,3920,2940,700
-5.54028,-1.62759,-1.18092,3.19553,1.71048,1.23508,5.35155,2.30365,-7.05339,-4.81902,-2.64934,-1.9246,-0.959663,1.14941,7.07831,3.46166,21.472,-873.032,-471.896,3500,3500,1260
-3.28153,-0.214807,-0.73877,2.83113,1.08379,-0.0840406,2.88597,0.489662,-3.77282,-3.27762,-1.54766,-0.939428,-0.809196,0.0405237,3.78916,1.40787,20.496,-873.52,-471.408,3500,3780,1540
-3.09811,0.66161,-0.656383,5.01865,2.5902,-0.0221258,4.13869,0.812903,-3.50363,-2.9931,-1.38405,-0.517705,-1.16259,0.86675,6.17417,1.9133,23.424,-875.472,-470.432,3780,4200,2100
-3.7022,-1.66233,-1.00311,1.48681,0.73293,-0.409589,2.19968,0.239145,-5.00628,-2.57687,-1.16002,-1.28943,-1.46663,-0.197008,3.80141,1.01818,21.472,-878.4,-474.824,3920,4480,2380
-5.44493,-8.59651,-3.72475,-7.3246,-5.32274,-1.81993,-3.75347,-1.49498,-7.94607,-3.27764,0.0885724,-6.16837,-1.65575,-3.76029,-4.75848,-2.84242,21.96,-873.032,-472.872,3780,5320,2660
-0.0847417,-3.16036,-0.764063,-2.60295,-1.25457,0.347295,-0.58088,0.513473,-0.888472,0.0448453,1.13063,-1.91044,0.53867,-0.184281,-0.925644,0.651722,25.864,-875.96,-476.288,3500,5880,2800
13.4461,16.3011,9.10034,17.3057,14.1457,5.52271,14.2084,4.96682,17.2815,9.03801,3.2783,13.5501,5.09171,9.45467,18.104,10.4414,24.4,-879.864,-471.896,3220,5740,2940
19.6455,24.4749,13.2792,23.6059,17.9941,5.86676,15.5895,3.01096,25.3679,13.2487,5.2619,19.7427,6.75637,11.5692,20.4175,9.95422,22.448,-876.936,-469.944,2940,5600,3500
11.8956,15.8414,8.41532,13.6987,10.0387,2.73978,5.81995,-0.709519,15.848,8.58737,2.92105,12.6209,4.1957,6.22042,7.92877,3.25015,21.472,-879.376,-472.872,2660,5180,3640
5.13038,7.40455,4.47743,5.43478,4.58309,1.70207,1.78896,-0.309373,6.79426,4.21577,0.224633,6.47974,2.25066,3.07788,1.5791,0.904955,19.52,-881.328,-470.92,2520,4620,3920
-3.60242,-5.04863,-0.764598,-6.36985,-3.55165,0.132994,-4.05915,-0.0563522,-5.28238,-1.24182,-1.8543,-2.21526,-0.0485329,-1.17716,-6.70774,-2.31495,21.96,-882.792,-474.336,1960,3920,4200
-7.68366,-13.2303,-5.22522,-14.7892,-10.0239,-1.95266,-8.71148,-0.945302,-10.8894,-4.15997,-1.47221,-9.21781,-1.76867,-5.53098,-13.0411,-5.0849,18.056,-879.864,-473.848,2380,3360,4340
-0.977017,-9.46993,-4.24018,-13.3947,-9.63892,-2.4956,-9.73164,-2.0663,-3.21224,-0.951318,1.55552,-7.53082,-1.65886,-6.00387,-14.1189,-6.53573,15.128,-882.304,-474.336,2660,2940,4480
0.989111,-2.80433,-2.37192,-4.89995,-3.86218,-1.16512,-3.62716,-0.608848,1.08359,-0.355818,0.46322,-3.4217,-1.43261,-3.14823,-4.56617,-2.70017,12.688,-881.816,-474.336,2940,2380,4340
-4.78847,-7.46,-5.21225,-8.31029,-6.81286,-1.94931,-5.12613,-0.672123,-5.87966,-4.82849,-2.80634,-6.93265,-3.61745,-4.90592,-6.67939,-3.43254,9.272,-883.28,-471.408,3080,2100,4200
-6.89012,-7.91974,-5.95391,-7.57929,-7.08316,-3.01357,-5.93658,-1.35071,-8.54737,-5.56894,-3.07227,-7.10687,-3.74539,-5.12936,-6.75492,-4.27107,9.76,-886.208,-471.896,3780,1540,3920
-1.67771,-0.313052,-2.21442,-1.40079,-2.17043,-2.27678,-3.52737,-1.52067,-2.50393,-1.73644,-0.813583,-1.47659,-1.43852,-2.40835,-3.45298,-2.74479,11.712,-884.256,-473.36,4200,1400,3780
-1.61327,-0.517658,-1.46932,-0.948798,-1.17036,-1.44097,-3.31951,-1.65264,-2.18724,-0.745405,0.41181,-0.785257,-0.269687,-1.34437,-4.03149,-2.2849,11.712,-888.16,-472.384,4480,1260,3640
-3.03179,-2.87693,-2.06519,-3.00337,-2.74254,-2.04332,-4.71507,-2.38489,-2.64356,-0.522175,0.591519,-1.94721,-0.60135,-1.84305,-6.16106,-3.50072,9.76,-884.744,-472.384,4760,980,3220
0.336088,0.169296,-0.233762,-1.96,-2.10642,-1.26161,-3.73967,-1.85189,1.22109,1.2757,1.63993,-0.151556,-0.0212454,-1.08948,-4.90543,-2.81445,11.224,-885.72,-470.92,5320,980,2940
1.2036,4.35244,2.23163,4.91936,3.37649,0.7998,3.59287,0.684173,3.25845,1.43578,0.392451,3.12685,1.02255,2.32814,4.96033,2.34883,10.736,-885.232,-471.896,5740,840,2660
2.62448,8.01875,4.32406,10.6749,7.85203,2.4758,8.54023,2.47874,4.1583,2.54412,0.577798,6.39325,2.40307,5.1997,10.717,5.99126,9.76,-885.72,-470.432,6300,840,2520
6.00796,12.4355,6.86999,15.3095,11.4653,3.56761,10.8379,3.40961,8.31718,4.30083,0.836862,9.56031,3.34956,7.45848,15.1776,7.63798,12.2,-881.816,-472.384,6580,1120,2100
0.789917,1.74444,1.84177,2.5234,2.31294,1.04677,1.88345,0.0765173,1.93576,0.292732,-0.628132,1.06536,0.727675,1.85413,3.512,1.54844,12.688,-882.792,-474.824,6720,980,1680
-2.05497,-3.07645,-0.559187,-0.89018,-0.652154,0.256763,0.517535,-0.0628269,-2.23104,-1.69485,-1.36242,-2.16667,-0.152079,0.124806,1.56564,0.771065,12.2,-877.912,-472.872,6580,840,1540
-0.539525,-1.02727,0.0726797,1.06019,0.870124,0.725994,2.21145,1.08625,-0.277519,-1.98188,-1.39181,-0.389276,-0.308442,0.553996,3.24247,1.65395,12.688,-876.936,-473.848,6580,840,840
-5.21491,-8.81023,-4.14287,-9.13516,-5.89789,-1.03899,-4.06418,-0.0110085,-7.46889,-5.06531,-1.02099,-6.65738,-1.77195,-3.38232,-5.82357,-2.20264,14.152,-876.936,-469.944,6440,840,560
-11.6364,-18.3303,-7.82995,-16.8592,-11.5226,-3.18712,-9.08419,-1.55447,-17.6099,-7.62942,-1.72949,-13.0862,-3.44202,-7.34288,-11.8854,-6.08725,17.08,-877.424,-476.288,6020,420,280
-5.0816,-9.3625,-4.48016,-9.6993,-6.89884,-2.23242,-6.44439,-2.25251,-9.08575,-2.6464,0.110818,-6.80956,-2.04159,-4.81917,-9.11561,-4.88937,18.056,-876.448,-471.408,5740,280,-140
3.57173,3.27956,0.809997,1.91953,1.20253,0.283075,1.60056,-0.270764,3.9812,2.69257,1.6434,2.57335,0.514685,0.594507,1.88699,0.525087,18.544,-877.424,-471.896,5180,280,-420
7.02249,8.39665,3.59298,6.8592,5.33687,1.72336,6.01756,1.34025,10.4575,5.06245,2.63197,6.43373,1.91341,3.29496,7.62598,3.70279,19.52,-877.912,-472.384,4760,280,-560
6.09445,9.94771,4.3645,9.69793,6.95614,2.3777,7.81162,3.18322,10.3424,3.78393,0.876251,6.87846,1.73466,4.52118,9.9713,4.99549,20.984,-879.376,-469.944,4480,0,-840
5.47438,9.04542,4.02193,9.35971,6.66885,2.95342,7.11851,3.3389,8.80694,2.68657,0.0820829,6.6962,1.3371,4.27717,9.32072,5.09466,22.448,-880.352,-471.408,4480,280,-700
4.17472,7.39743,2.74431,7.71777,6.12811,2.37383,7.35031,3.41194,7.36867,2.22192,0.247244,5.42401,1.00904,4.26088,9.47936,5.59116,24.4,-879.376,-473.848,4620,280,-840
2.79754,4.76726,1.98649,5.94925,4.07354,1.07343,4.53169,1.43658,3.41728,1.42856,0.3484,3.43523,0.600811,2.32943,7.40552,3.30158,23.424,-879.864,-473.36,4760,560,-980
5.02052,6.5671,2.91509,7.30921,4.40778,0.964881,3.55017,0.0194609,5.25203,3.59364,1.42289,4.75204,1.07457,1.83099,6.46461,2.4626,24.4,-882.304,-471.896,4760,560,-840
-1.08883,-1.51337,-0.247724,-1.03925,-0.520272,0.373744,-0.822476,-0.292381,-2.97845,-0.847771,-1.17216,-0.744946,-0.0972215,-0.261649,-0.734749,-0.0733044,24.888,-880.84,-472.384,4620,420,-700
-4.83711,-5.64642,-1.49595,-6.5385,-3.56213,-0.575192,-5.55402,-1.93825,-7.41836,-3.46067,-3.14583,-3.6171,-0.787227,-1.55562,-9.3229,-3.47529,23.912,-882.304,-472.872,4620,700,-700
-4.69721,-5.06552,-1.84525,-7.9064,-4.37323,-2.00655,-7.76655,-3.24601,-7.48502,-2.77658,-2.1255,-3.64147,-1.1214,-2.42263,-13.1434,-5.63808,26.352,-881.328,-469.944,4620,980,-280
-9.87004,-12.4878,-5.7369,-13.778,-9.64805,-4.03252,-11.9566,-4.51871,-14.9101,-5.94403,-2.01705,-9.09345,-2.54597,-6.25674,-17.3725,-8.70487,25.864,-883.28,-468.968,4760,980,0
-7.17329,-8.06213,-4.8095,-7.20065,-6.05351,-2.37244,-6.38521,-1.45077,-8.72227,-4.9621,-2.67588,-6.62386,-2.3362,-4.07172,-9.30019,-4.05963,23.424,-881.328,-471.408,4900,1540,420
2.10789,-0.984738,-0.890919,-3.27628,-3.33299,-1.21048,-4.89417,-2.01468,3.52208,1.57048,1.80395,-1.3266,-0.421217,-2.32001,-6.75226,-2.66565,22.936,-883.768,-469.456,5040,1540,840
1.57296,-3.32698,-0.909002,-4.87074,-4.30042,-1.73836,-4.32303,-2.25791,2.09863,1.98818,2.63927,-2.16018,-0.064695,-2.84417,-4.56128,-3.28868,25.376,-882.792,-467.016,5180,1400,980
3.60439,1.61902,1.29533,1.8271,0.863556,0.0570407,1.11007,-0.32261,4.68233,3.14612,2.63246,2.13188,1.43235,0.987095,2.70038,0.533501,20.496,-885.232,-467.992,5180,1540,980
1.76028,0.159029,0.72804,1.39597,0.647741,0.160135,1.02291,0.334086,1.76776,2.01379,1.61729,0.731283,1.30432,1.12193,1.74473,1.11364,20.496,-887.184,-467.992,5600,1400,1400
-2.39603,-2.28419,-1.40172,-1.8004,-1.12016,-0.153783,-0.522921,1.30036,-3.69487,-1.65102,-1.06783,-2.35556,-0.516441,-0.728277,-0.871857,-0.0936206,17.08,-884.744,-467.016,5600,1400,1400
2.5253,6.95084,2.45296,6.57748,4.16762,1.17895,4.37704,1.7282,5.0411,1.92152,0.264063,4.15953,0.991096,2.25397,5.90174,2.05534,18.056,-882.304,-466.04,5740,1400,1260
5.22997,11.4198,4.85481,12.8897,8.8784,2.65756,9.80363,2.81925,8.98797,3.44944,0.202524,8.17839,1.91109,5.23528,14.2562,5.90659,17.08,-884.256,-465.552,5740,1260,1120
3.61145,6.37813,3.21877,8.09404,6.48014,2.32713,7.8475,2.91302,4.9409,2.47967,1.01846,5.18058,1.61817,4.28795,10.296,4.89357,17.08,-883.768,-466.528,6020,1120,1120
-1.13128,-1.53627,-0.0246906,-0.94968,0.507558,0.609104,1.29197,0.675158,-3.00659,-0.343935,0.851791,-0.545664,0.785626,0.553274,1.3469,0.112568,16.104,-884.744,-465.064,6160,840,980
0.0340285,0.207085,0.26331,-0.0941043,0.399684,-0.131944,-0.401568,-0.749418,-0.78245,-0.120719,0.817283,0.548315,0.16774,-0.350824,-0.151286,-0.779082,17.08,-882.792,-464.576,6160,560,700
6.43386,8.07184,3.70938,6.29427,4.61896,1.04835,3.08591,0.0507119,7.49482,4.05015,2.11164,5.40085,1.16181,2.30627,3.64499,1.99036,17.08,-882.792,-464.576,6160,140,420
-2.85413,-5.20419,-1.96326,-6.45484,-4.15834,-0.688438,-4.08842,-0.876929,-5.21633,-1.76933,-0.0923602,-3.98154,-0.995713,-2.78688,-6.32133,-2.35209,17.568,-881.328,-467.504,6440,0,140
-8.99726,-14.4475,-6.34577,-14.1868,-10.1802,-2.22124,-7.14028,-0.986306,-12.3129,-5.97073,-1.94596,-10.2127,-2.62622,-5.66209,-10.6051,-4.01339,16.104,-880.352,-466.528,6860,-280,-140
0.744314,-1.39025,-0.332772,-1.84775,-1.3816,-0.255331,-0.429001,-0.335919,0.690483,0.327316,0.469458,-0.886429,-0.171618,-0.24957,-0.843449,0.0808889,20.008,-881.816,-466.528,6860,-700,-280
4.21899,6.1609,2.75629,6.64488,4.13259,1.13694,3.39393,1.44251,6.64569,1.82564,-0.0100326,4.43815,0.805191,2.87876,6.00825,2.70993,19.032,-882.304,-463.6,6580,-980,-840
1.34139,0.805417,0.0341156,-0.161688,-0.861125,-0.315692,-2.07602,-1.05004,2.51545,-0.0341889,-0.611393,0.330552,-0.229275,0.0296342,-1.16568,-1.11855,20.496,-882.792,-465.064,6720,-1120,-980
-7.298,-9.19553,-4.48071,-8.26728,-6.0361,-1.75498,-5.98027,-1.85527,-8.6875,-5.04536,-3.49103,-6.58074,-2.82184,-3.92188,-7.27265,-3.76163,20.496,-882.792,-464.088,6580,-1260,-1400
-5.98472,-6.65624,-3.67842,-4.75292,-3.58009,-1.42113,-2.48991,-0.763973,-7.13199,-4.08785,-3.49821,-4.93777,-2.40795,-2.61352,-3.01778,-1.77731,18.544,-883.768,-464.088,6580,-1260,-1540
-0.272604,-0.672951,-0.916883,1.18092,0.83543,0.151909,3.37511,1.0043,0.090729,-0.584428,-0.874917,-0.384046,-0.217511,1.00179,4.85301,2.33483,19.032,-885.232,-465.064,6580,-1540,-1960
0.337007,2.18938,0.220605,5.47085,3.7014,1.44937,6.86101,2.78452,1.38939,-0.619122,-0.985238,1.18877,0.0404983,1.90655,9.50542,4.94079,18.056,-880.84,-465.064,6440,-1260,-2380
6.76589,10.4469,3.8444,10.1817,6.36067,1.61441,5.01661,0.829258,11.3844,4.61792,2.36421,6.83367,1.5288,3.25391,7.27191,3.25239,17.568,-885.232,-462.136,6580,-1540,-2520
8.07719,12.0558,4.8156,10.2847,6.58206,1.5235,3.08708,0.547446,13.9469,6.156,4.07757,8.6882,2.17832,3.49214,5.30821,2.11843,17.568,-881.816,-463.6,6440,-1680,-2800
-0.201913,-2.28445,-0.459984,-3.64943,-2.12063,-0.69953,-2.79223,-0.436936,-0.620471,0.271504,1.18868,-1.67977,-0.132716,-1.59665,-4.01293,-1.42988,19.52,-884.256,-462.136,6440,-1680,-2940
-1.98917,-5.04899,-2.03669,-6.01227,-3.66852,-0.998992,-2.37615,0.206551,-3.36731,-1.24803,-0.461853,-4.09803,-0.726531,-2.19862,-3.51188,-0.980261,18.056,-883.28,-464.576,6160,-1820,-2800
2.69614,6.38842,1.78164,7.07277,4.37405,0.384355,4.96989,1.04875,4.63435,1.63372,0.158648,3.28342,0.910534,2.14558,8.44659,3.07457,15.128,-883.28,-462.624,5600,-2100,-3080
3.20653,8.18702,2.51743,9.40253,6.09481,1.1742,6.45799,0.60694,4.60594,1.27671,-0.304026,4.72609,0.906014,3.32142,10.2737,3.78982,19.52,-883.28,-460.184,5180,-2100,-3080
-0.0807955,-0.177166,-0.377208,-0.712728,-1.01623,-0.753582,-2.064,-2.55871,-2.08974,-0.428339,0.38103,-0.50189,-0.423948,-1.42402,-2.49785,-2.88506,20.008,-881.816,-461.16,4620,-2100,-3080
-6.16606,-5.61139,-2.34808,-4.69522,-3.32391,-1.33511,-3.9471,-2.6061,-10.8539,-4.7463,-2.2829,-3.74963,-1.23966,-2.63265,-6.22774,-3.81977,18.056,-881.328,-462.624,4340,-1960,-3080
-2.34174,-0.205318,1.20988,2.11954,2.32289,0.882299,2.86201,1.26266,-5.10688,-1.29935,-0.500034,1.40541,0.881653,1.72843,2.3411,1.50573,19.032,-879.864,-465.064,3920,-1680,-3080
-4.40276,-5.18809,-0.192269,-4.44147,-1.8736,0.695851,-1.77971,1.7118,-7.41601,-2.38489,-1.09304,-2.19071,0.335386,0.131303,-5.41302,-0.0837887,17.568,-878.888,-464.576,3920,-1820,-3080
-8.9001,-15.7313,-5.23093,-21.5529,-13.5541,-2.43076,-16.5677,-2.68844,-12.6904,-5.72646,-2.14902,-9.7806,-1.6882,-6.51655,-26.5844,-9.38245,18.056,-882.792,-467.016,3500,-1680,-3080
-3.71986,-10.1786,-2.33168,-15.8677,-8.98612,-1.71004,-13.644,-3.40884,-7.09168,-1.90214,0.117132,-5.49065,-0.352725,-4.00387,-23.2969,-8.25615,17.568,-883.28,-467.992,3920,-1400,-2940
0.0331915,0.241051,1.38877,0.281816,1.68345,1.32097,-0.530225,0.0505522,-1.23012,0.126386,-0.239897,0.953216,0.983362,1.43098,-4.38286,-0.206786,18.056,-883.768,-468.48,3780,-1120,-2940
2.31382,2.90688,1.5687,2.9611,2.47633,1.05813,3.02739,1.24433,3.2061,2.05891,1.17429,2.36462,1.24765,1.7633,2.13049,1.36432,14.152,-880.84,-472.384,4340,-1260,-2660
3.41318,3.31042,1.23502,3.2881,2.63844,1.29312,4.04953,1.82769,4.76133,3.0474,1.79551,2.29219,0.995314,1.80617,5.66798,2.897,18.056,-884.744,-469.944,5180,-840,-2660
5.45441,4.5529,1.44747,3.78546,2.18135,0.690118,3.19454,1.11837,8.02611,4.15884,2.2037,2.87346,0.694152,1.22837,6.47795,2.43084,17.568,-885.72,-468.48,5880,-700,-2660
0.411219,-1.5106,-1.96299,-1.48338,-2.52226,-1.62998,-1.80666,-1.02864,1.19015,0.417809,0.315824,-2.42052,-1.20043,-1.86074,0.668254,-1.35998,17.568,-885.72,-467.992,6160,-560,-2380
-3.78639,-4.69556,-3.91631,-1.5208,-3.10671,-2.51544,-1.64282,-1.14099,-3.80634,-2.61494,-1.83134,-4.83532,-2.3909,-3.39017,2.75598,-1.71138,17.568,-889.136,-462.624,6300,-420,-2520
-0.61913,0.816721,-1.50369,3.14301,0.385318,-1.27758,1.21112,-0.0236646,1.44652,-0.501546,-1.35188,-0.665177,-1.28471,-0.99445,5.66258,0.803395,16.592,-890.112,-458.72,6440,-140,-2520
0.997718,2.23724,-0.288027,2.17938,0.500307,-0.81616,0.119686,-1.00135,2.06686,0.930656,0.350164,0.554267,-0.349723,-0.473266,2.77463,-0.641013,17.568,-893.04,-456.768,6580,-140,-2380
4.50874,5.23702,2.18369,5.20902,2.96535,0.133094,3.77151,-0.766505,5.02793,3.42021,2.11233,3.74604,0.538833,1.25213,6.86188,1.28698,16.592,-894.016,-457.744,6860,-140,-2240
7.38037,7.12495,3.11577,4.37997,2.90188,0.504409,2.60208,-0.558578,9.62697,5.26767,3.25753,5.2217,1.53641,1.64926,4.42829,1.49858,18.544,-896.944,-458.72,6860,0,-2240
5.44431,5.67606,2.81006,4.58244,3.53929,1.16826,4.74623,1.37502,7.66166,3.28754,1.67647,4.77888,1.34357,2.62246,5.01113,3.0642,18.544,-895.48,-462.624,7140,140,-2100
9.344,8.54352,5.10638,5.9082,4.56727,2.17524,4.04255,1.7663,12.9532,7.10046,3.96204,6.98874,2.41326,4.20514,4.07943,3.47857,21.96,-897.432,-465.064,7840,140,-1820
6.3966,5.91585,3.67388,4.23568,3.52146,1.88087,2.93205,1.67236,9.44608,4.63527,2.53325,4.89053,1.72252,3.05487,3.99351,2.87479,24.888,-896.456,-462.624,8540,-140,-1820
-3.10609,1.07299,1.0555,6.99336,5.40687,2.39152,8.33646,3.51213,-3.4352,-3.15058,-2.7774,1.46885,0.207458,3.44747,12.8261,6.19298,26.84,-894.992,-464.576,9380,0,-1820
-9.22431,-2.25713,-0.487805,6.48094,5.09391,2.43486,9.21531,3.91009,-12.2859,-7.06374,-5.23729,-1.36071,-0.743545,3.13624,12.6216,6.00916,25.864,-894.992,-463.6,10920,0,-1680
-14.6417,-6.09447,-2.80512,2.68711,2.44873,1.86772,6.69953,3.77915,-18.9106,-10.593,-7.3816,-4.56689,-2.41381,1.4907,7.79501,4.68063,25.376,-892.552,-463.6,11760,140,-1680
-7.67017,-2.70908,-0.960843,-1.91111,-0.755303,0.221907,-2.77135,-0.987378,-10.1049,-5.11245,-3.55928,-2.05945,-0.549808,-0.471472,-4.92336,-1.70901,25.864,-891.088,-465.064,13020,280,-1960
-2.2706,-4.41329,-1.5553,-7.54981,-5.31442,-2.22068,-9.03655,-4.52263,-4.57196,-1.46218,-0.310443,-3.22447,-0.221874,-3.29212,-13.0011,-6.5154,27.328,-885.232,-462.624,13860,140,-2380
2.53381,-1.5796,-1.64593,-3.66204,-3.64892,-1.86676,-5.53592,-2.82386,2.58512,0.89181,1.35838,-2.16371,-0.381028,-2.81631,-6.96027,-4.21943,27.816,-890.112,-463.6,14420,-280,-2520
2.75729,-0.747572,-1.72313,-2.74395,-2.85079,-1.41586,-3.54754,-1.23152,4.27375,0.833633,1.28691,-1.38017,-0.754674,-2.47258,-6.40161,-2.93206,27.816,-888.648,-463.6,14700,-840,-3080
-3.54942,-5.31069,-3.3972,-4.92187,-3.86391,-1.44323,-2.78516,0.202016,-3.18829,-3.29364,-1.74322,-4.29233,-2.0485,-2.72546,-5.38856,-1.9749,29.28,-888.648,-463.112,14700,-840,-3500
0.7024,-2.72454,-1.90019,-6.85196,-5.05851,-1.64501,-7.92583,-2.15262,1.39851,0.397962,0.537842,-2.6178,-0.968857,-3.39901,-12.6427,-5.17409,31.72,-889.624,-458.72,14700,-1540,-3920
3.68093,-3.20294,-1.214,-12.0847,-7.54373,-3.01955,-12.638,-4.66357,4.03307,3.26286,3.08806,-2.19444,0.193407,-4.31965,-18.5751,-8.14467,28.304,-891.576,-457.744,14560,-1960,-4200
1.96531,-2.6862,-0.161692,-7.11999,-4.1458,-1.94173,-5.6058,-2.91907,1.39986,2.15558,2.30736,-1.30018,0.575237,-2.11033,-7.857,-4.24104,31.72,-889.624,-456.768,14140,-1680,-4340
-4.36746,-10.1822,-4.01166,-10.2088,-6.75146,-2.17045,-3.60594,-1.6686,-6.24171,-1.76183,0.85681,-6.98983,-1.52293,-4.21261,-3.83514,-2.64843,29.768,-888.648,-455.304,13860,-1820,-3920
1.10498,-3.87833,-2.63385,-3.54584,-2.91203,-1.57536,0.942984,-0.508484,1.2901,0.805828,2.49142,-3.0599,-0.927913,-2.67866,2.81323,-0.302618,29.28,-886.696,-460.184,13860,-1540,-3780
6.43671,3.58105,1.56278,3.35929,2.01749,0.245344,2.69479,0.574925,6.68576,4.25851,3.06869,2.60452,1.0413,0.634276,4.75384,1.23537,33.672,-883.28,-465.064,13860,-840,-3220
7.12105,7.88272,2.49293,6.20914,4.08882,1.67689,4.3126,2.545,10.8329,3.69613,0.937508,4.74265,1.35692,2.48781,6.96555,3.91984,30.744,-881.328,-464.576,13580,-140,-2660
6.93191,7.49265,2.84261,7.78677,5.02408,2.65755,7.09138,3.63921,9.90052,3.67981,1.28491,5.32818,1.71571,3.48615,10.6888,5.83584,32.208,-880.84,-468.48,13720,280,-2240
2.2975,9.55422,4.84792,12.6636,8.92676,3.42164,9.02001,3.47309,2.6734,1.09046,-0.513811,7.85999,2.27918,6.13465,12.5793,6.91669,32.696,-877.912,-470.432,13860,560,-1680
-6.02458,5.95996,3.80742,8.92544,7.26418,2.78888,4.73429,2.69589,-8.49848,-4.16696,-3.61269,5.58692,1.29072,5.15074,4.11045,4.56032,30.744,-877.912,-473.36,13720,980,-1120
-10.9869,-9.06079,-2.42758,-4.56652,-1.97709,0.615676,-0.860927,1.72654,-16.0187,-6.52008,-3.32974,-5.57923,-0.912396,-0.760501,-2.66209,0.276621,28.304,-881.328,-472.384,13860,1960,-420
4.89931,6.15873,2.48759,10.2213,6.14555,2.11015,8.46514,2.48331,8.20398,2.71911,1.23708,3.94317,1.11503,3.75669,13.6046,5.01875,28.304,-879.864,-474.824,14420,2100,280
9.3439,9.9751,3.29782,10.4167,5.49466,0.818453,5.65438,-0.238674,14.6341,5.44629,2.97149,6.08453,1.10101,2.82217,10.9656,1.81009,25.864,-879.864,-475.312,14840,2380,840
3.94338,2.65419,-0.367243,2.66279,-0.409171,-1.06743,-0.152174,-1.63413,6.60452,2.22655,1.65347,0.254711,-0.642976,-0.603607,2.25141,-1.46165,25.864,-882.304,-470.432,15820,2800,1680
3.27037,5.30227,1.51792,0.304137,-0.945843,-1.34303,-5.73684,-3.65043,2.95855,3.1933,1.23895,3.26312,0.54363,-0.802342,-8.26019,-4.94516,22.936,-887.184,-472.872,16800,2800,2520
-16.2425,-4.62812,0.769698,-6.27337,-2.02015,0.265265,-11.2314,-3.3815,-25.8677,-8.02341,-6.02596,-1.24135,0.647554,-0.637634,-20.4303,-6.48314,21.472,-889.624,-471.408,17640,2800,3360
-34.8255,-28.9657,-7.49993,-23.6402,-11.102,-0.188238,-14.4108,0.614291,-49.6578,-20.4743,-12.9464,-16.8183,-3.58314,-4.08105,-26.8897,-5.3712,22.448,-892.064,-468.968,18340,2940,4340
-19.835,-23.98,-7.29257,-20.8631,-10.8672,-1.45392,-8.13102,0.643524,-27.1105,-11.0238,-6.87656,-14.8248,-3.71568,-4.40642,-14.3282,-3.19182,20.496,-897.92,-468.48,19180,3220,4760
6.47772,2.07793,0.875053,1.97416,1.77055,0.477548,5.594,1.77659,9.87596,4.76647,2.03574,1.29867,-0.449604,1.57178,9.30167,4.02409,19.52,-901.824,-469.944,19600,4060,5040
18.6929,11.968,2.47637,9.08207,4.83265,-0.155569,8.41901,1.12084,27.0551,11.1394,6.07935,6.96488,0.78387,1.67725,14.1876,4.32562,15.616,-906.216,-468.48,20160,4060,5180
13.4082,7.50021,0.802758,5.80113,1.63856,-1.13401,4.10664,-0.0280448,19.9792,7.343,4.88907,3.53662,0.539856,-0.509721,7.59146,1.29175,15.616,-913.536,-468.968,19880,3640,5180
8.977,4.26875,-0.590774,-0.346554,-1.88714,-1.54617,-1.18552,-1.17379,14.4639,4.52148,2.31822,1.42517,-0.224894,-2.05575,-1.16977,-1.56475,15.128,-914.024,-475.312,18620,2940,4900
5.30289,3.07714,1.18628,1.87875,0.799497,-0.234801,0.504216,-1.85965,6.45255,3.17611,2.64317,2.62628,1.18052,-0.146354,1.51226,-0.725987,15.616,-915.488,-470.432,16240,2380,4480
2.91078,3.73419,1.32971,7.55767,5.04951,1.43721,6.42353,0.429491,3.33705,1.46525,1.06884,2.89364,1.00586,2.08973,10.7294,3.42582,12.688,-915.976,-468.48,14980,2240,3780
8.56195,10.4002,2.7258,10.3841,5.5685,0.472806,5.30934,-0.725285,12.8856,4.98434,2.74752,6.0708,1.23013,1.54307,11.0825,2.115,16.104,-916.464,-467.992,14840,1540,3220
4.36763,2.84835,0.00957525,2.11704,-0.619089,-1.2093,-0.702735,-1.93699,6.2173,2.4346,2.49666,0.415326,0.0600705,-1.80183,2.04354,-1.89003,17.08,-902.8,-459.696,14000,420,3080
-6.84738,-9.06261,-4.34777,-7.34092,-5.61905,-1.47573,-3.24014,-0.495616,-9.60458,-4.5889,-1.6809,-7.38841,-1.46184,-3.44074,-4.88035,-2.09712,8.784,-897.92,-451.4,16100,0,2520
-6.99112,-7.9049,-2.86054,-9.57949,-6.22726,-2.04883,-8.23395,-2.76933,-9.72465,-3.70073,-0.417897,-5.34337,-0.709722,-3.37644,-11.7805,-5.51288,9.272,-901.824,-451.4,23660,-140,2660
-1.70512,1.37072,1.41733,-1.07537,0.176835,0.0802651,-3.05147,-0.189212,-2.00896,-0.71034,-1.18148,1.79099,0.37143,1.29271,-6.07225,-1.17874,13.664,-901.824,-445.056,26320,0,2800
1.94013,6.4444,3.01679,2.09069,2.93184,1.19326,0.293649,1.64375,2.64271,1.14328,-0.537852,4.88379,1.09222,3.08959,-2.31938,0.920119,15.616,-899.384,-447.984,26460,-420,2380
-2.67023,0.794766,0.532309,2.07095,2.50579,0.937053,5.21659,2.6437,-3.41865,-1.89202,-0.990167,0.520304,-0.260138,1.75141,5.15977,3.76314,14.64,-889.624,-448.472,26740,560,1680
-11.0674,-6.82178,-1.85469,3.63459,3.09165,1.76227,10.8229,5.56023,-14.0551,-7.91753,-4.35518,-4.5833,-2.24049,2.02604,14.6383,7.908,17.568,-893.528,-453.84,26040,980,1260
-2.99811,-2.81569,-0.652186,2.34549,1.52489,0.880706,5.62465,2.47691,-2.83792,-2.90411,-1.59501,-2.20742,-0.987759,1.15818,9.83396,4.16738,20.008,-894.992,-454.816,23660,1120,840
2.14976,0.271778,0.978454,2.24946,0.980282,0.183271,2.89267,0.0778174,1.99434,0.917742,1.34225,0.419776,0.332917,0.321241,6.03355,1.32079,19.032,-889.624,-459.696,20580,140,420
1.83064,4.49196,2.56515,8.04772,4.57234,0.918132,4.2412,-0.599675,0.991884,0.952289,1.08885,3.64611,1.42894,2.05156,8.11194,1.26681,20.496,-887.184,-455.304,18480,-840,420
-0.19922,0.123602,0.792364,1.33145,0.233636,-0.16343,-2.67307,-2.51501,-3.32131,-0.334602,1.14849,0.840803,0.91494,-0.496244,-3.21451,-3.12925,19.032,-888.16,-457.256,16520,-280,0
-0.103575,-6.85162,-3.23231,-13.1179,-8.90411,-2.1035,-13.7517,-3.89445,-2.062,0.276861,1.53399,-4.75952,-0.639816,-5.37608,-21.19,-8.39734,20.008,-886.208,-453.352,14700,-840,0
9.74421,0.511794,-0.786693,-11.2593,-7.77147,-1.7572,-14.61,-3.67079,13.8025,6.04981,3.38756,-0.32525,0.261467,-4.25227,-23.5484,-8.15979,23.912,-887.184,-453.352,13440,-1540,0
14.7865,7.4605,2.6362,-7.76635,-4.7886,-1.02494,-14.5987,-4.4668,19.8441,9.65006,5.7835,5.08055,1.96603,-2.1904,-23.0592,-8.85079,24.888,-887.184,-452.376,12460,-1400,-140
4.87353,-0.747067,-0.652553,-8.30719,-5.01815,-1.05142,-8.16381,-1.28057,6.71114,3.20299,2.18385,-0.461106,0.293512,-2.50062,-12.4315,-4.29901,26.84,-888.648,-452.864,11480,-2660,140
-0.375395,-2.69701,-3.26451,0.767074,-0.870431,-0.604788,5.58265,2.69056,-0.123382,-1.2754,-0.843846,-2.84023,-1.71754,-1.33512,10.8645,3.12346,30.256,-886.208,-455.304,11060,-2940,560
3.76097,9.79984,2.27872,15.3258,9.43359,2.26162,14.2789,4.55606,6.65614,1.84961,-0.836427,6.43687,0.58636,5.10065,23.0547,8.97286,28.304,-882.792,-452.376,11340,-1820,420
3.4554,8.50495,3.7386,9.18348,7.57307,2.6844,6.43742,3.3014,5.21944,2.49776,-0.606678,6.855,1.76953,5.04701,8.54029,5.22671,29.28,-883.28,-451.888,11480,-2520,980
3.67269,1.02759,0.692375,-2.65411,-1.18215,-0.0193972,-2.99805,0.230115,6.03296,3.09337,1.26711,0.973908,0.68668,-0.266976,-4.25775,-0.753504,32.696,-886.208,-450.912,12040,-2800,1680
0.122604,-1.06535,-0.546017,0.114523,-0.604016,0.00905066,1.53936,0.290571,2.05242,1.52117,0.5659,-1.06894,-0.281494,0.197292,3.55237,1.09871,35.136,-881.816,-451.4,11760,-1960,1820
-11.1675,9.42624,4.86848,20.518,14.8129,4.72806,15.5023,3.97249,-15.52,-5.54856,-6.09423,8.07957,1.83938,9.65486,20.5429,10.2467,35.624,-877.424,-451.888,11480,-1820,1820
-38.9304,-13.1181,-1.84901,7.94839,9.08148,4.32919,11.9753,5.50871,-54.6176,-23.9351,-16.889,-5.8729,-1.74704,6.68301,11.1439,9.09824,28.304,-880.84,-454.328,12740,-420,1680
-31.4326,-29.5132,-10.2461,-21.2942,-12.5211,-2.21483,-8.99155,-1.11151,-43.8461,-19.6456,-11.112,-19.647,-4.63438,-5.85464,-16.0799,-4.76458,37.088,-873.52,-455.304,10360,-980,2660
-0.229048,-11.0531,-4.98899,-15.8764,-11.8764,-4.45019,-10.0433,-4.43216,-0.629349,0.0816932,2.90131,-9.18095,-1.93862,-7.29491,-12.1517,-7.91474,37.576,-875.96,-449.936,8960,-1120,3080
10.9125,4.94089,2.42801,5.4852,3.16773,-0.142078,6.36323,0.736996,13.943,7.97613,6.01716,2.37209,1.1441,0.735222,11.0582,2.70147,35.136,-878.888,-444.08,11200,-280,2520
21.0852,14.4784,5.78626,7.7505,4.77466,0.802341,4.03775,0.895625,29.9602,12.8689,7.21907,9.1117,2.84302,2.07458,5.11028,1.91604,34.16,-879.376,-441.64,15680,-1260,2940
16.2694,11.0747,4.09167,0.505388,-0.534322,-0.652883,-4.60919,-2.13374,23.4718,9.10435,4.09363,7.14203,1.60836,-0.450726,-6.81344,-2.9482,34.648,-884.744,-441.64,17640,-140,3220
-3.73649,2.93799,1.49369,2.38853,0.844697,-0.127367,-2.38223,-1.28928,-5.71981,-3.49666,-3.75246,2.4007,-0.48427,0.541598,-3.84007,-1.06632,32.696,-885.232,-440.664,17780,420,4060
-19.2159,-18.2639,-8.09918,-11.4189,-8.44006,-3.08966,-6.19933,-1.43389,-26.6328,-13.271,-6.41538,-12.7785,-4.38896,-5.72203,-8.9546,-4.21374,32.696,-884.256,-445.544,16660,1260,4480
-6.34827,-16.0337,-7.4903,-13.4426,-10.4457,-3.97558,-6.95718,-2.87324,-8.87979,-4.10677,0.639718,-11.9879,-3.64916,-7.87455,-7.86092,-5.36365,29.28,-883.768,-447.496,15260,1680,4480
12.012,6.05908,1.46108,2.25293,0.340923,-0.510341,-0.0352996,-2.46933,16.5353,8.21552,5.70472,3.32149,1.10815,-0.986034,3.09959,-1.48461,30.256,-887.672,-447.496,14140,1400,4760
10.1794,8.46522,2.34691,7.35433,4.25137,0.473998,4.61768,-0.340008,14.6765,6.21699,3.57357,4.7923,1.12098,1.95678,8.37481,1.7405,25.376,-890.112,-450.424,14000,1400,5180
5.71059,0.0740939,-0.3344,-3.8961,-2.85347,-1.75821,-3.82207,-3.42473,7.68601,3.9377,3.68418,-0.219452,0.345624,-1.82557,-5.05712,-3.98511,19.52,-894.016,-452.864,12040,420,6160
7.29045,6.04657,3.0047,-0.524977,-0.358917,-0.543728,-5.48882,-4.38723,10.4214,5.96486,4.5619,4.7993,2.17732,-0.0800936,-8.09453,-4.5551,20.984,-892.552,-451.888,10080,-420,6720
6.4615,8.10222,3.91961,5.22095,3.58242,0.999421,0.212871,-1.14919,9.94031,4.88586,3.77414,6.15318,2.20516,2.27715,0.499855,0.266419,18.544,-885.232,-450.912,8260,-1260,7000
3.26419,0.931301,-0.118772,-0.742276,-0.551781,0.249801,0.789243,1.40763,5.20374,1.55383,2.11842,0.469904,0.483885,0.433818,1.37627,1.61062,14.152,-887.184,-447.496,9240,-700,7000
2.11612,3.31173,0.902068,4.03449,2.82558,1.20563,5.27049,2.87096,2.37672,0.434994,0.683472,2.01644,0.550464,1.55606,8.64938,3.59166,14.152,-889.624,-447.496,10360,-700,7140
-1.7699,1.01074,1.70449,5.62377,4.84609,2.88391,7.37748,4.39101,-5.17381,-0.67292,-1.39721,1.68189,0.674675,3.35565,11.1123,5.86448,13.664,-881.816,-439.688,9940,-1120,7000
-2.11172,1.74628,1.27019,8.75513,6.72291,3.78975,11.5785,7.43324,-3.61093,-2.39536,-2.7835,1.92856,-0.0995111,4.93754,15.7733,9.50822,14.152,-883.768,-438.712,9940,-980,6440
8.84925,15.1796,6.01783,15.6661,11.1012,3.85595,10.4101,4.61961,12.3523,5.28282,1.18147,11.1207,2.63884,6.82574,14.4139,7.54422,12.688,-875.472,-440.176,9800,0,5600
0.0705011,6.50195,3.91997,5.09395,4.62313,2.29097,0.124138,1.81061,0.590386,0.331088,-1.76193,5.74689,1.72989,3.469,-3.08293,1.18633,8.784,-874.008,-434.808,10780,980,4620
-11.2103,-13.7935,-5.71395,-17.3156,-10.6269,-2.17116,-13.5118,-1.52455,-14.9578,-7.70347,-4.50408,-9.39647,-2.12943,-5.46314,-21.9526,-7.33365,8.784,-874.984,-430.416,11340,1120,3920
-3.80776,-11.7383,-5.85752,-18.5414,-12.2097,-3.49403,-13.3596,-3.2196,-5.1074,-3.03624,-0.855906,-9.11729,-2.81641,-7.36933,-19.8551,-8.63156,7.808,-880.84,-427.976,11200,140,3360
3.8477,2.35242,0.542849,0.314341,0.948025,-0.336608,-0.337393,-0.447078,4.8573,1.96715,-0.00417744,1.0668,-0.203013,-0.0507248,0.759894,-0.484254,8.784,-878.4,-431.392,10080,-420,2660
2.47952,4.75921,1.32408,4.92303,3.2045,-0.509819,0.437945,-1.76651,2.32374,1.39469,-0.677486,2.8707,0.235149,1.14608,2.49355,-0.238342,9.76,-874.984,-431.392,8960,-560,2100
-4.08397,-5.85561,-3.09235,-5.05944,-4.57703,-2.04802,-3.3184,-2.0915,-5.68072,-3.05816,-0.629275,-4.82129,-1.16171,-2.92447,-4.03517,-2.76737,7.808,-875.472,-433.344,7840,-700,1260
-3.04252,-1.03598,-1.72514,2.71101,0.242456,-0.706698,2.11297,-0.207472,-3.08822,-2.40296,-1.4279,-1.51221,-0.807512,-0.244188,5.33783,0.710943,9.76,-877.424,-433.832,7280,-700,700
-14.0309,-1.04405,-0.12622,9.20079,6.23815,1.70093,7.00914,1.87007,-17.8533,-8.22737,-6.50779,0.00622359,-0.490402,3.8917,9.57188,4.50931,13.664,-878.888,-439.2,6440,-1400,420
-20.6891,-15.9049,-5.15792,-9.58511,-5.44718,-0.343293,-5.09604,-0.276326,-27.8623,-11.8458,-6.98528,-9.99482,-2.08127,-2.2452,-9.91335,-2.46863,14.152,-876.448,-436.76,5320,-1820,140
-0.168932,-6.45715,-2.65243,-8.77502,-6.64475,-2.41264,-5.64974,-3.22934,0.485872,0.498989,2.15465,-4.88237,-1.17408,-4.7417,-8.02529,-4.81327,16.592,-875.472,-441.152,4200,-1820,-140
11.671,8.12956,2.94051,6.56842,3.39625,0.0814952,5.82679,0.182223,16.1934,7.50048,5.3857,4.87519,1.00409,1.24304,8.67529,2.49574,17.568,-876.936,-442.616,2660,-1960,-140
7.96634,5.16386,1.79262,5.65432,2.5842,0.220579,5.71589,0.89531,10.8051,5.27263,3.80343,2.99123,0.777482,1.29936,8.86292,2.78984,19.52,-877.424,-444.08,1400,-2100,-140
14.0862,10.6792,4.75223,5.75942,2.95315,0.251463,1.88316,-1.02967,18.9419,9.33263,6.75054,7.2951,2.52351,1.3682,3.27109,0.33282,21.472,-878.4,-442.616,560,-2240,-140
14.471,13.0026,6.11536,5.51586,3.9451,1.36238,-0.209954,-0.884209,19.501,9.18963,4.96124,9.17685,3.19899,2.82667,-0.587723,0.052331,25.376,-880.352,-442.616,-140,-2800,280
-0.402317,0.691949,1.60943,-0.378362,1.10962,1.61,-1.07758,0.234226,-2.17503,-0.0973279,-0.797268,1.40633,1.33876,1.79618,-3.71886,0.0401972,27.328,-879.864,-444.08,-980,-2800,420
-14.7723,-13.9131,-4.04486,-7.45843,-3.45337,0.823187,-0.89398,2.57908,-21.7084,-8.5133,-4.53404,-8.13552,-1.75118,-0.847679,-4.25248,0.726961,28.304,-884.744,-442.128,-1680,-3220,700
-11.1777,-10.8984,-3.74792,-6.17868,-2.8158,0.329072,0.45771,2.31241,-16.1814,-6.81606,-3.56229,-6.70531,-1.72671,-0.894905,0.104855,1.33598,33.184,-889.136,-441.64,-1960,-3080,840
-3.5545,4.33568,2.2255,6.37891,5.56762,2.36557,4.7958,2.78653,-5.63027,-2.79381,-2.43317,3.41792,0.763494,4.08349,5.2806,4.20333,35.136,-887.672,-438.224,-2100,-2940,980
-6.72909,-6.84035,-2.80861,-5.25923,-3.22958,-0.444125,-2.37029,0.620428,-9.52101,-4.58759,-2.07727,-4.57841,-1.19103,-1.86602,-4.29028,-0.234407,32.696,-889.624,-440.664,-2240,-2940,1400
-4.36896,-11.5505,-6.27277,-10.3805,-8.13314,-3.23742,-5.54304,-2.29885,-5.52321,-3.57277,-1.12201,-8.89354,-3.259,-6.16606,-5.425,-4.21154,32.696,-890.6,-441.64,-2520,-3080,1680
6.01057,0.574174,-1.46781,-1.96945,-2.99019,-2.39213,-2.24398,-2.60454,10.7321,3.43561,1.41467,-0.430705,-1.18047,-3.19598,-1.1013,-3.04129,32.208,-889.136,-440.176,-3080,-2800,2240
7.51584,-0.0406226,-1.09655,-6.42537,-5.46936,-3.49236,-6.03591,-3.93175,11.8321,4.49247,2.22653,-0.941051,-0.89488,-4.26847,-7.10751,-5.29004,34.16,-888.16,-441.64,-3640,-2660,2660
9.60684,5.75668,0.306649,-0.71481,-2.20402,-3.05339,-3.58774,-3.69647,14.6092,5.38873,4.22,2.22879,0.145983,-2.61051,-2.09172,-4.80261,35.136,-893.04,-441.64,-4340,-2660,2940
9.19035,7.57168,1.87949,2.10569,0.359181,-0.84353,-2.46656,-2.00116,13.5698,5.15897,2.55988,4.3898,0.527765,-0.398132,-1.32196,-2.9153,32.696,-891.576,-442.616,-4480,-2660,3360
6.00474,8.39723,3.95787,4.67102,3.19895,0.799043,-1.79897,-1.03267,7.64876,4.34095,0.799645,6.09226,1.31497,2.20981,-2.62173,-0.681453,34.16,-892.064,-447.008,-4760,-2520,3640
3.9895,2.95231,1.37588,-1.64002,-1.00292,-0.221385,-4.97803,-1.8098,4.90172,3.42119,1.54737,2.47598,0.769768,-0.0550557,-7.1041,-2.43943,34.16,-891.088,-447.008,-4900,-2240,4060
1.63073,2.16838,0.441407,1.32459,1.10006,0.572637,1.5034,0.926101,2.00947,1.00965,-0.469835,1.18423,0.714054,1.00234,3.36781,1.42943,30.744,-895.48,-449.936,-4620,-2100,4200
-2.24828,6.54989,3.89363,11.1464,9.07504,3.69678,9.82162,3.31849,-4.68623,-1.3367,-2.78065,5.44702,2.08041,6.09385,13.0373,7.10199,30.256,-892.552,-455.792,-4200,-1680,4620
-15.9959,-2.78486,1.68452,9.27365,9.17078,4.92373,11.6771,5.66508,-24.2086,-9.96625,-8.08791,0.259683,0.409948,7.02595,12.3998,9.41891,28.792,-891.576,-455.792,-3640,-1120,4760
-17.6897,-7.22201,-0.647607,6.40636,6.50117,4.04823,10.324,5.74695,-25.7198,-10.9409,-7.66283,-3.2529,-0.192659,5.01705,11.5604,7.92194,25.376,-888.16,-457.256,-3220,-1120,4900
-10.4802,-3.66684,-0.0179646,6.20406,4.79436,2.73588,9.26776,4.1837,-12.6354,-4.25326,-1.00876,-1.47772,0.334524,3.24069,12.8028,6.8726,25.864,-890.112,-456.768,-2800,-700,5180
1.73368,0.60992,0.0758951,2.21783,-0.195438,-0.479167,2.57088,0.115471,4.91327,3.78981,7.52151,-0.337165,0.935979,-1.1062,6.44619,1.6207,26.352,-892.064,-455.304,-2380,-280,5320
8.71635,2.55879,0.532971,-1.49135,-2.76171,-1.69265,-3.38029,-1.65959,13.8397,5.00653,5.9988,0.9392,0.795106,-2.80938,-1.76693,-2.80881,24.4,-896.456,-456.768,-1540,-140,5460
4.26108,1.39671,-0.615397,-2.4364,-2.5055,-1.50158,-4.05073,-1.09058,7.42346,-0.177601,0.814036,0.147137,0.264938,-2.03553,-5.19816,-2.64862,22.448,-898.408,-455.792,-1120,420,5740
5.45103,-0.319256,-1.55202,-5.76611,-3.73571,-1.55078,-6.02639,-1.38388,6.86386,0.654286,-0.436181,-0.959594,-0.867759,-2.31894,-9.66476,-3.8247,23.424,-900.36,-455.792,-280,980,5880
7.30743,1.72172,-0.117297,-2.75769,-1.50343,-0.125606,-3.44887,-0.493399,8.61995,3.15299,-0.0206555,0.935958,-0.342031,-0.577404,-7.08592,-2.01014,23.912,-899.384,-455.792,840,1680,6020
7.84736,2.69483,-0.688288,-1.28049,-2.07566,-1.51211,-2.4469,-2.67855,9.57,4.03566,1.55238,1.01858,-0.411566,-1.90224,-3.3102,-2.81996,20.984,-902.8,-454.328,1680,1680,6160
6.92684,4.83068,0.349316,1.23935,-0.440688,-1.61803,-1.00644,-2.5028,9.52952,4.41458,2.65413,2.39076,-0.401829,-1.5298,0.13835,-2.32996,24.4,-901.336,-453.84,2660,2240,6440
-0.902532,-6.26851,-3.46178,-9.99063,-7.90181,-3.24643,-8.66507,-4.12338,-2.29519,0.670673,2.70978,-5.27935,-1.66994,-5.4192,-10.4107,-7.38264,19.032,-899.872,-459.208,3360,2520,6720
-3.05549,-2.02949,0.0870042,-2.3533,-1.25264,-0.380875,-2.27994,-0.5019,-5.78151,-0.811725,0.0511363,-0.951048,0.0703616,0.0476478,-3.26948,-1.46111,18.544,-896.944,-457.256,4200,2660,6580
-8.09542,-0.769307,1.45112,1.91363,3.22615,2.08278,2.08525,2.91559,-12.2086,-4.89831,-3.28198,0.510302,0.316873,3.65739,-0.570486,3.36467,17.568,-894.992,-455.792,4760,2520,6720
-10.21,-12.103,-3.99895,-14.436,-8.50844,-1.64016,-10.679,-0.924042,-14.7388,-5.52578,-2.88495,-8.01424,-1.95924,-3.91772,-17.9631,-5.51908,12.688,-890.112,-459.696,4900,2240,6580
-6.63559,-9.17998,-2.59967,-13.7948,-8.07286,-1.82583,-12.8704,-2.58619,-10.0233,-3.35143,-2.33946,-5.66005,-1.14021,-3.71892,-20.3218,-7.21818,12.688,-888.16,-459.208,4620,1820,6580
-3.02685,0.214263,1.43849,1.94759,1.96905,1.14456,1.72202,0.927766,-4.40488,-1.69428,-3.1758,1.03232,0.422133,2.01561,2.14539,1.20374,12.688,-888.16,-461.16,4200,1120,6580
2.44461,7.84661,4.11331,14.9373,9.94779,3.37406,14.6763,4.54879,4.48784,1.83559,-1.64849,5.95433,1.76118,5.97177,21.7092,9.50456,10.736,-888.648,-463.6,3640,280,6580
-1.05754,-0.40694,-0.297631,5.57262,3.78937,2.49527,11.4312,5.32929,0.553993,-0.830963,-1.7916,-0.656965,0.00272996,2.47038,16.1568,8.15092,8.296,-888.16,-460.184,3500,-280,6440
-1.45296,-2.75507,-1.82282,0.812541,0.719776,1.78807,7.59323,5.43332,-0.0122175,-2.11774,-1.61747,-2.61299,-0.995594,0.792986,10.0676,6.47289,6.344,-887.184,-460.184,3360,-420,6300
5.17468,1.81861,-0.62483,0.633398,0.266236,0.0032594,2.64492,1.84621,8.48153,2.29223,1.72565,0.419554,-0.823732,-1.18007,4.56194,1.92407,6.832,-888.648,-458.72,3220,-1120,6020
4.59444,-1.27053,-1.44015,-4.83732,-4.36135,-2.37397,-5.57372,-4.21367,6.38388,3.34334,3.53018,-1.17905,-0.26349,-4.17042,-5.60583,-5.25305,8.296,-891.576,-455.792,2660,-1260,5880
3.63162,1.72234,0.344672,-0.0293302,-1.17441,-1.76003,-3.90871,-5.38669,4.23962,2.6085,2.66361,1.05199,0.410366,-2.11124,-4.03404,-5.21047,7.32,-890.112,-453.352,2380,-1400,5600
5.70036,9.51798,4.24687,11.5481,7.02266,1.25142,5.77891,-1.29329,7.19499,3.68807,2.72819,6.86029,1.62588,3.27126,8.50772,2.07893,7.32,-891.088,-453.352,2100,-1540,5600
5.53949,10.1755,4.60396,14.2052,8.60202,1.08999,7.5771,-1.90661,7.13542,3.67938,3.94976,7.82052,2.21701,4.55729,12.2217,2.87729,6.344,-889.624,-452.864,1680,-1400,5600
13.0814,13.9967,5.80645,12.1768,7.62706,0.203052,4.87365,-2.57822,17.9016,8.53267,7.24384,10.1735,3.33029,3.84039,8.90715,0.942584,5.856,-889.136,-455.304,1960,-1260,5320
9.95348,10.6576,4.14609,8.05529,5.32874,0.919918,3.76928,0.552532,14.3367,6.31917,3.60824,7.20832,2.00679,3.42599,6.09867,2.32123,7.808,-890.112,-453.84,1820,-840,5180
0.829275,5.46531,1.4681,5.35177,3.69377,2.00994,3.12748,2.99579,2.59592,-0.17806,-2.1418,3.31128,0.305091,3.11997,4.37219,3.66082,5.856,-887.672,-451.4,1540,-700,5180
-9.63313,-7.13488,-2.25129,-5.20845,-2.63207,0.406149,-3.01161,0.919405,-13.2103,-5.78827,-4.7217,-3.80917,-1.03851,-0.0503244,-5.26632,0.110193,4.88,-885.232,-457.256,1540,-700,5180
-12.3803,-15.4819,-5.96654,-17.3706,-11.1526,-3.11908,-12.8356,-2.94665,-17.5775,-7.16012,-4.16016,-10.1479,-2.55776,-6.0257,-18.5521,-7.61715,3.416,-888.16,-457.744,1400,-840,5040
-8.35364,-9.93168,-3.36424,-13.9683,-8.37225,-2.15758,-12.2771,-2.59718,-13.6868,-4.39666,-2.18177,-6.59244,-1.15207,-4.62262,-17.9774,-6.57003,12.2,-885.232,-454.816,980,-1260,4900
-10.8537,-12.8813,-4.24205,-14.6292,-8.36047,-1.59618,-11.0603,-1.17106,-16.7555,-6.42787,-3.10945,-8.26366,-1.52671,-3.96709,-17.2108,-5.67603,6.344,-886.696,-454.816,1820,-980,4200
-8.39066,-8.59844,-3.53635,-9.2068,-5.52184,-1.11179,-4.89729,0.403059,-11.2175,-5.99915,-4.50998,-6.38099,-1.50264,-2.53463,-8.72117,-2.62714,4.392,-888.648,-455.792,1120,-1120,4340
-8.23157,-1.25982,-0.687655,3.89776,3.52578,1.33062,6.57834,3.00719,-10.9668,-5.90615,-5.49107,-1.33979,-0.775274,2.20917,8.09737,4.04846,1.952,-885.72,-455.792,840,-1960,4480
-4.36408,-4.17257,-2.10899,0.346014,0.264623,0.0702587,3.80513,1.58155,-6.24789,-3.63563,-2.38183,-3.11001,-1.05127,-0.14506,6.84772,2.16656,2.44,-886.208,-458.232,1680,-1680,4200
8.29894,2.37386,-0.287271,0.565985,-0.769318,-0.738445,1.65982,0.0127472,12.9917,5.27747,3.25399,0.729022,-0.2645,-1.75665,4.13278,0.468825,2.44,-888.16,-461.16,1960,-1400,4060
6.17487,0.239498,-2.12917,-2.38175,-2.86199,-1.13134,-0.140853,1.19627,11.7239,2.7947,0.755386,-1.63767,-1.77742,-2.76763,0.236329,0.240634,5.856,-887.672,-461.648,2380,-1400,3780
5.74734,2.9075,-0.0534886,-1.36865,-1.52073,-0.896724,-3.47671,-1.01721,8.38437,3.04787,1.42124,0.81503,-0.0127886,-1.60728,-4.52603,-1.80754,2.44,-886.696,-461.16,2100,-1260,3780
4.75571,3.39186,1.73897,-3.95556,-2.75273,-0.978682,-9.22269,-3.9257,5.38163,3.70132,2.95824,2.30561,1.15192,-1.73197,-14.1677,-6.29203,0.976,-885.232,-461.16,1820,-1540,3640
-3.98429,-3.03931,-0.0769365,-3.23861,-1.87674,0.167777,-4.19692,-0.839669,-6.67069,-2.49086,-1.91525,-1.49121,-0.356201,-0.673413,-7.35279,-2.4659,3.416,-887.672,-463.6,1820,-1540,3360
-3.26365,1.08929,1.36963,6.26245,4.88249,2.74249,6.91744,3.2282,-4.85181,-2.76267,-2.31097,1.80382,-0.0843329,3.2026,8.69943,5.04363,0.488,-888.648,-462.136,1960,-1260,3360
-7.41792,-8.6849,-4.23768,-4.15966,-3.75015,-1.14088,1.70822,0.929901,-9.13802,-5.71727,-2.57821,-6.85152,-2.33452,-2.62208,3.41431,0.656681,2.44,-890.6,-460.672,2240,-840,3500
-6.11036,-6.57364,-4.46732,-3.45489,-4.21977,-1.87468,-0.0723487,-0.38378,-6.63872,-4.76084,-1.54133,-6.17843,-2.21547,-2.97022,1.49524,-1.35115,3.416,-890.112,-457.744,2380,-700,3640
2.13797,2.48671,0.255994,5.31655,2.03149,-0.672837,3.70768,-0.514039,2.82396,1.45287,2.33719,1.4205,0.361788,0.580057,6.56275,0.874108,2.928,-890.112,-460.184,2240,0,3640
11.2763,13.4871,5.99009,14.1365,8.84319,1.23063,8.19233,0.131598,14.596,8.00216,5.61129,9.24825,2.67898,4.34801,12.4042,4.20233,5.368,-894.016,-455.792,2100,0,3780
5.45093,13.1269,5.791,16.6883,10.5446,2.53387,10.4419,1.49521,7.89941,4.29642,1.91009,9.60964,2.14568,5.81515,16.1568,6.42935,4.88,-890.6,-456.28,1820,280,4060
-3.36615,2.89955,1.06808,11.2992,6.7767,1.1806,9.19078,2.54159,-4.02287,-1.53532,-0.787934,2.02347,0.0171528,3.73046,14.594,6.52048,7.32,-892.552,-451.4,1260,560,4200
3.01915,4.49679,1.4838,7.06817,4.54745,1.05228,5.17202,1.74219,4.61599,1.92985,1.90022,3.1403,0.415559,2.57187,6.96661,3.8139,2.928,-895.48,-448.96,980,840,4480
12.0438,8.50343,4.8322,0.0474329,0.717659,-0.144208,-7.70013,-4.21789,15.4571,8.89729,6.18771,6.87863,3.52589,0.679432,-12.2031,-5.80307,7.32,-896.456,-453.352,560,1260,4760
6.81584,0.425297,1.87428,-9.99586,-5.32593,-1.17603,-12.9579,-4.92224,7.50496,6.19238,4.29675,1.54554,2.64178,-2.05145,-20.5063,-8.57245,10.248,-894.016,-451.4,840,1120,4900
3.14743,-1.09677,0.706078,-6.50837,-3.08587,0.157265,-3.6908,-0.104027,2.16758,3.72804,2.26733,0.753174,1.5478,-0.694122,-6.32811,-1.59597,9.272,-892.552,-451.888,980,1260,5180
-0.593722,-3.62197,1.25493,-2.9127,1.14707,2.38273,5.61316,4.53873,-3.44831,1.05075,1.1184,-0.444379,1.23742,2.46438,5.49106,5.36348,10.736,-894.504,-454.328,980,1400,5180
3.22037,-0.567204,1.88004,-0.929154,1.65359,2.56244,5.26832,3.16482,2.16389,3.14638,3.0481,1.39318,1.87713,2.40409,5.46181,4.84769,9.76,-892.064,-455.792,840,1260,5040
11.7755,7.2783,4.76696,1.55464,2.74794,2.22591,2.58597,0.696788,13.6414,8.36365,6.06488,6.35868,3.27001,3.20958,2.03976,2.09753,10.248,-890.112,-453.352,980,980,4900
5.30759,9.67917,5.95824,12.6106,11.5991,5.5167,16.0457,7.40791,5.8842,2.61165,0.318361,8.1728,2.69515,8.55927,19.0249,11.7088,11.712,-890.6,-458.72,840,840,4760
6.25889,11.6695,5.51898,14.21,11.1401,4.67831,13.1255,6.50567,9.32039,2.73091,0.358827,8.41967,2.4123,7.59738,16.8893,9.9561,9.76,-891.576,-457.256,980,280,4480
7.79079,9.66001,3.53097,8.78197,5.77692,0.907624,5.14926,1.10465,11.8997,4.92621,2.24428,6.00638,1.67133,3.17739,9.03875,2.99253,11.224,-889.624,-458.232,1260,140,4200
3.72248,8.43111,3.52016,8.00983,5.16287,0.137922,0.0271666,-1.89005,4.89609,2.92159,1.33146,5.80307,1.52144,2.40422,1.81089,-0.535717,11.712,-890.112,-463.6,1680,-420,3640
-12.0896,-13.8368,-6.24496,-13.8983,-9.80003,-3.84374,-13.2652,-4.73049,-16.8586,-7.61806,-3.98293,-9.86839,-3.09747,-6.58137,-18.1766,-8.38092,11.712,-885.72,-464.088,1820,-980,3360
-22.0746,-26.8752,-13.583,-22.7236,-17.4826,-5.91933,-14.6931,-4.38164,-28.2457,-15.0219,-8.56038,-20.6936,-7.19542,-11.6198,-19.0511,-10.1072,8.784,-886.208,-462.624,2240,-1400,2800
-16.9465,-17.3571,-9.19205,-12.6153,-10.5057,-3.30128,-9.50243,-3.25175,-21.8262,-11.9744,-7.53061,-13.6302,-4.99526,-6.87661,-11.5052,-7.05034,8.296,-884.256,-463.112,2380,-1820,2520
-3.26584,-3.9993,-3.31191,-6.97348,-6.01834,-2.1601,-8.30325,-2.61683,-2.59819,-3.97074,-4.39955,-3.84585,-2.15035,-3.96474,-10.9252,-5.67615,11.224,-887.672,-464.576,2660,-2100,2240
-4.85661,-3.74336,-4.02103,-4.67011,-4.73421,-1.79213,-4.87597,-0.971252,-3.4043,-6.3329,-7.24871,-4.38144,-3.34215,-3.78155,-6.08151,-3.69004,8.784,-885.232,-463.112,3220,-2240,1820
-14.7541,-8.43774,-4.96815,-3.61346,-3.05728,-0.371791,-2.19419,1.16559,-17.9175,-12.3674,-12.5666,-6.07415,-4.29465,-2.13086,-4.05814,-1.23295,12.688,-888.16,-464.088,3500,-2380,1400
-20.4361,-14.3672,-5.67378,-10.3543,-6.94077,-1.44711,-8.88092,-1.15677,-27.7183,-14.5594,-13.2548,-8.82473,-4.0833,-3.54066,-13.6626,-5.20554,12.2,-888.16,-463.6,4200,-2240,1120
-20.0442,-17.3701,-8.78269,-13.8348,-9.90869,-3.27204,-10.0308,-1.61026,-25.2345,-14.2574,-11.9205,-12.7241,-5.74628,-6.44966,-13.82,-6.03245,12.688,-887.672,-461.16,4760,-2100,980
-13.3097,-11.1353,-7.4717,-7.93534,-7.25651,-3.81019,-4.26217,-1.78877,-13.2436,-8.65387,-4.19198,-10.3927,-4.87837,-6.20627,-3.76759,-4.27825,11.712,-887.672,-463.112,4900,-2100,980
-13.3186,-9.34297,-7.79347,-4.80155,-6.39507,-4.47352,-3.1277,-3.47781,-13.524,-8.90301,-1.17211,-10.4186,-4.65599,-6.85758,-0.139489,-4.88908,12.2,-886.696,-462.136,5320,-1960,840
-3.16549,-9.31617,-9.08723,-13.7377,-13.3819,-6.68568,-12.113,-7.00606,1.0703,-4.41233,1.26913,-10.9594,-4.94708,-11.1273,-12.2275,-10.7246,10.736,-886.696,-464.576,5600,-1960,700
9.46214,3.324,-3.44475,-3.28963,-6.40182,-4.39085,-7.60415,-6.27433,15.9708,2.36794,3.13206,-1.38707,-1.58419,-6.28597,-5.51442,-7.65831,11.224,-889.624,-464.576,5880,-1960,420
21.1781,15.1604,5.34892,9.48747,3.99792,-0.819427,0.181117,-3.83187,26.839,12.3466,7.49286,9.57995,3.29503,0.854953,5.32747,-2.14673,9.76,-887.672,-467.992,6160,-1820,280
25.4158,17.5618,9.80933,11.5205,7.59761,1.43017,4.85326,-1.68076,30.1598,19.6738,14.4623,13.6521,6.42175,4.43089,8.37189,2.37524,10.248,-887.672,-465.552,6720,-1820,280
22.271,14.1334,8.12011,5.38536,4.66662,1.41862,2.15216,-0.130094,27.7331,18.8826,14.5897,11.0682,5.47097,3.82641,0.347013,2.9045,9.272,-887.672,-465.064,7000,-1960,140
21.3364,11.2322,8.06702,1.89681,3.1798,1.86228,3.01469,1.08394,25.168,19.1856,16.1939,9.85246,6.31385,3.39671,0.68649,3.43401,12.688,-887.184,-463.112,7420,-2100,140
17.9361,16.2609,11.9452,15.6412,14.0393,6.03913,16.7163,5.41717,18.931,15.9235,12.7096,15.3411,7.92188,10.9927,20.332,12.2632,11.224,-887.184,-463.6,7700,-2240,140
11.1261,17.7154,13.6429,25.6746,21.8694,8.9755,23.3798,8.43648,8.33821,10.8365,7.60242,17.2951,8.25501,15.9765,29.7382,17.2191,9.272,-889.624,-461.648,8260,-2100,-140
13.1454,14.6439,11.6036,14.8443,13.9181,6.63789,10.4619,5.09428,11.0657,12.0553,8.49053,14.4068,7.77142,11.3442,10.9968,9.14888,11.224,-891.576,-460.184,8260,-1960,-420
12.1906,10.3238,9.13515,6.76073,8.29865,3.85959,4.53735,2.66165,10.5536,10.7546,8.40327,10.8383,6.36271,7.20701,2.90905,4.85031,10.248,-891.088,-459.696,9100,-1820,-420
-8.20181,5.02075,7.16668,18.0867,17.262,8.44456,22.331,11.5017,-16.1486,-4.14346,-2.71502,7.34389,3.89109,13.0601,24.9185,18.0148,11.712,-890.6,-462.136,9380,-1680,-420
-13.2823,-0.23835,3.44659,13.3919,13.2514,7.17108,19.5492,10.0316,-20.2756,-9.24378,-7.62609,2.69229,1.18931,10.7736,20.4426,15.5181,14.64,-892.552,-460.184,9800,-1540,-560
4.85425,3.81721,1.30255,3.22757,2.63239,1.12919,4.21431,1.5435,7.51841,1.56427,0.311414,2.6915,0.519274,2.10585,5.35093,2.44427,13.176,-891.088,-462.624,10500,-1400,-420
9.75259,5.88094,-0.798922,-0.00909418,-2.86137,-2.08788,-3.59865,-2.7617,17.9611,4.17147,1.90667,1.78844,-0.821971,-3.30473,-1.47143,-4.66061,13.176,-892.552,-463.112,10920,-1400,-420
-6.78331,-8.37377,-7.20403,-9.8498,-9.38391,-3.68949,-8.91355,-2.12862,-4.32057,-6.84182,-6.1546,-8.3297,-5.24864,-7.53541,-9.77531,-6.67267,11.712,-893.04,-459.696,11900,-1260,-140
-9.65788,-10.6978,-6.45949,-10.8009,-7.60239,-2.11053,-5.05966,1.57196,-7.99935,-8.12844,-7.82309,-8.59592,-4.59358,-4.77045,-6.32681,-2.12472,13.664,-893.528,-461.16,12460,-1680,0
-9.10454,6.01401,2.04029,9.41743,8.27045,3.68257,6.5421,4.32136,-7.99315,-7.65006,-10.5184,4.58635,-0.679082,5.37327,6.43874,5.78805,13.176,-894.992,-455.792,12740,-1680,420
-29.8496,0.862055,1.9514,17.0912,15.1413,6.82309,12.0838,6.96678,-40.2297,-21.5322,-21.1121,2.67373,-1.84107,10.2111,12.0945,9.87336,13.664,-898.896,-456.28,13160,-1820,560
-32.0808,-22.7665,-9.73729,-5.63141,-3.82922,-0.7683,-0.261202,1.50353,-44.1876,-21.8592,-14.916,-16.1353,-6.45058,-2.85174,-1.58443,-0.318525,15.128,-899.872,-451.888,13720,-1820,840
2.35467,-14.5778,-11.4241,-23.7865,-20.3362,-8.4993,-19.9691,-7.72102,7.44873,0.0642568,1.10846,-14.862,-6.03551,-14.4277,-23.6402,-15.2411,15.128,-903.288,-451.4,14840,-1680,1120
14.0458,-6.07451,-7.92914,-29.8407,-24.0929,-9.83252,-31.0002,-12.5983,24.4786,7.38424,5.07967,-9.06434,-3.45279,-16.5178,-39.1782,-22.3537,15.616,-906.216,-452.864,15960,-1960,1400
2.50819,-17.7764,-11.1225,-31.3235,-24.5795,-8.73186,-24.2979,-9.21857,6.52308,0.156854,2.19292,-15.5918,-4.907,-15.7806,-31.0506,-17.0917,14.152,-905.728,-453.84,17080,-2100,1260
-2.98117,-13.2531,-8.94882,-11.709,-11.8765,-4.92208,-3.64732,-1.91585,-1.68016,-3.47475,-0.399984,-11.9714,-4.51294,-8.67258,-0.357008,-4.18293,14.152,-902.312,-454.328,18480,-2660,1400
-7.01124,-5.1473,-5.42053,2.94855,-1.24023,-1.56698,5.73577,1.21519,-7.20016,-6.22289,-3.69331,-6.00495,-3.64955,-3.0711,12.8917,1.60968,16.592,-904.264,-458.232,19600,-3080,1400
0.615427,5.32514,2.53725,10.9343,7.51382,1.60458,9.28165,1.99564,0.663515,-0.151394,-1.74638,4.01907,0.922236,4.22437,14.7154,5.26143,20.008,-904.752,-457.256,20440,-3640,1400
12.8582,16.1957,9.53773,12.6486,10.4579,2.96556,5.69697,-0.395638,15.4589,9.23276,4.74712,13.0584,5.61276,7.16888,6.50551,3.15739,19.52,-904.264,-460.672,21280,-3920,1260
9.05755,16.5941,9.44692,3.12329,3.60569,0.72798,-13.6434,-6.83421,9.07241,8.36261,5.35706,13.7075,5.65117,3.07762,-24.1508,-8.68235,20.496,-898.408,-460.672,22540,-4340,980
-21.2795,-18.89,-3.95688,-28.5496,-17.3366,-4.09345,-39.0334,-12.6139,-35.5117,-9.75455,-2.77782,-9.71463,-0.821755,-8.79264,-62.401,-23.0504,17.568,-896.456,-463.112,24920,-4480,700
-29.3665,-44.5081,-15.4783,-47.6874,-31.5858,-8.8903,-37.364,-12.3598,-47.3806,-15.3274,-2.55423,-28.3046,-5.39574,-17.6414,-54.1953,-23.5725,15.128,-893.04,-463.6,26880,-4620,560
-18.6289,-23.0607,-8.44101,-5.10702,-3.7291,-2.01841,11.1907,1.50729,-30.0203,-10.6299,-2.08065,-15.0773,-2.93225,-3.12073,22.1096,5.61858,15.128,-894.016,-464.088,29400,-5320,700
2.8813,9.10119,3.10307,22.4444,14.2914,2.86426,24.9277,5.68164,3.94604,1.42226,1.84859,5.56816,1.43285,7.11769,40.6601,14.8092,14.64,-893.528,-467.504,30940,-6300,700
10.3817,4.83594,0.0926996,3.24766,-0.12463,-1.61125,4.16349,0.139122,15.4434,6.33934,5.61929,1.12026,0.402464,-1.47207,10.2736,1.75917,12.2,-904.264,-475.8,32060,-7420,840
13.6369,9.04541,2.32945,13.6804,8.3172,2.76161,19.7545,8.10867,21.8746,6.68609,4.2439,4.69391,0.805668,4.57716,31.0107,13.3428,8.784,-909.144,-484.584,29540,-8820,1400
37.2853,36.7041,11.354,31.1526,18.6944,5.1003,24.6408,9.03501,57.7555,21.2792,10.4619,22.7481,4.4794,10.5948,37.0313,16.1051,18.544,-909.144,-487.512,25340,-11480,1820
33.0926,31.4957,9.68934,25.06,14.816,3.75987,18.37,5.91538,49.5678,20.153,9.96813,19.4987,3.98558,7.80325,29.3861,11.0889,23.424,-894.016,-481.168,21280,-11200,840
30.2735,28.7151,11.2138,18.1726,12.0176,3.55343,9.60838,2.54464,42.2006,19.1121,9.31187,19.5311,4.83718,7.08614,13.5161,5.82833,14.152,-881.328,-470.92,20580,-9240,-700
31.015,28.376,12.7636,13.3338,9.02429,2.36695,1.54927,-1.79689,41.1558,20.9285,11.4461,20.63,6.23866,5.83879,1.84139,-0.00396456,2.928,-886.208,-456.28,24080,-7980,-980
12.6572,15.5799,7.69116,16.151,11.1379,3.01112,11.4353,1.93564,16.4147,9.28466,4.37193,12.2627,3.63561,6.67674,17.5921,6.71782,0,-889.136,-446.032,28420,-9100,560
-12.3111,9.53045,3.97361,28.8761,19.9243,6.11319,26.679,8.80389,-16.1372,-8.41996,-7.44588,6.99054,0.345821,11.4311,37.5521,16.9432,5.856,-886.208,-430.904,29960,-9940,1680
-27.4087,2.14678,3.12882,16.1059,14.0042,5.28582,6.4947,3.93836,-39.0963,-16.998,-12.4118,3.62209,0.438273,9.64225,0.739419,6.02252,7.32,-889.136,-428.952,29820,-9240,1960
-36.5896,-27.9122,-6.07232,-39.3458,-21.0431,-3.41701,-48.4476,-11.785,-56.1117,-20.2505,-11.6766,-14.5589,-2.05102,-9.25976,-84.3611,-27.193,10.248,-892.552,-426.024,28000,-9240,2240
-61.8672,-55.3629,-16.3389,-57.1359,-30.9791,-4.43916,-46.8911,-7.37367,-91.2124,-37.35,-20.5527,-33.2081,-7.26196,-13.8883,-81.8387,-24.0783,10.736,-887.672,-426.024,24640,-7840,1820
-77.5415,-80.0784,-27.8481,-47.9005,-26.0428,-2.27611,-8.526,7.92871,-108.506,-50.0302,-27.1114,-52.447,-13.9547,-11.8956,-20.1052,0.773055,11.712,-883.768,-422.608,21560,-6020,980
-11.3174,-32.896,-14.5844,-14.3232,-10.0067,-2.26015,13.8477,7.7476,-11.3056,-9.12122,-2.87339,-24.3839,-7.25619,-6.65133,24.157,9.41813,3.904,-874.984,-414.8,20860,-4340,140
40.445,24.8227,5.81745,19.1783,10.3579,0.336761,21.4534,3.36669,63.0308,23.5047,13.3212,13.1879,2.69959,3.3069,37.5234,10.8561,3.904,-877.424,-417.24,19740,-4760,0
39.7388,37.7371,13.7438,30.1181,20.2272,4.06145,22.9639,2.31687,58.0068,23.9261,12.1419,24.0028,6.63496,10.2801,35.9333,11.4907,6.344,-876.448,-413.824,17640,-5460,560
35.9364,41.1685,16.9497,30.4627,21.726,4.58339,15.9694,-1.47765,49.8661,22.4715,10.8846,28.0582,8.88858,12.2075,25.381,7.35268,5.856,-881.816,-411.384,11620,-6720,560
26.764,23.9865,11.9007,6.10981,4.19239,1.40116,-7.24544,-7.23543,34.5737,18.7413,10.2694,18.218,7.4851,4.83833,-9.77482,-5.49009,6.832,-882.304,-408.456,6860,-7560,420
25.7489,23.3149,9.87903,3.26866,-2.27808,0.200651,-15.1557,-7.87134,33.0322,18.1091,9.8882,16.5374,5.99423,0.940875,-18.5714,-10.3037,0.976,-886.696,-405.528,5460,-7280,-140
-0.378573,-0.609236,-0.6621,-6.60981,-8.18159,-1.16042,-13.2169,-3.71452,-3.06862,0.639661,-0.461256,-0.730267,0.170565,-5.94753,-15.0943,-9.53283,2.44,-891.576,-405.528,4480,-7980,-280
-19.522,-24.2089,-11.0109,-18.0502,-14.2603,-5.74629,-12.5589,-3.75487,-30.8873,-11.7223,-4.84965,-17.5143,-4.86407,-11.8915,-12.8973,-9.80987,1.464,-899.384,-406.504,3780,-8540,-420
-9.2637,-27.9223,-11.1919,-30.6996,-20.9278,-7.79101,-21.0125,-6.29037,-18.016,-3.97949,1.46599,-19.382,-3.66947,-12.7356,-27.245,-13.7417,7.808,-899.384,-406.016,840,-10360,-700
-0.448628,-21.159,-8.0586,-30.7975,-20.5082,-5.77827,-19.5213,-4.11121,-5.10415,2.17553,4.55638,-14.0592,-2.00809,-10.8836,-26.9186,-11.0676,4.88,-901.336,-408.456,-1820,-11200,-1680
-0.698673,-0.641761,-3.66983,10.1986,3.5683,-0.744236,16.4548,5.84416,0.613605,-0.916979,0.184594,-2.37081,-2.1193,0.0130548,28.159,10.0949,5.856,-895.48,-409.92,-3780,-11900,-2380
19.8331,21.526,2.97436,22.2317,9.12648,-0.905502,14.7204,2.03,33.0597,10.6742,6.07044,11.0483,0.316485,2.11088,26.0963,6.5495,5.856,-891.576,-406.992,-6580,-13300,-3780
21.8043,26.2467,5.26955,19.396,8.30762,-0.472968,8.28802,-0.349675,37.1987,11.1769,5.93272,14.4498,1.46489,2.38069,16.3442,2.61197,5.368,-888.16,-409.92,-7560,-14980,-4620
1.57934,16.2144,2.94021,23.3715,14.2699,4.27932,20.3127,7.9594,10.6896,-2.30086,-4.56555,8.48545,-0.296936,7.55317,29.3202,12.9422,5.856,-888.16,-409.92,-9520,-16800,-5740
-10.2664,-3.05164,-5.08387,3.52055,0.199524,-0.770958,4.22859,1.7574,-8.93341,-10.1927,-6.54433,-5.08987,-3.93412,-1.38206,7.02193,1.63663,1.464,-890.6,-408.456,-9800,-17920,-7420
-17.8296,-5.57252,-3.27272,0.135387,1.38885,0.296979,-0.709189,1.35278,-22.65,-13.0327,-8.54576,-3.92771,-2.79894,0.64332,-6.096,0.963286,0.976,-890.112,-411.384,-9520,-19320,-8540
-48.6655,-11.8022,0.899633,15.9829,18.2045,9.19093,21.7307,12.7134,-69.9228,-30.7054,-23.0889,-3.17067,-1.35581,13.7994,20.1579,19.7021,4.392,-884.256,-413.824,-9100,-21560,-9100
-72.6729,-41.5959,-6.33391,6.83151,14.4675,10.013,28.2928,14.8705,-106.712,-44.5604,-28.993,-20.1446,-3.96177,13.1564,30.4848,23.2012,4.88,-884.744,-414.8,-8960,-21560,-10080
-5.19129,-12.547,0.27281,-8.96059,-2.48013,0.738298,-7.59754,-3.63041,-8.46226,-1.54745,0.253347,-4.54522,0.919503,0.0957684,-12.7651,-5.23923,6.344,-883.768,-418.704,-10080,-21280,-10920
52.8381,26.6279,8.3089,-18.1828,-15.6865,-8.54964,-40.7273,-20.6827,76.1976,34.6531,23.7288,15.8793,5.16292,-11.3477,-53.4344,-31.232,7.32,-887.672,-420.168,-11480,-21560,-11200
19.7711,2.44662,-1.89357,-21.3452,-15.0152,-6.10922,-25.2463,-9.22276,29.8235,12.3607,9.78504,-0.818749,-1.23054,-10.5674,-38.0849,-17.396,7.32,-884.744,-424.072,-10920,-20300,-11480
5.46776,-7.98155,-3.54259,-14.4641,-6.50199,-1.95732,-4.29957,1.06673,4.88561,3.12734,3.37321,-5.82192,-2.5644,-4.24646,-9.87688,-1.32294,2.44,-878.888,-428.952,-9380,-18900,-11200
16.7515,4.75875,2.97268,-8.30644,-2.72911,-1.61548,-5.97447,-3.8818,18.2222,11.9651,8.82246,3.84694,1.79655,-0.418943,-9.23042,-4.01261,4.392,-875.96,-429.44,-8400,-17220,-10920
8.58039,-3.95845,-0.881194,-13.9178,-11.6608,-2.09638,-13.4629,-4.50154,7.27277,6.69179,5.56102,-3.08145,0.242815,-3.62644,-16.4297,-7.60339,1.952,-874.496,-429.928,-7420,-15680,-9940
-2.94428,-7.86471,-3.12523,-10.5864,-11.4681,0.312294,-11.9177,0.217732,-6.43724,-1.09488,-0.403315,-6.08358,-1.38607,-4.10305,-15.3098,-5.88468,1.464,-872.544,-435.784,-8120,-14280,-8820
-17.9212,-7.85155,-1.81898,-2.81818,-1.80681,1.9176,-5.3384,1.54753,-25.9221,-11.1761,-8.1866,-4.23186,-1.28061,-1.71901,-8.72145,-2.95489,-0.488,-870.592,-439.2,-8960,-13160,-7840
-20.8694,-14.6455,-5.50403,-8.54644,-5.33055,-2.96462,-5.99487,-2.60118,-28.6421,-13.613,-8.85781,-9.50847,-2.83555,-4.8675,-6.42731,-4.69777,-3.904,-871.568,-442.616,-10640,-11760,-6580
2.42527,3.00485,0.639813,9.7688,5.40649,-0.0505253,10.9071,0.539928,4.12248,1.45074,0.465125,1.95537,0.682517,2.74361,20.0932,5.32241,-7.32,-874.008,-441.64,-12180,-10920,-5740
27.6547,29.7899,11.5316,29.8846,18.9631,4.93039,21.4696,4.50942,39.3465,17.8461,8.5819,20.172,5.9946,11.4808,32.6707,13.4616,-13.664,-874.496,-441.64,-14000,-10780,-4900
16.1908,25.7641,10.2714,29.0885,19.4461,5.8473,23.139,6.67508,24.7185,9.1294,2.55689,17.3639,5.34064,12.3086,32.4784,14.8255,-13.664,-873.032,-446.032,-15540,-10220,-3920
10.6907,15.5386,6.54118,21.4092,14.7655,4.59891,21.4304,6.11683,14.6497,6.23214,2.74238,10.6534,3.20636,8.95413,31.4579,13.536,-16.104,-879.864,-446.032,-16800,-9800,-3360
18.03,18.9271,8.72366,22.7045,16.1797,4.16302,21.9735,4.85701,22.7573,12.461,7.52935,13.4637,4.67111,9.33379,31.4189,13.9291,-14.64,-881.328,-447.496,-17920,-9240,-2940
18.5675,18.8046,8.92532,18.6227,13.6447,2.64229,14.5179,1.70212,24.6702,13.2873,8.65902,13.8428,4.80517,7.35666,19.6425,8.2313,-12.2,-890.6,-444.08,-19040,-8540,-2940
2.91412,-7.81029,-3.75408,-14.2268,-9.60813,-4.14276,-9.53458,-4.07247,5.06851,2.72077,4.54839,-6.31159,-0.867618,-6.53876,-15.404,-6.17178,-10.736,-899.384,-444.08,-20300,-7140,-3080
-27.9165,-24.5605,-12.9576,-14.7258,-11.1695,-3.19933,-3.20722,2.06911,-33.516,-19.2853,-10.1395,-19.7497,-6.42287,-7.40526,-4.98119,-0.763324,-8.784,-903.288,-440.664,-21140,-6580,-3500
-44.2684,-30.8351,-15.2123,-10.9479,-8.89186,-2.65091,-1.32655,3.14831,-57.0862,-29.8616,-16.7373,-23.0486,-8.12512,-7.07772,-0.542899,-0.120095,-3.416,-910.12,-439.2,-21140,-6300,-3920
-29.5706,-26.4372,-9.72598,-24.1549,-15.5572,-3.50947,-21.0404,-3.70487,-42.9627,-18.2636,-10.1557,-16.4261,-4.08083,-9.41868,-32.2053,-12.4372,1.952,-909.144,-436.76,-20580,-6300,-4900
2.19105,-10.4558,-3.77158,-24.9332,-17.7232,-5.67439,-28.7868,-10.1731,-1.66475,3.56976,4.24404,-6.27593,-0.274275,-11.4795,-39.0182,-20.0452,5.856,-913.048,-433.344,-19880,-6300,-5460
18.599,7.65864,2.7858,-0.555501,-0.998561,-0.979011,-4.12972,-1.8312,22.4415,12.9475,8.22192,5.03819,1.97892,-1.71684,-3.83676,-3.62328,14.152,-912.072,-431.392,-18900,-7140,-6020
14.5633,12.5427,6.65458,9.42952,7.95015,3.26641,5.43526,3.62699,17.8477,10.6532,4.66228,10.4429,2.98653,5.7079,4.33542,5.49326,13.176,-910.608,-427.488,-18900,-8540,-6580
23.5543,16.2691,7.88164,1.07827,0.870759,-0.761586,-7.08007,-6.40436,29.7817,17.2825,10.5642,12.2729,4.3895,0.597823,-9.73142,-6.50037,22.936,-911.096,-427.488,-19040,-9660,-7140
12.0623,8.79754,1.47062,-3.25465,-4.90442,-3.37787,-11.0926,-8.30885,19.6752,6.81618,4.22513,4.42486,0.89008,-3.79096,-10.8064,-9.88928,27.328,-911.096,-431.392,-18760,-11340,-8260
-8.72365,-9.31131,-7.40866,-12.6091,-12.2148,-5.00133,-13.3053,-7.29155,-3.06996,-8.472,-3.63011,-9.47902,-2.8529,-7.79559,-12.4621,-10.904,26.84,-906.216,-433.344,-18340,-12320,-8820
-7.6415,-5.94315,-5.34673,-3.30094,-3.32435,0.207863,1.82439,3.35298,-5.09205,-8.30555,-5.70801,-6.96424,-3.35685,-1.42214,2.78234,2.13695,26.352,-907.192,-436.272,-17640,-13020,-9800
-15.4949,-5.27584,-6.06748,5.32576,2.03825,1.96332,10.57,9.71299,-17.948,-13.3653,-11.1065,-7.3303,-5.65598,1.23446,13.2806,9.16521,30.256,-908.656,-433.832,-16520,-14280,-10220
-38.5628,-24.8525,-8.6531,-2.55269,1.32442,4.56259,11.7213,12.5699,-52.1239,-26.4946,-19.2809,-16.5063,-6.09348,3.15892,12.0722,11.9198,31.72,-904.264,-437.248,-15400,-15400,-10500
-17.4495,-21.0478,-3.74112,-13.2941,-3.4123,3.06708,1.05401,6.63,-26.2375,-11.3303,-8.91874,-10.5659,-2.02156,1.66308,-4.93155,5.2513,32.208,-901.336,-439.688,-14840,-16380,-10780
31.0399,27.0529,10.6088,15.0983,10.0228,1.4553,6.69608,-0.792196,43.6273,19.337,9.83402,18.9859,4.75461,5.49169,9.98483,3.08583,30.744,-898.896,-439.688,-14840,-16800,-10920
31.9854,36.2117,13.4044,29.2542,18.879,2.96111,16.6288,1.14314,43.3498,19.915,10.5672,25.1242,5.77239,10.0967,24.7446,8.51484,30.256,-897.92,-445.056,-14980,-16940,-10780
17.2915,24.9458,11.7173,27.2816,19.886,4.72171,22.2743,3.84488,21.9231,11.2273,6.39872,19.1331,5.35384,12.0443,30.03,13.5757,30.744,-897.432,-448.96,-15120,-17220,-10780
4.38499,10.8541,9.17231,15.1747,13.7731,4.5226,12.2399,0.951064,2.23644,4.62849,2.97452,11.3874,4.48836,9.65783,13.4461,8.2398,27.816,-897.92,-448.96,-14700,-17220,-10500
6.8583,9.85819,6.51422,5.74928,4.88204,0.239658,-5.62745,-6.4109,4.80749,7.88882,6.02468,9.30865,3.55803,2.81798,-8.78189,-4.92108,28.304,-894.016,-450.424,-14560,-16800,-10220
-29.6356,-21.724,-4.86945,-8.45397,-2.78404,0.76941,-3.81985,-0.399,-48.2541,-14.8053,-5.98648,-11.5156,-1.34227,-1.27362,-9.10442,-1.14875,25.376,-892.552,-455.304,-14000,-16100,-9800
-30.8241,-44.0518,-12.4923,-39.4252,-23.7367,-4.86191,-27.7789,-7.13455,-49.6522,-16.0219,-4.94642,-26.4686,-3.66796,-12.5051,-41.6437,-17.0675,18.056,-890.6,-461.648,-14420,-15120,-9100
5.58629,-17.8253,-7.59838,-41.2297,-30.1678,-10.2734,-45.2417,-16.6007,6.75923,4.81594,7.02871,-13.1854,-1.62992,-18.5772,-60.0123,-31.2585,18.544,-886.208,-460.184,-14700,-14000,-8260
-1.90883,-6.50578,-4.22205,-17.4586,-13.0922,-4.49161,-18.4061,-6.38299,0.589461,-2.72882,-0.755941,-6.51623,-1.81612,-8.16824,-25.4325,-13.521,16.592,-884.744,-466.04,-15260,-13020,-7700
7.67669,-3.66908,-3.74716,-3.08582,-5.09983,-3.20048,4.17248,-1.04301,13.2597,3.86754,4.04976,-4.83375,-1.76103,-4.59119,11.8998,-0.140482,18.056,-886.696,-463.112,-15820,-11200,-7280
37.5517,25.8728,5.96373,20.6517,8.80075,-1.47617,16.703,-1.02123,54.8714,23.4069,14.7153,13.8491,2.85875,1.78079,33.6387,6.01181,16.592,-887.184,-459.696,-15960,-10360,-6720
44.9456,55.7885,19.0498,46.9219,29.8395,6.39778,27.9136,5.09261,66.6389,25.9442,9.33762,36.2076,7.26407,15.8094,40.3103,16.2315,14.152,-891.576,-464.576,-16100,-8680,-6300
24.6333,41.0102,16.7763,36.3525,26.3113,8.31492,21.5544,6.70628,35.2377,13.9068,1.83044,28.7171,6.24849,15.7034,26.701,14.7421,17.08,-887.672,-462.624,-15960,-7000,-5740
-26.6582,2.31769,3.8473,18.5958,15.0744,7.05819,12.4422,7.3671,-36.5651,-18.0116,-15.5933,3.16692,0.459022,10.271,14.4798,10.3758,12.688,-890.112,-458.72,-15260,-6300,-5320
-68.4094,-44.1464,-13.4488,-16.8204,-7.47472,2.03603,-3.39746,6.42848,-97.5185,-43.279,-27.1481,-27.39,-7.06316,-1.85647,-9.07316,2.30197,13.176,-891.576,-449.448,-13860,-5040,-5040
-57.9711,-50.4256,-18.0429,-13.0839,-4.88832,3.26286,19.3907,16.7893,-80.8153,-37.9164,-22.1239,-33.5302,-9.64003,-0.560697,22.8962,18.2264,9.76,-879.864,-472.872,-13020,-4200,-4760
-27.3454,-39.2631,-18.3548,-24.3328,-18.4977,-4.18536,-4.40114,3.59953,-34.5358,-17.6573,-6.11417,-29.5482,-8.0049,-11.0711,-2.69566,-0.666359,10.248,-886.208,-457.744,-11340,-4060,-4620
-15.6797,-27.5134,-13.3467,-32.438,-24.1761,-7.08185,-24.196,-7.48743,-17.3906,-9.65433,-1.30721,-21.2148,-4.51956,-15.0539,-31.1371,-16.3837,9.76,-896.456,-454.328,-11060,-4480,-4060
5.85804,6.87968,-1.46234,-3.70018,-4.62096,-1.97076,-9.0074,-2.73302,17.4127,0.872405,0.263675,1.44272,-1.22094,-3.46991,-14.577,-5.58528,11.224,-894.992,-468.48,-9940,-3360,-4200
52.1003,39.4745,8.57402,3.58405,-3.99347,-5.56101,-21.338,-12.3422,78.3381,32.3776,19.4853,21.9356,3.28341,-5.06456,-26.4708,-17.3453,4.88,-887.672,-448.96,-9520,-2520,-4340
49.0532,36.3869,10.892,15.4351,6.18956,-1.47978,2.09177,-2.7937,66.2725,32.4759,18.9935,22.9288,4.56251,1.88508,7.37784,-1.3095,3.904,-889.624,-444.568,-9380,-2660,-4200
14.4695,6.14824,0.333471,10.0383,6.72434,1.86021,18.7981,9.38125,19.026,8.40258,5.15563,2.94626,0.157241,3.87366,24.0223,14.0733,4.392,-895.48,-447.008,-9380,-2380,-3780
17.7641,3.75167,0.54081,-1.36407,0.595173,0.0673607,7.41638,4.97806,21.4155,11.5585,8.1866,1.53512,1.14748,0.765841,5.87386,7.71083,5.856,-897.432,-449.448,-9520,-1540,-3500
15.6953,14.0126,4.96587,11.1161,6.09946,0.568923,8.29536,1.37677,16.5188,11.7819,7.91258,8.84301,2.72098,3.02488,13.6134,5.11436,2.44,-897.92,-447.496,-9100,-1260,-3220
-2.18735,-3.27505,-3.70886,8.89761,1.67726,-0.845977,12.5557,2.71879,-6.02845,-1.01117,1.23216,-4.12238,-1.63849,-1.07605,23.496,6.20657,2.928,-898.408,-446.032,-8120,-1120,-2380
13.5877,-2.93251,-2.42838,-9.50619,-10.0541,-5.13433,-11.8188,-6.53633,13.5622,11.2394,11.1892,-2.85133,0.194171,-8.01489,-12.5199,-9.89513,1.464,-899.872,-449.936,-8120,-1120,-2380
-0.996081,-22.865,-4.2151,-46.5875,-29.3562,-8.54792,-51.1074,-19.0597,-11.7741,5.82251,8.65599,-11.5107,1.43344,-16.1353,-76.6171,-33.8348,3.416,-894.992,-453.84,-6160,-700,-1400
-21.7138,-46.1241,-9.47661,-71.8599,-42.7753,-11.0967,-68.8532,-25.8772,-39.5736,-7.50064,1.48849,-23.8832,0.0958535,-21.6582,-101.541,-45.6416,0.976,-890.6,-458.232,-6160,-700,-1400
-22.6028,-23.3965,-7.76077,-20.5099,-13.9013,-5.41453,-14.5788,-8.70175,-34.0654,-12.6006,-3.15687,-14.4284,-2.32932,-8.63967,-16.0443,-12.7962,-1.464,-881.816,-464.088,-3920,-1260,-1540
-39.1271,-9.72362,-4.55278,24.0785,17.0464,5.54215,33.7295,11.8762,-52.4614,-26.8453,-17.7963,-6.89617,-4.38799,9.32634,49.0108,21.9405,0,-875.472,-461.16,-3920,-1260,-1540
-57.6205,-10.508,1.78314,33.3867,33.1726,17.9058,47.5588,25.699,-69.2091,-45.2947,-39.8073,-2.2908,-3.50954,25.4522,55.3789,38.3308,0,-875.96,-463.6,-3080,-3500,-2240
-11.7568,30.3469,15.7627,55.127,47.596,20.8865,55.6757,28.816,-1.60989,-18.0861,-26.449,24.2052,2.7405,33.8501,64.5193,44.2096,0.488,-874.984,-463.112,-3080,-3500,-2240
47.8471,58.7749,23.5442,50.5604,35.6851,9.82376,32.7832,8.78245,70.1816,27.8805,9.98797,41.0514,9.25985,20.837,44.7675,20.9986,4.88,-874.496,-462.136,-2940,-4340,-2940
46.4455,45.3519,19.3583,29.8248,18.6679,2.60721,10.7092,-4.82258,62.9456,30.7798,16.9171,31.9647,9.70449,9.75349,20.4934,2.56214,5.368,-882.792,-458.232,-2940,-4760,-3500
11.8446,12.6289,6.92347,2.78993,1.54567,-0.127479,-8.68128,-6.45431,16.0828,7.62214,4.03074,9.21636,4.00527,1.35227,-9.49975,-7.60619,8.784,-888.16,-455.304,-2660,-5040,-3920
-1.85971,-0.840388,5.58409,-12.8255,-7.72292,-2.86753,-28.0085,-15.5945,-8.40402,3.01247,2.65673,3.37427,4.74386,-4.02099,-35.7546,-21.8587,6.344,-890.112,-448.96,-2660,-4620,-4060
-12.4721,-7.2973,-0.892369,-5.03293,-4.15406,-2.66885,-13.3284,-9.70737,-16.9721,-4.93576,-2.01971,-3.5383,0.446913,-3.73863,-12.7819,-12.0217,6.344,-891.088,-448.472,-2800,-4340,-3920
21.3211,11.5655,0.570633,-3.13479,-8.74017,-7.11902,-17.8444,-14.4275,32.9814,15.3641,12.1489,4.48904,1.26707,-8.61921,-14.6991,-17.6966,3.416,-886.208,-445.544,-2940,-3640,-3640
49.7897,36.1924,9.3789,12.3247,2.11255,-3.79277,-4.47517,-7.08594,68.2041,33.1656,22.4733,21.4119,4.19172,-2.04574,0.231547,-7.43865,4.392,-883.28,-436.272,-3220,-3080,-3360
10.4207,-4.38156,-7.12183,1.26936,-3.76042,-3.26745,12.5307,5.60939,10.8055,8.1831,10.056,-6.58415,-4.67659,-5.2667,19.7478,7.82041,3.904,-883.768,-431.88,-4480,-3080,-3360
-21.9452,-38.3152,-15.9746,-28.834,-20.0183,-6.07379,-6.57533,0.162068,-36.627,-10.7818,0.00273144,-26.9972,-6.84404,-12.3677,-11.8492,-2.95421,7.32,-876.936,-411.872,-7420,-3780,-3220
-55.0835,-60.3867,-23.1246,-42.1042,-24.6316,-1.98344,-8.97877,8.45234,-76.609,-36.199,-19.6525,-41.2426,-10.6197,-11.4231,-22.6003,1.8657,2.928,-884.744,-407.48,-10080,-3920,-3080
-27.7611,-16.2846,-7.73644,-8.38121,-5.26516,0.969744,-5.03106,4.27314,-33.0275,-20.6737,-14.0369,-12.8491,-4.12974,-1.80175,-10.5974,0.818193,8.784,-898.408,-418.704,-15260,-4340,-3220
-24.4578,-9.82642,-8.00076,-0.145933,-1.03255,0.974207,0.721361,7.61584,-27.0254,-19.8158,-15.3699,-10.2537,-5.82081,-0.663011,-1.55507,4.70817,12.2,-893.04,-418.704,-19880,-4620,-2800
-13.1849,-19.0109,-11.9265,-10.0335,-7.56636,-1.1705,5.13272,9.56162,-16.8648,-10.8256,-6.75916,-17.1465,-6.55828,-5.69659,5.66142,7.00234,12.688,-894.504,-411.384,-23100,-4200,-3080
5.246,-3.93293,-4.78715,-1.53905,-1.93462,0.748148,9.72625,9.94873,8.3316,0.81262,-0.111255,-6.27124,-2.66204,-1.67653,11.9479,9.05784,16.104,-898.896,-411.384,-27440,-4340,-3360
4.35197,-9.33458,-0.18737,-13.0392,-4.52558,2.18245,-0.121401,5.74442,2.06682,2.82695,1.31106,-4.17871,0.842162,-0.0670357,-7.87901,3.73971,14.152,-909.144,-413.824,-30240,-4480,-3220
6.64148,-5.5444,1.04248,-11.2876,-4.30744,0.68863,-3.38697,0.720454,6.17157,6.23684,5.92148,-1.45846,2.24237,-0.945631,-10.0805,-0.412551,18.056,-915.488,-420.656,-32900,-3920,-3080
13.5503,15.316,3.39429,7.73204,2.96243,-1.09516,1.6607,-2.20608,23.0042,7.66261,5.5694,8.23899,2.14621,0.216699,4.60386,-1.07519,17.08,-915.488,-421.144,-33880,-3220,-3080
39.5199,42.7414,15.4576,26.3,14.3662,-0.722254,3.19913,-8.25506,52.7211,26.6496,15.421,29.1984,6.97148,5.58448,11.8749,-3.97055,17.08,-918.904,-421.632,-34160,-2380,-3080
3.12242,10.663,4.24745,15.066,7.96933,-0.02399,5.97617,-3.38388,0.796061,4.26075,2.72136,8.28923,1.4472,3.40005,13.693,0.173986,20.008,-915.976,-421.144,-34020,-2800,-2380
-20.4873,-11.245,-4.03868,5.97489,3.43824,1.14515,10.43,2.65562,-27.9576,-12.9662,-7.55781,-7.38993,-2.92907,1.61519,16.2338,5.50167,22.936,-917.928,-423.584,-33740,-3640,-2380
5.50551,-3.81432,0.549729,-15.7896,-12.1749,-5.10592,-23.5529,-13.4842,6.2226,5.84179,6.94889,-0.776956,2.23756,-6.6496,-29.5605,-19.1268,26.84,-919.88,-428.952,-33740,-3780,-2800
22.3603,7.55871,5.4844,-24.4376,-16.5878,-6.67954,-40.9174,-20.3968,30.0198,15.8332,11.2471,8.06116,4.80846,-8.62244,-54.5405,-30.9097,25.376,-912.072,-431.88,-33040,-3920,-2800
18.1332,14.4423,4.78217,-4.30254,-3.10226,-0.760289,-16.7098,-6.58936,30.01,8.80263,2.60524,10.0853,2.23405,-0.487493,-23.4843,-10.9067,24.888,-905.728,-430.416,-32480,-3780,-3080
9.52563,22.8675,10.8671,24.3042,17.9628,5.7619,13.2838,2.08815,14.4997,4.39532,-0.904072,17.0763,4.95847,12.2687,18.4701,9.32507,27.328,-896.944,-431.88,-32200,-4340,-2940
8.77987,19.0908,11.3582,32.6,25.7265,7.70334,32.6434,7.56039,7.19756,7.15707,1.92446,16.679,4.67839,16.5219,44.2775,21.9834,27.328,-896.944,-434.32,-32760,-5320,-3360
-15.1019,-7.09347,-1.27855,13.7661,9.73413,2.98766,22.6066,5.31512,-26.3269,-7.08703,-2.94393,-3.83755,-0.754378,5.52871,32.8537,14.5772,28.792,-896.944,-440.176,-33320,-6720,-3640
-25.3746,-12.2844,-4.25383,12.8439,7.30033,1.14335,19.2425,3.13123,-37.9635,-13.5126,-5.01171,-8.6527,-1.91037,2.22466,31.5262,10.3,22.936,-887.672,-433.832,-32900,-7140,-3780
8.63536,6.75657,-0.723683,8.68274,3.59781,-1.20359,9.24599,2.45183,14.2978,5.24845,4.40876,2.24952,-0.72274,-0.400989,15.5766,5.04311,20.008,-890.6,-435.784,-32620,-7980,-3920
1.14897,5.85315,-1.67924,7.98206,5.58134,3.10845,13.0012,11.3067,8.37623,-3.63496,-6.24867,1.07804,-2.9617,3.03323,15.0105,11.9868,20.008,-891.088,-437.248,-32060,-8680,-4200
-33.252,-16.7387,-7.34781,7.363,8.98231,7.93788,25.3172,20.6056,-39.7866,-26.8321,-21.1972,-12.5684,-6.03081,7.98132,25.5048,23.3114,20.984,-890.112,-449.448,-32760,-9240,-4200
-44.7623,-39.8279,-14.8426,-28.4649,-16.2646,-1.33008,-16.5818,2.91193,-62.9691,-29.0481,-17.1697,-26.9639,-7.39906,-7.42203,-31.159,-6.08964,16.592,-880.84,-448.472,-32060,-10360,-4340
-21.1727,-46.5257,-18.9364,-61.3281,-43.9251,-15.003,-54.3111,-19.2429,-34.4138,-8.15685,1.7025,-32.2406,-6.8592,-27.5526,-72.5671,-38.09,14.64,-879.864,-443.104,-30940,-10500,-4760
18.4811,-9.4474,-8.07749,-28.3887,-26.2119,-12.6146,-28.4619,-15.5219,25.32,14.5488,14.3362,-9.77477,-2.17488,-19.3229,-28.7688,-24.4035,16.104,-883.28,-442.616,-30940,-11200,-4760
17.3136,18.7523,7.81675,5.7578,1.76571,-1.60354,-9.64917,-9.68161,27.3557,11.6099,7.03532,13.6009,5.22624,0.0252389,-8.35594,-9.61225,13.176,-880.352,-445.544,-31360,-11620,-4760
6.20251,16.4798,12.7918,6.78807,11.1603,6.07697,-4.33583,-0.479821,9.70631,3.54309,-2.16147,16.3699,6.62631,9.60259,-14.6548,0.310717,11.224,-877.912,-448.96,-32060,-11620,-4900
18.1355,23.4554,16.1614,9.53198,15.9385,9.63407,2.91882,6.11184,23.0081,10.2603,-0.320369,21.711,7.59483,14.1325,-9.55188,8.41531,6.344,-885.232,-460.672,-32620,-11340,-4900
8.32378,2.67062,2.33965,-1.71964,-0.161608,1.28006,1.07423,2.26478,9.64127,4.79184,2.15815,2.37044,1.39944,0.15444,3.20299,1.7307,6.344,-884.744,-447.984,-33320,-11060,-4900
23.9262,17.7545,6.88386,13.7581,7.43262,1.23445,8.81377,0.670419,28.8096,16.1261,10.2305,11.8107,3.2512,2.53193,18.6291,3.33392,2.928,-899.384,-439.2,-32480,-10500,-4900
30.1851,30.8539,12.5383,21.5136,13.6303,2.66947,7.74195,-0.971787,37.1208,20.0902,10.0352,21.595,5.44642,6.3754,11.9313,2.67815,14.64,-946.72,-424.072,-32900,-9800,-4760
3.77462,3.9194,1.32173,3.87808,2.62594,1.2128,6.18268,2.60365,7.24144,0.704723,-1.00212,1.78787,-0.2654,1.96516,7.88883,3.44539,16.592,-952.576,-407.48,-30520,-8960,-4060
8.54603,14.8743,3.73514,18.8151,12.3807,4.42547,20.7151,8.36922,18.1208,2.4418,-1.51154,7.76327,0.0871382,8.39276,28.0653,13.6275,16.592,-963.8,-434.808,-22820,-3640,-3080
-4.97028,-2.67674,-4.02009,4.28298,-0.0206909,-0.647014,5.81061,1.45684,-4.97157,-3.61274,-0.319521,-5.11306,-2.31739,-0.564899,10.0163,2.799,21.472,-889.624,-567.544,-19740,140,-2520
-26.2708,-24.8135,-10.0199,-11.5496,-7.71326,-1.68868,-0.676944,1.74731,-37.6763,-15.8083,-5.87404,-17.7271,-4.45947,-3.63501,-1.97406,0.8473,2.44,-877.912,-642.696,-12040,4760,-1680
-37.1184,-29.9873,-11.7095,-9.65202,-4.98037,0.940647,6.68083,7.89631,-50.0743,-23.9245,-12.9651,-20.9104,-5.73488,-1.1559,7.03934,8.15843,10.736,-837.896,-555.344,-8120,5600,-3640
-32.7512,-36.2638,-16.0432,-24.8361,-16.6822,-3.72886,-7.53677,1.84061,-44.0003,-21.6414,-10.1956,-26.5918,-7.26542,-9.48348,-11.0318,-2.82783,8.784,-885.232,-470.432,7560,280,-3920
-9.08485,-6.70291,-11.3901,5.87205,-1.76818,-3.5049,12.4097,6.03456,-7.3265,-8.11427,-2.99245,-11.6189,-6.94654,-4.58991,20.2815,7.47249,20.984,-941.84,-406.504,15400,-2520,-4060
12.2617,14.6145,1.66632,13.0542,5.2342,-0.47526,7.34384,3.02942,19.2775,6.72472,3.45618,6.68842,-0.378311,1.79636,10.4624,4.63273,10.736,-906.216,-493.856,16380,-1260,-3640
15.2357,14.8277,11.1291,7.67571,7.43141,1.76915,-2.09811,-3.83937,14.9291,12.8124,7.63908,15.4151,6.20952,6.20016,-3.86437,-1.71526,-14.152,-843.752,-521.672,16940,8260,-4340
8.96788,7.66171,9.51721,3.65061,2.68416,-1.33947,-9.96231,-12.4279,4.08851,10.5139,8.96104,11.4868,6.79993,1.65884,-9.64094,-11.3286,-6.344,-854.976,-460.672,17220,10220,-5600
6.0445,-1.88001,2.16601,-13.6498,-10.3642,-4.85622,-24.6049,-15.0044,4.4053,6.27643,5.60968,1.79225,2.85625,-7.05023,-29.9749,-20.3489,3.904,-878.888,-435.784,18480,700,-3920
8.17297,11.9301,5.93687,3.35467,5.138,2.77012,-2.51346,-0.551419,13.4685,3.61351,-1.27039,10.0303,2.55852,4.24719,-8.36855,-0.329507,10.736,-915,-431.88,18900,-5600,140
-2.29318,-6.76688,-4.89049,-13.5614,-9.1191,-2.88888,-11.1652,-2.76129,-0.164474,-2.85604,-2.41165,-5.46526,-2.50348,-5.92211,-18.3918,-6.65709,10.736,-900.848,-473.36,15400,-4200,980
-2.73133,-9.28841,-7.44705,-8.35705,-8.7039,-5.27794,-5.15118,-4.59035,-0.96028,-1.56202,1.33145,-8.98571,-3.53026,-7.93155,-3.44368,-5.31582,-1.952,-889.136,-480.192,10360,420,1120
9.47031,0.920902,-0.997963,-6.35341,-6.536,-4.51404,-9.01656,-7.07478,11.4483,7.27362,6.29814,-0.499923,0.504429,-5.79958,-8.30037,-8.27727,-6.344,-901.824,-462.136,10640,2240,-420
-8.80732,-12.1371,-6.85194,-13.957,-11.8973,-5.26487,-11.9989,-6.29526,-10.9505,-4.87625,-0.806099,-10.4756,-2.13446,-8.79458,-12.3786,-9.76118,2.44,-914.024,-449.936,12460,-140,-140
-16.914,-13.8788,-5.07255,-5.61169,-2.97002,0.364233,2.54709,2.27512,-21.1342,-11.4601,-6.56665,-9.71023,-2.15074,-1.66694,3.45029,2.82446,6.344,-915.976,-451.4,15540,-420,1540
10.7269,15.3462,8.96521,15.4983,13.7399,5.77175,14.9299,5.90733,14.9524,5.39518,0.732513,12.9748,4.0842,9.55733,18.2665,11.6572,6.344,-907.68,-461.648,16940,2380,1820
27.0739,31.8159,16.3236,26.9171,20.5271,7.03155,16.5143,4.08777,35.5703,17.3309,6.99945,24.4502,7.45548,13.3476,21.1239,11.1299,11.224,-902.8,-468.968,17640,5880,980
8.59975,9.25144,6.32561,9.80189,9.20225,5.13998,7.9033,5.63818,11.3115,5.23015,1.04252,8.24283,2.64338,6.98624,8.54085,7.58057,14.64,-900.848,-472.384,18760,6160,-140
-6.43047,-2.29682,-2.63478,2.16313,2.62432,2.8954,6.40228,7.94416,-5.15578,-6.84915,-6.37049,-2.83954,-2.82211,2.25033,7.52431,7.23245,20.008,-898.408,-470.432,21140,5040,-1260
6.44336,5.1906,-0.177204,2.19136,0.490613,0.745128,0.628273,3.47995,9.11575,3.29214,1.40833,1.95488,-1.46076,-0.272531,1.99087,1.44255,26.352,-887.672,-468.48,23800,4060,-2100
12.0735,13.6613,5.39564,9.21953,6.16383,2.50749,3.22083,2.48663,14.9658,8.51649,3.69266,9.88132,1.87882,4.51982,4.31466,2.50723,25.376,-879.376,-473.36,25900,3220,-2660
-21.6245,-11.9681,-4.52057,-1.8878,-0.0450878,2.49426,3.46744,5.83463,-30.3278,-14.7056,-9.75737,-7.92461,-2.6454,2.07528,2.43135,4.54664,23.424,-876.936,-480.192,27160,3360,-3360
-17.9554,7.73149,3.98188,31.9199,23.8539,9.05004,37.0902,15.6215,-22.143,-13.4308,-12.3611,5.9258,-0.365585,15.6152,49.3778,25.8343,22.448,-873.032,-482.632,26460,2800,-3920
-18.7543,-1.19035,-1.0257,19.4043,13.4472,4.32993,24.4599,9.41423,-23.7409,-13.0574,-10.1605,-1.42105,-2.20875,7.76747,32.8547,15.7723,17.08,-869.616,-469.456,24920,1400,-3920
-15.272,-20.4703,-8.76326,-19.2427,-12.8288,-3.62015,-13.2305,-2.74367,-19.8886,-10.562,-5.30969,-15.1234,-4.41665,-7.55823,-20.1596,-8.44351,16.592,-883.28,-480.192,22820,-1260,-3780
22.5577,1.96911,2.86136,-18.3597,-11.6802,-3.92767,-21.5945,-10.5614,27.9623,16.1626,11.4564,2.83045,2.68634,-6.33209,-31.364,-15.7941,22.936,-873.52,-479.704,17780,-3220,-3500
15.3589,-3.94531,-4.0617,-20.8632,-16.4056,-5.86483,-18.8813,-8.45968,19.9113,11.1087,9.82401,-5.3985,-1.0354,-10.944,-26.7575,-13.794,15.616,-878.4,-478.728,11340,-6020,-3780
2.60585,-17.1626,-8.9456,-29.8909,-22.3534,-7.49483,-23.0055,-9.11935,1.82918,3.9427,6.43256,-13.8466,-2.42015,-14.4239,-31.4256,-16.8325,11.224,-881.328,-471.896,9940,-6860,-5040
-5.2465,-12.383,-4.82869,-14.1369,-11.6158,-4.88688,-11.2063,-7.08745,-9.72594,-0.842523,3.90386,-9.06762,-0.415801,-8.15724,-12.5461,-9.98573,11.712,-885.232,-463.6,10640,-6440,-5880
-13.561,-16.5598,-4.51322,-11.9102,-6.84815,-1.48073,-3.51952,-0.67941,-21.3881,-6.52058,-1.71713,-9.94385,-1.15023,-3.26268,-6.58313,-1.07325,13.176,-887.672,-466.528,9940,-7560,-6720
-10.0066,-26.911,-8.41539,-34.8184,-21.6046,-5.52443,-24.4121,-6.13746,-17.7948,-3.84672,1.59414,-16.1325,-1.82977,-11.188,-37.0141,-13.6864,20.496,-884.744,-460.184,9520,-9520,-6720
3.26934,8.65174,0.947208,7.42203,1.81467,-1.72599,-2.29361,-2.02109,6.90839,1.96263,2.48285,3.29471,0.749919,-0.554139,2.08881,-2.06023,20.496,-880.352,-458.72,10500,-10640,-7140
3.03959,14.1394,3.82464,15.7998,7.51608,0.193251,3.42675,-1.15519,6.18652,2.00919,1.46082,7.65544,1.77152,2.65382,9.41117,0.77898,23.912,-878.4,-457.744,10080,-10780,-7840
0.189387,1.31907,-2.2659,-1.83499,-4.15175,-4.07016,-7.1241,-4.77372,0.316076,-0.893906,0.0553088,-0.964496,-1.38259,-4.62674,-6.43315,-7.24201,31.72,-883.768,-486.536,9380,-10920,-8120
3.43524,9.89837,4.89281,9.38237,8.03413,1.22432,1.97885,-1.66535,6.23457,-1.09547,-4.38834,8.48118,1.67881,4.32626,3.40022,-0.111016,24.4,-866.2,-469.456,9520,-10220,-8260
9.33598,22.9506,10.9934,25.91,19.8938,5.52875,15.1889,2.08013,15.4293,1.91823,-4.45761,17.9017,4.09317,12.2091,20.2697,9.03608,28.304,-871.568,-476.288,10920,-7980,-8680
10.4068,26.0222,12.2018,32.1496,24.3398,7.15707,23.0038,5.86753,16.1486,4.7194,-1.97721,20.1795,4.84141,15.1572,29.9735,15.6213,27.816,-869.128,-478.728,9100,-6580,-8120
9.32492,15.9829,8.99043,22.1937,17.3636,6.54584,20.366,7.23775,12.7915,6.82612,2.25947,12.912,4.11069,11.6497,25.1594,15.3883,24.4,-869.616,-481.168,9100,-5040,-7000
11.3063,10.2339,6.31456,11.0311,8.03291,3.0448,9.04985,1.34461,13.9824,10.0107,7.26953,8.62223,3.50811,5.7933,12.3402,6.27415,20.496,-873.032,-484.096,8260,-3500,-6300
2.44393,2.24554,0.828405,2.50064,1.11676,0.234391,1.99459,-0.0618561,4.03443,2.44352,3.00099,1.55907,0.190909,0.706895,4.15199,1.2802,15.616,-869.616,-490.44,8680,-1680,-4900
-7.08117,-12.0884,-7.38807,-10.146,-9.26357,-3.28301,-5.31282,-1.6426,-10.8497,-4.14202,0.130625,-9.9547,-3.56214,-6.59224,-4.4579,-4.01362,11.712,-862.296,-488,9380,-560,-3780
-30.9876,-37.5694,-15.3637,-33.4981,-22.2566,-3.69095,-18.8636,0.428246,-44.4276,-18.3637,-9.78421,-25.8723,-6.47644,-11.935,-27.8483,-9.31839,5.856,-857.904,-487.024,10640,840,-2520
-16.6076,-22.7612,-8.77856,-19.6529,-12.9844,-0.833814,-7.91431,4.30895,-23.6915,-9.2406,-5.50013,-15.7922,-3.69231,-5.93664,-12.5209,-2.53222,4.392,-853.512,-479.216,11480,1260,-1680
21.8498,23.7595,10.7352,23.3888,15.794,4.84685,18.1506,5.77642,28.8869,14.4028,6.25155,17.5012,4.56648,9.87915,25.8921,11.1089,0.488,-853.512,-464.088,11200,1260,-980
5.54361,16.1427,7.73244,24.8936,18.4799,6.65095,24.3164,9.14688,8.70783,1.36986,-2.33205,12.0652,2.12258,11.5678,32.6041,16.2682,2.928,-882.304,-491.904,8960,980,-140
-7.17372,1.24148,-0.371621,9.53063,7.18506,2.34754,12.6562,4.89744,-5.59247,-7.35494,-5.39241,0.0266148,-1.67836,3.74239,17.5167,8.0447,9.272,-890.6,-516.304,5600,280,560
4.17456,-1.00857,-2.15125,-6.51108,-4.48216,-2.05157,-5.40142,-2.07821,8.01026,1.37138,1.09323,-1.92246,-1.18704,-4.11027,-7.72731,-4.13767,-5.368,-858.392,-493.368,9240,2940,420
12.6873,-6.85432,-2.94578,-24.9448,-16.7781,-5.93599,-22.2183,-8.26834,14.75,9.749,7.97957,-4.87682,-0.265773,-10.581,-32.8219,-14.959,-0.976,-864.736,-490.928,15540,5740,-140
13.6341,1.89136,-2.7115,-14.1159,-12.4502,-5.71742,-16.7124,-7.01114,19.4487,8.0685,6.33394,-1.93959,-1.23949,-8.72354,-22.9228,-12.6058,2.44,-860.344,-480.192,14140,3640,840
10.5076,11.147,1.14543,4.05636,-0.173214,-2.24301,-3.8744,-4.12877,16.3681,5.18263,3.77019,4.57565,-0.42996,-1.90806,-2.33968,-4.40344,3.416,-866.2,-490.44,16240,1960,1540
1.35081,4.95506,1.89254,4.26282,1.44168,-1.16299,-3.32903,-4.87589,0.248176,2.05133,3.12398,2.82442,0.971,-0.403132,-0.0216416,-4.16409,3.416,-872.056,-489.464,15960,2660,1120
11.0592,16.1471,7.90017,17.8264,13.2714,3.83314,13.037,2.7371,14.2465,7.32198,3.26635,12.2753,3.79939,8.49155,17.6747,8.08921,6.832,-873.52,-485.56,14560,3920,700
10.3688,3.74806,5.68259,-3.19914,0.957024,2.17297,-3.40115,0.572238,10.3741,7.16677,2.63793,5.95024,3.85706,3.71036,-10.042,0.0714497,1.952,-867.176,-479.216,14840,4060,420
-17.8679,-22.6924,-3.90271,-22.2127,-9.41774,1.41526,-11.3393,1.59371,-28.1853,-10.8329,-7.77799,-11.1198,-0.499745,-1.10808,-24.6394,-2.11678,0.976,-857.904,-479.216,16660,3640,-280
-36.4425,-19.5783,-7.94668,-1.86018,0.994485,2.51521,6.82213,7.07501,-46.5698,-25.9562,-17.945,-12.8417,-5.19854,1.78331,5.64068,7.93137,1.952,-856.44,-486.536,16800,2100,-980
-48.588,-29.2969,-17.1108,-5.48535,-9.32437,-4.33874,-2.55226,0.503852,-61.4736,-33.6378,-18.7035,-24.1205,-9.88719,-8.3496,4.34042,-3.38509,2.928,-859.856,-491.904,15820,700,-1400
-38.7225,-38.8289,-20.8275,-25.6941,-22.2663,-7.89139,-14.7614,-2.32711,-49.3047,-25.6745,-12.5444,-30.2671,-10.4089,-15.6961,-16.1007,-10.653,7.32,-862.784,-479.216,14000,-700,-1960
-27.6513,-37.5358,-17.7707,-35.1335,-25.0955,-6.72534,-20.6236,-2.22592,-36.9443,-17.1358,-7.42725,-27.8733,-8.15952,-15.9515,-29.4565,-12.1856,10.736,-869.128,-468.968,12600,-2100,-2380
-15.1,-15.7945,-7.18165,-10.1391,-5.81396,-1.00261,-0.0230788,2.75656,-19.5085,-8.86643,-4.26674,-11.8245,-3.49838,-3.68536,-1.93923,0.981999,10.736,-874.496,-464.576,10500,-3360,-3220
23.0948,17.2073,7.95619,9.02642,6.23579,0.739752,3.64727,-3.10605,31.0131,16.3287,9.51796,12.8542,4.50674,3.25779,6.09373,0.158856,15.616,-880.352,-465.552,9240,-4200,-4200
40.1657,36.0345,15.7818,20.774,13.6018,1.78231,4.64702,-5.21599,54.6074,27.8881,15.4412,25.9253,8.70252,7.78267,10.0809,0.183881,15.616,-878.888,-459.696,8260,-3920,-5040
43.4905,42.1425,17.7189,32.7796,22.4513,5.09646,19.5908,0.789047,58.6199,29.1634,16.7049,29.4231,9.11413,12.7583,28.4,10.0413,16.104,-884.256,-457.256,7560,-3360,-6020
46.3443,43.7871,21.312,32.4586,23.0635,5.63868,16.8432,-1.19143,58.9455,33.0467,20.5962,32.3421,11.8436,13.7863,23.5563,8.26208,20.496,-890.6,-463.6,6020,-3640,-6440
24.0202,26.3129,16.5545,21.8853,19.0041,7.22087,14.0655,2.1311,29.6844,17.1304,9.24249,21.8681,9.31981,13.606,15.7626,10.3428,20.496,-886.696,-458.72,5040,-4480,-6860
15.2688,11.549,10.0554,5.63044,7.29761,4.11678,2.38064,-0.921068,16.1003,11.8622,6.54371,11.8948,6.07843,6.7971,0.206106,2.38799,20.496,-888.648,-451.4,5180,-4620,-6860
14.1656,9.81012,7.60992,1.12944,1.95329,0.038249,-6.53333,-6.77615,14.6826,12.2997,9.01587,9.73909,4.75998,1.73153,-7.95478,-5.82967,21.472,-889.624,-447.008,4480,-4200,-7140
-2.29272,0.263533,-0.999183,-0.151534,-0.892192,-2.21023,-2.51183,-3.1923,-2.8213,-2.05054,-0.908127,-0.462371,-1.42597,-1.71713,-1.72051,-2.7844,20.984,-895.968,-443.104,4620,-4340,-7000
-33.1985,-28.5167,-17.9833,-18.1327,-16.08,-6.014,-7.2607,1.40418,-39.8127,-25.4731,-14.7353,-25.2477,-10.5248,-11.3431,-7.44568,-4.12381,16.104,-890.6,-439.688,4900,-2520,-7000
-34.6315,-33.7231,-19.4435,-22.8794,-19.653,-6.15548,-10.1014,2.06812,-42.9031,-25.6159,-14.3861,-28.3485,-11.4691,-13.434,-11.0316,-5.90906,15.616,-891.088,-442.128,4900,-1540,-6860
-21.9963,-23.6217,-13.9387,-19.7248,-18.1635,-6.75235,-15.5605,-2.84846,-29.9277,-15.6741,-7.79941,-19.616,-7.42071,-12.7456,-16.2973,-11.8345,20.984,-884.256,-443.104,4480,-840,-6720
-13.1875,-13.6689,-6.42244,-8.37916,-6.76987,-1.57507,-3.86771,1.61601,-19.8908,-9.65545,-5.96104,-10.2539,-3.53296,-4.31728,-3.88983,-2.53382,20.984,-875.96,-440.176,4060,-1120,-6300
8.75449,11.5133,6.22345,13.7933,11.1425,4.91273,11.2947,6.36226,10.0099,4.79266,0.337734,9.28867,2.8977,7.45176,13.8622,9.34322,19.52,-887.672,-455.304,3080,-980,-5880
21.9412,26.5536,14.5783,25.7365,20.9389,7.4673,18.524,4.99552,27.9608,14.486,6.3785,21.5221,7.4469,13.4876,22.8612,13.4328,21.472,-880.352,-447.008,1540,-1540,-5460
22.927,25.798,13.7158,21.5032,18.3044,6.49715,15.8986,3.96281,31.4978,15.5291,6.28531,20.6907,7.01689,12.7131,18.18,11.4624,17.568,-880.84,-445.056,1540,-980,-5600
17.7052,19.9489,10.0297,12.2396,10.7347,4.74575,6.13601,2.22078,26.7521,11.6536,4.46063,16.3303,5.28442,8.52669,4.63137,5.90927,19.52,-880.84,-453.352,700,-280,-5180
-13.1318,-12.5196,-2.666,-14.7125,-6.59103,1.30516,-9.29696,1.37052,-16.7914,-8.38765,-5.93953,-6.43663,-0.987861,-1.19346,-19.7829,-2.40187,19.032,-878.888,-444.568,-140,-140,-5040
-37.7197,-36.0682,-15.6605,-28.3665,-18.6955,-3.53898,-15.4253,0.663598,-49.4145,-25.0309,-13.566,-25.6459,-8.19356,-10.6708,-23.828,-7.50366,18.544,-878.4,-450.912,0,0,-4620
-17.7351,-14.6972,-10.4866,-3.90253,-5.76689,-3.21488,2.43838,2.38576,-20.1192,-12.9828,-7.34588,-13.3948,-6.78722,-5.9674,6.3989,0.590308,22.448,-880.84,-448.96,-1260,-420,-4340
2.4618,1.16923,-3.68844,3.12672,-0.867589,-2.03155,3.40158,0.657151,7.27291,-0.74747,-0.701588,-2.21146,-2.85866,-2.40409,7.50801,0.834041,21.472,-881.328,-449.448,-1680,-420,-4060
0.469617,-5.85825,-4.5629,-9.42658,-8.78697,-4.46338,-8.11854,-3.92512,1.12453,-0.842864,0.623629,-5.45422,-2.51647,-6.1692,-9.09925,-6.94703,21.96,-885.232,-448.472,-2800,-280,-3640
-5.16064,-12.7732,-7.20844,-17.2635,-13.9821,-5.30961,-13.9566,-5.05562,-7.34711,-3.4828,-0.494689,-10.5498,-3.50538,-8.83194,-17.0319,-10.591,25.376,-888.16,-444.568,-3640,-280,-3080
-0.681669,-6.09171,-4.60067,-11.0021,-9.20932,-3.55514,-10.1971,-3.71615,-0.935776,0.364258,2.19136,-5.8446,-1.96537,-6.54291,-11.8259,-7.15636,24.4,-889.624,-445.056,-4340,-140,-2800
-5.24527,-4.55672,-2.4532,-1.94952,-1.65918,-0.896463,0.0411882,0.534209,-8.36523,-2.72124,0.280399,-4.05281,-0.442143,-1.55332,0.691048,0.372837,27.328,-892.064,-443.592,-4060,-280,-2520
-0.731577,3.92148,4.79034,9.54729,9.54568,4.04092,11.0238,4.17344,-1.95013,0.35533,-0.279434,4.78428,2.71448,7.10285,12.9214,9.11856,26.352,-886.696,-446.032,-3920,-280,-2380
22.3498,23.9255,14.1115,19.3281,15.7142,4.91886,10.6934,-0.385346,27.4647,16.2562,8.49433,20.2237,8.1095,10.6294,13.5952,6.31228,23.424,-882.304,-449.448,-3780,560,-2240
18.5095,21.6342,14.2665,19.502,16.5938,5.67724,13.2042,0.642006,20.6471,14.6715,7.23577,19.4503,8.31578,11.7415,15.117,7.86797,24.4,-882.792,-450.912,-4340,280,-2100
-2.81135,2.09026,3.29914,6.62267,6.56037,3.54801,7.76552,3.09119,-5.54553,-1.17557,-2.67096,3.16126,1.84405,5.12104,7.27695,5.95834,23.912,-876.448,-455.792,-4340,-140,-2240
-3.40767,-1.95145,-2.91917,-1.08457,-2.63059,-1.09547,-1.63695,-0.459771,-2.76751,-2.50172,-1.20983,-3.19758,-1.91063,-2.31848,-1.46936,-1.7583,22.448,-874.008,-454.328,-4620,0,-2800
4.05501,3.70322,0.760827,0.445386,-0.741194,-1.02795,-3.4153,-3.05241,5.10633,2.94737,3.29073,2.07811,0.549004,-0.946623,-4.63155,-3.63139,21.96,-874.984,-452.864,-5180,-700,-2660
-0.20312,-3.7195,-0.126763,-5.79068,-3.44661,-0.930033,-5.74316,-1.87837,-3.47973,0.6048,2.54751,-1.71432,0.52887,-1.98565,-9.0869,-3.62564,18.544,-876.936,-458.232,-6160,-1540,-3080
-5.59438,-12.8836,-4.98307,-14.644,-10.5529,-2.61039,-10.9284,-2.09279,-8.41059,-2.95227,0.115703,-8.93426,-1.84822,-5.68605,-14.1687,-6.4743,20.008,-880.84,-460.184,-7140,-2100,-3360
2.3418,-2.97522,-3.75094,-8.08595,-8.14134,-3.69988,-9.78048,-4.51734,5.71239,0.433674,1.10907,-4.13122,-1.90346,-6.0534,-9.64522,-7.9212,19.52,-881.816,-459.696,-7840,-2380,-3220
-5.84689,-4.90174,-5.23602,-3.44249,-4.89896,-3.50565,-4.53617,-2.46248,-5.37517,-4.48681,-1.79331,-5.73299,-3.20765,-5.24942,-2.30034,-4.53327,17.568,-877.424,-462.136,-7700,-2940,-3360
-18.9002,-16.7593,-9.21352,-8.95571,-7.94999,-3.3895,-4.62384,-0.96932,-23.4719,-12.2641,-5.44204,-13.7852,-5.27081,-6.38247,-2.56896,-3.45954,15.616,-878.4,-466.528,-6860,-3220,-3920
-9.56215,-11.3105,-7.26603,-7.57453,-7.27745,-4.07026,-4.40564,-3.40708,-11.0083,-6.31396,-1.65985,-10.4434,-3.95285,-6.38704,-1.36898,-4.81099,11.224,-874.496,-463.6,-5740,-3360,-4060
12.8476,14.2921,5.50187,12.4857,8.61405,1.99546,8.39295,0.922654,18.1987,7.73564,2.56472,9.74029,1.98782,4.56061,14.154,4.32335,13.664,-874.008,-464.576,-5040,-3360,-4060
22.2974,24.7094,14.1664,20.7987,17.6457,6.22588,14.6979,3.54705,27.7635,15.7692,5.49638,20.341,6.7746,11.95,17.9937,9.91036,12.2,-873.032,-463.112,-5040,-3500,-4340
17.9497,23.9372,15.1239,22.0711,19.6308,8.05387,15.3389,5.27502,20.9579,12.5115,3.45828,20.7409,7.98525,14.1184,15.8675,11.3721,14.64,-874.984,-463.6,-4480,-4340,-4620
10.1371,16.4436,10.1289,16.6792,15.0664,7.01696,13.8743,6.96401,12.2354,5.01233,-2.06087,14.327,4.81944,11.3125,13.4917,11.2838,14.152,-873.032,-463.112,-4480,-4480,-4760
-1.20022,-1.33189,-1.42851,-3.49771,-2.77268,0.308467,-2.73211,1.376,-0.236969,-3.02445,-3.42613,-1.67662,-0.945856,-0.749301,-6.03845,-0.212299,14.64,-873.032,-461.16,-4620,-4340,-5320
-15.7952,-19.5362,-12.9428,-22.178,-18.744,-6.54677,-18.0684,-3.51127,-17.2851,-12.5876,-5.06808,-17.8422,-7.02258,-12.6147,-23.4763,-11.3493,13.664,-876.448,-464.576,-4620,-4060,-5600
-10.4689,-17.5662,-12.1441,-20.4538,-17.8642,-7.82496,-17.4254,-6.27825,-12.9308,-8.41831,-1.02544,-16.3159,-6.51054,-13.1548,-20.2733,-12.8256,15.128,-878.888,-461.648,-4060,-3920,-6160
-0.827187,-6.13682,-4.80943,-8.77155,-8.06502,-4.52253,-8.52781,-5.14098,-1.26771,-0.570097,3.01706,-6.22295,-2.67979,-6.41435,-8.73439,-7.69488,13.664,-874.008,-455.304,-4340,-3920,-6160
-6.98956,-6.75629,-2.75982,-5.10897,-4.11397,-2.12635,-4.07355,-3.31798,-10.5862,-2.81635,0.351939,-4.39862,-0.952716,-2.77674,-4.41368,-4.08214,13.664,-879.864,-464.088,-3780,-3920,-6020
-11.6588,-8.58103,-1.13802,-2.54257,-0.531902,1.26411,1.12148,0.516393,-16.7168,-5.74088,-3.13837,-3.76567,0.140277,0.720563,-0.239763,1.56407,16.592,-882.304,-465.552,-3780,-4060,-5880
-8.20987,-6.76847,0.5049,-1.20077,1.92367,2.83569,4.43249,2.98699,-11.3764,-3.98479,-3.94548,-1.75049,0.97192,3.01594,2.98057,4.40623,16.592,-880.84,-465.064,-2940,-4060,-5600
0.0284615,1.40123,1.66706,5.43868,5.43031,3.34006,9.60862,5.49561,-0.317801,0.299231,-1.41457,2.05461,1.19682,4.83265,11.2836,7.96041,16.592,-877.912,-469.944,-1260,-3220,-5460
-10.3132,-8.67887,-3.47427,-5.10453,-1.5039,1.69085,2.76771,6.13951,-14.3454,-7.73809,-6.11142,-5.87371,-1.58676,0.639601,-0.0578653,4.98699,17.568,-876.448,-471.408,-140,-3220,-5320
-2.48331,-0.59901,0.0289603,1.59043,2.10118,1.75173,3.98148,5.18104,-3.82366,-1.64429,-2.93338,0.081203,-0.193449,1.81563,3.79058,4.73169,16.104,-875.472,-467.992,1260,-3220,-5180
14.1831,14.0651,5.62948,11.1987,7.35938,1.26102,4.86046,1.10503,18.9432,9.6553,4.73695,10.337,3.04882,3.98985,7.55705,3.2062,21.472,-874.008,-467.992,1960,-3500,-4760
