Ch 1,Ch 2,Ch 3,Ch 4,Ch 5,Ch 6,Ch 7,Ch 8,Ch 9,Ch 10,Ch 11,Ch 12,Ch 13,Ch 14,Ch 15,Ch 16,Ch 17,Ch 18,Ch 19,Ch 20,Ch 21,Ch 22
-2.8161680990829727,-4.085014482746362,-4.58606505999444,-3.5887028486533312,-4.245895078866198,-3.7406101883679246,-4.393099545290158,-3.739643764478669,-4.632375111353714,-4.682621872224766,-3.871753008374704,-4.094267632058755,-4.769076396074872,-4.18743286696233,-4.22034457772136,-4.215716378404294,72.711998,-691.984009,-719.799988,-980.0,140.0,2380.0
-14.387508875652127,-19.561902242923683,-62.300093143410855,-0.5185062207308118,-35.86653905585225,216.5977364968794,-33.95964627658256,216.7942920294399,-49.32470616599573,-55.46435628813833,-25.231296574044013,-41.26107846995219,-51.170284644480304,-30.881155673063983,-29.52974550516428,-25.556768407402355,76.127998,-692.960022,-719.799988,-980.0,420.0,2100.0
-14.870388086758624,-22.44121276295353,-46.664102167398845,3.552367204693135,-29.999983808705533,241.7816997599849,-31.028573921183742,241.9557582347143,-42.60104998001642,-49.21350728590661,-20.65950171993021,-40.767921607226654,-47.75383309815074,-27.67791435593919,-29.52236234096221,-25.585764624711285,73.688004,-717.848022,-694.424011,5320.0,4200.0,2380.0
-3.0649996681226286,-8.01821893421399,19.87515525948844,5.411867994130723,5.419829435075043,57.65606265695457,0.5206830624809272,57.60567879242231,5.79270491264643,4.45167224086706,4.254643047639389,-3.981373258312038,-0.0453804612620421,1.42445606779482,-3.959788687895202,-3.6755998435509496,78.080002,-717.359985,-690.52002,6160.0,4480.0,2240.0
12.20630659823664,16.088663172290165,55.70358588869855,3.078854593825852,31.536774014243363,-161.4212510067476,29.12770177222759,-161.6593618313767,42.85663905291555,47.43839980857665,22.77308028300581,34.17024658840068,43.231478892090585,27.05433705465952,24.867598924028727,21.80735351624373,80.031998,-714.432007,-690.031982,6860.0,4060.0,1960.0
17.629081276708273,29.27084304350794,26.09072405716241,-1.9932866666546,24.296405773677343,-225.70150932912875,29.14683822465272,-225.8741672219496,34.51330661195768,40.60494012874922,17.705232038577943,39.92356497498857,43.226838991597184,25.950737736638487,31.62327132903673,28.417347078966504,78.080002,-712.47998,-691.496033,7000.0,3780.0,1820.0
7.477506706393265,16.135098659303612,-22.09220063819849,-5.70744937372528,-2.583554367039194,-100.28529074983967,4.720483397258524,-100.1857631756348,-1.9801922635358007,0.6415528277092,-2.0401374205945366,11.681561003760825,7.051884510915517,2.8377094810048544,10.945515267814567,10.116649795108072,76.615997,-708.575989,-692.960022,7000.0,3220.0,1540.0
-9.276608127787933,-13.2095145101745,-32.38222558780957,-4.814987955931271,-20.05055266154771,86.30386096390657,-19.166731205350786,86.59611886546931,-27.121556237740872,-29.41595183370797,-15.513090286200702,-22.31382339777944,-27.737627219972392,-18.604862909913404,-17.671923396826465,-16.13319372734105,81.496002,-707.600037,-694.424011,6720.0,2100.0,1260.0
-16.974401038970125,-30.01626732720016,-7.935396708109979,-0.0035702880472834,-16.845503374067608,177.97305357988125,-23.57848141150614,178.1494613190519,-24.06473413865044,-28.84995690599149,-13.167931053749228,-33.40311019652664,-33.94102441939615,-21.19409846757078,-28.76516757339716,-26.468178442450323,79.543999,-707.112,-695.888,6720.0,1680.0,1260.0
-9.317546177540745,-18.03819199195486,10.053391821381068,4.577788979785404,-3.7661524198226206,123.06842185514569,-10.157144996417754,122.9200024119764,-6.05652015474647,-9.62736234523079,-2.2353543246361616,-17.190421273233447,-14.592371663173234,-7.557441034107002,-14.882410028495269,-13.41262557600167,80.031998,-705.64801,-692.960022,6020.0,840.0,840.0
4.890177044111349,8.589459631688772,5.962513565965447,5.155795487350329,6.243709516609503,-9.611630606226914,6.884315173203629,-9.943439008938888,8.858973247710049,8.786370254853306,6.269808837595157,8.29119846550328,9.848116916863416,8.046756097774752,8.631931533066707,8.488473607319493,80.520004,-702.231995,-696.376038,5180.0,420.0,700.0
12.497791554332302,23.067198431257324,0.4147436828340115,1.721249184060373,10.485745773614616,-112.1257194895894,15.977846476949914,-112.28492634670474,15.132767977374328,18.27745218819194,8.602048544880207,22.79182656385299,22.78161469063887,14.766262231522225,21.08005785525012,19.56068380375582,78.080002,-702.720032,-696.864014,3500.0,-140.0,560.0
9.2695063139555,15.60178727637237,6.924300957922161,-2.4315118631840016,10.412347702485022,-122.29197927888173,14.162416570127789,-122.10685726888892,13.936442100078905,17.899533553593987,6.572677522123802,19.41844275570917,19.64641110605828,11.11496289846018,15.535837608133969,13.826705838587412,79.543999,-703.208008,-696.864014,3360.0,-980.0,420.0
0.804189163929341,-1.1383387630338853,10.729604827935692,-4.122256758503835,4.720272924956709,-50.58395119296004,4.199339984642561,-50.26556312451879,5.108850784825867,6.9735509955377575,1.7105634554844422,4.517738395914764,4.926486891561646,1.519873727372848,0.7907118094998256,0.1959386844412446,78.080002,-703.695984,-699.791992,3220.0,-840.0,700.0
-6.050255315142784,-11.510758067497108,-1.804030091373816,-2.776278034282202,-5.926310076870532,44.67060464408963,-8.173366896451306,44.77918682271724,-8.498524864892907,-10.08889354304825,-4.668492066156816,-10.89954396510296,-11.761791869413829,-8.024467976459885,-10.8329873310226,-10.074673236002583,78.568001,-704.184021,-699.304016,2660.0,-700.0,840.0
-8.47486467898727,-12.026929066825694,-17.09820246472994,0.0436302052263275,-13.60616106235404,99.78220056523269,-15.201925390052782,99.60195189447587,-16.837561449037082,-20.510307298836032,-8.697639328880866,-17.903764685819414,-19.560110123675,-11.963715872467686,-13.543296385688109,-12.358262128058836,75.152,-705.64801,-701.255981,2520.0,-560.0,1120.0
-6.098521472336182,-7.013370028840562,-13.930718648371434,2.4256172029219947,-10.058602983251276,82.61233190840527,-11.157867806868897,82.38236161749214,-11.575197117449813,-14.262473861781377,-6.305366875107977,-12.893993484604405,-13.209156910420292,-7.635912649612195,-8.271294455782238,-7.543012236096465,75.639999,-705.160034,-701.744019,2380.0,-280.0,1400.0
0.3544977800034801,0.6627591919002788,4.415529173371881,3.076922749759225,2.2715105834575406,10.450119023343218,1.559920562280501,10.4034192388028,2.816267411626721,3.208871864189152,1.2780885745796908,0.5246142398815492,1.9077542340978904,1.953822466067337,1.15131273677672,1.3864095635376394,74.176003,-707.112,-703.208008,2380.0,280.0,1680.0
7.236086269260173,8.826604090534575,15.351817816064338,1.61535693161652,11.64257923563586,-62.52523318953553,12.584608184248165,-62.41689575310691,13.029949332565154,15.799442761680956,7.492423676941844,12.821083096664813,13.88650450532732,9.473799987077763,9.586879316150217,9.499219281636558,71.736,-707.112,-700.280029,2100.0,560.0,1960.0
8.76569697194408,11.97090082141464,8.850464584330359,-0.9845001747296992,10.122046236909664,-84.70407590551144,12.79025499972987,-84.61195968995949,11.586564586001607,14.11111679654325,7.192675054981471,15.139847019368592,14.73383502945252,9.41778778168304,11.71931470950842,11.000260405998157,73.200005,-706.135986,-699.791992,2100.0,1120.0,2100.0
2.918770401743831,5.780508193102351,-2.543599540961502,-2.617067488359045,1.3326136679167322,-45.22754015983427,3.157331387095353,-45.2094661557239,2.8953685730464827,3.238553062619941,1.723524442911661,6.625600420825273,6.029765006665217,2.8579430568173465,5.653431588459529,4.25556241985908,70.760002,-708.088013,-702.231995,2240.0,1540.0,1960.0
-5.066725003642319,-5.376187274448595,-5.613086322203599,-1.8689126758307992,-5.821728633900248,20.963279192360208,-7.000501395025909,20.97776580160209,-4.858738922791775,-6.380061458187264,-3.627536404082732,-5.263893783938207,-4.874211357679849,-4.437818857662209,-4.324951564207691,-5.248630397892397,68.807999,-708.575989,-700.768005,2380.0,1960.0,2100.0
-7.835865028529574,-11.37727979132498,-3.1278610863123424,0.2712975426660253,-7.169820752180248,64.16274057738349,-9.952513713627082,64.18809573481337,-8.313926227849315,-9.987618879800683,-5.461975179629467,-11.902550952074336,-11.546021943603602,-7.68997471519106,-10.6278514625784,-9.713288579155368,71.736,-709.552002,-698.328003,2660.0,2240.0,1960.0
-3.895691731795177,-7.586742732138529,-3.200750443769729,1.4372351400839471,-4.60477830349172,58.03434480070947,-5.826207294464719,57.99017821580132,-7.836682251110569,-8.472310723789318,-4.0737175102522745,-10.1670777265603,-11.08303454314688,-6.03455902192998,-8.879405544267046,-6.625223715611508,72.223999,-710.039978,-700.768005,2800.0,2660.0,1820.0
1.7748638251404436,0.8113608571073968,-4.072427998945572,0.7987518656089044,-0.718781668460309,14.103709196686571,0.3864917355861103,13.98489383804417,-3.286268795060617,-2.99813595796566,-0.9831975660213286,-2.6955957986326293,-3.800220551508565,-1.1974153141531203,-1.2137640628064743,0.0370368844930465,75.152,-706.624023,-700.280029,2940.0,2660.0,1400.0
4.374020883815695,6.320163278838686,0.6374778983323907,-0.0799900766542809,3.525557570232231,-32.96876071989648,4.886037139583548,-33.02704047436338,4.45332534268501,5.020806031962816,2.675467576463817,5.727329725043663,6.3572327149968,4.278645824398492,6.414119396426995,5.205121449105151,75.639999,-711.504028,-697.35199,2940.0,2800.0,1120.0
3.701900943757432,6.814857551798792,8.039318085662387,0.2222940756566624,6.428364187319055,-52.17704143774297,6.570987313875548,-52.08860273747028,10.19248550894343,10.775098471746064,5.226022544176378,10.56947675174195,12.39536083436878,7.306441807461248,9.087985478676286,6.792736971099977,75.152,-710.039978,-696.376038,2940.0,2660.0,700.0
1.7962525009983803,4.195799499370525,8.293729198502385,0.7781665558659031,5.149214243443783,-35.073817909204806,4.957566234418892,-34.950455748885155,8.023578049847496,8.649183972842621,4.406313275717871,8.654474510633028,9.110290910201398,5.316001557670869,5.61067136177423,4.775698385043421,79.056,-710.528015,-695.888,3080.0,2380.0,420.0
-0.5885239473784646,-0.2607665679280203,-0.4022028535710344,-0.1118666385038298,-0.4816491925138371,2.543581898644349,0.0267041902656726,2.548641963948056,-1.1187759151017496,-0.7144120906443171,-0.0745064407925213,0.393733406700855,-1.2589240826254346,-0.9593317226826772,-1.4687218355771785,-0.2547918816082197,81.008003,-711.015991,-694.424011,3080.0,2100.0,0.0
-3.208990569114232,-5.413562606298212,-8.275154186079872,-1.852181188725764,-6.006235266032061,33.943788446402266,-5.670720141565687,33.868125408010464,-8.990312834651535,-9.314308439711525,-4.885539999668337,-8.632282893719003,-10.016890629976576,-6.647680884773895,-7.325705629327004,-5.857827486104731,78.568001,-710.528015,-696.864014,3220.0,1820.0,-560.0
-4.223490693308047,-7.661290123838915,-7.142126565033273,-1.8880806778700592,-6.438397147294741,39.8350741184064,-7.51674782748429,39.83289838576847,-8.669332938398398,-9.740010287585685,-5.7003796984033706,-11.011081115043918,-10.11322474751802,-6.7356497748196125,-7.694154955641068,-7.558002454086914,82.959999,-710.039978,-692.471985,3500.0,1680.0,-840.0
-1.797736286088004,-3.7049755588593056,-0.1969891385539377,0.5821934344133066,-1.6654869294335952,19.651680569222044,-3.30057109174341,19.71795742019412,-1.6021503837547255,-2.6079773526516954,-1.704496249664317,-4.443887603885554,-2.6355917555653794,-1.2775767299045586,-2.2285204159153755,-2.960993945439785,83.447998,-709.064026,-694.424011,3640.0,1260.0,-1120.0
2.5455249709397307,3.944746692865704,4.3831321136068535,2.889540635008032,3.6972635721560847,-10.806247028207128,3.6372688529925625,-10.848740382230762,5.16139649259534,5.162650708228472,3.392721338751392,5.304933458610138,5.305658050420115,4.509497275767687,4.637640461003268,4.362016546668331,85.400002,-710.528015,-695.888,3640.0,980.0,-1260.0
4.650911681734465,8.05342620693421,4.097443379100994,2.0752242377178978,5.367055848727932,-31.568411312239547,7.221955742369714,-31.75271590549048,6.728471687472862,7.795899597713054,5.120742617898705,9.758905368754464,7.917811188019779,5.698760739492935,7.257197448362002,7.596016119647003,84.912003,-710.039978,-694.911987,3640.0,700.0,-1680.0
2.4622070569366588,4.719630107318659,2.0607921072708035,-1.1392581582714747,2.9960985772386057,-30.77034787119233,4.63001092736937,-30.84502335610125,3.623655461438756,4.808445960657495,2.498779789967613,5.902603577696754,4.883945406659514,2.297050986176321,3.8775367195997306,3.907947006171269,84.912003,-711.504028,-696.376038,3500.0,280.0,-1960.0
-1.5456229290580326,-2.103312557148296,0.1800414376719525,-3.0709370166784304,-0.8332618254386793,-10.24048862700789,-1.2600577685254903,-10.006161372644335,-0.928996932832402,-0.6475989339325483,-1.5858983226954284,-1.692436554696934,-0.4225652469923198,-1.831929665199127,-1.9558671123783289,-2.5741970318499043,84.424004,-709.552002,-696.376038,3360.0,-140.0,-2100.0
-3.439146914510117,-5.653331655092354,-2.1228660885517296,-1.6068966954888224,-3.445193778095709,16.383915314116596,-5.19326458857981,16.712945209718427,-4.167200984230606,-4.924156573049382,-3.580277653325763,-6.305848966595369,-4.500100911690644,-3.4574696069931674,-5.127474750735488,-5.607697199932245,85.400002,-711.015991,-696.864014,3500.0,0.0,-2240.0
-2.1221733658768067,-3.8945186320699055,-3.838522105227682,1.3821193830033556,-3.511777344627603,31.40440075940644,-4.470220853873733,31.40267814064497,-4.500120387625234,-5.538857701324451,-2.391511984429485,-5.314233405820851,-5.351005125973267,-2.402517324003025,-3.704939893111933,-3.329907679980181,85.400002,-711.992004,-698.328003,3640.0,-280.0,-2380.0
0.3494102950475797,-0.1256297854321382,-2.3868143555115617,2.579814137790952,-1.2237054192518864,24.18089070461285,-0.6120621805338343,23.78070518102505,-1.7674644196243676,-2.24060184446493,0.2620541140509603,-1.1131286940287362,-2.7769617556487725,-0.3235681895192064,0.0209250385373487,0.926032904386542,82.959999,-712.47998,-701.255981,3640.0,-420.0,-2380.0
1.7307237461287963,2.2357731909099647,1.6229418336145536,1.0795066104922977,1.7612810459841628,-0.4015373281486337,2.823863162647992,-0.7605368621732786,2.0512851699716106,2.3820326683136424,1.917992849655059,2.476144838466517,1.3958053661766476,1.3273340327834378,2.516083245752411,3.0921122903188545,83.936005,-711.015991,-699.304016,3780.0,-420.0,-2240.0
1.5568426922453935,2.713564696003246,3.8112991052168,-1.1238206882918973,3.1535045220035287,-24.068980246732394,3.43293898198648,-23.96607308395415,3.856510330979599,4.595161164100324,1.6034876536009477,3.526768509181813,4.14077024719328,1.899108457967242,2.368269515527101,2.18174613916972,85.888,-708.575989,-697.35199,3780.0,-140.0,-2240.0
0.5676838081638179,2.0656576002646485,1.848084347963408,-1.8385755641922268,1.9366926832906848,-28.929873457981724,1.4788282158471688,-28.485651803616005,2.408353302667795,2.970459679385031,0.2958327356034096,2.434225865611912,3.631895617634601,1.313007811997845,0.8322822255161471,0.0486592424583839,84.912003,-710.528015,-703.208008,3500.0,-420.0,-2380.0
-0.4616760288633147,0.4191539893561926,-1.263983668284121,-0.8391457730492821,-0.5585149537554779,-12.125385845238084,-0.939219011424632,-11.83652995372324,-0.3879801696587175,-0.3522521831699625,-0.5187790953990579,0.5113618551751561,0.8585479841599702,0.0612972127014585,-0.2606379696607729,-1.1817597754943334,85.888,-710.039978,-699.791992,3780.0,-140.0,-2380.0
-1.019694874206273,-1.8011358539686253,-1.7479369131432303,0.560599640378872,-2.062877317984387,12.176440235225035,-1.9709580150175685,12.04152737101292,-1.929464930795576,-2.371847335543225,-0.4770400930679273,-1.2340959540697825,-1.714768068966302,-0.9639615623745246,-0.5228887306706592,-0.9376856539653996,86.375999,-709.064026,-701.255981,3920.0,-140.0,-2100.0
-0.8599703696051851,-2.93002032585998,-0.2907433185305786,1.1587538678591165,-1.7036579604169997,25.31702468127979,-1.4379577203843177,24.97047179679268,-1.7838256067634326,-2.335667818730914,-0.3418705776408235,-2.317415655342379,-2.724468676144177,-1.200969029180506,-0.8066896107496778,-0.1520646971593738,85.400002,-707.112,-700.768005,3780.0,280.0,-1960.0
-0.2056896069849605,-1.6858783167887736,-0.0041759438225519,0.7508647475715094,-0.408652632847478,19.163626657781624,-0.3849671698861158,18.96031523536075,-1.1513460659657322,-1.386184513641967,-0.5811584823696232,-2.373840375500044,-2.4091326055388507,-0.8268823987983577,-1.4062220936736447,0.0573965489704558,85.400002,-708.575989,-701.255981,3780.0,280.0,-1960.0
0.395644240342661,0.9231785765485532,-1.001475209319681,-0.0797996082734534,0.6816612662886483,0.5773432945452611,0.4149442634262891,0.6246720485989834,-0.4247369711601476,-0.1875729438678201,-0.5902203776719612,-1.0330235613889602,-1.1139819025275297,-0.2202035693018363,-1.275576803117867,-0.3174651121560301,84.912003,-706.135986,-700.280029,3640.0,560.0,-1680.0
0.6439906667285804,2.5376408531434613,-0.5337321228301563,-0.5912188040282272,1.2599124388797414,-16.171674788216077,1.0089878351955297,-15.9952667295251,0.9789224402657158,1.4354533442304285,0.2769408882113366,1.4105628483440311,1.1638083186258046,0.5576560502942559,0.4321625267327772,-0.2664920896137376,84.912003,-707.112,-698.815979,3500.0,560.0,-1680.0
0.6224075966310982,2.022393516971825,1.8487717844094167,-0.4696751363337613,1.2813013467769132,-20.36720560088932,1.3822916633520934,-20.181915344499306,2.524113870574284,2.7758866715147863,1.379036666369691,3.3471785165222623,3.426559966252256,1.3297860540621165,2.5215904330611174,0.6868489416004838,84.424004,-706.624023,-699.791992,3500.0,1120.0,-1260.0
0.343184089066233,0.2451947371871319,2.852967818744584,-0.0566885802287566,0.4627436996147276,-10.814046086459356,0.9047125752356716,-10.68941791525631,2.262414152315169,2.124855261352249,1.3016900478189155,2.7672441008053683,3.446297285111509,1.3432055936774756,2.557710443668902,1.4525169137621918,84.424004,-709.552002,-697.35199,3500.0,1120.0,-1260.0
-0.3129676124931242,-1.3738794968033388,0.338715949703131,0.0839340078932555,-0.982939597229802,5.064639445587741,-0.6558742296213017,5.027564998018983,-0.44658012439239,-0.7627779575289282,-0.2382978846051964,-0.4434778513968487,0.2560275864300768,0.0659088039518597,-0.1066061870499563,0.6385570939271051,82.959999,-705.64801,-696.376038,3080.0,1260.0,-980.0
-1.01981262773305,-2.065934058265783,-3.052130898973829,-0.1088554464417858,-1.8410890729318528,16.531860340887835,-2.0751995946330952,16.28163119436691,-3.230171075850111,-3.3800581255766886,-1.736841674726182,-3.576473194972681,-3.7402299771273495,-1.643224744222058,-2.9829682271565616,-1.284960372588468,87.351997,-707.112,-695.400024,3080.0,1540.0,-840.0
-0.972837810671554,-1.5661295496854857,-3.238435137922133,-0.1364573170535168,-1.0753177703046548,16.181454398788357,-1.6851893441614785,15.894461545895554,-3.111422807197303,-2.9844435155225604,-1.5853397229930448,-3.5239381665992937,-4.659551789632398,-2.045044835633281,-3.027365127350462,-2.12871764368124,86.375999,-707.112,-694.911987,2940.0,1820.0,-700.0
0.0864162949876344,0.0581152496729658,-0.1013746921478264,0.2731506271782213,0.6956082958718106,4.7262465839171135,0.4336356333025598,4.714924678068683,-0.117834714271387,0.0857350701175648,0.0362882131596446,-0.2699316778980817,-1.3981511709143106,-0.5355511561315339,-0.2012678770791832,-0.7089994981425815,85.400002,-707.112,-694.911987,2380.0,1820.0,-840.0
1.2192826704311546,1.9377218980722528,2.719690763149195,0.6645561168352561,1.7314104174942746,-9.352901080702487,2.175447299811949,-9.014249561601648,2.766965523755607,2.788469793731458,1.476701930615266,2.9210157850872176,2.9968303787816506,1.472732752292569,2.5266570041036327,1.4694646108963567,84.424004,-705.160034,-693.447998,2100.0,2100.0,-560.0
1.2487165568969016,2.552618811458032,2.696839951283418,0.4574577310702864,1.2018096745422897,-15.927086466882992,1.797517257085027,-15.567931845726068,3.092700313383621,2.894385163371446,1.5521521873653157,3.153596622567614,4.607025454635079,2.122777163943313,2.693471383921703,2.0477896339496184,86.863998,-706.624023,-692.471985,1820.0,1960.0,-420.0
0.1744050548264292,1.123427362383702,0.7931193785935606,-0.2123750405608947,-0.0434195328139422,-10.849798214472749,-0.0710784202099337,-10.859820319485234,1.1881714877457197,0.9903091497530928,0.5528195645349279,0.8898861609324271,2.5030172851617905,1.0826520592692508,0.7947168487372034,0.7025872342998348,84.424004,-707.600037,-697.35199,1820.0,2100.0,-420.0
-0.9108237331283472,-1.337855663060508,-0.9804936060362732,-0.6933784742496508,-0.8452329802801727,1.2063068893782427,-1.427635883943787,0.8369138732835817,-1.119365614514769,-1.0536652930877368,-0.5836058661577409,-1.2898649496305428,-1.0970823826797496,-0.5297473762965337,-1.0759692619948134,-0.8265318354679089,84.912003,-709.064026,-694.424011,1540.0,2240.0,-420.0
-1.1722261578818238,-2.8315290621555085,-2.046087025599156,-0.7031976230490306,-1.0473436086180352,11.03451872002009,-1.3603110105347398,10.702242172284338,-2.603156441807009,-2.247731473458225,-1.32308245479781,-1.9600896636084493,-3.5541492124366174,-1.6506200815157417,-1.85445888120708,-1.2497450366523035,84.424004,-706.624023,-694.424011,1260.0,1960.0,-560.0
-0.6977982499203202,-2.174862729272702,-2.3988934253183523,-0.473938890743415,-0.9969164807311344,12.2477818909858,-0.6212856317518289,12.274131296681317,-2.759859217720973,-2.4245787701045254,-1.4609990489786573,-1.651306810641765,-3.6724447591306735,-1.8973576695448453,-1.7905476258271302,-0.9658502441136534,85.400002,-709.064026,-697.35199,980.0,1960.0,-280.0
0.1025500257939367,0.1213527175609958,-1.2465911115881851,-0.0583526033360878,-0.5110051914832356,5.385755242144995,-0.0064083031203728,5.692966642645278,-1.132619946238171,-1.2248248021947623,-0.701368385521086,-0.9196978907573916,-1.5110436700938463,-1.0474970136410575,-0.9564084590281452,-0.6298139897070384,83.936005,-703.208008,-698.815979,980.0,1820.0,-280.0
0.9647447650911114,2.4102416534537263,1.6176683034759365,0.7744121720830107,0.7237565516577784,-3.816518644888709,0.6424202796412866,-3.547655677832693,1.9299136793514773,1.3510869178847853,0.9072422521263408,0.555561418416515,1.965058441009972,0.8923812821532802,0.88737241753996,0.1068581138629481,83.447998,-707.600037,-697.35199,980.0,1960.0,-560.0
1.414999585415771,3.030757270412141,3.990571123152862,1.6470166918708926,1.9825539660090343,-9.32783484656062,1.4408330736634545,-9.304157717280408,4.2187236682390665,3.643671133525466,2.293022558588271,2.4204337644005034,4.607722885777448,2.7811872880816666,2.824556589027129,1.4934378509399096,80.520004,-706.624023,-697.35199,980.0,1820.0,-700.0
0.7775870862653845,1.3514530785547998,2.968172574896397,1.3486112540463544,1.7976633787637786,-8.554124327932207,1.5231828964702312,-8.743847583539642,3.124822195816246,3.1952608596249354,1.968682106415708,2.8080082152813497,3.934017612904249,2.646263787230981,2.7715244557096423,2.289323330987689,85.400002,-709.552002,-700.280029,980.0,1680.0,-700.0
-0.8081624714396463,-1.5628577839036435,-1.2009158559243025,-0.649746010490343,-0.1946891945945851,-2.9224309205400414,0.1067011217228523,-3.169723925788039,-1.127791537802712,-0.3313895541520812,-0.263274558504024,0.5172832306944983,-0.3077139895895601,-0.0967362260409786,-0.0164370822222981,0.9549534267440318,82.959999,-707.112,-698.328003,840.0,1680.0,-980.0
-1.9126467141944352,-3.392705149308324,-4.559889262292984,-2.78176987431161,-2.353903292389634,3.7945749502756976,-1.90072241970852,3.6569635386580233,-4.780104982806917,-3.9667011534591374,-2.607741832150704,-2.6732069246311774,-4.794282071879854,-3.212277741315399,-3.242651126402527,-1.8560426836874533,84.912003,-707.112,-701.255981,980.0,1680.0,-1400.0
-1.2289279394125827,-2.4391903096631853,-3.659054752942142,-2.588705173660393,-2.575178103343051,7.74698903877456,-2.44858765477286,7.841373883058958,-4.179536250298706,-4.190925142291973,-2.8217756927248843,-3.4953234646315474,-5.273572232769413,-3.5683155357945027,-3.651336718903712,-3.3448304255979227,82.472,-706.135986,-699.304016,1120.0,1400.0,-1540.0
0.6705873282447754,0.5796277720182856,0.5226844933891696,0.3138121022722115,-0.5443519181676123,6.898723387010138,-0.7345574288548445,7.1971981944692764,0.1746970455500516,-0.723765662488896,-0.5296140146963477,-1.0795278944525406,-1.0506532567566775,-0.6269211173229109,-0.7315659858758717,-1.6985468931660457,82.959999,-706.624023,-698.328003,1120.0,1400.0,-1680.0
1.803351650937899,2.989860956648987,3.790193592600149,3.2670581392890794,1.9274239494876024,2.000951297299883,1.6671344805402384,2.2552519949971663,4.0926001522948665,3.151003687049288,2.2543460728241134,1.9651399026569671,3.940927158093212,2.7913135723622204,2.6401589978951576,1.6106868662305385,83.447998,-704.671997,-699.304016,840.0,1120.0,-2100.0
1.1104125392178856,2.7399228329207914,3.3633315322397506,3.259403478593437,2.7153783120644714,-3.874040039750456,2.4818590436994183,-3.949581812937121,4.1315646093418765,4.0392387050729655,3.032576095204115,2.760392654941003,5.123392273751631,3.525490718008332,3.40884969510874,3.3691621901844706,82.959999,-707.600037,-697.840027,840.0,1400.0,-2380.0
-0.4070906783061839,0.3257259614828726,0.3424108919405904,0.2474471728211783,1.2733568850231298,-7.179463582102516,1.1320786815415986,-7.564692461584825,0.8241229940220162,1.622223107815214,1.1985879731651632,1.2759391357831198,1.8806515951355505,1.2496359398745116,1.3688864045698104,2.074731436673502,82.472,-705.64801,-699.791992,980.0,1120.0,-2660.0
-1.1404687562333464,-1.96809278789404,-2.2061034819918515,-2.8390623629194747,-1.0786400136356096,-6.014498233182314,-0.9116063708025433,-6.3206900342470185,-2.526511519973163,-1.6177939690637335,-1.4774491205421776,-0.4679451284476744,-2.3019074355888565,-1.668995245349624,-1.2703599441601454,-0.7714708723381493,85.400002,-706.624023,-698.815979,840.0,840.0,-2940.0
-0.737322953247718,-2.3701332633102656,-2.489659027461454,-3.248690036972018,-2.3700507146890533,-1.1572090312528702,-1.8481681814342807,-1.0330923125761018,-3.3381904055157534,-3.087117796522344,-2.6126603241669577,-1.2216203505733032,-3.793581583148692,-2.818012807987502,-2.456338772931775,-2.5599847787117795,82.472,-708.088013,-697.840027,700.0,840.0,-3220.0
-0.0024765763392155,-0.9405845892143596,-1.003005836805818,-0.9645542370010708,-1.590836576498201,4.44721054027617,-1.171861207353856,4.8849095694253135,-1.5974171388172835,-2.0922296374037983,-1.421773657324648,-1.2722351980063995,-2.097472015996517,-1.6777353329301377,-1.7795448051826968,-2.074801161220175,82.959999,-706.135986,-697.35199,700.0,840.0,-3500.0
0.4407039126045742,0.9256287321872044,0.7241953305044121,1.7904197126418682,0.4479256442097773,7.281913186177435,0.2252657196050184,7.55490533534776,0.9375997497948227,0.1936442528569626,0.7229712873996198,-0.9801240439732652,0.607210279539493,0.5329823826627382,-0.0701531149158336,-0.1449064973995557,84.424004,-707.112,-696.864014,700.0,840.0,-3780.0
0.5728421069687186,1.7624000313206498,1.5286220003562112,2.838825662647233,1.7865788028063718,5.287278442380961,1.068858974876303,5.106151974757927,2.392514892711596,1.9460139293992889,1.795434308200866,-0.1334987055591517,2.094423114978828,2.0489642040699976,1.4547566000710512,1.4947686499239417,83.447998,-706.135986,-699.791992,560.0,700.0,-4060.0
0.3708759352408848,1.0395355553461814,1.108655581503314,1.6237311963906405,1.2156042479301588,-0.5056387240752113,0.7746402540302132,-0.917703632841564,1.8716675290648144,1.9597674507877525,1.0899152923464412,1.0278043992516304,1.7593065442563285,1.7242563707241032,1.753314122220707,1.67923633642804,84.912003,-706.135986,-700.280029,560.0,700.0,-4200.0
-0.2556690917772999,-0.4590197934757087,-0.0081933115682533,-0.7448107290547016,-0.4134866390784714,-6.086869645327695,-0.1353991449991339,-6.279717728161804,-0.0748853206623106,0.4487438592004965,-0.3165872791272553,1.4633831235562098,0.3927665374292549,-0.0959304467390454,0.629327968413989,0.5662536769937285,85.888,-704.184021,-697.840027,280.0,560.0,-4340.0
-0.8262396585862716,-1.240128275958262,-0.821812562736237,-2.383393684344126,-1.1533118830975069,-7.148950154414516,-0.5795213308835883,-6.958613530230228,-1.7358766877743843,-1.1170535827475223,-0.9399188731392688,0.6849671246753262,-0.8127419778625463,-1.6342352132190263,-0.849927008936721,-0.6753035890666161,87.840004,-707.112,-700.280029,280.0,700.0,-4340.0
-0.4933730305461305,-0.5741186279914213,-0.6779505794827014,-1.9582656971120675,-0.3069732026429632,-2.7556278074299034,-0.0803796771886264,-2.432363704243903,-1.6103950084575902,-1.33231151422002,-0.4540825998139486,-0.4075248862206102,-1.0747398275235909,-1.2907250110780617,-1.2272654260551872,-0.9891936282346752,84.424004,-707.600037,-697.840027,280.0,560.0,-4340.0
0.6748636502896709,0.6140783612262002,0.0608141519236129,0.1508117901835919,0.7752047464336893,3.499788800317859,0.6407016165694067,3.625049627349458,0.0573029363575566,-0.2553662596086781,0.2615308008379713,-0.7636733445707832,-0.4600479259615405,0.4866902760648162,-0.2875778190694691,-0.3885776473503821,88.328003,-707.600037,-695.888,420.0,560.0,-4200.0
1.325103491190288,0.8189029894833234,0.4518331903802305,1.9958943227526416,0.586601641358305,6.5430440173800966,0.5154464428895311,6.398828711976601,1.4393815667516834,0.7443760719965543,0.382963423924541,-0.5524484175291031,0.2595887897728245,1.541320372857331,0.6677815185309114,0.2655140216171786,84.424004,-707.600037,-700.768005,560.0,560.0,-4200.0
0.4167915776912586,-0.1058202959430008,0.1432927589393182,1.8730843377029247,-0.5061236056800102,4.338972975011863,-0.4738109694455151,4.111595189822237,1.134782347498429,0.6319721558320477,0.0073690392233986,-0.4775228870422477,0.4024827397901551,0.6050975964360488,0.4989975325604032,0.3594207354796463,87.840004,-707.600037,-703.208008,560.0,560.0,-4200.0
-1.2262045848644183,-0.8053890237138877,-0.2917629229791988,0.0688907006102996,-0.9290424271392144,-0.6693016483127282,-1.1963908389816602,-0.7695410575073985,-0.3234243697572444,-0.1933801088771591,-0.2922784859009795,-0.382342303076099,0.0535316731175458,-1.0937465982176593,-0.3611603641551709,0.0726242218564972,87.351997,-708.575989,-697.35199,840.0,840.0,-4200.0
-1.7402696843095586,-0.3981846530955113,-0.3039199738758812,-1.543771516791249,-0.2144178181970834,-4.341394868467933,-0.7839888047698218,-4.255430072336213,-1.3014964053629958,-0.6607233941215043,-0.2979189130455552,0.308952094997743,-0.2209416203491747,-1.464697489415894,-0.6824067684567675,-0.1743073583102788,86.863998,-706.624023,-699.304016,840.0,700.0,-4060.0
-0.4762426374705887,0.3363863840550219,-0.0885924212681654,-1.5865311980195465,0.500295825845859,-4.453373528883286,0.3542008964191064,-4.280987336487127,-0.9766447336887498,-0.3966190061602496,-0.1572822616170512,1.110600214181623,-0.164877055139552,-0.2202335925606221,-0.1363853117143313,-0.280805614317572,87.351997,-708.088013,-697.840027,840.0,980.0,-4060.0
1.285792953159636,0.3606559695168947,0.0149622443267935,-0.3726747824501432,0.4087499594253609,-1.66721807666793,1.1954912305325176,-1.5701340974848343,0.1286951195895516,0.1657239788246077,0.1272514674251181,0.8467648735739384,0.0399418290233248,1.0610007360132714,0.5276292464275981,-0.2029456970831899,84.424004,-707.112,-697.840027,1260.0,1120.0,-3780.0
1.9068554777762048,0.0621094058701246,0.2543761826188168,0.9129885282313196,0.2062920477757343,1.8792455796977223,1.2619757332345152,1.8102751624502176,1.1356164913530384,0.6458114125921283,0.6251283868034476,-0.353372843723146,0.2940271008763128,1.2221410979197285,0.7274200550893537,0.2902688016733283,86.375999,-706.624023,-699.304016,1260.0,1120.0,-3780.0
0.9993609656420994,0.3713877222175911,0.8352941915658675,1.4734872730221604,0.5826417230403617,4.004891245893858,0.649879805678992,3.844458645310193,1.4882360233559044,0.9142257543168184,0.9132800902960116,-0.8748277154301389,0.6195823704781173,0.6414000408241315,0.559886385315997,0.998954769775138,88.328003,-707.600037,-696.864014,1260.0,980.0,-3780.0
-0.6399168048098403,0.7799053820717003,0.9630716844087396,1.0725370938489334,0.6564270334718674,3.246386221019552,-0.5329426538067078,3.1776706543931565,0.7875397028024841,0.5947001641769003,0.2834412414651262,-0.0584669024037413,0.6285058504392814,-0.0497542340780023,0.0908793913260135,0.911285841785786,82.959999,-709.064026,-697.35199,1400.0,1120.0,-3640.0
-1.92192245273295,-0.0877321397573223,-0.3091330964902389,-0.2154920221709091,-0.6551610383840905,-0.1717925475218303,-1.8744515166252875,-0.0619930801551308,-0.9445102836514754,-0.6282683233476768,-1.102998842822821,0.5558733997607442,-0.2562462106990254,-0.9484588922430376,-0.820441398779299,-0.5782384693441585,89.304001,-706.135986,-698.815979,1400.0,1120.0,-3500.0
-1.9269454166806583,-1.801216948291688,-2.1350420785006383,-1.6779055287509703,-2.227907820909038,-3.699319958788542,-2.1236165894295125,-3.547163186449823,-2.474852805066445,-1.931488893820953,-1.825914831338728,-0.3765799891666339,-1.60374155136451,-1.8317050482230457,-1.6228382955570866,-2.184596612285993,87.351997,-708.088013,-698.328003,1680.0,1120.0,-3220.0
-0.3077889233939946,-1.8984290242305568,-2.1243950114421093,-1.9376785031920905,-1.5829439611599074,-4.057147231245351,-0.2661582581102249,-4.068407157015051,-1.94260913899473,-1.6279011057910997,-0.7193254720794263,-1.4935784557209455,-1.7741719795704918,-1.4103164420215928,-1.0656125777569527,-1.7112324567761044,86.863998,-708.575989,-694.911987,1680.0,1400.0,-3220.0
1.952795391316409,0.6066833821013209,0.5397182315741536,-0.3121042711276997,1.4031901471121155,-0.5867611921785818,2.501443553071551,-0.7608216964498553,0.8122837776328372,0.6445136791723842,1.3842137369595011,-0.4823076802381126,0.1356627969325411,0.891405992904347,1.0089804866003662,0.9689451193065264,84.912003,-707.112,-698.328003,1820.0,1540.0,-3080.0
2.736185710026392,3.015102678863382,3.2256762774972425,1.8729317638372007,3.4098409975870108,3.4753566596100227,3.185129780036743,3.368306346548171,3.21294255632632,2.726930927965564,2.259812228464978,2.040820845307083,2.5162152746780992,3.071008139224699,2.612307816847032,3.0320622979205263,87.351997,-705.64801,-697.35199,1820.0,1400.0,-2940.0
0.8753917657574473,2.094298157715016,2.621752058639524,2.353864384646837,1.673686778698056,4.128152986415394,0.4921613566249073,4.247570609358872,2.5273884297415794,2.148191311839926,0.8971563675477325,2.664099841673039,2.6301167524851303,2.333155364910272,1.647657509660433,1.9148772651441448,85.400002,-707.600037,-698.815979,1820.0,1680.0,-2800.0
-1.993803026053644,-1.3061560885338457,-0.8877120510747724,0.5929733935150837,-2.0290706125257936,0.9292716930501008,-2.8964868108929345,1.1348553726321062,-0.6780648398421806,-0.6559872235075208,-1.1998294970859256,-0.0892722722068892,-0.0028115062125152,-1.0509261731347246,-1.1685957366813202,-1.2449844733608215,85.400002,-709.552002,-698.815979,1960.0,1680.0,-2800.0
-2.8075082272622875,-3.023296722343848,-3.3119100464129207,-1.4962736201204847,-3.306770854852056,-2.703408079419872,-3.0894597237186145,-2.679132150400553,-2.968545174184188,-2.609422106311811,-1.8428860857045943,-3.1359980993883405,-2.68578286767069,-3.413533075596288,-2.768696589477244,-2.8186765540861947,83.936005,-709.552002,-697.35199,1820.0,1680.0,-2660.0
-0.6827396109969263,-1.1247136062024266,-1.9961334460542128,-1.9144261463242809,-0.8062396375397747,-3.489500824071989,0.1234054899680911,-3.685263649400471,-2.154008678452722,-1.752292576097913,-0.7437871005609049,-2.6063121085527645,-2.6416088166216767,-2.1155858009541806,-1.4557561995452442,-1.2534855903269475,81.984001,-708.575989,-695.400024,1820.0,1960.0,-2660.0
1.85103361021086,1.576650997830742,1.0915783588544634,-0.8102249603082464,2.100923124265268,-1.4996057107824472,2.799380041543326,-1.6732044021905943,0.3113030190529206,0.4925369204436855,0.5124852300751672,0.914776611777382,-0.210376769909318,1.081459862093431,1.0359431099471428,1.1335381171366945,81.984001,-710.039978,-698.815979,1960.0,1540.0,-2660.0
1.9512133439376929,1.6429966387885766,2.182429510450482,0.327950066675253,1.931220366609492,0.9380909089173524,1.823609392760285,0.988664279327004,1.6584342313516898,1.5065036038240138,0.7671858911983742,3.061032134102568,1.9066686450435648,2.44062120532632,1.9269063716922163,1.4987275575226215,79.543999,-706.135986,-699.304016,1820.0,1400.0,-2800.0
-0.0473437994186788,-0.3051641825816995,0.619560860452805,0.8551946491271436,-0.4477701003147288,2.246086975335589,-1.1684286986514167,2.434479773114284,1.2439163992750049,0.8108777520208633,0.4822872368221969,1.4243480943259283,1.974640057322553,1.060774210953424,0.8085045776794713,0.1344190213575864,83.447998,-706.135986,-696.864014,1820.0,1540.0,-2800.0
-1.3755741043428678,-1.0489029162330452,-0.8806463052927421,1.158894412871855,-1.517960125134131,2.3833420243616743,-2.1766926434738223,2.4824674299962566,0.4243335629078693,-0.0292978541501203,0.4315844136778158,-1.5272840721295982,0.6421297603476842,-0.5969787306072397,-0.4791498132654392,-0.5527405431194459,80.520004,-706.135986,-695.400024,2240.0,1400.0,-2940.0
-0.6172814899632576,0.2379618554322532,-0.4607251457041682,1.1449516322617683,-0.1397402029241801,1.4666799031871591,-0.1636236483752068,1.4085472997939656,-0.0532791916364715,-0.1249473767061228,0.3159985376116291,-2.0565827809770894,-0.6747736265605355,-0.6625459414187383,-0.7019484660692941,0.1987930974641769,79.543999,-711.015991,-700.768005,1960.0,1120.0,-3360.0
0.7192287840561314,1.106641972161779,0.5589254429905594,0.1231149340502793,1.2771651509988298,-0.6141677879735359,1.9031898338826083,-0.7078535668916911,-0.6735692796444135,-0.1737356733694746,-0.4446995966757424,0.0227466364057573,-1.3717224399958452,-0.1207857890619637,-0.4089531730937006,0.6847123510681398,81.984001,-707.112,-697.35199,1820.0,980.0,-3360.0
0.6854503480010113,0.0020715298128702,0.2665725965008252,-1.5196336614420358,0.6165711837528485,-2.943870528858165,1.3234089216130274,-2.984256122717585,-1.3026716322974428,-0.597667948658372,-1.223787564612721,1.6708460218760763,-1.28150689676638,-0.4193487264145987,-0.2888874402868763,-0.2565546855864498,81.984001,-708.088013,-699.304016,1680.0,700.0,-3640.0
-0.4313400329796382,-1.3109962033486633,-0.7986004092955206,-2.0119015459587195,-1.019229525349577,-3.454251809066327,-0.9050176319588452,-3.483492545313573,-0.752411503638906,-0.5352396187922434,-0.7603904384808168,0.9234394010033196,-0.1480420905161853,-0.8241369573037031,0.0076104098676303,-1.2927423179140662,81.008003,-710.039978,-701.744019,1680.0,420.0,-3780.0
-0.8892868309517311,-0.7271242064120155,-0.7742458507104573,-0.4835159582477369,-1.2557742592692414,-1.1199637935312952,-1.8701348970332503,-1.1585003511276593,0.993321422383897,0.4421641507839878,0.7794681765825388,-0.9083075971975054,1.4879437565558005,0.09745094982321,0.6931416451329121,-0.693458686547405,82.959999,-711.992004,-698.328003,1260.0,420.0,-3920.0
-0.1191956225337716,0.8051471841595127,0.3930824742003553,1.466531259888809,0.0942570449403686,2.353171692547176,-0.6662057893572619,2.403601028897194,1.8073152589228867,1.011528170599693,1.5430437366824266,-1.4513163865144003,1.871774129075339,1.519188136764256,0.8201559279866291,0.8828573265670365,81.984001,-708.575989,-697.840027,1540.0,280.0,-3920.0
0.7140745661563871,0.8963768116677531,0.9032189951619504,1.685068408077636,1.0875062111092348,4.013469450052112,0.9348880931001834,4.197548924293465,0.2096048166326315,-0.0387609196655692,0.3937609631696114,-0.270616756779087,0.0076940016604518,1.1629733303094991,-0.3012993979772463,1.2653261350537863,82.472,-710.528015,-697.840027,1400.0,280.0,-3920.0
0.6029720919193071,-0.4035636961154309,0.0521264826006394,0.3121978061085022,0.6081793553371625,2.641098325200878,1.2213414906139104,2.7776563055212584,-1.9384157036591745,-1.4525163867961874,-1.3146318513496575,1.0547214797385385,-2.300964837306988,-1.0027856113459537,-1.445278628448959,-0.0149445104437952,81.984001,-710.039978,-698.815979,1400.0,700.0,-4060.0
-0.050007243555882,-0.7652577748004485,-0.6686913078501304,-0.6661433279055681,-0.3392170074495289,-0.4031918821057615,0.426601439353993,-0.5430197563253472,-1.5337829449966986,-0.8775069954282708,-1.3544264661754568,1.097214320069138,-2.061736227586314,-2.1055479106286765,-0.7941101900614681,-1.0452515358271517,81.496002,-710.528015,-699.791992,1400.0,280.0,-3920.0
-0.3734643001024447,0.5215512688838323,-0.044094621885501,-0.4215210389605866,-0.4588800710396211,-2.931729346107264,-0.2989706076390833,-3.2695823632750245,1.2362603534497745,1.456023262781201,0.3874053276684845,0.0298542930316025,0.897157530950746,-0.3492417348798776,1.21993658944271,-0.3790856010722754,85.888,-709.552002,-698.328003,1400.0,560.0,-4060.0
-0.2740687797206014,1.2726526806173355,0.8620169811643793,-0.1758967000658372,0.0563383525012549,-3.612943005876117,-0.5234078248626065,-3.763226672392612,2.660467797822579,2.4090066179152103,1.6825632246346915,-0.876108940757063,3.0975247518927445,2.091434108817682,2.0065013231224333,0.870756471979368,85.400002,-711.504028,-698.328003,1260.0,840.0,-3920.0
-0.1525351281366619,-0.0778111990383901,0.4079685237311108,-0.7417037620769323,0.23858224606448,-2.136847424982908,-0.4771628395936933,-1.8674623240179813,0.5294556409622506,0.1769028939087211,0.8814555873313209,-0.6800440428297342,1.6566452831868332,1.8534280120309148,0.2794236918306887,0.7514088541068901,86.863998,-709.552002,-695.888,1680.0,700.0,-3780.0
-0.0314510246103954,-1.743100544186302,-0.926890923197348,-0.8899304641517928,-0.0681015600634252,0.9149121192818224,-0.215119204584005,1.3348594087332275,-2.530225457509512,-2.741257037412152,-0.966681974850802,0.3045905524791965,-1.7859930267385231,-0.8703519075014319,-1.935520721415876,-0.62468153092009,85.888,-710.528015,-700.280029,1680.0,840.0,-3780.0
0.2749394847809416,-1.1247447648205042,-1.1503757728815442,0.5661319674551429,-0.2435998513589278,3.754663557946692,0.2771265068726558,3.8327295843842095,-2.428255237749541,-2.5161794703973244,-1.5752243070186325,0.8430248205430673,-3.02172885534008,-2.4648070472690824,-1.850434378402683,-1.2579230453746848,85.888,-708.088013,-702.231995,1820.0,840.0,-3640.0
0.4691789180923069,1.134758467319305,0.2037459934992597,2.2154541702713324,-0.0753069893281035,4.019140201220221,0.5448309375455821,3.645206650194783,0.7810080673271208,0.8078852399513629,-0.3664382020746404,0.1596164512523802,-0.7291097829617392,-0.8571712694089033,0.3786111013414344,-0.1844676354580468,82.959999,-708.088013,-697.840027,1540.0,840.0,-3360.0
0.0678002051532607,1.870851357701516,1.2689771235713356,1.4804174257657845,0.0136650771742285,0.9727778891133304,0.1135963555810289,0.5771075024849794,2.8802916535210388,3.117107500274296,0.991997502689554,-0.9964036033161991,1.9338152275671248,1.6635444612820829,1.9107349971086107,1.1304401356719316,83.936005,-711.015991,-692.960022,1400.0,980.0,-3220.0
-0.6434656462850763,-0.0119066884331413,0.537823602174563,-1.50375772142155,-0.1355427259911839,-3.066186120775036,-0.5914209984970722,-3.030044761235351,1.1558900701541588,1.5496268537154905,0.9143107763691664,-1.073504113589573,1.7146541602894283,1.69950669419974,0.9917441617155796,0.8841355005969801,83.936005,-709.064026,-698.328003,1400.0,840.0,-3360.0
-0.7074252513709988,-1.8569032311039435,-0.9245644364205634,-3.28803670925563,-0.079866845604039,-4.499846420466055,-0.5536917705817066,-4.100012527113034,-1.9977295078387776,-1.7730230305337673,-0.1552393947104199,0.3133852448973995,-0.4811959611325294,-0.5590855197331194,-0.9397188827505628,-0.516173672124279,85.400002,-708.575989,-695.888,1120.0,840.0,-3080.0
0.2041092715806647,-0.9889025335628806,-0.960991739638602,-1.2765533740257649,0.4298336800322372,-2.010354698285074,0.4248987440282164,-1.727416379656343,-2.3315183580058045,-2.5654272505285194,-0.5872296635469123,1.6794845139441488,-1.2251953167897252,-1.7240804281171922,-1.3684765133491708,-1.034098156629729,86.375999,-710.528015,-701.255981,980.0,560.0,-3080.0
1.144515143086828,1.499809597853744,0.636607449242229,2.639165935481641,0.859273927727655,2.039879386837547,1.2334052295244506,1.9098486311934224,0.6405354786067221,0.0751947943301228,0.1552956183077168,1.406746668073164,0.444942188747949,-0.0361614433820977,0.1050900742556397,0.1238284873425274,85.888,-709.552002,-704.184021,1120.0,840.0,-2940.0
0.9465995572383072,2.203298047780661,1.7348033372977767,3.9432955435893984,0.4747971620937071,3.931073421501828,0.7346849723361785,3.5960242344142666,3.033109454434129,2.622420727924047,0.8330816385260338,-0.2720731148314768,1.7283901941022723,2.093687872768653,1.5180238818467096,1.319973713088988,86.863998,-708.088013,-706.624023,1400.0,840.0,-2800.0
-0.3652024379411945,-0.0525419650887299,0.588746047980825,0.7918052205825388,-0.6881841325371089,2.103812055901113,-0.8035707894346411,1.962935007545321,1.5652148943884248,1.6982834209269733,0.147704254742715,-1.6845583313618635,0.1692945435528771,1.330412863548844,1.0476328692561088,0.6524314833198216,87.840004,-708.088013,-704.184021,1820.0,700.0,-2520.0
-1.5535760263683367,-2.6831830160485466,-1.8359195893060989,-3.6347141545659496,-1.670764931625018,-1.528614919638046,-1.9020205946853377,-1.3696145111226965,-2.2909126279913203,-1.6872645958148422,-1.3674725548449649,-1.7490215221694343,-2.6176038402860207,-1.887809098976173,-0.9632892242356602,-1.3564597064339077,87.840004,-705.64801,-707.112,2240.0,980.0,-2240.0
-1.415785896088045,-2.5321061211535647,-2.7560694258613205,-4.486294772950308,-1.370061599312509,-3.4005814491986586,-1.3544054062066302,-3.1841448613307413,-3.97907767769104,-3.386155838093261,-1.736795036981642,-0.7300445335995305,-2.8012191967286912,-3.507150312800895,-2.4050539910338924,-2.1550658092856683,90.279999,-706.624023,-705.160034,2660.0,980.0,-2380.0
0.1115383657816388,0.4669994513100289,-0.6598793868018628,-0.5218098490301428,0.4145678794203024,-1.5808179043415616,0.6108451628099691,-1.544498610934932,-1.187273616082109,-1.1133700308721417,0.0478624646894492,0.7587047369358667,0.5912682338035725,-0.910198430948737,-1.47453824034807,-0.338444186450358,88.328003,-704.671997,-708.575989,2520.0,1120.0,-1960.0
1.8399279694067443,3.301936495960016,2.738213259755555,4.378187017322726,2.4232760153949147,2.174109683915759,2.417296874983475,2.052036003793762,3.358363978034552,2.787025731404017,2.414877661341154,2.2220418309981738,4.0183808684625415,3.433054794018406,1.428241294137366,2.328741481787984,86.863998,-701.744019,-703.208008,3220.0,840.0,-2100.0
2.156839497321495,3.067959546758381,3.8787051261818433,5.059606564955557,2.619082104299146,3.738714028562757,2.323758017894332,3.629770641213829,4.735989404482289,3.9333640716854887,2.621480020386408,2.571800043091572,3.4463215278509107,4.485488132892085,3.6116159471783984,2.750724568521384,86.863998,-704.671997,-704.184021,2800.0,980.0,-1820.0
0.4102811021827086,-0.1751081249012799,1.0529850383764972,0.4815046919612699,0.1732964310284209,0.8480715315983727,0.0067804095956737,0.8428575990562702,1.208134657293079,0.8685125398545446,-0.0418532038358266,0.5630617066344327,-0.8135679714884892,0.6037998898764123,2.43233583324234,0.1915861944237706,88.328003,-699.791992,-704.671997,2660.0,700.0,-1820.0
-2.0875487412063065,-3.4319493770377534,-3.276957143909284,-4.862600929834487,-3.00706161306392,-3.80221220277378,-2.696732690791868,-3.740632120858167,-3.704826870484026,-3.188864660217849,-2.9982953634428853,-2.934792473160265,-4.289107054283531,-4.189150038967166,-1.6160891094208103,-2.660010553558809,86.863998,-703.208008,-703.208008,2520.0,420.0,-1680.0
-2.8406788423817475,-3.540098936338611,-4.562950249746076,-5.35228256042545,-3.5993949035761705,-4.801664110935202,-3.119311388865579,-4.735713659151976,-4.8773885146954985,-3.8620139293262303,-3.007269135350769,-4.393723388072373,-3.3528940728931613,-4.614386026394589,-4.61601863354165,-2.7207710171190347,84.912003,-710.528015,-700.768005,2380.0,420.0,-1540.0
-0.7276390499088256,-0.2811345705698355,-1.1516415505021858,-0.2978313040308714,-0.5216760749510392,-0.2147472153172844,-0.5232138100329887,-0.182516316148064,-1.156131810621854,-0.5496047075627789,0.0688026938354302,-1.3442151596085936,0.7715476689027266,-0.2350405497775157,-3.126095444351455,-0.0809424539790212,89.304001,-711.992004,-698.815979,2240.0,840.0,-1540.0
2.2997805665544955,3.1779318891908264,3.416291167489727,4.981524144968409,3.249365128889556,5.3966229125512015,2.6640135325538603,5.363003317442515,3.363790293607994,2.91494104732682,2.921662266428436,3.676876339130598,3.552395891645442,4.021059845070674,1.6257961680779778,2.2211581173465027,83.936005,-711.504028,-697.840027,2520.0,980.0,-1400.0
2.9754462003087205,3.4005456033027346,4.160439599271908,4.841039093364291,3.646847293362705,5.6512072369808966,3.1700516417713853,5.55654973193836,3.9794021081237214,2.795259527380952,2.561944328539244,5.111732527188874,2.3293625247992216,3.635632333497409,4.664348325823697,1.884292353272556,87.351997,-712.968018,-695.400024,2940.0,1260.0,-1260.0
0.4884527697479269,0.365708503585648,0.5091050117185767,-0.3192533354083259,0.2762568878405985,-0.1375830515832103,0.5412633664534842,-0.2019166318963428,0.6248273042141297,-0.1957140067988812,-0.2754873018492174,1.0529927958249576,-0.9071260887347552,-0.3656152284465903,2.8825666151970264,-0.1321351678224402,86.375999,-712.968018,-692.960022,3220.0,1540.0,-1260.0
-2.3425894112558203,-2.53192070928586,-3.0380234439015354,-4.542734879598811,-2.988434828729865,-5.816573135516568,-2.279516729869837,-5.7495564535236365,-2.4728987922747203,-2.0913917445478774,-2.236463316288557,-3.947256916574572,-2.234713049648178,-3.0676129177161453,-1.3925004048481455,-1.2295455964352096,89.304001,-711.992004,-692.471985,3080.0,1540.0,-1260.0
-2.3439729669232707,-2.411841350729887,-2.54115802440486,-3.334724641035403,-2.633433843437224,-5.400866409705895,-2.3778749957062093,-5.249089450994619,-2.1179571687170418,-0.8544985396317543,-1.4458909707962475,-4.255026563981632,-0.56188936700972,-1.7893274758291224,-3.422763894170058,-0.5272955363938031,91.256004,-709.064026,-691.007996,3080.0,1820.0,-1260.0
0.2060202125277367,-0.0610849364765288,0.6360991517939429,1.2283960638103255,0.3975826008307616,0.1907314642977806,-0.1251084474067762,0.2419340701069833,0.3102513438992545,1.2204106785718896,0.5820813125020529,-0.0350524465736073,1.3773638716813152,1.0812341088566513,-1.7252437851335722,0.4389724950665506,88.328003,-706.135986,-690.031982,2520.0,1680.0,-1540.0
2.089773357930566,1.5194082210388904,2.1037194558986525,3.489982436732183,2.26562780554122,4.699975552776516,1.6620129779918191,4.559313770766226,1.310081093460664,0.967300460141397,1.2937186111135477,3.359286880791727,0.838592805246042,1.7341654769615025,0.8437086803513277,0.1950692421440947,91.256004,-708.088013,-696.864014,1540.0,1120.0,-1680.0
1.2513413364526311,0.9916451192629254,0.4066288455282146,1.2811456176080631,1.141707092260407,3.9447259782211295,1.2560334918654013,3.7696471004311616,0.008654314201251,-1.1910778398996902,0.2676653941588265,2.3868847473267576,-1.322932504370531,-0.1493383413856467,1.3708961250259355,-0.6982732722939115,90.767998,-709.064026,-694.424011,840.0,560.0,-1540.0
-0.8781871287951057,-0.1871662015629463,-1.502124118359446,-1.9308286780983912,-0.9770754426804767,-0.1190883185017311,-0.3183424671378093,-0.102358371579464,-1.1586692930093478,-1.956544877999252,-0.781663735538554,-0.7799067139487985,-1.9094515839210144,-1.564665507583021,0.3146397424327309,-0.7219737439889389,93.208,-710.039978,-694.911987,-420.0,-140.0,-1820.0
-1.5866087304867815,-0.3756598433206076,-0.8626896493596157,-2.0582248614633216,-1.3836273982523273,-2.751447123877657,-1.088447167542829,-2.553650044363629,-0.2671475413167041,0.0712172959989884,-0.5649007108958621,-2.0275822560464496,0.232522148916433,-0.5783600582540714,-0.1268632876257663,0.3477529722410707,89.304001,-711.992004,-702.231995,-980.0,-280.0,-1680.0
-0.3264870886648117,0.0656867165474999,1.1061175466486362,0.4643893173689609,-0.0413567553683518,-1.9971527782590968,-0.5152975175439389,-1.868943752814738,1.4138666489974645,2.350581400220736,0.3495526264384223,-0.6956140794053979,2.5504981062392376,1.2941102990111053,0.4867105446143361,1.214968234621301,93.208,-713.455994,-700.280029,-980.0,-280.0,-1680.0
1.059661987921511,-0.045295346039941,1.4177785965506984,1.9441084968217888,1.0240843433766451,0.1698044089679887,0.4232180375582197,0.0680367239491118,1.4318562710391125,1.9055187759135128,0.7249208842105354,0.655669042034291,2.060896547134857,1.545139142316191,0.6317686792944817,0.8825912756772304,95.160004,-714.432007,-700.280029,-560.0,420.0,-1820.0
1.033043994244045,-0.5325762466687789,-0.2131557373527166,0.6671566643982426,0.7003812302687753,1.1466217710873206,0.7778636559206021,0.959839875793873,-0.339181262870642,-0.649098740428912,0.3098140494919146,0.5354568787068624,-0.7844461763580506,0.0397865944166056,-0.4187945014942186,-0.1944768642985223,90.767998,-713.944031,-699.304016,140.0,1400.0,-1960.0
0.0391413253718893,-0.2523811921908435,-1.263509845262632,-1.210832779695607,-0.1734153255980094,0.5195764982123213,0.4683616424070337,0.4947203092472734,-1.6459142683308263,-2.1197318350011463,-0.2210317570616199,0.0844588870994468,-2.685973848365425,-1.2411355150320844,-1.3734098175281275,-0.93572344614945,94.183998,-711.992004,-696.864014,1120.0,1820.0,-2240.0
-0.6336398728167687,0.7543695074728941,-0.3762686783575265,-1.1386404597925466,-0.4952467899426986,-0.4028403937738768,-0.1282314184808125,-0.2550196053350156,-1.0095347311209526,-1.0693135073532174,-0.4035488324243263,0.3735589116528401,-1.623815238953174,-1.0667566616335558,-0.8715283556451485,-0.902631267639642,96.136002,-710.039978,-699.791992,2100.0,1820.0,-2240.0
-0.5997361316827263,1.0023675869013808,0.7785397511344295,0.3566580300819965,-0.3332540738606042,-0.5719121819480568,-0.6576782032588728,-0.4754190321804588,0.4856446252028732,0.6535671731268353,-0.3741370533741208,0.4976409881495604,0.8755898765409196,-0.167263305436836,0.5593838972427655,-0.3723481152253736,95.648003,-711.504028,-698.328003,2520.0,1260.0,-2240.0
-0.3469328147826853,-0.2149948600344242,0.3073608349975806,0.8795798233943277,-0.2800015171309937,-0.0492735788167534,-0.796376869588495,-0.1335497884835297,0.9533018357833304,0.8807442083287483,-0.306265866499565,-0.5245087752120142,1.9448178113239352,0.346916998155414,1.2926500161502,0.2981601090113747,97.599998,-714.432007,-697.35199,3360.0,420.0,-2240.0
-0.1241948479528526,-1.5269931171650524,-0.985989698155149,-0.1945233483678031,-0.2947956967082503,0.5368757654521795,-0.356235275877903,0.4167222160318479,0.1843045512249102,-0.0442653396084243,-0.0887385416266469,-1.5700488248147906,0.817585739698591,0.4511027649240439,0.6876704682505698,0.81830639061441,95.160004,-715.895996,-698.815979,3780.0,140.0,-2380.0
0.2704063144626709,-1.1954863940474572,-0.9199223323337636,-0.9808667786355926,0.0712898758154374,0.7069007381666244,0.3933775949971796,0.7461036765704312,-0.4706256810576659,-0.3531924834398461,0.3229845122585765,-0.8502936596549268,-0.7697795520100488,0.5789941943132985,-0.4099196179443295,0.7949166798255115,96.624001,-711.504028,-695.888,4200.0,-280.0,-2100.0
0.7521709371820623,0.572440697025443,0.7390888737874729,-0.0133058608767507,0.711084246508593,0.3963683738892506,0.8568221238775526,0.5441586843382624,-0.1424884916840278,0.3521003569263983,0.6564186801021892,1.169859217566844,-1.0605473192875718,0.5368056156770039,-0.9150458742024308,0.0881425044103727,95.648003,-709.552002,-694.911987,4340.0,-560.0,-1820.0
0.7845389502959449,1.9045521273908788,1.919488522672765,1.5440395661313386,0.9458774646187872,-0.1172156065756264,0.7471216712939223,-0.0913009111923695,0.5874520174350535,0.8105553650128157,0.618863402345254,2.0762995704980227,-0.1177267500500911,-0.046006455653497,-0.5237943838652419,-0.6897032071680262,95.648003,-703.208008,-696.376038,4200.0,-700.0,-1680.0
0.1390420075478193,1.5182395193315912,1.100421554562702,1.4427827149283046,0.4153070049434864,-0.5338745852450225,0.307111501045661,-0.7001981492703504,0.7038959169410741,0.2393901239521646,0.2006130191876065,0.781615252909449,0.7998238718205534,-0.7143204938838444,0.3484711871316734,-0.6595463054504573,92.720001,-699.791992,-699.304016,3920.0,-1120.0,-1260.0
-0.6915736257080636,-0.1308176311687668,-0.8723671772885909,-0.616923344074449,-0.5191982845133104,-0.8416372688108482,-0.213095693880467,-0.9856537066543988,-0.0262918246055023,-0.6448901122572349,-0.4327176291471962,-1.07367799776258,0.7818548828134139,-0.6560179042020223,0.955847924779649,0.1385254242818117,90.279999,-700.768005,-696.376038,3080.0,-1540.0,-980.0
-1.0710139057344037,-1.7439972531114452,-2.124475053327232,-2.490201756132331,-1.2372577067547748,-1.090555291352988,-0.8577225459123808,-0.9959681577320904,-1.0142517987545698,-0.9405727243309264,-1.056408190383629,-1.5331100409944842,-0.1338506270383787,-0.0311486032918612,0.5936513221869242,0.5898456512471681,89.792,-699.791992,-695.400024,2100.0,-1400.0,-280.0
-0.8200546336857135,-2.280883924486393,-1.7710280610944675,-2.050968484835684,-1.2798081613751495,-0.8213505170385466,-1.4178100134078098,-0.5792386863383763,-1.4314423510930303,-0.6992608040038678,-1.2198303651110065,-0.7659146960023986,-1.2016070131695331,0.1854016367696407,-0.6857958371756859,-0.0417913309520805,86.375999,-701.744019,-694.911987,1400.0,-1400.0,420.0
-0.0569140744294919,-1.1800901377100872,-0.1357974657082838,0.5126739845020655,-0.3809679693190765,0.6556313118134315,-1.063448125393868,0.7432604497022248,-0.6575359518922594,-0.2256969857100621,-0.3675543782039949,-0.0904322070150733,-1.3516941733869985,-0.159124234071572,-1.6097755183030875,-0.9126707712839196,86.863998,-706.624023,-693.447998,560.0,-980.0,1260.0
1.0297455379919902,1.309941211083116,1.9108441384360964,2.9367680253532864,1.2373963341430234,2.8250076501035326,0.6836847861081435,2.632571231171754,1.162512111887494,0.6700148103931309,1.3391435963653573,0.3212106411550345,0.0265105866129437,-0.0105388648897662,-0.7609974639776406,-0.5517854466810657,85.400002,-707.112,-694.424011,140.0,-280.0,1960.0
1.816679030298865,3.4393110633085224,2.9832078759982905,2.966398744315093,2.3874885736416087,3.374533911753905,2.623647001363865,3.122229834101736,2.59822185395194,1.7668658331513556,2.4694261880911426,1.147046584411866,1.9981323927164767,1.0171573934673068,1.4194305264090443,1.007179648750091,84.424004,-711.504028,-697.35199,140.0,560.0,2660.0
1.2265383172917177,2.7491012962081927,1.6056608810706583,0.2638931501832501,1.5418866909775923,0.3972524326197894,2.480069653558913,0.3807782653460996,1.754878720990666,1.6590958183151363,1.4002676066230395,1.804731926389978,2.3351937253155044,1.415854853644828,2.4718282613183,1.846200009142909,85.400002,-715.40802,-693.936035,-560.0,1820.0,3360.0
-0.975375620754809,-1.07678815761793,-1.88588176483074,-3.120060815973906,-1.242854265708376,-4.425119888236565,-0.431853306175656,-4.193363339634629,-1.3946091840398684,-0.5706438494221797,-1.555478537303273,0.6809572457574785,-0.036898348098114,-0.2415881891235421,0.6953058679788683,0.4752006556011816,83.447998,-716.872009,-693.447998,-420.0,3220.0,4060.0
-2.9751032062697647,-4.613813130246705,-4.320561690909012,-4.085713127349039,-3.4399565460835944,-6.196479410971859,-3.589012100797893,-5.985478803304575,-3.897817953326591,-3.106106181475246,-3.624650929090687,-1.946069169262049,-2.9783238733094475,-2.5481753511346605,-2.27651344370646,-1.917652702616412,81.496002,-716.384033,-695.400024,-280.0,3920.0,4340.0
-2.23884315558822,-3.702738340816168,-2.496052125366542,-1.1829093208422887,-2.309929887994894,-1.889512256661288,-3.433529145215686,-1.916881373256863,-2.5054394792845778,-2.674581010121183,-2.176678942797076,-3.069692620634735,-2.925910397953921,-2.2985151403659136,-2.9159036593943743,-2.4664868137389675,83.447998,-714.919983,-695.400024,-280.0,5320.0,4480.0
1.2493174276358865,1.3957504133422065,2.44698268242336,3.374413854803584,1.5825633840742088,5.229445211373045,0.4471517400901288,5.028668549290773,2.067703966608244,1.1094221084935318,1.9212309169172013,-0.6553672878447371,0.6385287727612075,1.102191507921001,-0.1363720848110734,-0.1298963042013719,83.936005,-711.504028,-696.864014,0.0,5880.0,4620.0
3.9948441833419777,5.326195899414571,5.181207681669541,5.075644439777344,4.16660750798824,7.989949862624952,4.160177753930222,7.83898259459658,4.922053095491423,4.19516285016891,4.458125896757417,2.875586474150245,3.7770753416562175,3.8815970059933553,2.945557140210358,2.615673598514944,80.520004,-708.575989,-698.328003,140.0,6300.0,4200.0
2.575237100848383,3.4837422281124133,2.1828718193057792,1.6547414803482965,2.245468845050845,3.0189314430717147,3.519442833155993,3.03282286603647,2.3592507925843136,2.59165857363845,2.3128007095566097,3.069658214207443,2.53797113995702,2.208987998792829,2.578741193675467,2.4540776644714706,82.472,-708.088013,-694.424011,700.0,6300.0,4060.0
-1.928453321802298,-2.226146780621726,-3.452124678619513,-3.804413300412522,-2.3598546584918187,-4.970915554814871,-0.9754508711404776,-4.856595384021298,-3.1705070981478625,-2.2395374332585667,-2.571139411465145,-0.6051283153928445,-1.8403713590235544,-2.46441427474172,-0.8926786385821501,-0.6395050504012835,86.375999,-701.255981,-693.447998,420.0,6300.0,3360.0
-4.542727759532645,-5.260257143047343,-5.1719147889023445,-5.544694647682377,-4.418541337255945,-7.921226138886823,-4.327869994889976,-7.811209001967568,-5.320373859421391,-4.585586956907285,-4.831735114477595,-3.5017090300720657,-4.039515468638816,-4.533828291327774,-3.2574038492191293,-3.054138233633221,83.447998,-706.135986,-696.864014,560.0,5460.0,2800.0
-2.1180263796872154,-2.21125313665744,-0.8962281745122818,-1.4788005127042123,-1.3953728027770127,-3.1708619657761905,-2.730591151046981,-3.1083846067194747,-1.377836093626828,-1.4999388955344886,-1.7535157166177593,-1.7158303218138002,-1.2788062383549137,-1.1918684382780993,-1.606978006578763,-1.8212270165347524,85.888,-706.135986,-695.400024,280.0,4900.0,2240.0
2.6850437780447023,3.0944882608760165,4.2843928331814345,4.121053881134497,3.283011765780608,3.887349983764755,1.876130338495812,3.878523175004621,4.177214125945478,3.3215908610784863,3.3100195164736217,2.4942839002145485,3.036017168567951,3.7042776802690094,2.0232640770375387,1.6437491850575685,86.863998,-704.671997,-696.376038,0.0,3640.0,1540.0
4.399371855354522,4.398527910348173,4.326013337733694,5.268374600794137,4.159443287238795,6.138202513493177,4.082589719550434,6.023736193779032,4.930658077499151,4.112356260475457,4.647404533787847,3.469592799044747,3.60926588080572,4.275784263667581,3.1943259500924177,3.173613967539707,85.888,-705.64801,-699.304016,-420.0,2380.0,700.0
1.24651297585732,0.6100750759991723,-0.471866465312972,1.0043804106763758,0.2781771670851242,2.3601816475452693,1.4936306505352737,2.183012485711853,0.2341623922339832,0.2072724957301271,0.8601815005670251,-0.2693145008777931,-0.0588263682455837,-0.0372572920919504,0.5487855728099101,0.95658630091472,91.256004,-708.088013,-697.35199,-560.0,1120.0,140.0
-2.9428278671230865,-3.34022017398492,-4.253252686668608,-3.806271484949915,-3.755982566179701,-2.4923651720977005,-2.571621106085529,-2.56467998060113,-4.299036357197806,-3.4877313298376977,-3.6048846701042896,-3.9039737154168783,-3.3448852442396872,-3.980572721946135,-2.67755016254278,-2.3160847193680776,89.792,-710.039978,-699.791992,-420.0,-280.0,-700.0
-3.584171724415516,-2.999788360463152,-3.0191742967940125,-4.324870398941146,-3.4397275864334174,-3.62736508522835,-3.3874497685184624,-3.463600821896548,-3.847497185477316,-2.9612281161267098,-3.884162893118895,-2.6900165906954308,-2.6278247464258366,-3.2547137247031954,-2.796799045528448,-2.8945780823371057,90.767998,-709.552002,-697.840027,-560.0,-840.0,-980.0
-0.5996214203377999,0.4416361928830594,1.0172488430148838,-0.8613216077315804,0.4228419133452001,-1.2333551562050231,-0.4800587844430077,-0.9502870854993264,0.222806577765605,0.315700677733243,-0.2420344704036583,1.786761413635818,0.526601902983083,0.5368059797803119,-0.0022350189668939,-0.4413585925971959,89.792,-712.47998,-697.35199,-280.0,-1680.0,-1540.0
2.26823698640116,2.530350952566621,3.053360932053654,2.506472159662812,3.243128802471055,1.1916758240892336,2.3964123463729554,1.2923543503987578,3.015366660126295,2.238892466756404,2.924805743319595,3.883977218965427,2.235007505743269,2.799665528476697,2.367760471959764,2.051756271611765,90.279999,-712.968018,-700.280029,-140.0,-1820.0,-1680.0
2.369089635564784,1.4568175571654354,1.6842671334652737,3.032355271030854,2.3893949981922686,1.5297985606166458,2.29156494335547,1.3030578167581104,2.38028969135488,1.5514141486251487,2.681452596251378,1.3824801815182055,1.455091528437762,1.924732900118586,2.1032832400872907,2.2158085269339147,91.744003,-711.504028,-700.280029,280.0,-2100.0,-2100.0
0.6370247821856712,-0.4594807478623487,-0.4422387427834874,1.4533133901508744,-0.2948376634371732,0.6304939983051522,0.2144547787108879,0.2972454581266246,0.4373537812108291,0.3781027352924173,0.3679456140908594,-2.035288459639084,0.2894726426074082,0.1981481658534164,0.2542159678444962,0.6753260738887042,89.304001,-708.575989,-696.864014,560.0,-1960.0,-2240.0
-0.7191472268109013,-0.7750978575698344,-0.9716608957110872,-0.3481192905793628,-1.672144117772747,-0.0351322186538369,-1.1252529086703655,-0.1147885264497355,-0.5048488161576105,0.1532373868767323,-1.190892719699052,-2.2193675777972035,0.0395668393471989,-0.4359471566136262,-1.0092325098022763,-0.6836208183322635,93.208,-708.575989,-700.768005,1120.0,-1540.0,-2100.0
-1.1373135610784295,-0.1157930130087565,-0.561574937582627,-1.731243065007751,-1.1955701019593106,-0.4220250460400384,-1.0057460652192076,-0.1646331937355848,-0.9046900986180124,-0.2980570748428399,-1.3371272008766233,0.0506792875034799,-0.4517834505531508,-0.7819252817684654,-1.1807849847732752,-1.2719303834956457,88.328003,-708.575989,-700.768005,1540.0,-1260.0,-2240.0
-1.3082092327342587,-0.3694989981165118,-0.8010516492156223,-2.617352152121584,-0.5285652808197263,-1.0175814366473932,-0.7106798591582337,-0.7098471450618454,-1.903138533543008,-1.894006267464842,-1.217718598816167,0.9676091328187884,-1.9397459241157595,-1.833292637363004,-1.1251472184529234,-1.5658326866574244,91.256004,-708.575989,-702.231995,1960.0,-980.0,-2240.0
-1.1346902633617502,-1.291045043049967,-1.2788680687189244,-2.0764346117961368,-0.4472334547106493,-1.2044541997615772,-0.7782932838185658,-1.1625468939707335,-2.3672957567696824,-2.7556364702247813,-1.0512403441257123,-0.460598036464487,-2.531647989075496,-2.154626816501892,-0.9542080427323236,-1.3189501484286552,92.720001,-708.575989,-699.791992,2240.0,-560.0,-2100.0
0.1709658029834496,-0.8413622440659129,-0.3304203751964679,0.5952723931001818,0.0496867771127139,0.0696309324356389,-0.183146990273995,-0.1542562668634875,-0.299490245843778,-0.5813777913219059,0.1806154343604188,-1.2225967987253348,-0.2118778254137166,0.0742233333891872,0.1898103045570368,0.2772554923716033,92.232002,-706.624023,-698.815979,2520.0,-420.0,-1960.0
2.093103392692654,1.3695809926107152,1.911962569973046,3.728372111270853,1.4695933792493177,2.1729546079417803,1.450441230951092,1.9478023599040284,3.322988070202221,3.2909085473859023,2.2653249840801943,0.7740785021534549,3.40589114515218,3.3911659487083416,2.0965982267783816,2.561766925289971,88.816002,-709.064026,-701.255981,2800.0,-140.0,-1820.0
2.5576966428571155,2.86622410023,2.9585290288616592,4.035540152708748,2.307761407020432,2.691480281848136,2.446876419689278,2.665723169260884,4.521890087824579,4.527263595911087,2.91260153365792,3.0884000916658434,4.166223974051728,3.905913254428115,2.729149780199489,3.1172634532469097,87.840004,-707.600037,-702.720032,2660.0,420.0,-1540.0
0.4703153854286909,1.3904788851466825,1.0236164975256816,0.3741621456177621,0.8955726450398385,0.2198155999928787,1.07177747614866,0.3504712021472298,1.1177505205224545,1.0836988686557656,0.5797453328917814,1.8964860156808083,0.5826277834323572,0.2896636937523202,0.619619265028588,0.5711471261360317,90.767998,-707.600037,-699.304016,2660.0,700.0,-1120.0
-2.397505619412556,-1.8769584021592025,-2.342265439492018,-4.161167861949432,-1.9323940372207933,-3.329543255452146,-1.785207627698904,-3.20095296942803,-3.8882814482095713,-3.76358746184258,-2.841507511368777,-2.353227144166348,-3.802512807040636,-3.931681763709482,-2.625564298154078,-3.048208881571788,91.744003,-711.992004,-698.815979,2660.0,980.0,-980.0
-3.105530029020737,-3.434224356790601,-3.663979137231457,-5.049305616184156,-3.2899927677058054,-4.222469460786255,-3.209388525366859,-4.175300606717967,-5.277378081846942,-4.920868975228372,-3.701165296142247,-4.771273960200423,-4.380935651341726,-4.288187615618853,-3.5888484901940867,-4.027781611724092,92.232002,-707.600037,-699.304016,2800.0,1680.0,-560.0
-0.8928570887953298,-1.5740804352998867,-1.433392313479802,-1.1983035153297616,-1.5281032041895897,-0.9651218927234858,-1.6027848060724774,-0.9805175096767664,-1.563240881565915,-1.289368093454115,-0.916277971281222,-2.005968697496535,-0.8016026027715859,-0.5694319480075176,-1.0247808909616496,-1.1397559306720866,92.232002,-710.039978,-698.815979,2800.0,2100.0,-280.0
1.9976302806726964,1.6820070919031334,2.133259521516463,3.738567783148894,1.7315652862964652,3.679553622683236,1.4587036285342472,3.624154231759557,3.365570024073205,3.1873515215337136,2.610230596674831,3.266752454804091,2.9658928833570504,3.2095512582970627,2.451755428607488,2.7923534991060417,94.672005,-708.575989,-697.35199,2380.0,2380.0,-140.0
2.85838552824678,3.01940967587881,3.46253920920616,5.088179061912845,3.296704680855603,5.245234027468069,3.0135666989985648,5.155369334915785,4.699390286118394,4.134251696318289,3.3288612818863443,5.208112343240146,3.4201959738531333,3.5706360790354537,3.2923554474044128,3.9069220200614585,94.672005,-709.552002,-696.376038,2100.0,2660.0,280.0
1.206524140163275,1.434280249091041,1.3847353546337855,1.7885909531939836,1.7665798684094218,2.088409235700272,1.793505426420088,2.0106296362139338,1.7054840824726114,1.2432431894794478,0.9252067112589042,1.6185210810082262,0.9649109508943624,0.924935893108746,0.9830301498156586,1.3607790211143005,93.208,-709.064026,-697.35199,1960.0,2940.0,560.0
-1.1878236628573429,-1.1030114609771229,-1.777904769926394,-2.829882939355341,-1.190743459603767,-2.915713428452772,-0.8021612490168337,-2.900939213631324,-2.2048889621643566,-2.131706648449914,-1.796970394508411,-3.532386999515786,-1.5216892805358877,-1.8152782654786948,-1.728509345108722,-2.079925671522327,95.648003,-711.015991,-696.376038,1820.0,2940.0,980.0
-2.2845365243604125,-2.1094309428136486,-2.7760234486030857,-4.492101220319967,-2.7214980851206856,-5.225325504509194,-2.356543052165471,-5.103624867143885,-3.485384149888862,-2.8936148733615634,-2.306475241899128,-4.6992199223510704,-2.1192359857178134,-2.5469946088355875,-2.231508058714559,-3.1533527122962988,97.112,-707.112,-699.791992,1820.0,3220.0,980.0
-1.4117817327343842,-1.0325417831411914,-0.8109267956355353,-1.9689480473688368,-1.5881480113808173,-2.9896333583666403,-1.6572153724556111,-2.862045798016232,-1.6305598280653866,-0.96123211251089,-0.7237802314898745,-0.912827099705957,-1.07282933690005,-1.2835818450652896,-0.6774863754382071,-1.247886997054923,95.160004,-707.112,-697.35199,1680.0,3080.0,1260.0
0.5281848084486116,0.6815208808024609,1.7758380658969082,2.053074541758678,0.8455636333376088,1.4456344036374038,0.42690044473313,1.4554311546722698,1.179074322699335,1.380154676670171,1.0017377400524567,3.471225991595437,0.4194793075489671,0.71175989189087,0.9115251090116556,1.4548914217381492,91.256004,-705.64801,-696.376038,1540.0,3220.0,1680.0
1.8684266903444624,1.330981470675201,2.11480065075249,3.707872183861196,2.117571479677926,4.080370523466701,1.839595947672592,3.9579021433114105,2.48323576583738,1.9633726231916533,1.3528832850382972,3.828995943160242,1.341659343702113,1.9583153127592408,1.173354954048512,2.3863755332686587,92.232002,-706.135986,-700.768005,1540.0,3080.0,1680.0
1.4269873143556602,0.5062985615871584,-0.0826255715253605,1.630175401386915,1.0859707775697438,3.032092026478951,1.2294673080500986,2.888106801059509,1.433416225594596,0.5204716027363716,0.386048067165296,0.1655635815473899,1.0693789633814232,1.4358880732276396,0.3892407680645615,0.9224609082439056,93.695999,-706.135986,-699.791992,1400.0,2800.0,1960.0
-0.4038841930465153,-0.7638221609894452,-2.241556401928454,-1.8234711095338465,-1.0011672280507324,-0.1203183808944651,-0.6861408143460069,-0.1587126771122103,-0.831612820831257,-1.351665345896667,-0.744627976234038,-3.3363284440748924,-0.2812754083899521,-0.530692178022825,-0.4642277383531926,-1.301814553726316,92.720001,-707.112,-697.840027,1540.0,2800.0,2100.0
-1.7877438585422003,-1.0901832562359208,-1.8024805574579188,-3.027074113252658,-1.828055547777389,-2.329772600616465,-1.7399093871295075,-2.231183040998004,-2.160049284410096,-1.7079834022331335,-0.9090600950771046,-3.078937302966948,-1.4355952970056616,-2.0255476765817457,-0.7392346572553972,-2.049117372479233,89.304001,-703.695984,-697.35199,1540.0,2660.0,2100.0
-1.2091013104103594,-0.0614665496610973,0.8708949197385749,-0.8720562673396659,-0.4847885687030838,-2.06478224441909,-0.6502025439498079,-1.9133036952565745,-1.2140974335908783,-0.0994764773110652,0.0492605773544426,0.3145702098325091,-0.9131001528211478,-1.2519620741376698,-0.2924418686768597,-0.5822545866014858,93.695999,-705.160034,-698.328003,1400.0,2100.0,2240.0
0.7416910447871683,1.2759276666914818,2.829485164456299,2.0764348376665978,1.4981550259430036,-0.3446072749626789,1.378478688209032,-0.2698239026094521,1.1143709504475516,1.8426061852163456,1.0842249133860054,3.1123964124759405,1.004028695596684,1.1457696012122898,0.5475882781203896,1.6006087426552815,91.256004,-708.088013,-698.328003,980.0,1820.0,2100.0
1.8532461192294285,1.3766816771558212,1.8232814539527205,2.473685795750173,1.823920997659688,0.815544045327594,1.903826189854352,0.7425475843335935,2.360217550435589,1.9489565275509908,0.8944217361292343,2.6068084049331746,2.053015200977876,2.3861294733229803,0.9813153156285178,2.175445933198645,90.767998,-707.600037,-697.35199,700.0,1820.0,1960.0
0.8396036849061999,-0.1316788491692203,-1.1569166925029246,0.0027062088025275,0.0535456546720755,0.5860319343164887,0.1518388392241702,0.4212429349951953,1.0682064320356108,-0.1024174980030758,-0.5297407336059569,-0.3309504736323119,0.6283769704630171,0.8254359711181789,0.3491530927684195,0.384646894290868,90.279999,-706.135986,-698.328003,420.0,1400.0,1680.0
-1.0899190604043734,-1.817037851838364,-2.986876267865312,-2.341715576941759,-1.8589235092579453,-0.1473744671193256,-1.9353517045841049,-0.2538867580394424,-1.4499097458189485,-2.229091321853456,-1.585716424714689,-2.617893391362844,-1.863533151096374,-1.8088639266636493,-0.9003719465603112,-2.001585138523517,88.816002,-706.135986,-702.720032,140.0,840.0,1400.0
-1.7126376500689435,-1.8191772749989368,-1.8732046257309631,-1.8801300707102413,-1.8141433549292585,-0.16338031273754,-1.9551871882248064,-0.1020591219174829,-2.5017134099081018,-2.158874138164029,-0.8522335661483431,-2.26838023279944,-2.4419806324899342,-2.429657080347161,-1.3782342241291,-2.422682624163176,85.888,-707.112,-698.328003,0.0,840.0,1120.0
-0.4882031042103606,0.0576061703858405,0.8182910930838264,0.6140330386814986,0.0547429297332498,0.5817428920709661,0.0991558605187854,0.7607987118862682,-1.075997234949831,-0.0003069750174545,0.9582562057285876,-0.0548503402269843,-0.314881810603217,-0.4289834419885865,-0.3883526056812641,-0.3250607882883609,88.328003,-707.112,-698.815979,-280.0,700.0,840.0
0.9779539143104792,1.9570615213334623,2.332927237414621,2.089417604011079,1.6755710095374334,1.0127408140659413,1.896991700341032,1.1354008493356442,1.1646017794069083,1.9326311127603049,1.6492762586963263,1.763070308231521,2.0286352425361884,1.7155687108467663,1.0157631028965326,2.1074719445696,86.375999,-708.088013,-699.304016,140.0,280.0,560.0
1.1357187704142453,1.9412069822431632,1.5908997102398192,1.0757202468227742,1.500647437192272,0.3533381284916247,1.5863530916133457,0.296017321124723,2.0596158717884405,1.8426432306081253,0.3485472414410375,1.7968795214383015,2.003870893123437,1.763424333531965,1.2611653084029455,2.3180703417551665,89.304001,-708.575989,-699.304016,280.0,0.0,140.0
0.2878878558799611,0.1320406174107552,-0.0605452994995068,-0.7483192636966911,0.0864791248007862,-0.8576719423476262,-0.163234535009127,-1.0391944960448272,1.2870484278478778,0.3249497192259521,-1.2107030781481511,0.5153015166839878,0.1136384432003173,0.3284049793737008,0.2854686518715091,0.2378371254214932,86.863998,-708.088013,-699.791992,280.0,0.0,0.0
-0.2634528378869027,-1.5071401422841433,-0.908830021307858,-1.091290099476625,-0.9162002388053404,-1.3759425621158143,-1.245518255784741,-1.5058285811844885,0.0127572997678835,-0.8020633621851316,-0.9442353372778504,-0.6927347816249224,-1.1235250578277278,-0.5703461447457997,-0.5085094374193909,-1.7235221499237257,85.888,-709.064026,-700.280029,560.0,0.0,-420.0
-0.173674443321792,-1.4667152426021954,-0.828002472186076,-0.0603229353437876,-0.786691833807326,-0.7303974144440541,-0.7252315588749487,-0.689095187193748,-0.9816715794232644,-0.8708918955597102,0.6743076285986386,-1.0021920543099967,-0.7253240444092384,-0.4849698221597303,-0.344206366014386,-1.5691191464110985,83.447998,-710.528015,-697.840027,1120.0,-140.0,-560.0
-0.2420005982568137,-0.2489061829790222,-0.7520259736398562,0.3946057848295953,-0.2322528555737879,0.2711301353833593,0.2877182769082784,0.4419617920883973,-1.6960945029029475,-0.7083752365124437,1.182850817107958,-0.6662879906648295,-0.1481252721355757,-0.6135172127425416,-0.0832825442581295,0.0403613014600787,83.936005,-707.112,-701.744019,1260.0,-140.0,-980.0
-0.7895700823437317,0.5995745386150213,-0.8452955673398731,-0.4349863421266879,-0.0836595021820794,0.649292124561485,0.3358685863893709,0.7980185765177755,-1.7370887148550174,-0.820628623745924,-0.364388517164127,-0.3223723189530648,-0.543423102831059,-1.240213060382674,-0.5939628252475377,0.9175523847481812,84.424004,-712.47998,-699.791992,1400.0,0.0,-1120.0
-0.8875986802162901,0.5018142869787205,-0.2224450918387548,-0.9417757756141708,-0.1736207437625806,0.4979549236306949,-0.4550678575537386,0.4946838945855279,-0.2661900155983602,-0.4253290737251829,-1.829467415119392,-0.0952302593686866,-0.8098916713412281,-0.8915926995904226,-1.044256235155759,0.2707915484512723,85.400002,-708.575989,-697.35199,1680.0,-140.0,-1120.0
0.2501322075950181,0.2350954624774282,1.3401237212428043,0.2741786243385379,0.1721597476867857,0.6254782369230812,-0.6481061572202866,0.4631495765574427,2.2197287452170964,1.0509022963505257,-0.8321014887313126,0.3891507007963131,0.4685226303547709,1.1694569368165642,-0.0367877812303347,-0.4648436086585317,84.912003,-708.575989,-700.280029,1680.0,280.0,-1260.0
1.7251653898650807,0.4251974106685659,2.344841217162791,1.957889551767754,0.9024478669113172,1.051310962971866,0.4467350782903013,0.8598871443639655,3.264548949670319,2.333757903392638,1.7326471282358231,1.1149245459321704,2.2149598121770016,2.9374548330484007,1.856123655403968,0.0852981045699542,82.959999,-712.968018,-699.304016,1540.0,0.0,-1400.0
1.7089627476243825,0.5231933521041747,1.1415417327457862,1.5919233821397645,1.074836647817331,0.6449626359074131,1.6127989068665,0.6020428575552491,1.0508185966376422,1.4573223078402062,2.534590416053999,1.2241828398340726,1.823984008416191,1.769324384004123,2.192454640446804,1.1069830806595304,86.375999,-710.528015,-700.280029,1680.0,0.0,-1260.0
-0.2172344959597462,-0.2041329214507382,-1.6327197475831323,-1.0096583208246963,0.0770102246707536,-1.179508203425258,1.110032613360242,-1.0079505653878666,-2.6937238478649386,-1.3598073206189665,0.2075274271719085,0.0038488641546288,-1.014725959326179,-1.7719709308016638,-0.1001125477318821,0.7377556923388653,86.375999,-708.088013,-700.768005,2100.0,0.0,-1260.0
-2.203891659255284,-1.2167200709465515,-3.172908480450572,-2.9342550966614542,-1.331443011242189,-2.9229745189381218,-0.9576175966244967,-2.6797367090400046,-3.940941287094744,-3.216980102480272,-2.5845244552576707,-1.7142813923516145,-3.1868973876771527,-3.8473207261698654,-2.726846856568834,-1.038448433653408,88.328003,-710.039978,-699.304016,1960.0,280.0,-1120.0
-2.082120031477057,-1.1375474297950303,-1.5823906312895792,-1.668929730838087,-1.6278766589290137,-2.231220330653206,-2.361556034644737,-2.16029074933812,-1.0554813467312436,-1.7730593278823268,-2.408822445808227,-1.9489729298932927,-1.878970727476032,-1.837289375360992,-2.513239970006853,-1.96830627182548,88.328003,-709.552002,-697.35199,2100.0,420.0,-1120.0
0.1294952557548507,0.30395111508381,1.696901600767543,1.563877601577727,-0.2709408410392472,1.054021760302487,-1.2820999599262546,0.8616690338324924,2.9074152096172234,1.639408873132186,0.5279706935407259,0.0239640074816291,1.6038469857204465,2.1946177789293,0.5117045652147836,-0.5182915810785882,86.375999,-707.600037,-698.328003,2520.0,840.0,-980.0
2.173964362985551,1.585751689507073,3.26989529178457,3.10940464244153,1.457494121481446,3.961026365077757,1.2830148980716538,3.691423770184389,3.616925544903085,3.2826294090130976,2.648279410063776,2.2069524367456017,3.2222180199955845,3.757576693916837,2.8980373725067725,1.748549359455394,88.816002,-706.624023,-698.815979,2520.0,980.0,-700.0
2.0181362505019456,1.1637624014056145,1.539065531483679,1.2753551562594485,1.704016205418039,3.3627421892729905,2.4427238241367046,3.29363542715362,0.5349355655083138,1.396408946146024,1.5579592334173304,1.9050320745358635,1.1790464434443988,1.2578829086715906,1.9531584180451709,1.957742309336128,86.863998,-708.088013,-698.328003,2660.0,980.0,-700.0
-0.0283827536115526,-0.5366842901475608,-1.5836524687475138,-1.7429205504372889,0.1478863546039054,-0.3853520313377174,0.857891777667131,-0.1895964362495057,-2.68094533574756,-1.760860568913592,-1.1147128012900231,-0.753785859743696,-1.9653979583948549,-2.2591859907053085,-1.0134063960748565,-0.2576792925634721,89.304001,-708.088013,-701.744019,2520.0,1260.0,-560.0
-1.8192153676535088,-1.5771301810128873,-2.9077039257498405,-2.6534753062406824,-1.4994884815261649,-3.632845710191386,-1.538435162783596,-3.3861531152134914,-2.7084513696744112,-2.730419047507437,-2.0847152337899315,-2.540623144840981,-2.6235504781091192,-2.948180167731435,-2.473679891486905,-2.10094306443694,90.767998,-707.112,-698.815979,2380.0,1120.0,-420.0
-1.7060160082843032,-0.842299649842195,-1.3567601811264562,-0.8250822786311641,-1.379702971149597,-3.381115765553344,-1.884375504204094,-3.326884688588766,-0.1372918799847424,-0.8418624390624496,-0.5403705428588943,-1.085223996126644,-0.4284429347613648,-0.5595553041994629,-1.0080930325735236,-1.2080764645743367,90.767998,-705.160034,-695.400024,2380.0,1260.0,-280.0
-0.0687663301937803,0.7285130995395295,1.2639808160231416,1.482354332679798,0.3246034431345676,-0.3460552109622911,0.0603422538956126,-0.502811579785443,1.967037574574809,1.496677239148899,1.2981521544006922,1.8682203840394525,1.853151708148823,1.863483923204424,1.3220001789490732,1.2403231807605344,89.792,-708.575989,-698.815979,2100.0,1120.0,-280.0
1.3664974070112714,1.401063736208826,2.4666002127605413,2.0310430918934346,1.558380339520313,2.248473346629152,1.7040130850746469,2.062608682909672,1.866894548270664,1.984925882347781,1.34356288923061,2.5114163634316022,1.9508097968922569,1.9338650124418053,1.840116933195736,2.072946030759438,90.279999,-704.184021,-696.864014,1680.0,1120.0,-280.0
1.3659334830811396,0.6084164282145537,1.42743303886132,0.7460518008040142,0.8538394129772872,2.3087192727029824,1.0082659936167475,2.255058050957016,0.3975640331647026,0.7238863761513041,-0.0044238021780241,-0.0632351140676571,0.3177021769748965,0.2773090908521545,0.3334702008792778,0.2570190230029968,92.232002,-706.624023,-697.840027,1680.0,1260.0,-280.0
0.2051425888358757,-0.6857465212535713,-0.707509396818197,-0.9077807127378832,-0.8750877251512222,0.6310159307712494,-0.9697004136767444,0.715081021516962,-0.9165294598288196,-0.7279393660431571,-0.9848882931296437,-2.6038081106663893,-1.1989090347966225,-1.0327213733024232,-1.2422200786621025,-1.8696023870353795,90.279999,-707.112,-700.768005,1680.0,1120.0,-280.0
-0.9040828330061602,-1.2340479385782228,-2.1362431218099003,-1.642009198749797,-1.4837561717483982,-0.6913398065221639,-1.623321014587417,-0.5670778732208418,-1.4864836951950546,-1.382895035502063,-0.833119541181624,-1.9505556230281504,-1.584866553125141,-1.1031624645850715,-1.3373287875278834,-1.7189339670623935,92.232002,-709.064026,-696.376038,1540.0,980.0,-140.0
-1.0861726417014663,-0.6805734906594535,-1.7962247285200323,-1.101471448229154,-0.298624378814066,-0.7417150131462676,-0.2253793848565801,-0.6696951852002763,-1.2737024860410433,-1.220953805856248,-0.1732994419334202,0.8982181076145175,-0.9859957976697836,-0.5588997512637891,-0.2401454762175639,0.3466229052235828,92.720001,-706.624023,-699.791992,1400.0,980.0,-280.0
-0.44656114346261,0.3669120652832464,-0.0162979811608515,0.2722843557357952,1.0872709815867634,-0.2902824105543243,1.3124470299954878,-0.3095251944002798,-0.1696602392663267,-0.3888821631736689,0.3222320342516569,2.319085318643068,0.1862870809168863,-0.0463960582756354,0.7894700451060565,1.765826716194088,90.767998,-705.160034,-698.328003,980.0,1120.0,-280.0
0.3353364860904506,1.0227630101263552,1.7462825123234098,1.4781461129644238,0.9711912668709848,-0.3026754768444569,1.130505592079221,-0.3903830102842049,1.405575219026974,0.9034995662296,0.6196398515250603,0.900466257382862,1.4374538399770458,0.4826273402755887,0.9812383689267686,1.110090656810592,93.695999,-706.624023,-698.328003,980.0,840.0,-560.0
0.7739030234353362,0.8396174709359371,2.048117352439672,1.4912172623986375,-0.2251407063344556,-0.6137386360894668,-0.2325571688784814,-0.6930753052720733,2.115503928297636,1.8628447653492144,0.7371316882125325,-1.042708124089056,1.8822177715576287,1.0391895144769916,0.4793795001425148,-0.4389169312776222,92.720001,-706.624023,-696.864014,1120.0,560.0,-420.0
0.8143459779040079,0.1035411157552001,0.7443263093799957,0.2357771700230648,-0.6819646916901595,-0.3362887168704154,-0.8722598208279628,-0.3360139163863618,1.0033392354977928,1.4905005666013724,0.3949511543414322,-0.999191284973848,0.8486307237484335,1.082811121441164,-0.1487166798146667,-0.9833458724008458,94.183998,-705.160034,-698.815979,980.0,420.0,-420.0
0.4836018096942275,-0.5075039373708962,-0.9163901832643502,-1.1287120465996443,0.1429916366564644,0.679556209693856,-0.2172996134096822,0.7431571700487688,-1.0630123358189356,-0.2001337831626827,-0.4082040354190889,0.381430343513927,-1.0486076772645538,0.1959318595611626,-0.4841148208861406,-0.2987035495804066,95.160004,-709.064026,-699.791992,980.0,420.0,-700.0
-0.2830571308895923,-0.6426360216543405,-1.643200057458466,-1.3952090569328677,0.7128540730357834,1.335562353378031,0.4083628058122138,1.3739658491775888,-2.150621712099327,-1.8988379392121648,-1.0436183191975412,0.6430707391852931,-2.1886607415146475,-1.1301992356667874,-0.5101617072767495,0.2932928314446072,92.232002,-710.039978,-701.255981,1120.0,420.0,-700.0
-1.2272779286795197,-0.5433848330870785,-1.296374727730914,-0.6199984224656017,-0.2446562094321601,0.599956140144312,-0.0654995520232004,0.5764137870095863,-1.4527244626044782,-2.234487034284645,-0.9048910609983208,-0.7155682383844368,-1.6097630529400622,-1.800624294077917,-0.4640484006442328,-0.041991165153576,92.720001,-707.112,-698.815979,980.0,140.0,-700.0
-1.4954140053619716,-0.4597795845436267,-0.5012238634118246,0.2326605591964747,-1.581485273839066,-0.9161894346944468,-0.8384358089721297,-0.9306066647799808,0.0510923229022883,-0.9893788485633842,-0.1205998042975544,-1.532475270734183,0.0614542760592329,-1.1349610380412174,-0.390911295780978,-0.6029161226802,89.792,-707.600037,-698.815979,1120.0,0.0,-700.0
-0.392580799443898,-0.1164044875366334,0.431533311142843,0.6716142273969573,-1.110430486873607,-1.4031596240528117,-0.4784690546171705,-1.350024285834427,1.1228097407830142,0.9650434173279367,0.6818167604593393,-0.1838124912624766,1.4974215984869848,0.5193377039358894,0.021981986157696,-0.3015235999226414,94.672005,-707.600037,-697.840027,1400.0,140.0,-700.0
1.458202725850703,0.7620616481737409,1.4802036492480546,0.9358375042749542,1.1582625814416498,-0.1342444314896395,0.8536624479053501,-0.0901355662191217,1.5089127128091482,2.418939468466998,1.0528680780605666,1.9456625941097108,1.926810655888542,1.997749602093676,0.868850708972006,0.7401914307013855,94.672005,-706.624023,-696.376038,1400.0,140.0,-700.0
2.2964944274858285,1.564121116533083,2.0442769741621065,0.9888887202650976,2.60341896063056,1.3668633698859778,1.4895996439944117,1.2873501030978878,1.3653359178168292,2.3729708538476406,0.8846174663166746,2.177764431806319,1.285743685085733,2.102871210385366,1.4304599026716829,1.2978163262333182,95.160004,-709.552002,-698.815979,1540.0,140.0,-560.0
1.0765209504451418,1.1742891283012045,1.1588506077270686,0.3032734817028372,1.3268121615574666,1.1394808009187418,0.5618703318936195,0.9893723984755284,0.4752165589805791,0.5775045703727941,0.2136100015550141,0.0552311500405163,-0.1516871306185852,0.5656985894742627,0.7735426763562023,0.6197125853438198,96.136002,-711.015991,-697.35199,1540.0,420.0,-560.0
-1.155268901049698,-0.5121330807498338,-1.0277370757580055,-0.993168276466847,-1.290358683989809,-0.6327950626607206,-0.8169081565881076,-0.6498506933801833,-1.110417445315109,-1.897332239836312,-0.7131718027774786,-2.0701555497873168,-1.6696768619161944,-1.5119085250117763,-0.87047621377942,-0.6575368749198224,94.672005,-710.039978,-701.744019,1540.0,280.0,-560.0
-2.317990744078492,-2.077251071941524,-2.7836475178511275,-1.70931259206078,-2.421701953180495,-1.819553249739044,-1.1864282159297743,-1.62749471391987,-2.283467699387706,-3.1069687929992185,-1.3337425986579003,-2.0197236407858767,-2.1516310417898645,-2.456070644175489,-1.9600402765853429,-1.3631572863598642,94.183998,-707.600037,-695.888,1960.0,420.0,-560.0
-1.5855615393985798,-2.0451439488483056,-2.475987399557392,-1.0327039139264786,-1.3770532944130642,-1.0824874492759322,-0.6758356679336139,-0.8890543120659968,-1.804966340808488,-1.97654780792379,-1.1551011963663642,-0.2921529873223546,-1.0707588481270076,-1.5754412802818616,-1.360625493181142,-1.1103195173513416,94.183998,-709.064026,-696.864014,1960.0,280.0,-560.0
0.0340154382485242,-0.4540754748693913,-0.319422219174262,0.3205983415985414,0.1160814027397581,0.6509584140111125,-0.3486410629508086,0.5908462095327814,0.0921527828677894,0.530577504389819,-0.2372501077214371,1.0149008029322564,0.6952376163613748,0.2476398712189059,0.2627456014566686,-0.3380712613818792,92.232002,-711.015991,-698.815979,1820.0,420.0,-280.0
1.298982476842906,1.4306765335693614,2.043349693171306,1.173645582981231,0.851299711326617,1.7410789273695402,-0.1865970702444676,1.4721825090540246,1.8606472635432447,2.4539718050630626,0.9166573481054764,1.0143878006772,1.7279117761284664,1.6621670099438752,1.365534703362738,0.5887836109794613,94.183998,-709.064026,-697.35199,1820.0,700.0,-280.0
1.9084683984994064,2.456420963529012,3.171639574936392,1.403271905699361,1.431833685064031,1.7027601964857555,0.7931713511976833,1.543341056650744,2.3430683847506635,2.738163075446141,1.754540346876572,0.6556360637012032,1.618471253180002,2.1018099752718413,1.401548280193398,1.534147669806591,89.792,-707.600037,-697.840027,1820.0,840.0,-280.0
1.7707877726225811,2.071696038043493,2.445453698050003,1.3548736203448235,2.107627553193273,0.8131889752541768,2.2578303229051,0.959123878852454,1.541369920883176,1.5664054168502366,1.707180096082233,0.7058964583449991,0.946637573325906,1.6024015522561077,0.9452843712721144,1.8742382825391988,89.792,-709.064026,-696.864014,1820.0,840.0,-280.0
0.3475501513497898,0.1612269666832705,-0.1132162048512935,0.488526513612303,1.3672792522877926,-0.9142882475266174,2.0606155204739984,-0.639871316273201,-0.1290856061187126,-0.567842293348471,0.3153815699612267,0.4545197034286328,-0.033198868307299,0.0950606678195305,0.2666039659414186,0.6906351023109968,90.767998,-708.575989,-695.888,1960.0,840.0,0.0
-2.109308636450608,-2.450300640794416,-3.310927515102853,-1.678019807319539,-1.5779140253895,-2.935665984316397,-0.8030195002320148,-2.858411142029259,-2.1454893124487286,-2.883439934624665,-1.919723261515056,-0.838315789815362,-1.4961669010834413,-2.0832813243430235,-0.9510659591826932,-1.667273822936247,92.720001,-711.992004,-697.840027,2100.0,980.0,-140.0
-3.481784091309549,-3.6419367197922,-4.512560722825758,-3.479776348245963,-4.195099401635438,-3.2271578225398803,-3.8445662636862057,-3.421564724322417,-3.2308996913663166,-3.669684756893408,-3.11485680599221,-2.1503384216578,-2.6842084707293314,-3.31750810226959,-2.2408281264352365,-3.0515018866579573,94.672005,-705.64801,-699.304016,2100.0,1260.0,-140.0
-1.7294415361822082,-1.7243936214559854,-1.8203638904332125,-2.192353169498136,-3.011332312254525,-0.2812247160113533,-3.486385126929352,-0.5024668593929899,-1.879561157886068,-1.4391847393980877,-1.626104915632889,-1.684491479012089,-1.9344453958118213,-1.8758940725882844,-2.0601539140804475,-1.7238297761625982,92.720001,-705.64801,-697.840027,1960.0,1120.0,0.0
2.0058322345356685,2.0297867852940352,2.943878433476478,1.9200368182719725,1.468388107904008,3.863264420346142,0.3677181754481159,3.863780771918169,1.4740266757893377,2.5553766446340545,1.610504247608571,0.5299926123447647,0.9474030277603068,1.5544057766179682,0.1824081739493878,1.20598957708043,92.232002,-705.64801,-695.888,1960.0,1400.0,0.0
3.9699692010391,4.010451376035562,5.1836085257506745,4.671088681331903,4.635251702687623,4.848589283749582,3.903068778035377,5.042895129543355,3.896602330490711,4.547269551581622,3.497475766923197,2.3477828592460286,3.458967911979148,3.804812593072893,2.687089997760927,2.8341275521142366,90.767998,-708.088013,-697.35199,1680.0,1400.0,-280.0
2.2097127550488294,2.3444962909518323,2.653503919656138,2.8218821923345265,3.36797621323289,1.2879851458341536,3.897380917223504,1.442402928555079,2.962983041835156,2.403750753382456,2.2441677983953854,2.151470732453211,2.990961540766456,2.707507278088792,3.038918666924816,1.989336670028467,92.232002,-705.160034,-703.208008,1540.0,1260.0,-280.0
-1.056116850180629,-0.8423197112753347,-1.709800658769357,-1.5355866786503654,-0.3510189372882263,-3.0670897635168464,1.0297297669935972,-3.1098512942269583,-0.264517532118345,-1.5174468521932494,-0.5496638414430182,0.5951226523958231,0.0778898393374202,-0.314156468109001,0.9959250786213782,0.2657381664279968,92.720001,-705.64801,-698.815979,1540.0,1120.0,-420.0
-2.567684029381854,-2.3956201800742214,-3.5613067123887374,-3.6747187230791263,-2.7192151014185675,-4.012514078327009,-1.9842479599934,-4.182983327749346,-2.653366843362579,-3.278254927348739,-2.1872975625555413,-0.8968355661524339,-2.404139493021657,-2.3097494227921453,-1.566575594936492,-0.8179985321955504,90.767998,-706.624023,-698.328003,1400.0,1120.0,-700.0
-2.035400290746264,-2.0633370221953515,-2.4099402834783388,-2.34042920477688,-2.90529456474055,-2.0082562813336144,-3.665601681887556,-2.1176099048778547,-2.843274638958128,-2.214121012759956,-2.159529251685607,-2.021537880211266,-2.85331884602408,-2.4717567407548247,-3.014125870642521,-1.7776811966614026,94.672005,-705.160034,-699.791992,1260.0,1260.0,-700.0
-1.2058802585406232,-1.5489941003889272,-0.8868475077330801,-0.3459528582621963,-2.285695858118859,-0.2853375162018652,-3.62845942273878,-0.2293542525003654,-1.860375955043502,-0.7166681793840007,-1.5975829552987684,-2.7025837533806865,-1.9500269858905688,-1.954783704933149,-2.873262594598422,-2.9360978565165348,87.840004,-705.64801,-700.280029,700.0,840.0,-980.0
-0.2075344054909342,-0.7460555428045761,0.1549661296609164,0.594384250843138,-0.6874137288329414,0.6550212425357118,-1.0341451665941854,0.8061431116987193,-0.2784537314057178,0.2114347226992006,-0.4369372226614395,-1.5912864409581542,-0.2771808257793905,-0.8001609943548397,-0.8603504682806464,-2.1973822463653145,92.720001,-702.720032,-697.840027,840.0,980.0,-1260.0
2.15142148554033,1.893885453703545,2.259292342485172,1.9152184519280544,2.869742421097365,2.8811224334175383,3.792107060394654,2.968387860911477,2.445897457263662,1.9600832833295587,2.1989755655737366,2.0900801640575795,2.4317147356389186,2.054749799223891,2.763368049505366,2.007298519239447,90.767998,-706.624023,-702.231995,840.0,840.0,-1260.0
4.463542342153221,4.939904692534227,4.656890065247032,3.828168331041189,5.921321829126688,5.389064047316195,6.829875591947103,5.327207467065476,4.938504124866916,4.114992923429445,4.628547397895997,5.43173822318539,4.737752701490448,5.109896976819456,5.385645558046364,6.247250210808394,92.232002,-705.64801,-698.815979,840.0,560.0,-1400.0
2.79865381163263,3.745864705283875,3.154440165845803,2.8424747052218304,3.572102666390928,3.351801406821833,3.381825338757468,3.211994842441266,3.395342732980994,2.958018223345884,2.939554198279441,3.7064267564196993,3.141518756109204,3.989622605783029,3.2796806811159125,4.522730760835605,90.767998,-707.112,-698.815979,1120.0,420.0,-1680.0
-3.2305272783885104,-2.800505119432985,-3.336509694237304,-2.7724538996664974,-4.034983186863637,-4.234995372114463,-4.866730349698316,-4.304321690129815,-2.983698159906137,-2.8386469610164684,-3.1773095844052985,-3.0271155409595547,-2.9247702509773426,-2.494751189965177,-3.2242899422826867,-3.2844375976537545,93.208,-705.64801,-700.280029,1540.0,280.0,-1680.0
-7.410861854942692,-8.12218465092971,-8.277789664954117,-7.612857018607732,-8.945712316147135,-9.864772395664463,-9.216907547837632,-9.79801848405348,-8.097336426693193,-7.585211532940719,-7.476568039766112,-7.76535340326424,-7.636401768739759,-8.162681814130398,-7.713873905512234,-8.842883382535081,93.208,-708.088013,-700.280029,1120.0,420.0,-1820.0
-3.7260186541195472,-4.878397594938928,-4.41508600489691,-4.489315585186726,-4.277762732894732,-5.531819011061934,-3.715266392573881,-5.410813013711758,-4.879139859347801,-4.3510903940045855,-3.812776085226487,-4.184307756879224,-4.4570507092379055,-5.5356915717199,-4.227166730339705,-4.777159718249308,92.720001,-707.112,-700.280029,1120.0,0.0,-1820.0
4.826623870208913,4.598951911527731,5.453178513149675,4.839014884338956,5.769672637288,5.627326339787787,6.281091699475397,5.675288147620307,4.670409740536189,4.830263593018085,4.920058372382435,4.577110459912587,4.538117546594204,3.8946900048927264,4.452514470173778,5.092283895987811,93.695999,-705.160034,-699.304016,1260.0,140.0,-1820.0
8.494563585514658,9.496052399291855,9.936636557835572,9.649213011700176,9.672815599499808,11.230151572432236,9.432581952792432,11.172291871191648,9.842826955833075,9.451231841538124,8.71677063363737,8.513529036388437,9.23254750396881,9.687806096303232,8.640522299494226,9.33189773453345,91.744003,-706.135986,-701.255981,1540.0,0.0,-1960.0
2.781051337153336,3.735028807015454,3.156797186796749,3.5176133318150726,2.848409840634936,4.740398242729874,2.2477105265334143,4.651944332398354,4.002784694489021,3.402138129210829,2.694211672360007,2.9075909460988862,3.573131207256324,4.813708212997141,3.278138622999727,3.0238027628235926,93.208,-708.088013,-698.815979,1680.0,140.0,-1820.0
-5.576275527502757,-5.922496886173092,-7.026668634243293,-6.571487186222806,-6.426020360670657,-5.998960778452052,-6.5844855541842096,-6.037179013300561,-6.336611184996672,-6.499605317800021,-6.189586395706722,-5.5602043886107,-6.110313726013289,-5.185674497655157,-5.413067340225378,-6.014216045872489,90.767998,-708.088013,-696.376038,1680.0,140.0,-1960.0
-7.089206399350069,-8.258191748913914,-8.663885791535673,-8.675365378724702,-7.658781793243355,-8.740524081574469,-7.269447142891756,-8.714186336214103,-9.111357827612784,-8.676810332307642,-7.6031508171661315,-7.164783925212341,-8.5215669747435,-8.820949838350334,-7.477992545825455,-7.345927217611087,92.232002,-707.600037,-699.304016,1960.0,140.0,-1960.0
-1.1675556353268233,-1.5348252011577923,-0.7561912156023248,-1.0859249843336325,-0.9478513786424017,-2.008581624524639,-0.5849694807320402,-1.947887601659376,-1.703527130071419,-1.290837749154339,-0.6788373862022521,-1.0444057293955302,-1.4453336837845667,-2.7392210697606174,-1.4106741958880096,-0.7580419845917662,93.208,-707.600037,-699.304016,1680.0,280.0,-1820.0
4.365784107155133,5.36341738302736,6.388516243961264,6.236988237539097,4.782211810219551,4.609778150227327,4.761675820361232,4.668328207661717,6.367825179709877,6.1849767643287,5.674087523844876,4.799585870368365,6.060573572767236,5.016375765879396,4.867155809355877,4.901962876870947,90.279999,-709.064026,-697.840027,1960.0,140.0,-1960.0
4.015150989615928,5.0553163194467015,5.122740549874742,5.24985817343534,4.082665892826985,4.006770300145469,3.9108094772956328,4.019888279429902,6.125213429692668,5.685125075601322,4.677891799416923,4.344251201707755,5.7262113099749365,5.939700830098663,4.686350979075707,3.897565255364316,93.208,-706.135986,-697.840027,1960.0,420.0,-1960.0
0.4019921612947638,0.0445813879946753,-0.7789795624378761,-0.7131267561767215,0.3606942472479214,-0.4238288353529315,0.3155553886221177,-0.489433937771267,-0.2351533714112717,-0.1389233549485828,-0.6156984245442243,0.1050898462641571,-0.2134227017965863,0.9427738567670688,0.1505386302760954,-0.3341023095789738,92.720001,-709.552002,-698.328003,1820.0,560.0,-1820.0
-1.367516417715696,-2.706022939148612,-3.250370181843733,-3.4451247436166272,-1.1795243251750078,-1.815166474691652,-1.2218240113145589,-1.9209068286276008,-4.09054257740569,-3.4477766250449893,-3.11966504600922,-2.163866468102105,-3.760792510357621,-2.927875586419326,-2.5091549121905574,-1.912724824512396,94.183998,-708.088013,-699.304016,1820.0,420.0,-1960.0
-0.8706910206555546,-1.4621558842705242,-1.081380598245306,-1.2876351676354698,-0.7763748989935024,0.2389321514706186,-1.0015821402573806,0.2083883106771449,-2.2388686188654865,-1.98016745263944,-1.3523302840690972,-1.3989306406257511,-2.12183428435829,-2.37677320588502,-1.5499636681661544,-0.6322420077418892,94.672005,-708.575989,-696.864014,1960.0,280.0,-1960.0
-1.0032042974098931,-0.1258260753818844,0.4813857243493775,0.6320753170193159,-1.4651255898582554,0.95036467359039,-1.6440775162140022,1.0620369417850988,0.6364640647907742,-0.0513093777691343,0.3705133810377551,-0.7201271811906788,0.3598764101954662,-0.4502182446989491,-0.2858539131463108,-0.2593965110232362,94.672005,-708.088013,-701.255981,1960.0,280.0,-2100.0
-2.043199435748758,-0.8899560259409732,-1.023748898348356,-0.5014411092855552,-2.7149061029111468,-1.149999175197875,-2.457171898962577,-0.997150949537122,0.3469720116118598,-0.555601030099555,-0.4347105178506501,-1.222998839155249,0.06826945168654,-0.2610202974690281,-0.7156859765413031,-1.5520131945263365,95.160004,-708.088013,-698.815979,1960.0,140.0,-1960.0
-1.181703556674384,-1.1827876342496786,-1.9035897174954344,-1.4340245083377077,-1.1715928937131797,-2.190412165794348,-0.5898268648451214,-2.1825455064833736,-1.0364476853564393,-1.0083396208778446,-1.1233275411974426,-0.5355104098650104,-0.9146104568909575,-0.5307783726843083,-0.7707956148238356,-1.3507804284500835,93.208,-709.552002,-699.791992,1680.0,140.0,-2240.0
2.190632250638899,1.2344237135318183,0.9700574049239372,0.8620594455309935,3.07931682622021,0.3223631128149048,3.3346647888745715,0.1455456325306775,0.2902428849742665,1.2872015240570571,0.9190863192196174,2.212262022489857,0.6854234519245677,1.0538135773600816,1.3328771964813195,1.6095569054432304,92.720001,-706.135986,-701.255981,1400.0,0.0,-2240.0
4.353082596083808,3.807701114711364,4.480215692504849,3.667624883844789,5.212694979114905,3.1701733638919425,4.73523433227655,2.9989789360998045,3.1546799116814754,3.994681831616187,3.441466019912081,3.7560864528836326,3.3572391314799472,3.102851534542834,3.33615890843949,3.892987931199738,96.136002,-708.575989,-701.255981,1680.0,-140.0,-2380.0
2.039082697662665,2.481894768439919,3.355705903381484,2.4007441240777974,1.930459735625437,2.058013989223896,1.1526064467147488,2.101753683482708,2.9073467993887405,2.732632301991886,2.342227759057589,1.163959708268137,2.703329222062004,2.166429186409266,1.912900382086366,2.043157370857829,94.672005,-711.015991,-697.840027,1400.0,-140.0,-2380.0
-2.763262772221174,-2.17860660194802,-2.1219976288946687,-2.285361307102879,-3.696691393729094,-2.0293477604943635,-3.9284796725952233,-1.8050937130741755,-1.418088228388923,-2.2577977516636394,-2.0769675942429395,-3.269135314840896,-1.7921633744057528,-1.8013453930278254,-2.1528116885571933,-2.314683350459521,94.183998,-708.575989,-698.328003,1400.0,-140.0,-2660.0
-4.915686871902095,-5.047365343003394,-5.908246387335644,-4.882165156039862,-5.704635494157818,-4.010993602260703,-5.103348742022563,-3.8584092953292233,-5.02549843462652,-5.619597286497562,-4.858767784507757,-4.403915746631317,-5.218388923741641,-4.513909643974441,-4.3890198477918165,-4.359598330246165,94.183998,-711.015991,-695.888,1400.0,-420.0,-2520.0
-2.254984650741811,-2.73595075314526,-3.6621263034051057,-2.229372250024164,-2.2381535926986214,-1.376683229531656,-1.4249019256181552,-1.468350934578111,-3.409446411538191,-3.386675222754417,-2.5943287964486443,-0.9132527485464084,-3.292278448160625,-2.614158224497414,-2.189615041589462,-2.0820207824656123,94.672005,-709.064026,-699.304016,1260.0,-280.0,-2520.0
2.201167282003748,2.246279031162695,2.114385613917092,2.5652619628290525,2.822494809815949,2.8685052974628458,3.0040754663952467,2.6410044007599347,1.8195199010808285,2.174774993123619,2.3010284331101687,3.040826611872849,2.143942858045776,1.9722546804086385,2.032082440624505,1.7176007644682565,98.087997,-707.600037,-700.280029,1400.0,-420.0,-2520.0
4.085062265406613,4.589160342812606,5.350734506215688,4.2765761317871664,4.6891587120324045,4.139847992076812,4.083345748548735,4.027480788762343,4.935308587333935,5.316112271433252,4.591950581193542,3.2356180015288665,5.248644836022105,4.2945595516825685,3.900258987671996,3.288157396392887,94.672005,-709.064026,-697.35199,1260.0,-280.0,-2660.0
2.230587231585442,2.273932838548139,3.2729732152115205,1.6781525366060397,2.414076954705016,1.3578123728187104,1.6725974622952025,1.4617288977474516,2.921287249641487,3.251383381579791,2.2750451325040446,0.3543879347544984,2.9573809333899725,2.1775498254177648,1.9905572159819327,1.9357135272053376,95.160004,-707.112,-696.376038,1260.0,-280.0,-2520.0
-0.9744532582999804,-1.6506531219813878,-1.2747648841624477,-1.848548084970239,-1.2107171310827771,-2.530703702589891,-1.3642742409465671,-2.3474609560951567,-1.4809200904909563,-1.3337873023097695,-1.689884832127799,-1.7336518398528942,-1.861401659930712,-1.6121990796856682,-1.2275376080558305,-0.3156923979404154,94.672005,-707.112,-699.791992,1120.0,-280.0,-2660.0
-2.6264692346403007,-3.028249550862667,-3.650359796089463,-2.752623383256793,-3.02228049641939,-3.9410691181159097,-2.518863947207805,-3.864660018375429,-3.507749528897794,-3.778720063131577,-3.2441330516705604,-1.1812984652916652,-4.046010983998915,-2.966857477962756,-2.597937140721244,-1.5827925220776564,94.183998,-704.671997,-697.35199,1260.0,-420.0,-2380.0
-1.88359869786672,-1.1554093849293472,-2.25109938304634,-0.8932727238146159,-2.124154966142072,-1.856345204316116,-1.5164572703242083,-1.9219856853410549,-1.717807997390841,-2.34138056240297,-1.5298125996606913,0.2397420733304611,-1.8355143554297868,-1.0566922494869997,-1.3915991506063357,-1.5544338278738572,95.648003,-704.184021,-699.304016,1120.0,-280.0,-2520.0
-0.0385708847509922,1.0853231073363507,0.5850527899068797,1.1201646560129337,0.0087800550361382,1.614275188973327,0.1820070241060472,1.5058738643127696,1.1060762062452756,0.6440065733222061,0.9538008812210536,0.3331225154436864,1.686308922033294,1.287576538610702,0.6051484622877827,-0.81296898546364,92.232002,-706.135986,-701.744019,1260.0,-280.0,-2520.0
1.1355335430791065,1.0609508382957518,1.6983051323092144,1.1072293938198672,1.2887062442210622,3.2553902680282474,0.9836230448607124,3.188428060975112,1.693195528000359,1.8609527206176213,1.6058938420400195,-0.638822518296586,2.454999683057546,1.292937615915946,1.2876425488247774,0.0615452821875098,92.720001,-705.64801,-697.35199,1120.0,-140.0,-2520.0
0.9950104783319124,-0.5593852119103904,0.5233608615940039,-0.4693179548151086,0.9924196164622082,1.7634658641128815,0.5514484180520676,1.746730966426754,-0.0484835473730193,0.6340425360113839,0.3714125312535715,-0.9046017058042234,0.0203565916510012,-0.5658191536774205,0.2927792489439076,0.6845802496436093,94.672005,-705.64801,-699.304016,1120.0,-280.0,-2380.0
0.3051654227759212,-1.011374863083235,-0.7133465544002865,-1.1906234449765964,0.2113306032957398,-0.906600050396249,-0.0435446118658545,-0.8754676340760341,-1.3512651928757664,-0.7502438257942335,-0.7520953428840805,0.1904060869084556,-2.171491778316503,-1.461007690168989,-0.826042736900193,0.905648686508891,95.648003,-707.112,-699.304016,1400.0,-280.0,-2520.0
0.0850330435243959,0.7503552116933333,-0.0300030825299326,0.3902455974466285,0.237945716733294,-1.7203864417043593,0.2702635745655164,-1.625867584830711,-0.1832524994052642,-0.1619415736647229,-0.2850729039784038,1.528083485094162,-1.0567522645136442,0.1085938083592512,-0.4163174121558988,0.8581997848361658,95.648003,-704.671997,-703.208008,1400.0,-280.0,-2380.0
0.3183687808357336,2.4581431739954747,1.6318281649809538,2.5644609753125267,0.751514100079174,-0.2540003031261356,1.0259006147317424,-0.1360061472253996,2.094441632538681,1.5447487118020224,1.04316627273199,1.7198324595577688,2.132639748741339,2.305277441883388,1.1955673281814738,0.6405691823030888,93.695999,-702.720032,-698.328003,1540.0,-280.0,-2380.0
0.1083440560408244,1.3507254957843198,1.512691226754933,2.020600237712106,0.3016135597434071,0.7955811017794276,0.6885764461417828,0.8141638032398402,2.2189842924349747,1.555025802966316,1.242728127419808,0.4459805750910314,3.142577443545187,2.090390524853735,1.8076481598940235,0.0084681283923584,93.695999,-703.695984,-702.231995,1540.0,-280.0,-2240.0
-0.8669862477630212,-1.995567692074248,-1.150744189690938,-1.8075939089566329,-1.3425830777408645,-0.5423891020934684,-1.090700908798148,-0.6946071644983898,-0.8103638801973111,-1.0522266132071758,-0.4469209437613605,-1.4686446738597732,0.0228155838198546,-0.92519070579138,0.0089331342458779,-1.1358851457733026,95.160004,-704.184021,-697.840027,1680.0,-560.0,-2240.0
-1.5786072649504974,-3.849951170603357,-3.503419517412931,-4.906720616230014,-2.3211195769797737,-2.3447060578587084,-2.4632435523406366,-2.544626092665912,-3.8849910134766543,-3.50798117017415,-2.358067126284325,-2.594028616302562,-3.941666038691993,-3.598587505944104,-2.595303860673614,-1.9785236596700704,91.256004,-707.112,-702.231995,1680.0,-280.0,-2380.0
-0.8062858885111949,-1.7007817642740877,-2.278391474315181,-2.86161645678921,-0.9314863673706064,-1.173443492115012,-1.4395273532656203,-1.1949220584040725,-3.064612606315652,-2.4047672486141147,-2.069746733695262,-1.7103504356061172,-3.82682793403746,-2.7023950777531267,-2.8200577947508774,-1.2680642319158777,91.256004,-706.135986,-701.744019,1680.0,-560.0,-2240.0
1.123726360093022,2.469930318926872,1.826829685836212,3.157430253531053,1.823241039715884,2.723189499951161,1.370848351422905,2.9356710226182656,1.4401196862865635,1.7904725286600325,0.6779286607548869,0.974363639714547,0.756996996860698,1.1771150187922863,0.1609105385255345,0.979656340312363,91.256004,-704.184021,-701.744019,1820.0,-700.0,-2380.0
2.3453228135070336,4.223847525953305,4.3909282523972575,6.585550216411803,3.02101362479879,4.764671576383323,3.0681303142204825,4.98972984247906,4.836749969905819,4.608946730892858,3.2173802894304933,3.268158001775008,4.716560142886121,4.006717647652413,3.3004619672233657,2.78906262635787,90.767998,-705.64801,-696.864014,2100.0,-700.0,-2240.0
1.41930337175578,1.7116447099782983,2.3672212128194667,2.933336770306776,1.233434306550624,1.6478472253165692,1.7536687361549943,1.6310935525653227,3.116058435879896,2.6181107947136217,2.6459868945363363,2.6722701386504832,3.452216284647585,2.7574682407964253,3.0322644824610427,2.084530056749633,90.767998,-706.624023,-701.255981,1960.0,-560.0,-2520.0
-0.9693029052203376,-2.2869231498364133,-2.1164823840137363,-4.238793003393772,-1.7097214640399006,-3.884735896637781,-1.206488695198471,-4.119496678165669,-1.966433937877453,-2.256829253450114,-0.7580613432764732,-0.6837130166394256,-1.4656142552155245,-1.1571774371616212,-0.3583370625394775,-0.7299825743272245,96.136002,-707.600037,-697.35199,1960.0,-420.0,-2380.0
-2.549881864596318,-3.615409465978325,-4.115011707027327,-6.905367955278391,-2.787577972840196,-5.757465800764231,-2.7285356313871647,-5.935938047170105,-4.67208570392535,-4.640868541786657,-3.4643171140868487,-3.480782028922412,-4.1882880340956845,-3.495118673505728,-2.972930593551426,-2.817106768133661,92.720001,-704.671997,-700.280029,2100.0,-560.0,-2380.0
-1.7294669686111332,-1.2838200555113035,-1.6212152018043229,-2.015053177869369,-1.102394361815775,-1.7611730551723148,-1.4538368763495717,-1.6985766684741472,-2.053546226538341,-1.9089052066305567,-2.500965623843684,-2.634692583837772,-1.817225879912136,-1.98945120437532,-2.064084950502259,-1.990830642074084,89.792,-705.160034,-698.815979,1820.0,-560.0,-2380.0
0.7401708021818084,1.8427623766662629,2.245774967800544,4.783046483097832,1.37239840668603,3.73896013589044,0.9441133225680278,3.928053690367313,2.531850708013804,2.694262640777376,1.04865142312861,0.937022236664175,2.1847185168016243,1.2467968725783232,0.7179962393324778,0.7071356901787093,93.695999,-708.575989,-699.304016,1820.0,-420.0,-2520.0
2.421734748011793,2.526851205630353,3.102287412415356,5.870107521950622,2.1134666766144448,4.936168794593087,1.8627185589955204,5.018523538449246,3.603873271570826,3.870091416123799,3.157441185184568,3.138875349710512,2.6792723312276467,2.4219598413130035,1.7490133196710431,2.199362488259025,94.672005,-708.088013,-700.280029,2100.0,-280.0,-2520.0
1.634588741731018,0.5520956375139711,0.3689795267083043,0.5456688041238579,0.6349552686665553,1.1637504960391367,0.6550939040127537,1.089335866551536,0.2409429105566542,0.5063739144010359,1.5468644598450891,1.5674824542297632,-0.5473850944992407,0.5455435717556423,0.2104125969833382,1.026816958839417,92.720001,-710.039978,-698.815979,1820.0,-420.0,-2380.0
-0.74679459672459,-1.5351349165229162,-2.413398307932134,-4.678739978883302,-1.2615464693181655,-2.87177686869344,-0.9183639719957186,-2.952924162396801,-3.058582963383922,-3.1534330055892217,-1.6250758256267208,-1.5852347805635925,-2.807195901080016,-1.6453424921489168,-1.152373806709534,-1.0121954062709455,91.744003,-707.112,-699.791992,1960.0,-420.0,-2380.0
-2.160153215929175,-1.5202365601630945,-2.0042314454424446,-4.14474182182067,-1.5238294859979966,-2.9236153830791705,-0.9512836873564215,-2.908807005356686,-2.2021847975203177,-2.751890434811968,-2.4684654544594644,-2.379464065987629,-0.8966672082443629,-1.2728199615305,-0.1366260673515674,-1.2775875126779042,95.160004,-706.624023,-701.255981,2100.0,-420.0,-2520.0
-1.1601375246359042,0.2048075520341121,0.8512418901350741,0.7370011627881446,0.0080135352931668,0.1809642375294345,0.3605226470182469,0.2154353090359914,1.5030952149494647,0.9852715150088036,-0.1602370539739369,-0.0813641932393622,2.677833451669311,1.0832722997852424,1.735639384844485,0.3393521519772134,93.208,-707.112,-698.815979,1960.0,-280.0,-2380.0
0.9617033535053384,1.4567219572038106,2.6122114149064006,4.059295880863015,1.4949674206674586,2.219488585930904,1.102806837735714,2.173504580892029,3.310956217899572,3.3812911230653007,2.188620802048132,2.147378904698327,3.086295909459066,2.207103691924336,1.399267299440044,1.4228377121270774,93.208,-709.064026,-695.400024,1960.0,-420.0,-2520.0
1.7530356982730266,0.8816982366114109,1.2294311744612312,2.581257833262776,1.16710339955221,0.8637235490388693,0.1726709861145665,0.7919542499152934,1.062794114625698,1.649784690698219,1.6139036679548928,1.4963937217847,-0.4646712846625582,0.3969925369670553,-1.2603873131397116,0.3567162040453334,93.208,-707.112,-698.815979,2100.0,-420.0,-2660.0
0.5273624527506029,-0.6721872339546745,-1.6014173649729535,-1.3035972235416375,-0.6193943926430411,-1.8453361868783764,-1.212690718747417,-1.8100053813699968,-2.414858533130576,-1.8963293547170272,-1.010382297001744,-1.0250622474027091,-3.726232623781313,-2.297892772828756,-2.932044979385685,-1.4712524087760817,94.183998,-706.624023,-695.400024,2100.0,-420.0,-2660.0
-1.007810615002766,-1.381087384839574,-2.6131021392902625,-3.218839262842361,-1.7460048269797364,-2.308663768129659,-1.0844540481705596,-2.168189964414857,-3.097124974295036,-3.019194105319612,-2.3255222466259955,-2.2040978849833635,-2.8293547037999534,-2.5674773314770443,-1.2326728482444762,-1.5374231022324147,92.720001,-710.528015,-700.768005,2380.0,-560.0,-2520.0
-1.1107217156173197,-0.5873049029864003,-0.7655322914599557,-1.682799568058517,-0.855461586310088,0.2766769041582309,0.5482751492307633,0.3591216299815544,-0.5082270822801898,-0.7557026489719745,-0.8346643651824482,-0.7749145917221086,1.0418777841369469,0.0811839385000207,2.000658858955447,0.3912672511857754,97.112,-708.575989,-698.328003,2240.0,-560.0,-2520.0
-0.0980886556151928,0.6669347989765384,1.7440996399986868,1.152852780036696,0.978350856674102,3.073590959110148,1.5353477164963445,2.9820221607476216,2.258598711572528,1.8764744544555256,1.4700003942299336,1.3339107730702988,3.444929085582241,2.719491809987067,2.972875580053038,1.900050090938448,98.576004,-706.624023,-699.791992,2380.0,-840.0,-2660.0
0.5221717043336368,1.0681353577650528,2.180634825810208,2.445920982009269,1.585500494907339,2.913806556113048,0.4687522066129226,2.7367015261556547,2.47233983668225,1.9949620867192028,1.9106456908755085,1.7307103225627174,2.110553193616694,2.4819572329145254,0.7061838990197993,1.1124331429635914,93.208,-708.088013,-701.744019,2520.0,-700.0,-2660.0
0.2991762563517267,0.4599560312079226,0.3410896038300852,1.352414500158381,0.3892000917107578,-0.2116333777670863,-1.2456757201127344,-0.2834028194252294,0.4674545219761458,0.1265478749856476,0.3183958360548036,0.3206765093744371,-0.9124017880365666,-0.2228364319415342,-1.959315054453191,-0.887519212423674,95.648003,-710.528015,-697.35199,2380.0,-840.0,-2660.0
0.1260880952325153,-0.3158437302537759,-1.4837543981133687,-0.762474914243199,-0.997414183157795,-3.2485444393798626,-1.1953173553170224,-3.1432323610362234,-1.4710700939822958,-1.1633443393885068,-1.2592185995922864,-1.0877023927934202,-2.326285043470517,-2.4415339482794405,-2.1340435760111824,-1.5841800511236823,95.648003,-709.064026,-701.255981,2520.0,-980.0,-2520.0
0.4452379014422458,-0.5587753503717472,-1.3258342457978374,-1.872643761629774,-0.9403402076831464,-3.334703567877364,0.6516143811885745,-3.168128167192956,-1.748521371913022,-0.713681466513439,-1.2556556922316993,-1.1017082277668289,-1.2876748278121668,-2.0526674513737992,-0.1901753218628937,-0.3116139677175081,94.672005,-711.015991,-696.376038,2660.0,-980.0,-2520.0
0.4294076674837225,-0.2951708683229281,0.294192619226105,-1.050348838656248,0.2215777522887412,-0.5719359297264367,1.754292769910168,-0.5068795017508464,-0.5524621070951418,0.3147711990507771,-0.0546507695644732,0.0071444289696682,0.5025119944850563,0.2272863009700628,1.3635077401227595,1.103048183514978,94.183998,-708.575989,-697.840027,2520.0,-840.0,-2380.0
-0.5162344547585784,0.0495433250540447,1.2255174473656552,0.7125121274356969,0.851852396907736,2.3639664115963925,0.4604250343120397,2.2830549304630625,0.8548753949215969,0.4795495614025323,0.9376057346199108,0.9602590622130052,1.2760912348158042,1.979408548607373,1.1862265276951172,0.9183324177624425,95.160004,-710.528015,-694.911987,2520.0,-700.0,-2240.0
-1.4071752801899693,0.1319802751845549,0.3338022032372709,1.41070195783043,0.1976609973447563,2.97767342156226,-1.6503374791720875,2.8447424858020645,1.2440052515923534,-0.2183273133554555,0.8201556420596213,0.7577171111478119,0.7350950602852632,1.5923943380262051,0.0961587266496827,-0.3895222421080913,96.624001,-710.528015,-698.328003,2520.0,-560.0,-2240.0
