Ch 1,Ch 2,Ch 3,Ch 4,Ch 5,Ch 6,Ch 7,Ch 8,Ch 9,Ch 10,Ch 11,Ch 12,Ch 13,Ch 14,Ch 15,Ch 16,Ch 17,Ch 18,Ch 19,Ch 20,Ch 21,Ch 22
0.5319187487259301,0.4662582981188581,0.9786883956963268,-0.3129651327053218,0.6733678539469379,0.2661949421578172,0.2656925021771502,0.23753189923685,0.4894567841097538,1.009862623047325,-0.3384620494358433,0.9017391166968256,0.9931008806775126,0.2626147433202393,0.327299488272176,0.0884015101825327,53.192001,-715.895996,-693.936035,2660.0,-4900.0,2520.0
-52522.45367276754,-36609.300965970826,40806.75305574304,-16190.560652205471,-36687.70370468623,-34022.68171767822,44097.793358429386,-15687.456094779778,18598.35709681728,48654.80815113629,-27605.66629138348,-30519.72957611324,35560.97032762749,-42191.73151832584,51336.86878230509,8731.839780925522,54.167999,-715.895996,-698.328003,2100.0,-4200.0,2940.0
-41617.45849394454,-29030.19576866642,32261.90825323104,-12849.540933724687,-29096.478010438925,-26977.14053083248,34875.43139381946,-12456.9054172123,14679.650869489613,38474.475865589615,-21884.886156947592,-24209.567816059058,28092.21508859676,-33443.6882996361,40607.32139472698,6872.211247119626,23.912001,-721.752014,-688.567993,3640.0,-2100.0,-1400.0
15253.76556930866,10594.711727851452,-11975.560309113996,4666.42709933736,10610.543728914396,9849.30239822162,-12921.480426455537,4510.134103922091,-5499.719992355056,-14265.088616735404,7998.144604971528,8818.60941675611,-10473.672231769258,12232.64088131407,-15031.072987369866,-2616.104576840195,25.375999,-719.799988,-687.104004,3640.0,-2100.0,-1260.0
46847.33870753561,32645.667780076485,-36426.79203915088,14433.11858614688,32714.234734443253,30339.58722572229,-39359.28403083164,13981.685222910945,-16611.25031004793,-43429.00392312986,24618.279388743027,27212.560525552075,-31750.449447504743,37628.17950571034,-45817.9215383034,-7805.990546842245,24.888,-721.264038,-690.031982,3920.0,-1960.0,-980.0
21564.84158454573,15076.76379124291,-16607.690214952097,6690.760248288973,15117.297058338494,14007.486396255532,-17969.53630445482,6495.53496566703,-7518.904647459378,-19817.48852161446,11357.650861075956,12585.447822822309,-14425.11478930526,17348.40001667469,-20933.26108483141,-3488.331280973748,26.352001,-718.335999,-688.567993,4200.0,-1820.0,-840.0
-20080.18583186945,-13939.59982510696,15789.839131780116,-6135.159605123279,-13959.519696286694,-12959.369483705474,17033.057352135616,-5927.647325304067,7259.7226624007,18805.72487489271,-10524.05789595578,-11600.565664315942,13815.847859472036,-16098.663916579471,19811.795260517792,3460.133058005056,24.4,-717.848022,-690.031982,4340.0,-1820.0,-700.0
-27942.509139122525,-19472.92667390186,21729.59341030871,-8608.83734629163,-19514.26476962335,-18096.868562040043,23477.10830427724,-8338.700691377766,9908.453948924076,25905.70741068592,-14683.32602352537,-16232.779715362389,18935.354278191528,-22443.73214711273,27329.6080015807,4654.777870711835,22.936001,-721.752014,-690.52002,4480.0,-1540.0,-140.0
-4559.759600620541,-3233.0544609461567,3368.4212995759904,-1457.4270118709858,-3249.5023509892494,-2999.4812617453968,3666.283174594298,-1426.6535504652884,1474.9034531795385,4034.7301771489015,-2424.7264508871244,-2714.9713043609845,2877.252916657798,-3693.1896012007455,4284.240905008513,641.7227310002912,23.912001,-723.216003,-687.104004,4620.0,-1540.0,0.0
12362.673095279712,8564.647090113087,-9781.66845646882,3759.6405730233705,8574.427096265737,7963.867396480434,-10541.547206922758,3627.092159298874,-4516.896583460443,-11643.105332035218,6469.011198717796,7121.7251913228365,-8574.032540271943,9901.066940782017,-12256.300609044976,-2168.598852869049,23.912001,-721.752014,-686.127991,4480.0,-1260.0,140.0
7090.173954253011,4943.798942376345,-5514.356877816442,2185.339079388797,4955.043484828181,4593.510908339801,-5955.5676116920295,2115.6769388825924,-2512.5601361943523,-6573.076967901727,3725.513475959425,4122.728534077364,-4797.047888275726,5695.476084601255,-6933.005700227246,-1176.972329639853,21.960001,-716.872009,-687.59198,4480.0,-1260.0,420.0
-1874.8521809921367,-1264.1322913471215,1590.2096171124354,-537.8982031691082,-1260.0696489677216,-1179.4041316820214,1698.3861125879043,-510.6224892544549,771.4445420550322,1882.025914881508,-963.3726854743484,-1038.6497208674698,1431.9557512305864,-1482.5067835145674,1965.607979405636,402.4647671245297,22.936001,-722.23999,-687.104004,4480.0,-840.0,840.0
783.9937264572256,580.4169036582823,-492.1691328266993,275.4921560801353,586.4726204164558,536.3657535092793,-552.2382442026626,277.30829985418285,-185.87977009641608,-600.2940368101916,431.7406344405193,495.0582229816988,-398.4529706253998,649.7963430930614,-652.5964739509369,-56.25068288684874,23.424,-722.23999,-690.52002,4760.0,-840.0,980.0
5407.279495174946,3770.155872662985,-4185.965327909403,1670.1854264123144,3778.328739937506,3504.6715202995465,-4528.466926560459,1620.928851370085,-1904.9801835960088,-4993.786202331866,2844.732736923945,3142.5494004265047,-3653.177025168884,4345.705698693278,-5273.350909502989,-894.9400452790629,22.936001,-723.703979,-689.05603,5040.0,-840.0,1120.0
-601.3169983601381,-436.0341379231725,417.4910795438134,-200.39259412328607,-438.67888764250034,-402.3831240300178,458.9223595040928,-197.30621659041216,172.3689762222621,502.9226528368167,-324.7112017566112,-369.2981918996046,344.063753665425,-492.2146059343352,537.3416264809724,63.89472489913057,23.424,-721.264038,-689.544006,4900.0,-700.0,1260.0
-9704.947965274643,-6780.32759908431,7484.709246193686,-3007.4969117898654,-6796.416341167675,-6299.355551098838,8099.301419062989,-2918.8937114907417,3393.079449262409,8930.812208255058,-5110.702456683367,-5656.9054817829,6509.234416521077,-7805.968141626213,9432.723465068371,1578.9370864715772,21.960001,-725.16803,-687.104004,4900.0,-560.0,1540.0
-7129.96002935966,-4981.507390500176,5493.301102950977,-2211.113703539532,-4994.480852869091,-4629.400427626667,5945.224816790494,-2147.470861421491,2488.99066830202,6555.291851578183,-3755.271221743033,-4156.235728233425,4779.575612964104,-5735.55148001637,6925.933115285189,1159.770415314883,22.448,-722.23999,-686.616028,5460.0,-560.0,1680.0
4683.992001016857,3257.4586928583194,-3668.234235841648,1435.013787651241,3261.843938277827,3026.302383659521,-3960.2659856265705,1386.9453313374588,-1681.0569936204995,-4370.63306354946,2457.49118721949,2712.556691778737,-3201.5403739415365,3758.141653739901,-4605.95937283956,-794.5479672195581,20.496,-721.264038,-690.031982,5600.0,-420.0,1820.0
9888.50251007506,6898.340013617658,-7663.870090084305,3053.4427042751377,6913.301586906934,6409.38440028385,-8286.736572328067,2960.088989649564,-3485.914607923932,-9139.881361246797,5200.940162319156,5751.857908637544,-6672.527713728522,7947.743467103237,-9647.619265573128,-1631.8481848712709,20.496,-722.728027,-686.616028,5460.0,-140.0,1820.0
3096.8528386006383,2179.81142778025,-2333.585021248043,976.5766019034876,2188.5316514302026,2024.364513532312,-2533.7954651168047,952.9933969762302,-1038.4821195872264,-2789.8485276221195,1639.9109289058242,1824.299866894822,-2013.8098897128768,2501.052177530419,-2956.788869253396,-469.9469750798018,23.424,-724.192017,-690.52002,5740.0,-280.0,1820.0
-4638.88432011761,-3214.092386474806,3671.878200762365,-1408.8182117381796,-3216.774298065364,-2987.112609036788,3958.286177150461,-1358.739481082244,1695.927323166139,4370.864498603407,-2426.890424136607,-2672.1081914193624,3216.102452002732,-3715.102121941714,4600.413727627494,812.7648847275678,20.496,-721.752014,-688.567993,5740.0,-280.0,1820.0
-4095.310090952378,-2857.066118773598,3177.564739334465,-1263.4334200971696,-2863.1856714701507,-2653.4287906764625,3435.592556686755,-1224.2994430687884,1444.9544094920404,3788.38967108236,-2153.282375951824,-2382.1112966609976,2763.372612339799,-3292.100075044797,3998.659672642201,676.5071457902859,21.472,-722.23999,-688.080017,5880.0,-140.0,1680.0
184.4939867409041,106.95034130188318,-213.5617003425081,34.60966957004513,103.36423378568892,101.63633867784284,-219.46162668143808,27.75338342561042,-122.53331432542524,-247.9483901239348,84.9039485780596,81.46948010530402,-207.8509979359168,134.7292488920583,-249.33753547836056,-76.02994598179154,21.472,-723.703979,-691.496033,5600.0,-420.0,1540.0
427.4211876463447,279.55361719960706,-396.2703530318539,110.8601628332919,276.7138191757454,260.1875798588125,-418.5239625162194,102.06703693096486,-201.53048930949464,-465.3223208629966,213.46071669154904,226.1797435227018,-359.69299821493945,332.68826946515213,-480.3118084030236,-110.41077619519784,20.984001,-723.703979,-692.471985,5460.0,-280.0,1680.0
-1671.6963027616366,-1165.1420677258448,1293.3968609139952,-516.9470947386711,-1167.9863610517837,-1084.8321581689293,1397.8092909285729,-501.8103149008026,589.9616420470762,1543.9189526252655,-879.6521777047365,-971.3241627631244,1131.49243658075,-1341.9670257730902,1629.5712375628973,277.13819432161154,22.936001,-726.143982,-684.176025,5320.0,-560.0,1400.0
-57.7735065336696,-27.64127896538516,83.97130583876648,-3.953169943373516,-25.88623256436841,-28.00304704391636,83.65636376999674,-1.5583921095898543,52.634708167168014,96.44371238447944,-23.38985558931163,-18.210560103883065,85.57609216166627,-38.43514759760216,94.8546956695934,35.416554328828944,21.472,-723.216003,-684.176025,5320.0,-700.0,1400.0
3953.636505779036,2767.137060507328,-3031.950668694714,1232.7950330765227,2775.040024065329,2571.425482742225,-3283.095243265668,1197.2780787869394,-1369.5490786115697,-3620.143984676335,2085.2436458118864,2311.0008888814077,-2635.121830233718,3182.1805691430213,-3826.719743866933,-633.8770375118255,23.912001,-723.216003,-690.031982,5320.0,-840.0,1120.0
3622.2293181698983,2529.3570027528203,-2794.97240762952,1121.9630829200669,2536.104942073749,2352.59103692614,-3022.1987312154306,1089.5939775142058,-1268.848457460039,-3335.2888536820105,1907.292689917865,2109.837243216575,-2433.978952951268,2911.6412963105317,-3522.4683482563046,-592.2106694181883,23.912001,-726.143982,-691.007996,5180.0,-840.0,980.0
-1714.4880579673622,-1195.521688260108,1332.8871693034157,-530.9132803887728,-1197.7034317804669,-1109.1826930717768,1442.4554667818982,-512.6641660092831,607.9723217770468,1589.864184002359,-901.0973542394992,-997.3224297797676,1162.8470251120646,-1377.4492657623362,1677.9852327185283,285.7375019301141,24.4,-724.192017,-690.031982,5180.0,-700.0,840.0
-5046.686556724114,-3522.7440463677017,3904.345887967045,-1562.660041741723,-3531.4176157737056,-3273.915931802932,4222.521832506529,-1514.8826858830143,1774.9052112542483,4658.035474664289,-2655.621214344562,-2938.5544483286217,3400.512977186585,-4056.130251468992,4918.679964727248,830.354592462148,25.864,-724.192017,-687.59198,5180.0,-980.0,840.0
-2263.879308560966,-1587.42794281518,1726.828280631927,-706.6576318458157,-1593.0490368145631,-1476.8775891319428,1868.7685070453867,-688.7179846058566,775.6969904777941,2061.5223494781817,-1195.8366496628955,-1326.180385570066,1494.96846232013,-1823.9418532250584,2180.905218746532,356.51971298079354,25.375999,-724.679993,-691.007996,5040.0,-1120.0,700.0
2219.7792973720893,1539.37762309271,-1752.348615831729,678.4834069081503,1541.3354247210652,1429.368522965312,-1892.5844425633231,653.2250651243427,-809.9068216127218,-2088.6343690622134,1161.4430578968136,1281.0702308633292,-1538.2361761958673,1777.4434446927055,-2200.261279733166,-388.31806862680526,21.960001,-722.728027,-689.544006,4900.0,-840.0,560.0
2786.2740304879217,1943.845630824772,-2162.013537072516,861.1270738544586,1948.957737494708,1806.80562336574,-2337.0393375595518,834.3491273093814,-984.5855605623276,-2578.506477707975,1465.0404586585778,1621.1534658263308,-1883.0153176375777,2238.418727783494,-2722.7986942652487,-462.5639844669306,25.864,-725.16803,-691.007996,4620.0,-1260.0,560.0
400.5775751473566,290.1000839932333,-277.8248358680705,132.5691776020771,292.7856077142619,270.80710941169286,-301.8902985510658,132.82772359555162,-112.29309243709037,-331.887842497516,217.39399545212467,245.1731908800566,-227.19900742217092,329.2208255458058,-356.1167885273321,-43.7053902833021,20.496,-722.728027,-689.544006,4760.0,-1260.0,560.0
-572.5377604045372,-389.2306347952836,478.3981587814795,-168.29733922120587,-389.17479110463177,-361.10133824384855,515.1792255341438,-158.7584623814547,232.2999381444123,569.9272380591161,-294.01212815449594,-321.64142396024425,430.4230343774242,-452.2974553257514,597.311941724064,119.00727632913924,23.424,-728.583984,-690.52002,4620.0,-840.0,280.0
310.085187024269,216.33294505982164,-235.10801848409696,96.46590193130162,216.0954817061265,200.52265169740667,-255.76206496539217,93.71449678840492,-106.7165358125559,-281.9161528973094,163.6031484976689,180.2896198608072,-206.9542847872713,249.1595325457326,-296.5741193647813,-48.1574388317486,26.84,-722.23999,-680.76001,3360.0,-980.0,560.0
46.932587980179626,25.07140690494244,-56.70045910267312,9.02009332819712,24.38837496262574,22.452997118253265,-62.29737724518331,5.577115961216818,-37.75558799062547,-69.96726820905336,19.335158530889977,18.80793863230607,-63.355900931554594,30.86675047950789,-70.36424815226086,-23.88481280693867,34.647999,-725.656006,-690.031982,7280.0,-980.0,280.0
-1723.5173030111946,-1208.8105524715286,1314.011495028931,-537.6098746488623,-1211.334072276132,-1123.469444424911,1421.2016638326354,-523.8953955734639,587.7090459538394,1566.5792826665324,-911.4523244737684,-1009.6115635118,1134.8844497411774,-1390.581296456836,1655.4002653487714,268.3155099747365,36.600002,-729.559998,-692.471985,3920.0,-280.0,-1260.0
-1892.985524108533,-1321.9325033427942,1456.499744773536,-587.0680402590399,-1324.8517743537273,-1227.7950279702368,1577.9782983328562,-569.4865554351413,662.3177548436217,1740.4863804312142,-996.4558281280528,-1102.906803229477,1271.225840533957,-1520.6719774872631,1837.260039950664,307.1738357770359,30.743999,-719.799988,-692.960022,2940.0,-840.0,-1820.0
643.8000144995012,450.6138694694849,-500.21690457396255,198.2404897367101,450.6681956050672,419.30701183109966,-536.6583393446108,193.17626146537123,-222.321093370298,-591.6717709328061,340.4734309643117,375.45789238867786,-427.5551981219591,521.1339902662348,-624.0493331522849,-103.5059655927862,24.888,-721.264038,-693.936035,2520.0,-840.0,-1820.0
2717.105353793488,1898.011679390288,-2097.716518653289,840.5788451144289,1901.5251620480449,1763.5105487897438,-2267.538664079742,815.9788757972512,-950.1801672525957,-2500.904653299741,1431.170693358698,1583.073538833613,-1822.7793520499224,2185.691761868534,-2639.472901642771,-441.7449749483697,24.888,-721.264038,-693.447998,2660.0,-1260.0,-1120.0
1580.7359273800246,1106.6631314565195,-1206.264706467421,492.9246270111729,1110.1361020679672,1027.6280905757635,-1309.2243743040742,478.9021377273508,-546.6571119654806,-1443.4299724537698,833.3197134456723,924.7472696273404,-1051.2806069797066,1270.288458363366,-1525.6237687801656,-250.7726824521972,23.912001,-722.728027,-690.031982,2660.0,-1260.0,-700.0
-1068.6859877980005,-741.7995504388025,846.7243292145012,-324.2960466133597,-741.5633975286989,-689.6195305767134,909.5694049097564,-313.59155316889536,386.85835117697536,1004.2321861697236,-560.4275163770275,-616.2931262658643,735.9723679772403,-858.8602257106131,1056.436946418653,185.2913063502421,24.4,-721.752014,-690.52002,2940.0,-980.0,-140.0
-1870.7401933073104,-1305.49246408952,1449.0068910963648,-576.6806102422097,-1307.958778785311,-1212.583212058582,1566.276926054633,-559.345181221469,659.0873778952952,1727.6010209559695,-984.1254210474502,-1088.7607667822826,1261.1263519088411,-1503.096323258239,1822.4154936499644,307.2919193126047,25.864,-720.776001,-690.52002,3780.0,-1120.0,0.0
-569.6326849284184,-402.8622382905684,418.51705808739086,-181.90162938641555,-405.3425297413282,-373.6395592188156,458.0485748855753,-177.82760765793364,186.4590841643204,503.6640610899085,-302.60183332931643,-338.94871687193773,362.6342364619974,-458.8750132636623,534.8212259489342,80.69820848455379,29.768,-721.264038,-691.007996,4620.0,-700.0,560.0
447.1419440503121,306.23425967989226,-370.2964289218701,130.08701791530893,305.2951107002481,284.5861696276449,-394.9644705632759,124.75273917267596,-173.9883366479532,-437.19871727365455,231.58944642027248,252.68475271398208,-325.0134607101034,356.8267168474716,-457.037646618666,-87.12404815306138,26.352001,-722.728027,-686.127991,4620.0,-700.0,560.0
206.07676202345445,143.1913306108273,-162.0508166081399,61.13959633621891,143.63683818554148,132.41545990673453,-175.14111077981124,59.28924489353532,-75.5702441386244,-192.77024058395736,107.77351470926946,120.06465140330268,-141.4450144964458,164.3543273573715,-202.1184717771737,-34.61575291471146,22.936001,-723.216003,-687.59198,4760.0,-980.0,980.0
63.75172537082005,48.97275063727193,-31.32561612866376,24.793656436850583,50.31411344021402,45.022173547876406,-37.97426731778822,25.096346677742712,-10.351338690399812,-39.90568848034335,36.58896875576849,43.74536453157148,-24.47642699964515,53.08082308909445,-44.63439278017747,0.7300287576982207,27.816,-725.16803,-691.984009,4760.0,-980.0,980.0
734.4542799801097,517.4179289098232,-549.8062387872175,234.58037290363916,519.1628332211351,480.9683390075575,-597.9969934033642,228.32724087084895,-244.0790386100832,-658.4044353107228,389.99167445415,433.0396882648616,-475.6629267413262,593.449429449586,-698.6376068063144,-109.94267805841513,26.84,-726.143982,-687.59198,4620.0,-700.0,980.0
930.0250535271624,650.7112861293751,-714.5032347684171,291.0133870617887,651.7885197448994,605.0958313626678,-773.0540502539949,282.45721346608235,-322.03405991597504,-853.5065723378165,490.2374646775493,541.5387534101542,-621.5906287524406,748.6704868786184,-902.9691708914078,-150.80011134009646,24.4,-726.143982,-687.104004,4760.0,-280.0,1260.0
-243.48161444870556,-171.48854667599295,182.0650372202998,-77.90605632379503,-172.1060888699192,-159.21635103245535,198.27329096765047,-75.45006835352491,80.93164243282081,217.2150800435738,-129.91901917461456,-144.56967073711155,156.95810924592837,-197.32570828896283,229.76697439824488,35.428747783274055,25.864,-726.632019,-689.05603,5320.0,0.0,1260.0
-1452.0099220726288,-1016.6472424275896,1112.876799100868,-454.90707608211295,-1018.526697002605,-944.8119613716268,1205.0643100202367,-441.2461197161575,501.51299577919815,1328.8658124541073,-766.4720936043296,-847.7283079140085,967.2826088568128,-1169.398766366585,1405.3062576869038,232.63834827176623,25.864,-727.119995,-691.007996,5460.0,280.0,1540.0
-1028.0165498387037,-720.8637732324455,785.1118956708526,-322.47222676599733,-722.298313412031,-669.8137512358943,850.5884457883716,-313.5559450700168,353.0869929898612,938.904751768678,-542.458438709934,-600.2320030238473,682.4951498920141,-827.2146015625437,994.3542548030982,163.90859710152642,24.888,-726.632019,-688.080017,6020.0,560.0,1540.0
493.8872842188717,343.34916532274104,-386.9845564969104,152.85149697386868,343.4440013192216,319.18698960924024,-417.4606162468148,147.00671653318008,-176.6861380491709,-460.10457661884135,259.77514318308863,286.15933076532224,-337.6099728363924,397.5670701337024,-484.2307846672626,-83.55626462538035,24.888,-724.679993,-685.151978,6580.0,560.0,1540.0
1201.75551693725,841.1464040436217,-923.8071559572112,376.26092296896906,842.2186772815655,781.4075211438803,-999.839284241673,364.6541937525698,-417.0035439171679,-1103.1321489482164,633.8025096456477,700.2922556969819,-804.0228330508779,967.0519344256934,-1166.585835445154,-194.562838550036,25.375999,-727.608032,-690.52002,7000.0,1120.0,1680.0
533.4603925133431,377.0432673307547,-398.8186811453734,170.1125525956958,377.98494847035295,349.796343267829,-433.8981847979665,166.31827324732186,-176.7736659993379,-478.583494884349,283.15735242195456,314.0934378025512,-345.3373876230367,429.7764450376847,-509.3601712318233,-80.16185527789467,26.84,-728.096008,-686.127991,7000.0,1260.0,1540.0
-284.9835135355564,-196.18845978037837,229.7135913759963,-87.027076263698,-195.73083185706764,-182.5085144730836,246.47792444818785,-82.7821414722207,106.66255190554293,272.52315570911423,-148.29627022679108,-162.40928705486257,202.26502359701428,-228.4469780964205,285.5546562568541,52.51307263112766,29.768,-723.216003,-688.080017,7140.0,1260.0,1400.0
-340.7130003597716,-239.8334381340148,259.385267263592,-108.95607334716644,-239.6684708586521,-222.19637000831565,281.3564585391822,-105.50217064763108,115.88708037316464,310.5953904592422,-180.2197536271327,-198.6658036016861,226.10204344708504,-274.10235738270666,329.979740087799,54.29293435640187,26.84,-721.264038,-688.080017,7140.0,1680.0,1260.0
-137.04952570934086,-100.28087644151418,94.375566334114,-46.76702608422332,-100.5009980652389,-92.22823301527748,104.62128714585558,-46.64846120881747,38.82995663655936,114.54350201009518,-75.17147704387537,-83.58736201456486,79.9345628944619,-111.484738295678,124.81376281455576,15.763677534729982,25.864,-721.264038,-686.616028,7140.0,1680.0,1120.0
-297.0307748253971,-209.90330682526283,223.3147749415537,-92.92330124375988,-210.7368290982118,-194.94104375779156,242.84262253359563,-91.31720910275388,99.44168720315346,266.88892228879774,-158.60979297108503,-176.06301775355394,191.99257539493144,-240.18619799265383,283.2305723474855,44.14733367410897,26.84,-723.216003,-688.567993,6860.0,1680.0,980.0
-406.7190607771707,-282.40764126055564,316.7819240224884,-123.4303720833122,-283.48560338900245,-263.4599914696358,341.68244993929414,-119.75215315917168,145.3223952999093,377.19882252013446,-213.26481915542152,-236.48920815786607,275.5666078326439,-326.8840190047835,396.2678785436201,67.36316466957464,29.280001,-722.728027,-686.616028,6860.0,1680.0,700.0
104.62976892472962,76.39883587984548,-77.12206794170524,34.9738085213123,75.94359215436083,69.83932287063065,-84.78489429212718,34.565626279300986,-32.63161081249242,-92.21033805714418,58.03053827502598,63.22914639407387,-65.42582333755544,85.83779973090455,-99.8421921402512,-14.582960687769155,25.864,-718.335999,-685.640015,6580.0,1540.0,840.0
755.1867764953885,529.058046926276,-583.2979041090434,234.09643493557576,529.6939366072966,491.5990506655584,-630.9880767967834,227.4731546970648,-264.2492411028324,-695.3924038423246,399.5100276734556,441.1799246848931,-506.3154741945624,608.6402846493864,-734.4903850889112,-122.48269166673288,29.280001,-720.776001,-682.712036,6300.0,1260.0,560.0
622.2007390946702,433.5926231366996,-479.8311856133352,191.3901974053313,434.9389554717201,404.10642244631737,-518.3876287653899,185.724432854746,-218.7416331556649,-572.6887213429532,326.7554295263779,362.29586748216616,-417.6884171532489,499.7057939523383,-603.2879067824249,-100.7518140002652,27.328001,-716.872009,-687.59198,6300.0,980.0,420.0
-213.2995880097161,-151.01392281014412,169.85510101678784,-66.91131227059466,-149.81971992035815,-139.07609513833373,183.64593084170173,-64.75224084931536,76.74222321384993,201.3218061709543,-114.60051943888838,-124.4658511360469,147.17802143468035,-173.53036272566135,213.39124769739456,37.483315776174656,28.792,-716.872009,-686.616028,5740.0,700.0,140.0
-732.0010201156306,-512.4566957002976,569.3062618010651,-226.52662930173832,-512.2623966842691,-476.09488259716863,615.1547156401493,-219.56301690668224,259.11674461088694,678.4386318679643,-386.6935092615076,-426.2977340749617,495.2965593110599,-589.6880818426065,715.898681755886,121.1402688361932,26.84,-719.312012,-691.007996,5600.0,700.0,140.0
-418.69598777438006,-291.8816090959285,319.0775934816824,-129.17753896455932,-293.1131388563648,-272.39282311754164,345.0949255329578,-125.52985580482164,145.21262529968357,381.72662540835,-219.71723884268832,-244.23850230327645,277.8504010321759,-335.44294353244453,402.4497037109823,65.35181155354883,26.352001,-718.335999,-688.567993,5880.0,700.0,0.0
152.22528912536987,108.06484456655232,-127.07726096796814,47.34184781029536,105.98916280145744,99.02455666989071,-136.74949846464517,45.35949295168607,-58.51476411128019,-149.82017187423222,81.76884101332733,87.80498960904319,-110.77574547786924,124.67285326538064,-158.10905288105306,-30.417988541775216,25.375999,-719.312012,-688.567993,5600.0,560.0,140.0
309.47410168019024,217.27376848968163,-243.39885859742012,95.57571632021232,216.0721415567439,201.54070566722376,-262.8160026675181,92.4052691025064,-111.71403982811022,-289.88365596257154,163.6751971875669,179.7911804567997,-212.35536185649323,249.5719876997665,-305.6553466040982,-52.58082957084354,28.304001,-719.799988,-690.031982,5740.0,280.0,140.0
159.3899088835099,110.31471198249112,-118.11185176055469,48.65149002433007,111.4810444749469,103.58792473125048,-127.93262968747148,47.44445559393122,-53.982997740175584,-142.02566552226963,83.1544760856637,93.12811172708064,-103.05727430645798,126.38455009516828,-149.72428366361834,-22.373690251308368,27.816,-718.335999,-691.496033,6160.0,140.0,140.0
122.15033086997472,82.96811561472866,-86.44909954931884,37.19898803267938,85.81639515008203,78.72398852447714,-93.63308771313297,36.494900244130704,-38.49256527656164,-104.37668953877991,63.04575143862041,71.56469948097501,-74.88297725114072,95.74534581604284,-110.136954340056,-14.926006989129384,27.328001,-722.728027,-692.960022,6160.0,140.0,140.0
148.54302342191207,102.83755196114522,-111.69723084400836,46.46223281658084,104.60537530950174,96.2148703739674,-120.6202737087596,45.17142754265823,-49.47304680003298,-133.47542640376628,77.90129903203201,86.73687120915997,-96.493231549621,118.90640716423066,-140.9871508349849,-22.817344918204444,26.352001,-723.216003,-695.888,7000.0,700.0,140.0
-66.97471301506478,-44.740334437936944,49.610804331663886,-19.022731669782203,-46.028115992071534,-42.635755778540265,53.37087471571362,-18.555045068846127,23.47977463781555,59.642482288678345,-34.25634411460097,-38.47493068889568,43.72814542289306,-51.84520766257217,62.49994609061113,8.825895693581586,27.816,-724.192017,-692.471985,7420.0,700.0,420.0
-391.21915905086365,-270.2703752441988,299.2542910649936,-119.79506203973494,-273.3437481451904,-252.9921674466364,322.5611731439233,-116.11629953243538,135.9448593336885,357.3523343957409,-204.8060335200316,-226.9501835006754,260.4200707460392,-312.0462593424349,376.5094085448179,61.488006121575935,30.256001,-721.752014,-697.35199,8540.0,1120.0,700.0
-354.87376556355065,-247.3641022443929,272.21084018273524,-110.74053404705307,-248.9734462735821,-230.64683947557424,293.76416063343834,-107.1631993738283,122.5506896434465,324.9194203642499,-186.86665408012672,-206.56894176798676,236.24306499803143,-284.748117743694,342.81216667626626,56.91343814902444,26.84,-725.656006,-694.911987,9380.0,1540.0,980.0
93.3259601735966,62.526795871446986,-74.00341358943346,26.345976033262318,63.889912984946186,59.22047875178014,-78.90524774028528,25.50732499188696,-35.17147612606781,-87.95874911319211,47.92529661170804,52.820969365160096,-65.27706301620343,73.32168169257898,-91.9286548682069,-15.59365328828069,31.232,-722.728027,-691.007996,10080.0,1820.0,980.0
434.7884638250045,300.7350966104199,-337.2640321583208,133.04698563500787,303.2498201851203,281.3111549119961,-362.7139760144012,128.46237987318236,-153.93921627845458,-402.0454207985123,227.89104729060912,251.1954263217229,-293.8469838768671,347.3502649754831,-423.0684341658285,-70.95311078810809,27.328001,-722.728027,-694.424011,10920.0,2100.0,1400.0
295.410230789921,206.01646705091872,-226.8462919791989,92.53569365443389,206.960827660045,192.0798479093432,-244.76267723166944,89.08412685115088,-102.27583426312736,-270.82581799629446,155.76467258204255,171.7156128429734,-196.84512852818943,236.67192916325763,-285.5245096771649,-47.10890771570439,30.256001,-722.728027,-691.007996,11200.0,2240.0,1120.0
-76.93182792491858,-51.5734459778808,63.29972597196589,-21.45332032478927,-52.66271451747125,-49.05468044705425,66.74138950230356,-20.79504087219273,30.25906553987365,74.8351430721809,-39.47558025525554,-42.90072126508997,55.99775588072856,-60.99631233585564,77.89103170144737,14.330544514632612,28.792,-722.23999,-690.52002,11760.0,2240.0,1540.0
-238.56165928773424,-164.35124580882237,187.14413517405785,-72.72794083272221,-165.70133918331229,-154.22560885654616,200.3616653396093,-69.61679769648588,85.85168742233223,222.7234786827209,-125.00815176483049,-136.6722799243008,163.155619377918,-190.27427669114456,233.55054092999947,39.55015486675467,28.304001,-722.23999,-686.127991,12320.0,2380.0,1540.0
-143.85592096348296,-99.75069115811144,110.59986619461694,-45.26432024441144,-99.9863739983982,-92.9584952608321,119.5322220264089,-42.78434692627273,49.99287186229146,132.01078238008623,-75.96200409771535,-83.24531233284418,95.75326305279762,-114.4932880791374,138.7721146698968,22.35623816846132,28.792,-723.703979,-690.031982,12600.0,2660.0,1540.0
-47.374838014189706,-33.81492288167225,34.20236172664251,-15.778523126179763,-33.41651180613382,-30.48175209657828,38.56670578950284,-15.1029249694984,14.960968057879166,41.31767942226812,-25.265893407546397,-28.883641529147784,29.29847350898464,-37.69077163696869,44.45201702893772,6.605561217337144,27.328001,-721.264038,-690.031982,12740.0,2520.0,1680.0
-28.234521880380047,-21.16132463365753,20.01012699731247,-9.106635915837517,-21.139878916977917,-18.878429599341867,22.684250703122576,-9.949486245466634,8.767896528451017,24.392018367878556,-14.791813071368225,-18.087812224145512,17.604090134545,-23.19455835227992,27.2056561080269,4.855231483257928,27.816,-723.216003,-692.471985,13020.0,2520.0,1540.0
53.23238972805089,35.630519231747094,-42.25220004209783,16.375957846216004,35.44854615213358,32.943068038419696,-46.18671686817079,14.36264801531265,-19.623098588785943,-50.17122256430832,27.99710600500715,30.149028620101245,-36.41557747845382,41.3979077809788,-52.06973052167007,-8.210588274428234,29.280001,-723.216003,-689.05603,13440.0,2520.0,1540.0
196.1544124001969,136.17896532066553,-152.7482997011125,60.21360839824254,136.69143712399668,126.07835581069509,-165.92443702122102,57.99129300298501,-70.21965312521148,-182.36686884442784,102.60800170032094,114.25903416516144,-133.26235751007314,156.02098001167494,-192.83574160507524,-32.92908478623054,27.816,-725.16803,-690.031982,13580.0,2800.0,1820.0
188.2196038050216,132.26234549261895,-145.3702271009571,57.967308139819984,133.341672366472,123.04718593231443,-156.81017817109384,57.47746522869791,-66.44707705660471,-173.8799447617955,98.39528613137765,110.2950850315722,-127.32333452081448,150.73729546639316,-184.812371229594,-32.05669892532094,25.375999,-725.16803,-690.52002,14000.0,3220.0,1540.0
-40.47669588268493,-26.09097530660176,34.382926253409906,-11.619725256717045,-25.8363135521536,-23.77336399000294,38.03986689857789,-9.526323729702693,16.67859625036496,40.5371175938142,-20.912553921702287,-22.344552182270935,29.812447078953653,-31.1050944574052,41.61172920623466,7.311850021705621,29.280001,-724.679993,-692.471985,14420.0,3220.0,1680.0
-246.62877836922476,-170.47880208501368,194.9775296121045,-74.66818122948102,-171.85230714862314,-158.65519895469535,210.481876667702,-71.9934635496899,90.57598531983297,232.4997377588547,-128.3881219415651,-142.42071716685365,170.782139359759,-195.74860123822336,245.32808873570468,42.98728903790839,29.280001,-725.16803,-686.616028,14560.0,3500.0,1680.0
-192.618352496483,-134.8512031168761,149.8485223547122,-58.91121459499984,-136.6342923950832,-126.36048276989244,160.39171312029396,-58.493464387078674,68.99315623759635,179.13455405866273,-100.4023559089253,-112.08520866552588,131.60620882740784,-153.53878869266526,190.1586534477334,33.029417097650004,29.768,-727.119995,-687.59198,15120.0,3780.0,1680.0
32.16212993270052,20.305690125510367,-29.17618820557228,8.759556650384434,20.206780274918,18.30736131734161,-32.51653366604288,6.816032209109962,-14.627197194959024,-34.33695342371264,16.278055936121504,17.273756874219572,-25.558765232832563,24.62144893574761,-34.98829589056827,-6.98745824602578,27.816,-724.192017,-685.640015,15540.0,3220.0,1540.0
162.32128188300075,111.3434483587787,-131.09463703445627,48.19472889540107,113.3519449259999,104.4602668860922,-140.53077805805736,46.51488316379655,-61.96777237359787,-156.2362584676185,83.79184632485871,92.70430110091372,-115.53167092260018,127.92382394927748,-164.5652082780712,-29.601597801790387,28.304001,-727.119995,-684.176025,15680.0,3220.0,1680.0
114.38323634232594,79.67355431049617,-89.64991283237369,34.426211939401725,81.75918343044529,75.77841223038438,-94.5693229153266,34.72297042056861,-41.75473939129503,-107.11222361409024,59.30484214184739,66.18794680474191,-79.12783492975923,90.55286621396944,-113.79224146643448,-19.50761974111984,26.84,-724.192017,-683.687988,15960.0,3360.0,1540.0
23.45089245935,17.95068627472618,-13.92427319117828,8.17252957790582,17.786877895974126,17.162530858432135,-14.10105280182021,9.255736515675991,-5.081075221172893,-16.840985353247767,12.97713232068186,15.01295148773386,-11.747988106440726,19.67045819719841,-18.863630727974595,-1.789796057410335,27.328001,-727.608032,-679.783997,16240.0,3080.0,1540.0
-14.320027937426897,-8.03175942340036,16.26570463782044,-2.5488560999053567,-10.373441128892024,-9.062264528304963,15.977798747572152,-2.4960528416471064,9.422004458283036,19.197431696654117,-6.287217805317405,-6.659093717110785,15.331680500655272,-9.80642512665578,19.598764800335243,4.337526381727854,24.888,-725.16803,-682.223999,16100.0,3220.0,1400.0
-46.619580546521526,-31.714623199868974,37.36860564704856,-13.245114960692158,-33.73474629452989,-31.60691166724717,37.80859605761474,-13.918032782873428,17.79713729154687,44.36847582034403,-23.985046122002032,-26.73629172709216,33.043714637532126,-36.6949407671573,46.92154124485484,7.247132706100662,29.768,-727.119995,-678.320007,16240.0,3080.0,1260.0
-102.1726067346055,-72.28753636294363,75.7839104817615,-32.10409483713151,-71.8358340695988,-67.53120181882089,80.97244167139336,-31.946393128369102,33.62354350275864,90.3959021596339,-54.14138638437217,-60.39724117337987,65.50598063626825,-82.40836295316517,96.27348455827804,15.063802032966985,29.280001,-729.072021,-686.616028,16240.0,3080.0,1260.0
-96.16808763366646,-69.17401042133814,69.92499251723649,-31.405007919285477,-66.84343227228979,-62.3621490071365,77.20686101995601,-30.34777952831337,30.527931511471355,83.88237179998468,-51.14298112555834,-57.01736557643755,60.48566999738527,-77.44575940868059,89.8468824435513,15.377771349865592,28.792,-727.119995,-686.127991,16660.0,2800.0,1400.0
21.687469421060165,13.7848042354761,-18.542582398431712,5.477353854696143,15.41674376463202,15.07158588174418,-17.486467831369197,5.842773985061385,-8.901483929198848,-21.452055090275053,11.268662999194802,12.334434697468902,-15.712042778401788,17.810256180073015,-21.84328450272445,-2.1903557425256377,27.816,-728.583984,-688.080017,16940.0,2800.0,1540.0
141.28822832570276,99.3467596638994,-106.96455980035115,44.10194192017315,98.67171272744108,92.6142567540079,-114.61797787933008,43.06352199555549,-48.23888404568893,-127.55812066866558,74.39686940938991,82.4756455182608,-92.65814849206244,113.30698241560091,-135.46823764358862,-22.10857580749181,28.792,-730.048035,-683.200012,17500.0,2520.0,1540.0
121.81359800279988,87.27101342779395,-89.84315013684116,39.23229355017596,85.30541501373526,79.1588685890906,-98.56669234910404,38.138930869308034,-40.34124829506595,-108.11937165693364,63.96984023190865,71.12999268083021,-78.93739777752147,96.18504442404272,-116.39391743688972,-20.84541194134954,27.328001,-731.512024,-684.176025,18060.0,2380.0,1820.0
-12.551653981009558,-7.260724590695066,12.177091102209753,-2.937569005200886,-8.302935233524913,-8.93783636687757,10.742338816434856,-2.654080137353904,5.615015556172004,13.470294936329973,-6.80417289701836,-7.063353736205092,9.052506296331572,-11.879416766327632,12.58226127763039,0.1979856381407053,26.84,-732.488037,-681.247986,18200.0,2380.0,1820.0
-108.4302541087436,-76.55051167664739,81.87007940928716,-34.25686662214303,-75.82155714198328,-71.44731225253877,87.45675168707528,-33.14132296423849,37.039090556395216,97.8043560461529,-56.91471705846105,-62.57979606406377,70.865937119757,-86.4755839390424,104.31233344405912,17.1695621421913,26.84,-734.927979,-685.151978,18200.0,2380.0,2100.0
-86.6886636291177,-62.80420931739302,62.22919305373982,-28.217516698684136,-61.46644932788774,-56.62978437706344,68.49450295078022,-27.883495943825707,28.345556697231096,75.67300030868604,-45.0576190921563,-49.93853413284612,56.07843189908398,-66.16732387862322,83.05331390784107,15.664415886574622,28.304001,-731.512024,-680.272034,18480.0,2520.0,2100.0
-13.224797262970364,-10.4458940686431,7.326784705464458,-4.3715205924766245,-9.983628817055047,-7.740228934197553,10.05624617627542,-5.130435608708185,3.746128172520618,10.00574449278134,-6.4623555787515645,-7.966570824044333,9.017822435283785,-7.449428285140104,12.63359055275325,4.176407082166357,24.888,-732.976013,-679.783997,18620.0,2800.0,2240.0
29.231591410427814,21.462702239488536,-20.58268481346194,10.16584903275296,20.898551268888912,20.29453329719041,-21.28867276417108,9.61475286438355,-9.105415294997544,-24.913667920880897,15.23565640954292,15.798019758696087,-17.571653753428055,22.5899324219262,-27.6889796961728,-4.35652999905999,25.375999,-733.952026,-683.200012,18480.0,3080.0,2100.0
42.161747138206245,31.36517762378589,-27.79740051991289,13.961264003226772,30.709577988819746,27.764483425988765,-30.934374443415297,14.506264008696863,-13.16960724640033,-34.863200948967986,21.35403170070629,23.40436609684978,-27.130154441805093,28.964962564017476,-40.31158815760257,-8.57126279041414,25.864,-732.488037,-677.343994,18480.0,3220.0,2240.0
53.56729006936598,38.065118608407246,-38.76568249961338,16.016906828119208,37.96661156484405,33.76694866658278,-43.472540266671615,16.856328372549104,-18.714923763817747,-47.53604400283788,27.37204833546126,31.417183235155694,-37.26566567143758,38.7218219944719,-52.1623150376652,-10.884084034982562,25.375999,-731.512024,-678.320007,18200.0,3220.0,2240.0
42.18766642939921,28.484121506517678,-34.30896634036371,11.88004567844944,28.72736840591227,26.10639953895786,-37.87404698693787,11.739553899145925,-16.029055781857714,-40.51602145975056,22.304671568339568,26.233628234045536,-30.16344683324611,34.84991119753159,-41.36353893260705,-7.221101508898402,24.888,-729.559998,-676.367981,17780.0,3360.0,2240.0
-17.187095581047924,-13.150859990452988,9.753933930393076,-5.3431330542253095,-13.000864923819805,-11.273132984602793,10.83524347581697,-6.394341816071949,5.589666425760407,13.253074477723093,-7.888920757861288,-8.355976949246037,12.11565203621256,-8.008115429173072,17.009387178823054,4.815397265763363,24.4,-726.632019,-674.903992,17500.0,3920.0,1960.0
-79.21754975249965,-55.44699377916616,59.423312282577406,-23.281395557056204,-55.41048197367427,-50.36559439460348,64.9539234311352,-23.94205890624736,28.91271694268836,72.09862308008319,-40.54904100200886,-46.12543722488744,55.76124005177833,-58.58287379465619,77.68018587432735,15.274564975706348,25.375999,-725.656006,-672.463989,17640.0,4480.0,1960.0
-70.34672779389574,-48.5939132588126,54.91568683665203,-21.07370410216244,-48.49875523547304,-44.78655243474882,60.01190573730938,-20.52590954658863,25.43915146579321,65.28714541027503,-37.23717370456976,-42.75534368976732,48.07982960288027,-57.35649818646945,68.0122070880233,11.49494395917586,26.84,-725.16803,-669.048035,17360.0,5320.0,1820.0
6.36914267818637,4.679256248122677,-3.733623014452984,0.9578007838248797,4.730903049803921,3.850158187914768,-3.522394508171895,2.0829911983463862,-3.656619636733562,-5.720529277463662,1.7638432146285807,1.6928704337747185,-7.090927051961659,-0.924024439348682,-7.975769639158713,-3.65871468473248,25.375999,-722.23999,-672.952026,16800.0,5460.0,1680.0
68.14741328434164,47.41634154044502,-51.73820602730965,19.585274443098733,47.20279773931761,43.30238716950712,-55.77451014740347,20.061324664536716,-26.102684784429567,-62.8364279148412,34.55076581302514,39.25832120613237,-49.12717402847309,49.4543488027824,-67.5176578200387,-13.609387105653443,25.864,-724.192017,-678.320007,15820.0,5740.0,1260.0
58.48620561481424,40.88158583542971,-44.04885793841868,18.17069867426589,40.55918904752358,37.57827478555543,-48.2433826839625,17.568901257985907,-20.284232926779374,-52.645629658305374,31.310180331258817,35.57377344017347,-38.67331270053668,47.52321981950887,-55.51292895498064,-9.010704490330363,24.4,-726.632019,-678.320007,15120.0,5460.0,1260.0
7.335822386749448,5.530125728684218,-4.601391993011607,4.028629470599294,5.5610206453049305,5.303052844735267,-6.172361493885039,3.0361835396387957,0.5626138196782904,-4.615681062199699,5.771265668443128,6.354078957533935,-0.5043555585736623,11.412214312231274,-4.039768647097967,1.924256905177797,24.888,-728.583984,-677.832031,14700.0,5040.0,1120.0
-27.340237486687297,-18.890712657265283,20.530876120001757,-7.10033455046794,-18.41416496184577,-17.006521665421694,21.503659355769173,-7.518180105530863,12.137976265394473,25.55382214856221,-13.20934950934858,-15.01030612001105,21.57403673518673,-16.99701636524732,27.99578650786132,6.741095618540112,27.816,-728.096008,-677.343994,14280.0,5040.0,980.0
-32.5470864138496,-23.08478263535197,22.62362725773617,-10.750035720907682,-22.717574764039767,-21.005494463509777,25.07289855637236,-10.271370858656036,10.187164059613478,27.34714746557257,-17.95815358040281,-19.77753468745037,20.20282672878261,-26.12473886476642,29.53480158590006,4.316001365404514,27.328001,-732.488037,-673.927979,14560.0,4620.0,840.0
-27.813948629693567,-19.9032766756123,19.525642625514955,-10.503173038618453,-20.177415715176828,-18.580572829988707,22.454070862341425,-9.635598473292234,6.0803016830509184,22.64790451897509,-16.420776346897366,-17.8949091182058,14.339914476955792,-26.54680313355637,23.72721174915165,1.6316379115554698,24.888,-731.512024,-674.416016,14560.0,4480.0,980.0
-15.776034238906767,-11.087791698804097,13.21100977764499,-5.84630236918369,-11.736222634012549,-10.825670700069445,15.020576553181174,-5.395091418718885,3.6245235941282186,14.711979611893591,-9.05799677026219,-10.471344239274638,8.505715233965558,-16.8496754025227,14.575313286411015,1.0376854700756832,29.768,-733.463989,-674.903992,14280.0,4200.0,840.0
13.336522478136164,9.513199272378548,-7.443643872009857,4.959322649416806,9.296579503135058,8.498413619242283,-8.44064437164949,4.611655989249602,-3.044746851431031,-9.30594459629622,7.79818453042757,7.598549294898752,-7.28145357259636,9.837984979121584,-10.69517023154235,-1.1567190480148537,27.816,-734.927979,-670.023987,13720.0,3500.0,840.0
42.88712043689421,29.98401592155879,-32.00438232395783,14.711853539320856,30.487978150796188,28.12019879655345,-35.442375100935266,13.923134729269176,-12.395649765683128,-37.53923628061284,23.647468528384437,25.86473424850021,-26.333594399451563,36.752351839526895,-39.62093520541455,-5.301822904242414,27.816,-732.488037,-670.512024,13300.0,3220.0,700.0
37.91425264868769,26.42962083653575,-31.18633001359347,12.234418636526716,27.00672777717955,25.042746972308635,-34.22924250810558,11.743557994385272,-12.7278766317061,-36.16107542499699,20.239281137500495,23.513352513365657,-25.008569696887463,33.621145077468455,-37.48774174824069,-5.80494547402167,24.4,-734.927979,-670.023987,12740.0,2660.0,700.0
-3.691205823209646,-2.2685434694231006,0.6594285761072217,-1.7523077167419063,-2.3389658223956435,-2.0869496564933394,0.5903278832327661,-1.5309569579725733,-0.0024082504821317,1.1125143876807997,-2.1818085082664727,-0.9640446867956558,1.6488658492095545,-1.0845951260918698,1.719997072756133,0.0698811325959189,27.328001,-735.903992,-670.512024,12180.0,2240.0,420.0
-39.78266366879886,-27.23245238161982,31.274374391864782,-13.03665311124458,-27.76423439651216,-25.746063289841487,33.8974091409061,-12.362544375034677,13.24155733095277,36.56158695522023,-21.021862544548853,-23.10497509754927,26.79626387873554,-32.264434846604225,38.688721644969625,6.602639610396061,26.352001,-733.463989,-667.583984,11760.0,1680.0,420.0
-35.573864458781,-24.79786765812184,30.079347826346268,-11.088089978962463,-25.00422230983014,-23.235274973327797,32.92384541772407,-10.568566976516454,13.274357636171793,34.87000879417742,-18.793757218359275,-22.07539090163761,24.921340270678385,-30.75555265668461,36.77505166224074,6.568365786974993,26.352001,-735.903992,-674.416016,11480.0,1260.0,140.0
-3.987929818798582,-3.542343225582697,4.451829929989578,-0.8547306076956953,-3.20533011969432,-2.9218578865963605,5.476439686412538,-0.87238032076813,2.129196404776917,5.102812684728339,-2.6382880126238986,-4.192168131770399,2.7536571555500724,-5.859817641969662,5.280253403092728,0.5152322924142178,25.864,-737.367981,-675.392029,10920.0,1120.0,140.0
19.18507254385192,12.59337853719436,-16.273638907741116,6.141239153838737,12.822213117182304,12.001573750217256,-17.32655435354778,5.65867434829387,-7.506174489866005,-18.634827859833678,9.468766564696402,10.419634563472089,-14.540207493086951,14.211979269095032,-20.238187212730743,-4.711826870802612,26.352001,-734.440002,-673.440002,10640.0,560.0,280.0
21.07129630553601,14.750911537687742,-18.907692956409416,6.240362930588713,14.406288509217042,13.347330935639896,-21.022072511466963,5.6562899471335,-8.984015660792368,-21.612705489373536,11.308201347004651,13.40127310153305,-16.06441970837619,18.226402807583423,-23.63365758780735,-4.863619922555835,30.256001,-736.392029,-677.343994,10780.0,420.0,420.0
13.923231411746077,10.445017448344794,-12.193751466486422,3.797179082015141,10.06328841273992,9.19835929769278,-13.933119969867596,3.5251032168808103,-5.627966099364981,-14.32907881860829,8.374367102688785,10.06256927636269,-9.80682438522208,13.960612221919776,-15.059103328255311,-1.8406759231748744,26.352001,-734.927979,-676.856018,11340.0,560.0,700.0
5.522277909774507,4.3704657395394735,-3.798961892437093,1.5334913317921834,4.723153292462232,4.339203417738831,-3.9725006108747207,1.8225705055100527,-1.20806533546396,-5.14348609752851,3.5510839390004683,4.123820508172223,-2.489399579220173,6.346229815594226,-3.959536092908981,0.9447400747848996,27.328001,-735.903992,-677.343994,11760.0,280.0,1120.0
-7.923978679781059,-5.579450168274393,8.027635709170864,-1.8792358093694257,-4.773786779645524,-4.314617473228563,9.498638952039595,-1.184311571847403,4.4229938403695455,8.758220531394898,-4.719461793852897,-5.442128841875076,7.465647854178807,-6.791775785493914,10.677616989021438,2.680250597276823,28.792,-736.880005,-674.416016,12460.0,700.0,1400.0
-21.919013353888143,-15.42110978880011,19.686381680097288,-5.704023098086715,-15.291112593086416,-14.139085321735394,21.4386272747357,-5.190175081167423,9.435528531185987,23.11641756051312,-12.462927201433144,-14.209956790874802,16.922007872470335,-19.727772892261957,23.808381985664468,3.582495800866683,25.375999,-740.296021,-677.832031,13020.0,1540.0,1960.0
-20.261532531254375,-14.024320517919662,17.894277832408815,-5.647505739077539,-14.960798264820712,-14.026787582066165,18.36304087694325,-5.851041911614299,7.995455925419487,21.60527536708863,-10.68393180184725,-12.37562766012548,14.54032947300865,-18.25090063021471,20.44541667055522,2.569910202991175,25.864,-735.416016,-671.976013,13300.0,1960.0,2240.0
0.8457856792003405,0.4928291326410445,-1.3340006017998616,-0.4535988381689089,-0.46188673613777,-0.5267466636264324,-2.225807026484556,-1.2263381030782972,-1.4435338106002824,-0.9872235644192042,1.2450725430587857,1.006133130530254,-2.4475799614422327,0.1798197958463354,-2.490031055545398,-0.9380566292056776,27.816,-737.367981,-673.440002,13720.0,2520.0,2660.0
21.293660302932462,14.178356579536802,-21.01334830424854,4.832761529284397,14.397761246796884,13.552512628212932,-21.976561395185325,4.280248795750567,-10.737726469229449,-24.53723133811075,11.51939047198227,13.06045760949923,-18.65967531290801,18.17728172745443,-24.57314037565705,-4.468037410715871,24.888,-739.320007,-676.856018,14140.0,2940.0,2800.0
20.591803952435303,13.701086461120283,-21.223090334784352,5.083355228274519,14.89016800406469,14.07864962356141,-21.38499840412636,5.33103408112432,-10.30308284369512,-25.150284366752484,10.04298312528691,12.07891574362946,-17.285402695690237,18.341790223533238,-23.905622696471152,-4.425992279841847,26.352001,-742.247986,-671.976013,14280.0,3500.0,2940.0
3.087426084414332,2.4160802595400117,-3.186692115234795,1.4560655498730477,3.272248054522745,2.9350654335831057,-2.9614864567188826,2.194361131323752,-0.7709703137315564,-4.058981334124277,0.7129480893012619,1.5446824900601022,-0.9462358461816244,3.734629696238988,-3.367921397431037,-0.5107765179178699,26.84,-744.687988,-671.488037,14420.0,4200.0,3080.0
-10.940125529604751,-6.530650686963783,13.906966356367908,-1.3451673802831228,-6.8162337506415644,-6.738006276525319,13.887623743652526,-0.954349500744538,8.057437592202433,16.048334509370974,-5.492691372476552,-6.421997433507222,12.753472469028647,-9.081223521801006,15.280794598892191,3.639401610462071,22.448,-746.152039,-670.512024,14700.0,4480.0,2940.0
-12.038246205497655,-7.548703189273642,16.566937720165722,-1.7740244706226638,-8.569866150770597,-8.106389855136154,16.477354573263632,-2.1299389144038465,8.902189092448149,19.215003957285795,-4.969119001746785,-6.814668698979805,13.155281422846604,-11.286297432497696,18.202284789618325,4.495329843745158,24.4,-744.200012,-670.512024,14840.0,5180.0,3220.0
-7.246439549236798,-5.205924242197082,8.121045706440198,-1.9358730147059355,-6.076040924615766,-5.251867195222487,8.370185419228019,-2.589762234999254,3.4209199676382505,9.467333713572293,-2.7187913884791266,-4.106861275952041,5.193754565271597,-7.201972583882333,9.70029934129044,1.9890719587802903,24.888,-744.687988,-669.536011,15120.0,5880.0,3080.0
-3.087912053477854,-2.9649186253440574,-2.0929431859182595,-2.6310913086314494,-3.119235391798804,-2.461256187354893,-1.7087645184027749,-2.8324140972876517,-2.7128312820991742,-2.1496509808242554,-1.9726801366851128,-1.882721880109293,-2.40733123251224,-2.294821045521182,-1.0250992190535386,-1.41692548109546,22.936001,-747.616028,-666.608032,16240.0,6580.0,2660.0
2.822800783270903,1.2093197131525384,-9.765769682114405,-1.7707434260106596,1.9426328613237052,1.657748149598555,-9.629222212113094,-1.2662680323721376,-6.256580877951531,-10.830760449590766,-0.1427214069697873,1.5228427309425725,-7.4275132053682995,3.4912017171895777,-10.382042738394984,-3.4985150797240583,23.912001,-746.640015,-668.072021,16940.0,7000.0,2660.0
10.939408626405566,7.207991841301899,-12.946498275901185,1.6634906426930576,8.536355003527593,7.352800797159698,-12.92064226144786,2.377198972025644,-6.310577887302698,-14.705489903952524,4.196374839922776,6.259021295283223,-9.869403406827509,9.368527860328092,-15.448341012301013,-3.33116037715576,22.448,-747.616028,-666.608032,17360.0,7560.0,2380.0
12.879516981068354,9.008631671806578,-7.925363103651008,4.946079487416811,9.876685113402951,8.943176769591416,-7.881747966684571,5.0686256522935,-2.2598535951109837,-9.486336824236812,6.756847969482902,7.287063398994952,-6.430843242238339,9.840795759640974,-10.348581806936236,-0.9824415863097572,24.888,-749.080017,-663.679993,17640.0,8120.0,2240.0
2.8434707904631247,2.735193231284527,4.726121802084905,4.454931977622382,1.9467957042373611,2.2550483313651064,4.260721095611496,3.669815667228849,4.314597231899774,4.681793043409132,3.3207400237993125,1.450932559142287,3.677102847879734,2.061087165943805,4.667310565885494,2.272577546368675,25.375999,-743.712036,-664.16803,18060.0,7840.0,2100.0
-10.994299268573856,-6.374908944615742,14.851170283582936,-0.0815111178814478,-8.504199027427706,-7.360675880742248,13.6748068064915,-1.103291512813677,7.991150291544002,16.56838914233688,-3.596485758883836,-6.225682638745972,12.234131455187695,-7.957070841061714,17.100647469253914,3.954316654553171,24.888,-741.76001,-665.143982,18060.0,8260.0,2100.0
-14.747597207730257,-9.637894592500611,11.778265327670384,-5.154450971516803,-10.893786953675368,-10.200774770703832,11.20510987366166,-5.215284199435019,4.365211027734449,13.775669450083416,-7.424126886547165,-7.939470731549739,9.561781352782644,-11.322830490566998,14.149732110310028,2.32497305794134,23.912001,-738.832031,-670.023987,18060.0,7980.0,1960.0
-5.6600605462756,-5.0091900196994965,-1.877332709778185,-6.509985476799673,-3.656709928217418,-3.98242987264501,-0.3801298553620874,-5.232616060658874,-3.474619474458424,-1.2984386053897004,-5.112926295167901,-2.722879286937875,-2.1811832447989943,-6.008856354915999,-1.1123318344621316,-1.2947622814901998,23.912001,-737.856018,-670.512024,17780.0,7700.0,2100.0
6.0455994456550775,2.222140115708556,-11.999640321299571,-2.457931799476251,4.894780217632134,4.224985534364204,-9.508594280408284,-1.0874017557545306,-7.202472243031318,-12.968632499823682,0.6705831636023878,3.3299401548845764,-10.211957464086831,2.6987407492213533,-12.78447647197738,-3.396454718375202,26.352001,-736.392029,-670.512024,17500.0,7560.0,2100.0
10.643190526643949,6.701340709067674,-9.579258027732946,4.369923611461951,7.533076163525108,7.340794637899329,-9.242935254309604,4.127442259890063,-3.185550286796793,-10.901889369551249,5.47079801757489,5.253266288930756,-6.936892329040355,8.872786788487371,-11.121784235990775,-2.1361642268397354,27.328001,-733.463989,-672.952026,17080.0,7280.0,2240.0
7.692951646440456,6.9063724932977095,-0.1137091086619131,8.121821205907791,4.86696828646221,5.0761925544840265,-2.9851127622485434,6.2916096596649815,3.009880439008621,-0.9004908030909898,6.4359420032627925,3.6234280477927983,1.365784432084364,9.447520681062644,-1.8598492767262569,0.6029352655264194,26.84,-733.463989,-671.976013,16660.0,6720.0,2380.0
1.5489055506388507,3.1837583098803948,5.572577296113971,4.569520116939921,0.8918483552415511,0.897826200657077,2.692541131171184,3.25834708692698,4.083351104769305,5.2871343073704615,2.9048410391543773,1.004290899514875,4.499415627246778,3.661615476030968,4.43900566184302,1.777611643425668,25.375999,-732.0,-672.952026,16240.0,6720.0,2240.0
-4.886952579512613,-3.1661376412262268,4.628021767045659,-3.7139072112787135,-2.856468778682157,-3.158644674712173,5.414800713455398,-2.814745191812925,0.279767857069563,4.746085116974909,-3.1228561324652904,-1.7899138876298488,1.7166479243457722,-5.781348206928263,5.336679239204993,0.9156268507777706,23.424,-731.023987,-670.023987,15960.0,6860.0,2380.0
-9.185601819434346,-8.174249691647995,2.071020725402392,-8.614067083960952,-6.006228278141048,-6.065982200237013,5.625686977318172,-6.57793334530512,-2.1168351519458053,2.927647085683489,-7.018311675359321,-4.294361675781867,-0.0346784285055733,-11.631093271779818,4.740630538409742,0.0033162709752572,26.352001,-728.096008,-669.048035,15120.0,6580.0,2660.0
-7.683453500135536,-6.947000687135169,1.0687281891260632,-4.975162253334721,-6.093345927882901,-5.548410222229763,2.8940463765124305,-4.435763007285295,-0.167993005442029,2.588918388377031,-5.008456269523139,-4.464093631898706,1.8934852957809492,-7.608683676157815,3.612742826582181,0.165536419586964,23.424,-732.488037,-673.440002,14420.0,6720.0,2660.0
0.2685932346732639,0.4539195037632671,-0.4391891869524421,3.139381168050341,-1.0458968978381786,-0.3325745336629193,-2.404573760879859,1.499147438685769,2.1458197480881007,0.5689705539626543,1.2885629931410538,-0.975091452669998,2.4961689239789435,3.40003651013751,-0.5828235035160549,0.2751788867453832,27.328001,-727.608032,-672.463989,13440.0,6720.0,2800.0
8.638124235263835,7.438806822390926,-3.5939244778593884,7.031455415937762,6.078169239777576,6.147582051976605,-6.332841924634319,5.508167279795697,0.6289014548768821,-4.3708409067990335,5.854156459783759,3.820863872696989,-1.6436946584936238,10.71981933196247,-6.505095149844976,-0.6702092406281572,26.352001,-729.072021,-673.927979,12880.0,6440.0,2660.0
9.808680551760125,7.663222769780269,-4.883099821193771,3.635585446751956,8.69101920114932,7.849611703510327,-4.771433987249663,4.375717295649283,-2.674179770913187,-7.124134471303031,4.861702038672552,5.687098720969423,-5.873027543897632,7.708740607748922,-7.827894484384486,-1.490037176792072,24.888,-731.512024,-672.463989,11900.0,6300.0,2520.0
3.046265112549249,1.857778263378092,-1.3452532276130753,-1.7541383370998869,3.878641387816769,2.7901004932926887,0.8304451476036948,0.1971577428146468,-2.692525133166457,-3.077951845666986,0.5188235798581841,3.0635180366358745,-3.905763333540344,-0.9434533930277448,-1.703183560676989,-0.5623524273724868,26.84,-731.023987,-671.488037,10920.0,5740.0,2520.0
-5.08604537871472,-4.072893039790958,3.900957185444701,-3.32311714934554,-4.129294722715096,-4.423713168875604,4.554118599087688,-2.9843413443634432,0.9933710590003064,4.353899262881121,-2.6792786322252518,-1.639058662328737,2.717154212480318,-6.130963190706289,6.044274364805179,1.3116989628317453,28.304001,-732.488037,-672.952026,10500.0,5600.0,2520.0
-8.329920448604291,-6.070133189869582,5.017867502866888,-1.7037406599279237,-8.470017375477461,-7.550746504336993,3.269492609796263,-3.56019032527077,3.443371213018939,7.281891829770165,-3.333942417648268,-4.914198024134621,6.257770288172559,-5.252939734052319,7.500235593791503,1.6415049793013856,27.816,-733.463989,-674.903992,9660.0,5320.0,2100.0
-5.867227335635699,-4.437113212966339,1.097704608607217,-0.8949512742344274,-6.128883842519038,-4.720316042961766,-0.0881291461722649,-2.3985546938841065,1.4200346061758118,3.14164838178634,-2.791010689819778,-4.870138215949672,2.9643934971282557,-2.4275849719377507,2.134950144391461,-0.1596587241141832,27.816,-734.440002,-673.440002,9520.0,4900.0,1820.0
-0.339869634894322,-0.7597129447085182,-2.8858024353269616,-1.2206199440942709,0.4875826854309188,1.0806872197240656,-1.3597673071549918,-0.2569209156938412,-2.157663069256133,-2.772625266347715,-1.355907600960214,-1.5707616196147982,-2.5925288970584286,-0.3333258967165059,-3.5299245337918896,-1.6875555603405787,30.256001,-734.927979,-677.832031,9240.0,4620.0,1680.0
5.355588256395095,3.817716977012631,-2.792346517337164,0.4213034714458526,6.491217107923754,5.647420375772143,-0.5124333076662133,2.5720919308057395,-2.49094126629029,-4.556460187885266,1.75569661298409,3.2079199183645617,-4.144723044153452,2.484101755754341,-4.461092961884974,-0.8291495192045949,32.208,-735.416016,-672.952026,8960.0,4340.0,1400.0
8.104849567269207,6.833502713750166,-0.0637037915069168,4.0055839397650566,7.817627251677807,6.299052477334954,-0.2584566497547219,4.490845196543502,0.5413862318912437,-2.150538357864067,4.975051124966718,6.142816431933405,-1.2777891910409251,5.937497649822883,-1.884074464181157,1.2388967255045005,31.232,-736.392029,-674.416016,9100.0,4060.0,1120.0
5.093913530257181,4.862415126545581,1.307346624804123,4.745413107646652,3.352072845221431,2.5772476999359752,-1.2960295526476369,3.067044052366775,2.6179321176358714,0.5687788949068253,4.478573162946576,4.3374836686726,1.6258874794903542,5.714147015661125,0.4385589942427909,1.6755091898112984,32.695999,-741.272034,-675.880005,9380.0,3780.0,1120.0
-2.5901406399427285,-1.9245791944730464,0.2768149362565739,-0.0913126055863344,-3.934068330554657,-3.335646865623948,-1.5994191200067849,-1.585887396113452,1.0422605252957389,1.397315227473341,-0.6702865335559135,-1.3797780822945622,1.7033107528680922,-0.5271878020805191,1.2499617934771994,-0.130817419897217,34.16,-738.343994,-671.488037,9380.0,3220.0,840.0
-8.642015698154633,-7.726248915336563,-0.7973268104974967,-5.990897636288817,-8.298967815399903,-7.034202770770553,0.041689041312575,-5.49343444869088,-1.9597722489328453,1.1815808850704907,-5.842975468682568,-6.134934335973872,0.1354946380141199,-7.681285476132527,1.5281480361138209,-1.8662663367172003,36.112,-740.296021,-671.976013,9800.0,3220.0,840.0
-7.178520236470071,-6.632188934354879,-0.1482861311036242,-6.087001426423983,-5.82754414306502,-5.042504028889796,2.124416665539564,-4.618485239218561,-2.580179149194538,0.976424790290016,-5.6319536161509545,-5.533242834283954,-0.7951140928788648,-8.105167434946017,1.5317406276699823,-1.464590377849646,34.647999,-737.856018,-669.048035,9940.0,3220.0,700.0
0.4094915020198145,0.3674456491769091,1.1695874569727074,0.0504974890580398,1.445988909497949,1.3113535935135672,2.526330131544248,0.4377344466138574,-0.2207341196152779,0.497786430474078,-0.28345807978862,-0.3128390795792177,-0.518303208810947,-1.002255880234869,0.5997925740858919,0.4506733885345507,36.600002,-739.320007,-671.488037,9800.0,3080.0,700.0
6.687648846515648,6.283979000446349,1.2450080214834862,5.754506044745949,7.033964848875913,6.3485694610634535,0.9488493923370984,4.875390828227787,2.31032424858824,-0.4715562042710303,4.725024396646745,4.530972516648995,0.2689811730451587,6.517823867158012,-0.8967265033533378,1.77097411351115,34.647999,-739.320007,-670.512024,9520.0,2800.0,700.0
6.43780960630418,6.013961823554758,-0.093073064340556,5.416220376840562,6.30272089847174,5.566283094651421,-1.29661902899339,4.816127387568698,2.4364193589173184,-1.1309057887989842,5.060513129175531,5.041293994581067,0.8773635148648383,7.716797266879428,-1.5839692884285914,1.4287425472189104,35.624001,-744.200012,-667.583984,9380.0,2660.0,420.0
1.5034991576108538,1.1852895174176312,-1.4124134986540264,0.4802914708048609,0.7269117453713775,0.2364454375462684,-2.7435007547438763,0.9322887696050736,0.3245023730995943,-0.8912729186789418,1.5161808589723538,1.7320185556420746,0.6912800861852381,2.76188245349313,-1.092390169752642,-0.0107457487107031,34.16,-743.712036,-669.536011,9380.0,2380.0,700.0
-2.926789721313677,-3.132297415418688,-1.52794571090259,-3.5902882982837387,-4.364530667681725,-4.320199946138824,-2.4037223604151365,-3.0417453857658567,-1.9189308243935523,-0.2995676516909984,-2.255148024077854,-2.008472470949938,-0.5798757330065817,-3.279888030634567,-0.3760277005594286,-1.4055413536047543,32.695999,-740.296021,-668.072021,8680.0,2100.0,140.0
-4.235665473636156,-4.156974008951895,-0.4336013331459637,-3.8564503300457393,-5.245541048603536,-4.475879352484368,-0.110510776000295,-4.167402221417936,-2.416834244169806,0.0629545614836243,-3.774079130651035,-3.5234682510646245,-1.851996337178938,-6.076886115033858,0.154758273286205,-1.7594726070056117,33.672001,-743.223999,-666.608032,7840.0,1960.0,420.0
-3.1184617586356245,-2.5659362895622744,1.0812066372551834,-1.5701286011782771,-2.3392254304378346,-1.2754997144114049,2.755091665220493,-2.201799645166583,-0.8403266324477959,0.5667604529917214,-2.757262482737141,-2.4832450903669265,-1.192029653024935,-4.4733650180297175,1.1305995078299678,-0.5577323422089678,29.768,-738.832031,-667.583984,7560.0,1540.0,280.0
-0.7235152235517107,0.0237562956764628,1.9537673034682852,0.9661480825310836,1.5070312996601134,1.8540196254874324,3.6465342018389406,1.0986296140444431,1.483309348132411,1.42181464799329,-0.078970577834622,-0.1596185230410792,1.4165294590244324,0.1221668806256115,2.2539944227145456,1.4604737759660835,34.647999,-739.807983,-664.16803,7000.0,1540.0,420.0
2.154942171994337,2.366820672262316,1.2914449340598786,2.558958846682574,3.6834288197214495,2.786469120908777,1.247522791114148,3.352110316851242,2.4767325196821988,1.4746248183670927,2.6109218936915526,1.7672337580537698,2.993334321730184,4.485906691632162,1.6209730038914305,2.2359292001877704,34.647999,-737.367981,-670.023987,6580.0,1680.0,560.0
3.803309828008557,3.095911963847546,-0.7870068126601125,2.522232022747957,3.032841560853165,1.6969161174279548,-2.5843230333763945,2.8298119114746783,1.07184130257788,-0.3714373033948247,3.228336728339466,2.130930711643534,0.9999869295332874,5.068832910053672,-1.4602326127389065,0.4678762012812463,32.695999,-741.76001,-670.023987,6020.0,1260.0,700.0
2.4438485496327376,1.3959385200904677,-2.62661804808656,0.5346897393360054,0.1963626925061365,-0.1691551329698689,-4.248546957504367,-0.141455517161303,-1.464585370104858,-2.7809138102100697,1.070626600355734,1.0245243490160776,-2.71505659119889,1.2261347697128606,-4.149916084167826,-2.178888907052356,35.136002,-738.832031,-668.072021,5880.0,1260.0,700.0
-0.969850657084608,-1.3241721752375852,-2.1841646939706365,-2.032924709133474,-2.489307526448472,-1.5033555874619404,-2.051695663391469,-2.844263767831737,-2.48282421230964,-2.7526640508279816,-1.8013608415389903,-0.2920042130239961,-3.541525823332413,-3.2682242890924744,-2.790954268142986,-2.419571787265832,31.720001,-739.807983,-671.976013,5600.0,1260.0,840.0
-2.9564272120441912,-2.2542559644183484,0.6842672634092204,-2.5291646071382643,-2.5830574241558613,-1.3678167044369365,2.039291195314048,-2.463645317640084,-0.7786032736852883,0.5414292484080689,-2.449929338205548,-0.7284671850497185,-0.0275223650159391,-3.882778075279324,2.0471827757931265,0.4653090626264751,35.624001,-735.416016,-671.976013,5040.0,980.0,980.0
-1.7000028225063897,-0.6310417952530109,3.4298998049880014,-0.2131829078437685,-0.1232891332689342,0.036309653356583,4.352035623564716,0.6200570961947038,1.8469580292716623,3.920573407472969,-0.5522708554769672,-0.5259288899976194,3.8157851291379097,-0.5979200370454196,5.296558637205563,3.131842966694252,30.256001,-735.903992,-669.048035,4480.0,840.0,1120.0
0.540394884850243,1.004077164955733,3.056056617094685,2.1122913154386525,1.9683385920289085,1.075706342907981,2.858274360212816,2.748249505944549,2.449270279098233,3.472269226638117,1.2271038158863767,-0.6130949172475569,3.3478939895323245,2.216879706658504,3.1451529864492174,2.1083897131809,29.768,-735.416016,-670.512024,3780.0,560.0,1260.0
0.716012669122551,0.2511788362126322,-0.586250483257107,1.361877042865183,1.171405540187803,0.3200852048641094,-1.2018245937280798,1.1938227627207831,0.2705695710245808,-0.732129258291566,0.7780086178475635,-1.0164838249278532,-0.9307673779039566,1.478197563747909,-2.2782485335442324,-1.624817360504874,32.695999,-734.440002,-671.0,3080.0,280.0,1260.0
-0.6072093702797976,-1.5453224410679864,-4.13306187794092,-1.4936089104740788,-1.3064113141768188,-1.3137974396665308,-4.355694098403174,-2.1602684350047388,-2.3462903590204784,-4.40296480880007,-0.7694815085691646,-0.7103007659197057,-4.128928814312159,-0.9572980104486116,-5.302031079941022,-3.6446601037247857,30.743999,-734.927979,-672.952026,2380.0,0.0,1540.0
-0.3463891423986581,-1.036175576827384,-3.8570714938555697,-2.3413488180620856,-1.8719882560322816,-1.2653831586528992,-3.674633546582607,-2.82075931937786,-2.5191330797325238,-3.7187510261793815,-0.8517550046780806,0.7601093118816177,-2.899465108615391,-1.3459311845644246,-3.0956045422919103,-1.5604485411702336,30.743999,-734.927979,-673.927979,1680.0,-280.0,1400.0
1.9868516463461885,2.048993295940236,0.3561784986026136,0.4888353291767082,0.6235872706935813,1.1432882557846296,0.5069624008983336,0.5232194677435975,0.0484956167206132,0.5680032601158405,0.8709727140855223,2.219221716500494,1.0899203861265017,0.7895510727597185,1.695085377277448,2.1595989515934293,28.304001,-736.392029,-674.903992,1120.0,-280.0,1680.0
2.936689604214238,3.774891473521055,4.487041261927533,3.500148212995817,2.980910740715859,3.060554181270374,4.352818460554638,3.8448588194749695,2.73168817762322,4.120072562579135,2.041896105492069,1.988461814184862,3.678913545737436,2.3480588834446703,4.409103349476455,3.41126443700948,30.743999,-733.463989,-674.416016,420.0,-420.0,1680.0
0.0157806265050185,1.0497581221851735,4.298589025882554,2.346438857386095,1.702684413112795,1.4372844532809634,3.956800367261301,2.627183691167255,2.690186914683614,3.610529063906094,0.7861359249764096,-0.1506182143304709,2.7089513363682016,0.9842293269756898,3.0711197422696497,1.213434869040204,30.256001,-734.927979,-673.440002,420.0,-560.0,1820.0
-4.021055854083025,-3.7135408209476495,-0.1359931583121175,-2.2185852977519263,-2.116089790587881,-2.515598466895284,-0.3543573153456267,-2.12987930550836,-0.1615249168786302,-0.1295094105953262,-1.7824399625708518,-2.5029828088411445,-0.5033762108978784,-1.9531461074794487,-0.5474395122444176,-1.7738875995982195,29.280001,-734.927979,-674.903992,0.0,-560.0,1680.0
-4.098914948365379,-4.958819795818841,-4.280832924930181,-4.795872074142783,-3.8091717128651807,-4.123727478682406,-3.967059434589527,-4.721823049610229,-2.9201684103997687,-3.30409090571729,-2.8174642953254097,-2.944200030401603,-2.9980466224688467,-3.187734626734522,-3.240685689548762,-2.6870937496537985,29.280001,-738.343994,-672.463989,-420.0,-980.0,1820.0
0.5012999253313205,-0.81906447170349,-3.9255165657101454,-1.980855346260786,-1.09245508308514,-1.0655221434527982,-3.1098253129590603,-1.813153285573087,-2.6312092099164768,-3.045746052951623,-1.0127962293320307,-0.8362148327632297,-2.706113769870434,-1.236845333832458,-3.0194293327584587,-1.1891036439966003,27.816,-736.880005,-671.0,-980.0,-840.0,1680.0
4.725936373361316,4.279373155597104,0.2117012958328148,3.2284573958020544,2.848096139518644,3.287484834057094,0.7171381790386827,3.18805725178883,0.4344931622838389,-0.0829749027661061,1.9318610947883748,2.219714815060869,0.0140136106769451,2.1111518727092817,-0.3523187105471133,0.9689714406949698,25.375999,-737.856018,-671.0,-1540.0,-840.0,1680.0
3.788039119653511,4.729376134071938,3.417993020083527,4.920683918497696,3.331453480018659,3.834106420364803,2.784475831006304,4.286103641066852,2.8564135478649626,2.2933744882902585,3.068154883811011,3.4797449267210343,2.542893892940534,3.598796365861416,2.283894399804629,1.9398393642586689,26.84,-735.416016,-671.0,-1960.0,-840.0,1400.0
-1.0368393046142852,0.295082492363924,2.5010918509173736,1.3023765634523905,0.0555671877756163,0.127135016903521,1.1697704706493572,0.3902495134959632,1.8922575081122968,1.8251929316909337,1.2096127144880844,1.5112444659805158,2.291227857961025,1.6298879778110726,2.485452780148159,1.1377308668430697,27.816,-735.416016,-665.632019,-2520.0,-840.0,1400.0
-4.166756568609621,-3.866282617278297,-0.6982839233569594,-3.3718572372688644,-2.7588922092966754,-3.1879565934811893,-1.1796735550464987,-3.4831139839850884,-1.1639418186783983,-0.3599087043336688,-1.8032694134952605,-2.0072667810890987,-0.402602646330743,-2.006207958986702,0.3279599824440657,-0.5244477261667967,23.912001,-736.392029,-668.559998,-2940.0,-980.0,1400.0
-2.494004010299909,-3.4247722331839388,-2.023384285913799,-4.021931930383365,-1.8971436025672224,-2.384558284090869,-0.932893411162678,-2.7276825497007207,-2.4389053214190906,-1.3148482117360831,-2.8867213846631787,-3.500393180388357,-2.28008308116244,-3.6250400766081863,-1.5858816130524191,-1.3887564370220098,27.328001,-737.856018,-667.096008,-3500.0,-1120.0,1260.0
1.3851973571430216,0.3992193714380525,-0.3413471443244155,-0.4893279726005666,1.02913318982074,0.899168148809277,1.0485189124407386,1.1900404412229575,-0.3669921175843982,-0.0128143489900734,-0.9428623134570858,-1.2962027796369229,-1.015738737171221,-1.4665019558217154,-1.1605563615422396,-0.6164117700461993,25.864,-736.392029,-665.143982,-4200.0,-1260.0,1120.0
2.9254589583511508,2.926983797545749,1.385066230837236,2.868477109279921,2.1392923767037386,2.3446871110344305,1.3526487682738175,3.0667963368525,2.1801107305375718,1.366514020460179,1.8228620699051967,2.135931557803888,1.5972235286580474,2.087775364971196,0.5594346909715658,0.7499775827541604,27.816,-737.367981,-665.632019,-4760.0,-1260.0,980.0
1.019935910500385,1.7282497061928217,0.4600249959044055,2.581556239451898,0.3445891989920339,0.6369066333119309,-0.8277544088097153,0.793176584552559,1.6124460754414771,0.4398042075522426,2.2735896273376275,2.824486412067445,1.8267165601225164,3.026958659909458,0.8767936164363864,0.8894155852082911,28.304001,-736.392029,-667.583984,-5040.0,-1820.0,700.0
-1.4611750880397,-1.0550992098637415,-1.7809257909256644,-0.276749522668494,-1.7105587596592526,-1.4430400078139205,-2.5186665189742947,-2.321055912062949,-1.479287339393871,-1.8915865723950844,0.0333650356303383,0.162462476416813,-0.8338808974309058,0.5209741643382771,-0.668481779736271,-0.3915836899877495,27.816,-735.903992,-669.536011,-5880.0,-1820.0,560.0
-1.6821642330408615,-1.913350045951305,-1.8735220933040917,-2.0440771617852147,-1.4291316859909708,-1.2304093851551416,-1.2134585971369127,-2.2344242508769674,-2.904460026529061,-2.324592576549771,-1.9668402381413388,-2.2525185455184165,-2.6895776238305737,-2.0570733475805376,-1.5235757147900852,-1.2070181158054747,26.352001,-736.880005,-663.192017,-6580.0,-2100.0,280.0
0.0640345196944446,-0.2050961734684101,0.8704554745026379,-1.017193257239974,0.6048351562497166,0.5318320939924617,1.6722032666996616,0.7229391983803353,-0.4586814160287502,0.3687428826037263,-1.1490550141094915,-1.3350211811702908,-0.8876430105279592,-1.589146150336445,0.0966092601446993,-0.1848852898905686,27.328001,-737.856018,-662.703979,-7140.0,-2660.0,0.0
1.389604930876071,1.5455901593935588,3.141392794771629,0.9188916252624794,1.821416242224372,1.3257715668648964,2.7665379857272354,2.7005146103101483,2.897926789292464,3.2067779115628623,1.2782790684517478,1.320737244070069,2.376521665825171,0.6973611519543643,2.215126730569048,1.355596145957745,27.816,-741.272034,-663.679993,-7840.0,-3080.0,-280.0
0.8426987115436334,1.0453268076919473,1.820988129360848,1.0702956640985757,0.948129008331426,0.3590200697215797,1.0156565795974113,1.3515703159073509,2.752611188075546,2.497920538575201,1.8101654285250983,1.6977117953473893,2.6641901437984767,1.241781530503174,1.608078112234879,1.0944376529916355,28.792,-737.856018,-664.16803,-8680.0,-3360.0,-420.0
-0.7344584262818742,-1.013950241692599,-1.8436119734369163,-0.5816199822445984,-0.8284989887742343,-0.8621878359866874,-1.4247945823315595,-1.537798472392549,-0.8843737866645114,-1.2376571340073763,-0.5223602982288112,-0.8295624155654843,-0.5160104218148117,-0.5298178356323543,-1.362064358590222,-0.798052699725809,27.328001,-738.832031,-670.023987,-9100.0,-3360.0,-840.0
-1.4346409554989077,-1.906652976591927,-3.518280995856505,-1.4450140525449595,-1.5817385043187284,-0.8772348307583244,-2.127712199392623,-2.5295181477590445,-3.3852957313364347,-3.514119179316077,-2.4751009392076857,-2.36238055257293,-2.844321417461404,-1.3660975301100668,-2.713866739402484,-1.584172257432467,28.792,-736.392029,-668.559998,-9800.0,-3360.0,-1260.0
-0.3615886439672254,-0.2368314506612338,-1.0554379783904466,0.1509284384518007,-0.6970428808820125,0.0773217007501235,-0.8996028452863192,-0.5731462387800262,-1.4785708984540178,-1.453320833526885,-0.8718522795895308,-0.0700983536585615,-1.123201156005311,0.696710480236658,-0.3055554217752375,0.0932541265895271,28.792,-738.343994,-667.583984,-9800.0,-3360.0,-1260.0
1.3970838974188555,2.1715148710157823,2.702613883735389,2.350262174347354,0.7825215781247007,0.7942999867630922,0.7070856388345808,2.004120434442502,2.343910947556043,2.3278510719866268,2.594592501867369,3.2105326736067874,2.151789413054881,2.7832882829190444,2.714528848151162,1.852250897987588,28.304001,-738.832031,-672.463989,-9800.0,-3360.0,-1260.0
1.7409955269283948,2.1850424295597857,3.1607085857744224,1.7660507233085327,1.3302729742041728,0.5708384721700891,1.3030158717666054,2.212617544507651,2.9219370686302697,2.845696514357967,3.0186032541396965,2.411224381980664,2.1262375677145933,0.988795762832805,1.878223586352208,0.7425445595762827,29.280001,-738.343994,-671.976013,-10080.0,-3360.0,-1540.0
-0.144272570326582,-0.7713250563535512,-0.4183149797910525,-1.8268290704597057,0.4031798570445977,-0.2923254657608567,0.6901378362718824,-0.269887294065917,-0.7380323988165693,-0.7251625447438318,-1.0028238638776623,-2.3917087487833077,-1.5245022941591668,-3.3794314966037327,-2.139308251313897,-2.1467484769041736,27.816,-740.296021,-672.463989,-10220.0,-3080.0,-1540.0
-2.3840503325914453,-3.4274251349800133,-3.7005841146112224,-4.201545022497692,-0.9630227716994824,-0.9080135147218792,-0.3237469458471471,-2.60359463142607,-3.8085101186423738,-3.6100577813237935,-4.606577719851256,-5.093476841080104,-3.703931768599535,-4.471548568728558,-3.7621303291283352,-2.575185330207601,30.256001,-736.392029,-672.952026,-10080.0,-2940.0,-1820.0
-2.0911603860995616,-2.2033356780896467,-2.36206692489004,-1.5646723172926562,-1.1479617179739434,-0.5510513466017495,-0.7064743236586778,-1.8585483617724472,-1.7636433031449756,-1.4957753603085158,-2.5454002983496986,-1.3928956775863588,-0.6836627416876963,0.320855426286464,0.0092748281766384,0.9129132270737504,32.695999,-741.272034,-671.976013,-9800.0,-2800.0,-1680.0
1.0012864987194827,2.063793601110396,2.329576777404025,3.852902225098001,0.1475024383475116,0.5675116037749173,-0.1684760593027388,1.3801937352835152,3.3249959280127075,3.4053660080926638,3.3838245993798632,4.804624341631212,4.328949614118987,5.840590246047202,4.795583116172488,4.184315817363677,30.256001,-738.343994,-674.416016,-9660.0,-2660.0,-1960.0
3.4617314031189435,4.389192224916001,4.575541072371088,5.452320999879826,1.3182339024804577,1.2455321774529295,0.4679676260440402,3.243461279237457,4.84799957710433,4.60742564256499,5.763873639803219,5.6941300884656645,4.717277374051452,4.973179670432079,3.9829425648199934,2.53702445991619,29.280001,-736.880005,-671.0,-9520.0,-2520.0,-1960.0
1.9943671530916005,1.5989971313887918,1.1781981883803794,0.5023717187323979,0.7953746485401424,0.5597107236466365,0.2653421303416239,1.1681829845486715,0.1604589662070103,-0.2160318989768721,1.0401695950530443,-0.2956481174373239,-0.8980879489340695,-1.992368236687883,-2.267319966026966,-2.664913076594852,28.792,-738.832031,-671.976013,-9380.0,-2380.0,-1960.0
-2.0609657516494413,-3.217023101577952,-3.9892418377157024,-5.467279318675848,-0.7530434983229177,-0.79931791473228,-0.4718235767920778,-2.5004493298994683,-5.358874283292039,-5.516223308144943,-5.261637103812251,-5.997777715446322,-6.171710634020953,-6.962944861978617,-6.396717112092095,-5.083680703361935,33.672001,-739.320007,-671.976013,-8960.0,-2240.0,-1960.0
-3.8616916848387457,-4.186633550596913,-4.491839657887996,-5.052542587509497,-1.217780036060024,-1.2188866423652085,-0.5611478796174131,-3.125496991807192,-4.701172625033557,-4.5047383030686,-5.25289577013009,-4.517569791659048,-4.5972022371028975,-3.9454658559445503,-2.9500028332576176,-1.5202429233625423,32.695999,-737.856018,-673.440002,-8680.0,-2100.0,-1820.0
-1.1459989763041023,-0.2366605727167941,0.3624076642360431,1.292699602889033,-0.0678185892884227,-0.3386002407848493,0.2000817472889097,0.0894954612230255,1.6065723227784203,1.9183083009338369,0.998905758844143,1.9205259504237848,2.1677237417297186,3.292989448335458,4.026061717105349,3.66184216870906,31.232,-733.952026,-677.343994,-8540.0,-2100.0,-1820.0
2.676303400961525,3.3935957857581034,4.416083222570728,5.47203842523339,0.8294066410464634,0.465134733439788,0.5833669149583346,2.8054892471307427,5.793161417173606,5.9264931706993735,5.481908097295587,5.128229382914823,6.137923195647666,6.004375402818011,5.931084676197408,4.111378900281358,32.208,-736.880005,-670.512024,-7980.0,-2100.0,-1540.0
2.945180180926222,2.2237810807460927,2.736710073034553,2.4533671101961385,0.1064269785471412,0.2606306256795223,-0.0707003661089444,1.492990088728145,2.8295594527651677,2.788608409485982,2.8738288293398977,1.8023919957316548,2.984275504888853,1.5857055842207717,0.7557296560504401,-0.2119399983707424,34.16,-738.343994,-676.367981,-7420.0,-2100.0,-1400.0
-0.1572065647630217,-1.418163034286823,-1.8622787425109533,-2.9761406660896226,-0.8205784206077484,0.0337591877419431,-0.539301773082456,-1.5257062896571671,-3.0082554251375733,-3.051972428049064,-2.6230962770521105,-2.6797354807172376,-2.7471521081552863,-3.5833982781459253,-4.481810941551947,-3.298386463071949,32.208,-737.856018,-675.392029,-6860.0,-1820.0,-1400.0
-2.2369943368588787,-2.008551339165757,-2.964085105569084,-3.123064053226286,0.0504472282015542,0.8219157435263507,0.3500906115733389,-1.5305451061096622,-4.0524825669407445,-4.133093637295768,-3.5434741103723635,-2.3138093190461237,-3.9767124343810174,-3.0875440136718253,-3.3174555510478845,-1.473978911836889,32.208,-735.903992,-677.343994,-6440.0,-1820.0,-1260.0
-0.9501741231798018,1.0105461098003614,0.3781294459974912,1.5966863784680347,1.747469312913758,1.4134540574179433,1.358458833303011,1.3773448153388594,0.3484552063090845,0.0614225187081693,0.4981511019263307,1.3263336949594526,-0.3059420381572447,1.2031760693622358,1.725532896957611,1.85013740135321,30.256001,-735.416016,-674.903992,-6020.0,-1960.0,-980.0
1.1393864331588643,2.487891518209981,2.5931297396180804,3.449955352871789,1.2989768595509896,-0.0946371555098136,0.3421384900813444,2.2247444931041067,3.3641332298561246,3.0417857640249726,2.946737908965626,2.1480394242266567,2.322759121604037,2.6036475928028517,3.303241059014917,1.5755791464309812,33.184002,-735.903992,-672.463989,-5320.0,-1960.0,-700.0
0.8516580297693956,-0.5264004612004074,0.0605673602051979,-0.9528316841359312,-1.5671968704688708,-2.6745645506611617,-2.0272133217585657,-1.1114425951760722,0.6887234302771013,0.8504692879598826,0.2248319137246947,-1.1637131098364883,0.4931306041497205,-0.6026886861103119,-0.2772561666600344,-1.582702587338591,35.624001,-736.392029,-672.952026,-5040.0,-1820.0,-700.0
-0.9580021776854996,-3.9547156431325856,-3.379501512301971,-5.216359310669001,-3.2017425413687417,-2.759805750083166,-2.3823035775856702,-4.0002553994716425,-3.368159467222274,-2.613210463096696,-3.2305062328185725,-3.3649967679815,-2.1570094363793757,-3.108346415373884,-3.1956066559153564,-2.423551475864392,33.184002,-737.367981,-674.903992,-4480.0,-1540.0,-420.0
-1.1910036196151588,-2.401108643461058,-2.109096118917964,-2.3160643777730527,-0.9445418394930688,0.7366167152388737,0.5390592747525014,-1.552296719217353,-2.399197483548429,-1.819954284378145,-1.8760351306597327,-0.6868561859614165,-0.9407254219944122,-0.7639944194256661,-1.019307476459116,0.7334561472229987,32.208,-735.416016,-677.343994,-3920.0,-1400.0,0.0
0.5364309283559758,2.788143772873269,2.7437798784026888,4.7648854308458,2.6791505788997965,3.955173270956478,3.328086983466221,3.690675481003391,2.603829579378917,2.1596452204244,2.652524114590352,3.461097664865309,2.60645533275742,3.2593169210808277,2.9407607448937525,3.380693505205726,32.208,-736.392029,-675.880005,-3640.0,-1260.0,0.0
1.533628541842733,5.014922385110562,4.617538023033945,6.628886613894273,3.0636165175076213,2.731250687584209,2.168952083279876,4.706994322482357,4.630693440559158,3.4644833404637128,4.024735102466689,3.437637893469671,3.0444790590892064,3.2121686863679075,2.8487115079524234,1.508827117013486,34.16,-736.880005,-673.927979,-3080.0,-1120.0,420.0
0.4253989274104142,1.4495311394462769,0.8181935369948165,0.4376184863101717,-0.0969947398854067,-1.580537373958127,-1.645964264404668,-0.1054927269642977,0.727972493329077,0.1596572833878435,0.371316331310676,-0.6192506032214524,-0.7083447971536068,-0.8792213133605841,-1.0659576068441257,-2.3682336524488745,30.256001,-737.856018,-672.463989,-2800.0,-840.0,420.0
-0.8782520930598336,-3.320500818591061,-3.756943003813308,-6.18010360322013,-2.412803158535476,-3.6286684915664775,-3.177770263716424,-4.48656772187602,-3.96002495943452,-3.191115446135976,-3.4200089440157733,-3.389387536668281,-3.651122292481301,-3.509980335707233,-3.2341866366596768,-2.890768226264735,32.208,-736.880005,-675.880005,-1960.0,-560.0,700.0
-0.5007304118637698,-3.8056343570376536,-3.5964364689629797,-5.508999060481926,-1.0938622331228411,-1.2218607109790924,-0.6323430566444423,-3.0447937361175548,-3.651826017661244,-2.3977882063516263,-2.9337285416020897,-2.0250734894233573,-1.998951216606589,-1.7273702090594858,-1.104588214817101,0.3063686584498913,31.720001,-735.903992,-677.343994,-1540.0,-280.0,1120.0
0.4519817051388027,-0.5439084217574118,0.2062452929503755,0.5810299431743378,1.2460409857086394,1.9384176298727016,2.2244812847449187,1.5209684387216622,0.3986590062025209,0.7260204495648723,0.206450852885506,0.6849711232693251,1.5440495006798658,1.21644494977547,1.6460674095568544,2.3304177914430437,31.232,-738.832031,-676.856018,-840.0,-140.0,1260.0
0.0164047805696838,1.8681637706777343,2.47755481522549,4.498243268608428,0.7770620861934959,1.729373469718518,1.5393071892966423,2.912820264502387,2.6994310044150795,1.8769394965727435,1.862898307190329,1.3794218217703629,2.189173666535208,1.4126171779835406,1.269512644526584,0.5333280475392177,29.280001,-735.416016,-677.343994,-420.0,140.0,1400.0
-1.172317627104439,1.4578877092133535,1.4178271703692396,3.22785803770465,-1.720831710760052,-0.7818137178429659,-1.2707102950126734,0.2410338694006903,1.4984456863381488,0.6153494539096297,1.3327661008105205,0.6789360298167286,0.0362196647970117,-0.0825565616923384,-0.6084098271932451,-1.7289820183756373,27.328001,-734.440002,-678.320007,140.0,0.0,1540.0
-0.8695888281325227,0.3366048514284803,-0.1261834486353907,0.3178952917527688,-2.047580085549798,-1.4963368406708035,-1.9245824597689352,-1.6670562207660695,-0.0512322926050318,-0.1371912835231638,0.7521695701900455,0.6546270513923872,-0.8977027886362707,0.0576529866680304,-0.3999478604748435,-0.6385036604304831,26.84,-735.416016,-679.783997,700.0,140.0,1540.0
1.0134245120128913,0.2793009217595059,-0.0781583260302132,-1.029921119723716,1.0752467155167724,0.5101468251222756,0.4358809455803528,-0.1326862913761264,0.0945142468768319,0.4765646841691556,0.5373200841530744,0.6957771333986533,0.5893813639889461,1.4947607064431887,1.316914819254472,2.0229222194476515,27.328001,-735.416016,-678.807983,700.0,140.0,1680.0
2.066612278890854,0.3129617604715037,0.1189067108228727,-1.723564305614275,3.867707411879692,1.9899393519793356,2.314469305567809,1.7541237934136964,0.0684199520162101,0.248140184342867,-0.7610071531538121,-0.8101017533375623,1.256083811263664,0.8835551440551265,0.9720714858343178,1.7210650181785194,25.375999,-736.880005,-680.76001,1260.0,140.0,1680.0
0.9749248430175228,-0.5804416949968778,-0.9004606515798977,-2.7201767828366954,2.5550552907905097,0.6613318619544869,1.1441402964166458,0.6339771770581122,-1.551383638374285,-1.4662627380346376,-2.4917314314122168,-2.349063955578055,-0.8273750151109932,-2.074941318431048,-1.6730764384290269,-1.5666019654961851,28.792,-736.392029,-675.392029,1680.0,420.0,1540.0
-0.7680171013092085,-1.2500469982140492,-1.4910304856942271,-1.8879080854805617,-1.665458416705988,-1.5750397368338374,-1.3073855928461642,-1.798449348299416,-2.3788780060261043,-1.9066289529943516,-1.7565712228018469,-0.8812942098326141,-2.7011857539329966,-3.2952793198213715,-2.60711878035415,-3.044856893267809,25.375999,-735.903992,-677.832031,1820.0,420.0,1400.0
-1.4707078297568077,-0.5429461768262039,0.0430785948275281,1.9773214674812376,-4.344595833955628,-1.7801089571415816,-1.9451290996809056,-1.791999690685656,-0.0183838825608006,0.5191010420606227,1.6307128322713784,2.5206369058535465,-1.041641204481918,-0.3500216369259906,0.1421224804707691,-0.345148485805858,24.4,-734.440002,-673.927979,2100.0,280.0,1260.0
-1.4643172506557307,0.3854342408347823,1.864421441227499,5.040855738416712,-3.146874382222061,-0.1709121071060311,-0.6238656588229811,0.4920612048327576,3.1641321100151845,2.792352784070807,3.4665978151424586,2.8601988719537994,2.346226586534243,3.372218265749238,2.982963296017712,2.786910997583821,26.84,-732.976013,-672.463989,2100.0,420.0,1260.0
-1.3628327650188834,0.0707349956526565,1.038990566152555,2.625368957267725,0.3038825404724309,0.8246234675790182,0.4824936773168973,1.5526746878961015,2.714366805290981,1.3425880003126829,0.847315763299624,-1.3268308649420126,2.8754430030439124,3.1131320188710334,1.875881712280958,2.016967064110641,25.864,-735.416016,-673.927979,2380.0,560.0,980.0
-0.1131954331206947,-0.3933251819227382,-1.5027078258279414,-3.4055025559404424,3.1863035099978667,0.4833669938358824,0.5347693028333605,0.2604709103947668,-1.2119578162986273,-2.181756639853864,-2.957169309964822,-4.488410030898151,-0.1042402409577016,-0.6265640211822531,-1.605175624538648,-1.2613426899222486,28.304001,-734.440002,-673.927979,2240.0,280.0,840.0
2.8142262098548354,0.8759069820970138,-1.812094812268621,-5.783415743930161,4.012581386053469,0.3705238076266696,0.7177719399994179,-0.6601678053273246,-3.521365617778256,-2.764803964595321,-2.647915961250224,-1.4000088846338166,-2.472142165971357,-3.012383681131472,-2.5888978075659304,-2.267359984763484,25.864,-734.440002,-671.976013,2380.0,140.0,700.0
4.542717882286534,2.5963886675939856,1.0204754460921108,-1.2823567912830405,2.430948820543086,1.146145793531038,1.441327083976626,0.5234401929143245,-1.2574457103106846,0.6369140662920745,1.3663218331370086,4.526773012424786,-1.4508892066580503,-1.6602431753965232,-0.0488755112975218,0.0255185688879322,28.304001,-735.416016,-674.416016,1960.0,-140.0,560.0
1.4854570943334626,1.328049420551337,2.9282678531664845,4.583975916176304,-1.203954228577832,1.1247964567145468,1.1401368391847664,1.511915465653302,2.2619617516047694,3.268556812807247,3.30835757961966,5.024561699953479,0.7824957939440026,0.785377348131576,2.0338445465001063,1.8008374566859249,29.280001,-736.392029,-674.903992,2100.0,-560.0,560.0
-4.665026906494472,-2.8902826115762257,0.6345216405957048,4.620183671526188,-4.86835609022098,-0.9379764570201564,-1.1240105794090298,-0.2331509504781185,2.3192383761449844,1.3489623620985236,0.3964882162584764,-1.345980956706286,1.043463363473479,1.282244143656716,0.8828210160417369,0.5336501182503673,27.816,-734.927979,-676.856018,1680.0,-280.0,560.0
-7.018673518709317,-5.016646501960194,-3.1728171323145817,-0.7589253863509683,-5.154036661891168,-3.177786776078003,-3.349385870498212,-2.9106291090709737,-0.6181439179177144,-2.4350288751833364,-3.0750564715034203,-6.4286660470891634,-0.0963052314911164,0.4617199482684164,-1.2179525565801848,-1.3951746055646894,27.328001,-734.927979,-675.880005,1540.0,-560.0,420.0
-1.7550368067731792,-1.3645306041296872,-3.2189149935230046,-4.52307922508145,-0.6673645678996281,-2.471899927909431,-2.531085759737902,-2.474790090272954,-2.094551056655153,-2.818958800240879,-2.069972415476768,-3.431579748201729,-0.0530757153062348,0.3790208967253274,-0.9584272559891348,-0.8526370207268898,30.743999,-738.343994,-670.512024,1680.0,-420.0,560.0
5.925295528724036,4.543782805795272,0.94598878503302,-2.4017014326270774,5.142645645246327,1.332047344786356,1.3396964829955644,1.401738898640098,-0.3271968128196008,0.5358033668619673,1.850986201013965,3.626368425941611,1.020104012904609,0.6396327657634127,0.8548678025602348,1.0876861505253348,27.816,-737.367981,-673.927979,1820.0,-140.0,840.0
7.323690642133381,5.677608086743061,4.092272479759524,2.182517545990433,6.574766055118311,4.496523253848693,4.536496925422309,4.286143286003067,1.6338817547489153,2.823179124435035,3.000114440477532,5.542305009279618,0.5418363147164846,-0.4775688903661133,0.9887418201861672,1.1275946227058755,29.280001,-738.343994,-671.976013,1960.0,140.0,840.0
0.9984130809995528,0.5618174901977898,2.282593483707556,3.3526683086971154,1.8833123505400573,3.34245179796931,3.4445370597683067,2.549470404176288,0.8333661298023888,1.1036416282520942,-0.0684827357220075,0.5839996205351267,-1.7264194546777631,-2.19947728296572,-0.8410919524000232,-0.8299863154918684,28.304001,-739.807983,-677.343994,1960.0,420.0,980.0
-5.472120984198685,-4.677672662929121,-2.0437539271526366,0.2520650151147242,-4.354085486804462,-1.419952011885527,-1.2798116732306228,-2.028474762584706,-1.3678887986758224,-1.8319127294959348,-2.7354690726233475,-3.837838931645856,-2.542390715976884,-1.7076076214476124,-1.571245665297949,-1.5487968991720782,26.84,-736.880005,-676.367981,1680.0,560.0,1260.0
-5.209613983726345,-4.269459184410805,-3.574734428685788,-2.731799005176917,-6.131664088826915,-5.028975692078584,-4.986310813044016,-4.469035377199838,-1.6572043658679805,-1.880905672788856,-1.3381286232638208,-2.240166641215092,0.0159903983196876,1.325779317798952,0.2256322580555524,0.3037057026100058,27.816,-740.296021,-673.927979,1960.0,560.0,1680.0
-0.1615841921612638,0.1644096526766537,-0.9392569268517456,-1.9747081457043407,-2.465692757195238,-3.5969994352872106,-3.745022620222113,-2.3303375218016544,0.4348214091328409,0.658687625135344,1.7026719727179536,1.6656289798584127,3.187076994563432,3.413791985329641,2.020314351099642,1.9597745855088056,29.280001,-738.832031,-673.440002,1820.0,980.0,1960.0
2.862315342451046,2.8052081808795326,2.235814560351023,1.31113704378012,2.306583838147149,1.5341319073629338,1.3136907067656245,1.992345451812932,2.22368814098532,2.1090257783979065,1.9335034492834728,1.6069389776065155,3.023596896915252,1.7906388914964015,1.2159944974262695,0.8387233526072417,27.816,-738.343994,-675.880005,1820.0,980.0,2100.0
1.720078650774444,1.7424427886866964,2.458280794396799,3.089476195178684,4.083837405904207,4.94403215023796,4.88956755305853,4.198865959157804,1.6466508905657165,0.8001113735238019,-0.5392271177290578,-1.5405966340048556,-0.305309238466719,-1.7108266406303934,-0.9997406237613892,-1.4717115109024606,28.304001,-738.343994,-676.856018,1820.0,1120.0,2240.0
0.4009478618687386,0.2971953376095783,0.2329964972243538,1.1978496892226504,2.908705810849964,3.018710876288332,3.2045288571222783,2.3147482381571454,-0.5843327560220671,-1.219559022780068,-1.7540466396267929,-1.7528428682120427,-3.0432686459254272,-3.152131504181286,-1.695528836681769,-1.6999590615339042,28.792,-738.343994,-675.880005,1400.0,1120.0,2660.0
1.4064890869896058,0.6600964197668957,-1.6591306133623158,-2.478568429358352,0.9290219458006984,-1.8723420851744457,-1.649594541658896,-1.769220498922193,-2.4758330371520825,-1.6909230838487108,-0.1927746036727026,2.0147430753636644,-2.8769829193662493,-1.5711240654190397,-0.5683467786813606,0.1784531980170954,29.768,-744.200012,-678.320007,1400.0,1120.0,2520.0
1.4980764071977166,0.4145975480376839,-1.7985394475062002,-3.9648494038528215,-1.241143037654846,-4.115174854302313,-4.105802212377623,-4.162113152063691,-2.6689709073993124,-0.8535021927444999,1.2168142793820598,3.6489234145508975,-0.9402294573451528,0.5922651865412589,0.21865043951767,1.2010118094281597,29.768,-744.200012,-673.927979,1680.0,1260.0,2800.0
-2.3378296003784933,-2.507909228698548,-0.7538563001343236,-1.1849295926652883,-3.883736911772376,-1.598750281465274,-1.7993748627838813,-2.4938574643151443,-0.7160584038046949,0.1169681628804354,0.1171799608419788,-0.5737026201317402,1.0565730158749618,1.4988164266289172,-0.030019939259455,0.1862936399419905,31.720001,-740.783997,-670.512024,2240.0,1540.0,2660.0
-6.13426245113633,-4.65836615727406,0.6831230425512913,3.5640404272381154,-5.01669820423243,1.9505838764339491,1.7874403196740278,1.7216525432258618,2.6760344661464504,1.199480026343304,-1.4049781670998869,-5.28634675122211,2.854294197281221,1.7653997250550395,0.40866927571551,-0.6169868637673114,30.256001,-736.392029,-670.023987,2800.0,1960.0,2520.0
-3.122505736958011,-1.1058510965460933,2.061864546835884,5.330223695032645,-1.4097091823609382,2.197495653974294,2.255223999505992,4.301583503226453,4.898741089296975,2.404082621742201,-0.2251549355979707,-3.1219805521473325,3.815543574901637,1.9350350295194207,2.0587976636756773,0.5292918050669695,30.256001,-734.440002,-664.16803,2240.0,1960.0,2100.0
5.63379309783824,6.050026798974843,2.3582009737511824,1.5716460942238502,5.785931295977719,-0.0895077176486932,0.0931923896093479,2.595887311886611,2.844587663386241,2.106606429525198,2.435127834930358,4.120083917657665,1.8498046099306755,0.7177318737484022,2.313002080646199,1.7368177054788212,29.768,-731.512024,-668.072021,1960.0,2100.0,1820.0
9.941017358026308,7.97439635385103,0.415922161821348,-4.448412796393741,9.259234133259236,-0.8418789192809923,-0.7683258719402302,-1.607796793070213,-3.074490610938197,-1.007364496385394,2.227747063401349,6.867136759442831,-3.2669458930638675,-2.440021588041694,-0.8468797223399972,0.3174190261904125,30.743999,-729.559998,-670.512024,1120.0,1820.0,1120.0
2.7954545673125883,0.2239797321440944,-2.896837817153124,-6.449620772538113,3.07447919067689,0.7578772567674302,0.6491516099135253,-4.022310590442087,-7.401553012519509,-4.654079190747641,-1.7814263205566672,0.7073397211628369,-7.05164355834627,-4.718706836451116,-4.708292902502604,-2.661009023386992,30.743999,-731.512024,-670.512024,0.0,700.0,700.0
-9.096625081070592,-9.63789029191514,-4.31800524652379,-1.9443717795240487,-8.324574792222144,1.0272796772865935,0.8954871138499209,-2.5477246214740634,-4.713755857204396,-4.302707261271177,-4.824913767991846,-7.03193838547196,-4.289475821170874,-2.577396437636449,-4.212296256437262,-3.2132026460385794,32.695999,-734.440002,-678.320007,-1120.0,140.0,0.0
-11.82155936296095,-9.729946685411292,-1.5124102244731026,4.623509104696268,-12.613720835672106,-1.885848006820044,-1.875026869258534,0.8619139623154656,3.4116677560090447,1.022544724436432,-2.3412057188141397,-6.538210456688288,3.7177175322158953,3.009693436051438,1.3454291399239422,0.1313004632821435,30.743999,-735.903992,-678.807983,-1960.0,-840.0,-140.0
-1.1794040048786094,1.3811988403723916,3.506538979656095,6.543874241798117,-3.4498568502700078,-3.894674475542346,-3.777255334883719,2.9604206801425312,8.785079231800426,6.21436701149638,3.606168222668874,1.769885710718137,8.896548717209427,6.403080146733712,6.381041577568932,3.930887411417932,30.256001,-738.832031,-676.856018,-2240.0,-1540.0,-280.0
11.284511768807915,11.753049314619751,5.725829775550992,2.1437737818997884,10.496244031273976,-0.4948458687913762,-0.4354429762133956,2.561417473602838,5.447658475862242,5.410344595521567,6.238979914364832,7.953968441874831,5.295022484289199,3.5840257632961903,5.181352611437742,3.8912387241676103,31.232,-743.223999,-679.296021,-2100.0,-1260.0,-420.0
11.510605515485793,9.689986297663026,2.496545567467151,-3.7360533588376654,14.0222711131649,5.431788175297475,5.368725372619367,0.6491677888316754,-3.221244808138436,-0.8716224926459645,2.200660565078022,5.14783099103385,-3.521422294693321,-2.8197616029518406,-1.2795435998875526,-0.0164002459339301,31.720001,-749.080017,-681.736023,-1260.0,-560.0,-420.0
-0.5593361747707606,-2.513727824570602,-3.2518098610408197,-5.4192577982852495,2.814652942044268,5.925016761805508,5.844369183586101,-1.4607945604659065,-8.149098298146432,-6.037828229687847,-4.310553871324037,-2.7084471195567814,-8.321721331154796,-6.315756370899108,-6.3563431310003145,-3.772848023689444,28.304001,-760.304016,-672.952026,280.0,1260.0,-420.0
-11.2895680054885,-11.473187798611342,-5.941861199348989,-2.1900702685878293,-11.089617202892931,-1.2067625514137346,-1.1930698291603474,-2.7597691844065744,-4.805364106795319,-5.031336432974052,-6.402658642868498,-6.812694507325626,-4.761689111387481,-3.7518745740875215,-5.179683121573346,-3.945872659168354,31.232,-760.304016,-669.536011,2520.0,3500.0,-560.0
-9.48735237254774,-8.241345530698002,-3.1745266174010767,2.0384272305084563,-12.942826210106093,-8.053092777090628,-7.977685537256343,-2.2288118224702744,2.295654901479698,0.2675821287244771,-2.1775897291684387,-3.8832167924805314,2.3684522696605166,1.7237923493109075,0.4625035503071327,-0.848005371331996,28.792,-756.888,-668.559998,4480.0,5040.0,-560.0
1.506717078077659,2.432634626788645,2.067699612964,3.550902461754215,-1.8234837180526764,-6.049885741613098,-6.029749538508491,0.2798858797024763,5.651605755659432,4.0976118839901865,3.703508265878576,1.8008777901278317,5.651788081287865,4.772338493052786,4.860598078684319,2.5949768163032485,31.232,-752.007996,-662.216003,6020.0,6720.0,-840.0
9.20808574856114,8.964878756979472,4.885911119339335,2.065999825754164,9.43780236692306,2.8180271727859565,2.7499397926348306,2.835258772777226,3.189293571216062,3.5767564383917603,5.54150315930324,4.719806986558121,3.2868146201398662,3.39295896735432,4.525912714087282,3.762904402589498,30.256001,-748.59198,-665.143982,6440.0,7000.0,-980.0
6.616324999317643,6.057006713679972,3.316947675849779,-0.2928144976629255,9.71242276080795,8.279239451247443,8.215035717287837,2.8150503938161755,-0.9110971780183174,0.7057651679146963,2.296996383108437,3.3910581280566983,-0.6415427215787657,-0.1829310548521319,0.7579333237944161,1.9849855779139236,33.184002,-746.640015,-666.608032,6300.0,6860.0,-840.0
-1.4921995687098282,-1.2927305339599913,-0.4761670628935256,-1.6800340606772983,1.1203452174118274,4.591049141549653,4.621200276883658,0.1383575871037826,-2.3839292714229603,-1.399948586085288,-2.313127904867459,-0.1405595473813298,-2.261783216312189,-2.74088481651481,-2.8050792238267546,-1.3652862039599538,34.647999,-741.76001,-671.976013,6020.0,6160.0,-700.0
-5.971925748696323,-5.288053381705296,-3.027169760589419,-1.6745862031946317,-5.885159367445957,-3.0498573697221354,-2.9508145091263587,-2.2345588181755645,-1.3316887542421263,-1.909339033337566,-4.146481187282825,-3.0777274861276083,-1.6674373794605497,-2.8719083528679583,-3.6755233537793783,-3.62503712289236,35.136002,-737.856018,-677.343994,5460.0,5180.0,-700.0
-3.667550672649667,-3.6878901437900535,-2.782702022407387,-0.7550936978573725,-5.462594044360761,-6.047576290847748,-5.986401753013785,-1.92277527715218,-0.3085050880063005,-1.561154821660283,-2.2863638960967405,-3.3652880848936566,-0.8219256587134494,-1.0825561834262984,-1.7694862251173342,-2.651159619213657,37.576,-736.880005,-680.76001,4760.0,3920.0,-420.0
0.9827815403987662,-0.0991872059325709,-0.7642338279840674,0.3611460583652339,-1.03285491273448,-2.73351728055601,-2.779220180831212,-0.0418922171805147,-0.2783458994634771,-0.6657891600776967,0.959429942579918,-0.7008340258303558,-0.3225776587681029,1.2295544075407403,1.2248081739391172,0.9208771894381428,35.136002,-730.048035,-682.712036,4620.0,3220.0,0.0
2.681267583145211,1.6672557946722837,1.0582450453624892,0.9922048104643212,1.6339191785010778,1.6207883683415412,1.500827416032142,0.7609859005519012,-0.1421887445865972,0.7091111602565663,2.6679421391516307,2.5378606804996857,0.426154719909395,2.4396888222381907,2.9819908768152894,3.581641849131767,35.136002,-728.583984,-679.783997,4620.0,2800.0,700.0
1.0534859067177311,1.3948836617995457,1.5944391523371737,0.8253712734851973,1.6202115281866658,2.7757135290468957,2.6831036051705217,0.1467382742807515,0.7304971986201564,1.657925366881302,1.8136955024809516,2.905100293840525,1.2635338717308668,1.5195398814116778,2.03805859867269,2.369745876539925,32.208,-727.608032,-681.736023,4900.0,2940.0,1680.0
-0.5101184063672437,1.0084430551528467,1.1457684885072563,0.2134934705521932,1.516330724152793,1.6011590467577836,1.6275109029180486,0.034658382841973,1.4248455191531175,1.229052391389965,-0.2131480218181796,-0.0559270574107221,1.2743405749082868,-0.7857172818836335,-0.7297983352125375,-1.4740776297214129,33.184002,-726.632019,-675.392029,4480.0,2940.0,2520.0
0.0369852095358815,1.1978955836427894,0.5526834877035777,-0.1681201649970088,1.9054965419384895,0.5111590583097744,0.6616315089048741,1.0445807104126612,1.048739471611322,-0.0062494218732546,-1.2773165818297445,-2.5963671899177454,0.3957008121112921,-2.125614979936392,-2.4852257909954334,-3.4841665204412533,31.720001,-727.119995,-675.392029,4340.0,3920.0,3360.0
1.075553113296339,0.6856782811839356,0.0646553167035895,-0.1207847756302483,0.7201377716923961,-0.3060540435883215,-0.1451313071409955,1.2982390580815515,-0.0369540483844112,-0.6207219485464761,-0.749789267365384,-1.3794791544785805,-0.4280201918366998,-0.960827187326878,-1.342290686377693,-1.2153390865477274,26.352001,-729.072021,-673.440002,3920.0,4760.0,3920.0
0.144696609373898,-1.3637939904421683,-0.7389956840821472,-0.1347724169505705,-2.297983837178163,-1.4764114570584932,-1.4689549843491052,-0.4157554760889409,-1.0400194190921637,-0.4902286808410332,0.0511752207703414,1.7541632155708156,-0.7706596238734847,1.3044572009983764,1.20499803177832,2.56154323710227,25.864,-732.488037,-673.927979,3220.0,5460.0,4480.0
-2.170102790848473,-3.273465697030636,-1.804183891150818,-0.5933039605019955,-3.813551330390343,-1.9285663162407989,-2.127255853643262,-2.221154888717128,-1.6736188771419214,-0.7444444557709953,-0.1467964615101752,2.1462909532735224,-1.1122702286546864,1.7234380080556742,1.8874684165876416,3.128461212754451,24.888,-732.488037,-678.320007,2100.0,6300.0,4480.0
-2.559419939991162,-2.279182684043453,-1.88193278047338,-0.983628420212668,-1.2250217123970863,-0.3891587591888956,-0.6325555712124065,-1.5912404254138857,-1.6089521037393375,-1.325706164201426,-0.6699316542803746,-0.890641644598599,-1.3553831668593803,-0.3797884492261112,-0.1182640290839431,-0.2676302262912549,22.936001,-734.440002,-675.880005,1540.0,6860.0,4620.0
0.5165494234579224,1.7037843069613157,0.1299333982846515,-0.3618286456552514,3.050910220127752,1.7829392549695515,1.7503742713066597,0.8828272161055052,-0.1236743758070029,-0.4926875205152519,0.0687465273042099,-2.8193384301019715,-0.3514524178440351,-2.1909772982766067,-1.9344983760277197,-3.423165261072925,27.328001,-737.367981,-673.440002,1120.0,7280.0,4480.0
3.9276815137766175,4.772574518162254,2.989713913935564,1.230679992094357,3.9909454884997215,1.8596881787246224,2.11336871449959,2.165391041693187,2.4426251552557408,2.073880210891508,1.7546406608676717,-0.5424666432307954,2.033017588499109,-0.9650254850305438,-0.84661187028086,-2.4574327449169355,23.912001,-736.392029,-678.807983,980.0,7560.0,4340.0
3.1071060916764117,2.954063553016188,3.460667367530349,2.2196820784524696,0.35928586394138,-0.2793630833015815,0.0292089110241403,0.9448002765255742,3.630141652536485,3.386093317095771,1.8881131368343589,2.73158699772112,3.424372592810391,2.0397808076447963,1.7727231654761288,1.4152346067223254,22.448,-737.367981,-681.247986,840.0,7420.0,3780.0
-1.8399736135888287,-2.5320022707979004,0.0334752035297901,0.9995882760360442,-3.4860249538057,-1.7296855777622693,-1.691046746428629,-0.856672667214635,1.1501244847198622,0.6682482828187577,-0.7215849317268969,2.0638425083666023,1.3055636232583063,2.8062046992422065,2.155631708229086,3.5838844542519595,25.375999,-737.367981,-682.712036,1540.0,7420.0,3360.0
-5.233093048723924,-5.6504874817647455,-4.252558618217336,-1.8525088420032,-2.991532929334481,-0.6786391195697214,-0.973176517326707,-1.1382654629403122,-3.471030289979825,-3.880454827932249,-3.3734544660133423,-1.7115251115080832,-3.1229211144222044,-0.1752144150237978,-0.5846480677724937,1.701105103318965,25.864,-734.440002,-680.76001,2100.0,7280.0,2940.0
-2.482407503949097,-2.4351511070917877,-4.4295848810267575,-3.4656865059127577,0.9574014291093796,1.082177903157133,0.7466234768216607,-0.3284325519152836,-5.338808072173067,-4.660371806988307,-2.319202954430848,-2.9822392026200517,-5.19214110628197,-3.5248985431377338,-2.9632977961810605,-1.8731800848211395,25.375999,-736.392029,-680.272034,2940.0,6860.0,2100.0
3.5912348191146912,3.681517025187727,0.4247108332179683,-1.5564625700330137,3.3793209295648285,0.9859245775067637,0.9568862562512116,0.0513159938619132,-1.621694236616407,0.1464009921435644,1.94331183603792,0.269232940742617,-1.9200775377755783,-2.9486386641361357,-1.7120478991487016,-3.2516354565234598,30.256001,-738.343994,-680.272034,3780.0,7140.0,1540.0
5.585395778187002,5.515142352786907,5.28463360669168,2.551806797349588,1.5467183799409303,-0.5471391139210503,-0.240754895085038,0.023345688819282,4.389369986854884,5.3560360891736,4.418797149177108,3.2558193568109344,3.9681874988495953,1.3235550019058624,1.8103611873245005,-1.2774670040509637,23.912001,-737.367981,-682.712036,4620.0,6860.0,1120.0
0.8216303289485825,0.9536294967312148,4.607877460226556,4.624057887836882,-1.881097191199621,-1.0376325154385,-0.7169167439868182,0.5824839684679264,6.316843436952369,4.744621604984088,1.7588465278426677,1.4371942422847297,6.453597800717451,4.562762919611685,3.3836985528660413,1.8576541256763424,27.328001,-737.856018,-681.736023,6020.0,6860.0,560.0
-4.864537822005943,-4.306772036066238,-1.0404517822911945,1.9459077274416288,-2.6041155381119347,0.1495432060140933,0.1599634099685704,1.2608396234395636,1.8188859853910169,-1.1311858118978355,-3.060706675740631,-2.60602209013367,2.626652812687015,2.9986450895070544,1.2535665447674889,3.1804347753496285,24.4,-739.320007,-677.343994,6860.0,6720.0,280.0
-4.421381900230577,-4.012099354554175,-5.4751853331766815,-3.219342480101969,-0.1107746244141586,0.9953556407135988,0.7075233048975366,0.4312956350129492,-4.634392213282982,-5.5760454286481975,-4.244392846853027,-2.9186783502386304,-4.110127531607278,-1.930455842207508,-2.0962493604675587,1.4420000586840562,29.280001,-740.296021,-674.416016,7840.0,6300.0,-140.0
1.264100159781083,0.7743633711377065,-4.087066741083687,-5.514109916761353,2.072447266672643,0.1138905759212598,-0.1562954672805349,-1.7097574417189194,-6.58160723208942,-3.963697781406443,-0.5840705014608608,0.9429530378569912,-7.363340043809161,-5.226783902901749,-3.330382014292212,-2.017705836246389,29.280001,-738.343994,-675.880005,8680.0,6020.0,-420.0
4.637744929978337,3.5543987725918265,1.0963774118670782,-2.205126488770104,1.1792238021564343,-1.111906048371826,-1.097013445922135,-2.4787289614697787,-2.281748472625803,1.21239625958181,3.1553131404278134,3.233692062932623,-3.873548540647381,-3.52591008622059,-1.6900160772263713,-4.007530036840552,30.256001,-734.927979,-673.927979,9240.0,5600.0,-700.0
1.645560815462125,1.265116590897951,4.384153363621865,3.554682633867849,-1.3111611860894954,-0.7114610279408801,-0.4668004989876182,-0.2120911366297631,3.946517465074896,4.250682844070505,2.674543098501327,0.6349949596211021,3.4660771715513023,1.7380107545503285,1.2427765125731147,-1.9681904505906371,33.184002,-734.440002,-674.416016,9660.0,4900.0,-840.0
-2.973027149242754,-2.016824620168867,3.1114021332231934,5.86967396057476,-1.7748058735373289,0.898736681243884,1.0893242515822703,2.8963862931716724,6.374410026141571,2.993755598680464,-0.5020333583138586,-2.7568547974061506,8.082777584291238,5.758799548188363,3.4431934795223444,2.8966079467358896,34.16,-734.927979,-674.416016,9940.0,4480.0,-980.0
-2.5235139150982997,-1.3139937963943098,-0.2475799572810226,2.3848387910159063,0.7241397815226231,1.573432667617883,1.5283113974726312,3.1392536334956382,3.13742661665406,-0.0588949890785286,-1.8298221590424235,-1.6063303151973944,5.470494199824495,4.628419216976405,3.267354326388866,5.557588790474023,32.695999,-736.880005,-670.512024,10080.0,3640.0,-1260.0
2.144188630870968,2.0777934501539854,-2.108824387130122,-3.2575392701980563,2.97658456001857,0.4504817215703591,0.2706367394677976,-0.0107457924569451,-2.598630439786607,-1.9597082365710656,-0.2209682388762985,2.5092144206324027,-2.4410873229963745,-1.0459172906895386,0.1165964210424938,2.214702699067871,32.695999,-734.440002,-666.119995,9800.0,2940.0,-1400.0
3.770508457981212,2.5315649261714586,-1.8678120732440344,-5.447036673501885,1.4865596837197783,-1.1406933395734649,-1.2305026864873605,-3.187756896735954,-5.782210900296088,-2.2112454279320057,1.0195758068966343,3.197589078154896,-8.405656480655608,-6.177186874439704,-4.049622643237371,-4.355069817149969,35.136002,-734.927979,-670.512024,9380.0,2520.0,-1400.0
-0.906776833118118,-1.645987831659758,-1.1855278944990226,-2.464289585995227,-2.840097556939713,-1.6567726029538328,-1.586388539885232,-3.218437857989259,-3.853773229144132,-1.582261915103797,-0.4049342749232963,-1.296914494877843,-6.489811440416798,-5.610713954490835,-5.090948275266683,-6.748084517733874,35.624001,-737.367981,-671.488037,9240.0,2660.0,-1400.0
-5.898122838003989,-5.197024188192938,-0.7365585069064748,2.2451480281239222,-4.984742756816306,-0.919608454675736,-0.8260363873013126,-0.4823543867754016,1.1649598280313374,-0.3112458082042788,-2.2353283532962225,-5.064008554934372,1.61557212065708,0.4750698971388324,-0.9527900805656024,-1.6149894721211815,34.16,-737.367981,-672.952026,9240.0,2940.0,-1540.0
-3.609570996272752,-2.588734867180224,0.4550227938355244,4.214710048681596,-1.4595928331155708,0.4227316149084597,0.4079211376310421,2.2612429568164747,4.627085368181251,1.424579011660542,-1.0389792752634432,-2.506043188203781,7.763318232182432,6.051840894441898,4.693063222404295,5.47176711707845,32.695999,-735.416016,-672.463989,9660.0,3080.0,-1260.0
4.462279055728303,4.25172559171586,2.5088397268799354,2.3835115216338147,4.8478078357404994,1.7090464794546365,1.6357314536225884,3.040033638692284,3.679532467055024,2.525863839354837,2.4972578213260554,3.776681433887127,5.890229081536927,5.394688705064537,5.633151496974223,6.288775129434724,35.136002,-736.392029,-670.512024,9240.0,3360.0,-1260.0
8.55806365930947,7.434144621531337,3.302248337155981,-0.7812590838591944,6.903898114688457,2.0568315139160736,2.062808976356518,1.758658974870298,-0.1177649570731068,1.8382944900314249,3.968773146178107,6.1005468546329045,-1.3033278320125332,-0.4258689715505079,0.6745581216424682,0.1943357315565857,33.184002,-736.392029,-672.463989,9240.0,3640.0,-1120.0
2.7510331338091296,2.478681310428612,0.9010676344552422,-2.512596414655622,1.4516879440004329,0.6370246513382894,0.7321871707219332,-0.685177533798833,-2.7955502357354853,-0.2826378223098354,0.9409722848326202,1.5253534050943431,-5.698638998011802,-4.768050785819802,-4.371830102734661,-5.12023054476357,35.624001,-737.856018,-674.903992,9380.0,4340.0,-700.0
-6.968986920621859,-5.793826248447463,-3.182991967407152,-2.109985219379207,-6.301373972131898,-1.8468942536776876,-1.803760951883232,-2.873744481397801,-2.338480712334269,-2.1456425060488877,-3.6153176856998632,-4.60778422838253,-3.373491309872915,-3.396606527520945,-3.900197801464045,-3.678041870709938,33.184002,-738.343994,-673.927979,9380.0,4900.0,-420.0
-9.3581888335476,-8.299007635294254,-4.7621795337753365,-0.5418922736157077,-7.785783994167441,-2.957237742087981,-3.0526378215071195,-3.0443785213465278,-0.3402481707123255,-2.404312985370379,-4.62888864310341,-5.513667838188395,1.3815632116770464,0.75442263836543,0.3950949567623136,1.3657822537541564,36.112,-739.807983,-671.976013,9660.0,5040.0,0.0
-1.4804185862128303,-2.0958960150441057,-1.7084079690659348,0.9790073218056716,-1.032512174730681,-1.1910852040437725,-1.3174626991827163,-0.5659117613692483,0.6511553651198446,-1.089666713883388,-0.8852171806076378,-0.8934704386543697,2.427562920844592,2.144773678157722,2.390109654107136,2.842199367142578,33.672001,-737.856018,-672.952026,9660.0,5460.0,420.0
7.652833134713382,6.0448804338393165,3.038679043351109,1.6090318849478444,6.542165906989226,1.6942508516307668,1.7043384223894855,2.5707463444031067,0.2920410643568359,0.779827345126736,3.5580459838906613,3.6364617103948818,-0.2514633762525158,0.1195381185236005,0.2912246166292693,-0.3077651926618172,33.672001,-736.392029,-669.048035,9660.0,6020.0,840.0
7.959022901929488,7.371299580513083,4.502469633891228,1.0328405926934197,6.737192248744464,2.575102781981597,2.720895791133553,3.276115241499184,0.1528702638659034,2.0395149541060857,4.070112630406672,3.727808579741439,-1.5083668048785055,-0.9855291636330706,-1.3434843985807787,-2.218360466568713,37.576,-737.856018,-669.536011,9800.0,6300.0,1260.0
0.1288564637502995,1.1835925347836438,1.5051977214705463,-0.1652915792041948,0.2525783398118344,0.972736270561818,1.0788192262672849,0.9722429812447124,1.0014695341538469,1.9880219269962405,0.6395903922171892,0.6798398132112553,1.040844605764435,1.1431561733228413,0.8958287901897747,0.6749834825834359,33.672001,-739.320007,-670.512024,9940.0,6580.0,1680.0
-6.144504147857253,-4.886091081339049,-2.0666938392771264,-0.7649029556259596,-4.868781555486782,-0.6260139225995387,-0.6846585436950733,-1.6159822027936186,1.6559370981666874,0.7729426939204191,-2.504525167987288,-1.4867830363396428,3.51954774028412,3.099878804903727,3.60757750348551,4.05745183165093,34.647999,-738.343994,-667.096008,9940.0,6720.0,2240.0
-4.631111425920154,-4.542058537826756,-2.3938259111956377,-0.3180833964477277,-3.772358106135865,-0.6805022958302852,-0.8248837765330612,-2.022884207843552,0.7069913116329706,-0.7443305981473974,-2.217094550646975,-1.3170419228820616,1.4909063980825945,0.855119423129308,1.502772586798656,2.0117761323688144,36.112,-735.416016,-665.143982,9940.0,6860.0,2800.0
0.6520810712988435,-0.0446467319536993,-0.442971231152454,0.0920607859111317,-0.0070184202369852,-0.602455396726592,-0.6609076133316465,-0.9589536725557112,-1.4872165558695831,-1.7745876489546335,-0.02877086131188,-0.7014815048651933,-3.407411737528357,-3.807157203456863,-4.136281089927699,-3.937497681295875,33.672001,-736.880005,-666.119995,9660.0,7140.0,3500.0
2.4674537289060634,2.1215000397051056,0.199896724238846,-0.5711364928264943,1.080099927016071,-1.6068759455219015,-1.527814716679692,-0.3630979982902123,-2.989121776279712,-2.0676041098519016,0.5548306641882993,-1.0900986255225642,-5.247314047403743,-5.036636067620094,-6.157789331834228,-6.185871430371667,29.280001,-732.976013,-668.072021,9380.0,7280.0,4060.0
0.4704431903844634,0.5483570825839273,-0.902232900990698,-1.3103456459681762,0.2308332564567485,-1.7691696631738167,-1.6625691433193477,-0.0070500291942374,-2.139932572698892,-1.3947548695460186,-0.6971027222516264,-1.0934273222337338,-1.479183904582288,-0.6538981906126409,-1.047501222112525,-1.1861832841659763,35.136002,-737.367981,-664.656006,8540.0,7420.0,4340.0
0.0995845403409448,-0.1808670454861907,-0.4849554802582766,-0.1699240172348971,1.5355402803117175,1.0515333908203597,1.0664982208186695,1.531706932972079,0.8599719184836362,0.6452912795892115,-0.5184687639462215,0.99636189929424,3.877774249686056,4.768214996005894,5.879493743336292,5.582412418397853,34.647999,-738.832031,-668.559998,8400.0,7000.0,4620.0
2.733675040984776,2.117829274535886,2.5457844980995503,2.3884850194724563,3.98911819268252,4.440456669686045,4.368242560477376,3.092187916090544,3.7683749914727023,3.3023973797438395,2.2957944527658456,3.556550851975227,5.27906999484156,5.46125479966128,6.818667000978225,6.419696109044034,32.208,-736.392029,-670.512024,8120.0,6860.0,4760.0
2.7704752080512773,2.894068139910248,3.976738772184407,2.9667889806252368,1.841386119406618,3.281952317536013,3.218709151139472,1.4158088190354663,3.757159874859993,3.873183128172431,3.7935469358076896,2.803878313064659,1.8377302267265525,1.0233912189419216,0.8367284162089254,0.670658752325479,31.720001,-736.392029,-672.463989,7420.0,6440.0,5180.0
-3.0206766766756727,-1.741844566770427,-7.596158260933202e-05,-0.3859235796502192,-5.302338738457796,-2.717917819472366,-2.7063721476366704,-3.3676863444246896,0.0429981177155701,0.3118283210192999,0.0705027530061881,-1.831612189109748,-2.6912376141151317,-3.948248185630745,-5.600491488874805,-5.227477125168807,32.208,-733.952026,-672.463989,7280.0,6300.0,5600.0
-8.033320919654201,-6.848949384914082,-5.745586016521706,-4.4037822263705,-8.592403861001873,-6.769107680541147,-6.709354628001106,-5.715250508423259,-4.415210655171057,-4.8812822866283945,-5.719554991026503,-5.510348422624229,-4.5232448069395845,-5.243114393820645,-6.404088753679828,-5.668799593446873,31.720001,-736.392029,-675.392029,7420.0,6300.0,5600.0
-3.520440041665833,-3.9076432448087335,-5.3203326185017,-3.701292256560698,-1.106854681278504,-3.029976296664181,-2.9972754975753686,-1.203189647978896,-4.926308678099943,-5.740837977493936,-5.713719469865278,-3.24675492400456,-2.7874131900308203,-2.3508765491147297,-1.652224184337061,-1.218870215784251,29.768,-737.367981,-672.463989,7140.0,6160.0,5740.0
7.617149805359385,5.926337814594765,2.48487322397337,2.0011545009173517,10.264225500498975,5.0003692943559575,4.967296763723803,6.225838683747151,-0.1514952296312485,0.0901760707661462,1.9890687551089064,3.254767499839253,1.0176676465505992,2.384622754042316,4.044404289570536,3.627227141126857,29.768,-735.903992,-667.583984,7000.0,6160.0,5460.0
11.650190394058944,10.406050960289342,8.530525122721603,6.189750837023707,11.035573688715465,7.78709952257631,7.728727655216187,7.435154804380306,5.26671781786288,6.790123781724096,8.778330906989613,6.580812454803335,4.249415035077527,5.580642524853345,6.289408000186818,5.273948047922117,26.352001,-736.392029,-671.0,6860.0,5740.0,5320.0
1.4465114298461592,1.77238407110749,4.221295191385464,3.064001936449294,-1.9808945492053307,1.515783445531331,1.5093646307191624,-0.4998195975719223,5.048512527372765,6.076148830601635,5.42499086380757,2.3885608091359254,4.065264361088558,4.274376888031686,3.483130696323407,2.875803834709972,27.816,-736.392029,-670.512024,6580.0,5460.0,4900.0
