Ch 1,Ch 2,Ch 3,Ch 4,Ch 5,Ch 6,Ch 7,Ch 8,Ch 9,Ch 10,Ch 11,Ch 12,Ch 13,Ch 14,Ch 15,Ch 16,Ch 17,Ch 18,Ch 19,Ch 20,Ch 21,Ch 22
3.216683415128455,4.091226985785723,4.593966411427439,3.3005621204857047,4.255169809464388,3.950877801722357,3.954551441525331,3.8520133079148726,4.199907154810432,4.422152422642507,3.3360270752595422,3.676280612556504,4.495011893268743,3.776338251071234,3.739133590163626,3.7874221281121527,36.112,-701.744019,-710.039978,-1400.0,6440.0,9100.0
38.82330343701469,58.88747277297214,58.57969331975431,-3.26162435199887,58.49654083864502,39.15176117531839,39.20603250672468,19.043286049792805,25.320287466183476,56.48734182327694,-5.846435014272854,60.73235648671324,81.36756275431765,33.1603437314966,45.46848098797662,21.13047589514702,39.528,-702.231995,-710.039978,-1680.0,6300.0,8960.0
33.352483272366925,38.00181919941341,54.06947411151922,-4.749968121845345,44.35160110898276,25.7957613138754,25.93388219960131,20.63955524057427,30.695980012494008,52.85015413138047,-54.0341808735156,49.19123072507057,59.398384228455285,24.33133485758668,61.93804807871352,15.608651637246975,30.256001,-758.840027,-644.160034,3220.0,-3360.0,280.0
-4.885283209564332,-29.06380475442906,-1.4649170240187035,-1.1987471354583334,-17.587773050752403,-17.773148931880996,-17.63605355410077,5.932902545579745,12.730663543921215,0.0088908182659944,-78.77988607676883,-13.296653552866577,-29.09380175240129,-10.753007562690335,32.07720406417242,-5.918038012168362,32.208,-761.280029,-645.135986,2240.0,-3080.0,280.0
-33.27707471842387,-54.06111591578257,-49.76876776996119,1.428880583411002,-51.68831373674999,-35.83849747727068,-35.88526973588716,-15.44123116199587,-19.945620295212787,-47.19035045802696,-6.669581208992412,-52.56671388334143,-72.50705533952839,-29.99532125957954,-34.28050350148869,-19.099845067579107,32.695999,-763.231995,-651.47998,700.0,-3360.0,-280.0
-25.91813550328976,-11.067632443635398,-47.058612628623735,0.5055735703127608,-25.38829372121169,-10.298189691388464,-10.54833909631301,-25.41718343007376,-39.651747588417344,-46.484821013469656,104.46239852331472,-31.879616256423656,-28.307739566609985,-15.022352284121675,-80.41792959085156,-11.838895593593024,32.695999,-757.376038,-647.088013,-280.0,-3920.0,-560.0
2.02750397754015,36.20249749997934,-5.052986383738705,-0.4509390003175746,18.79620487811839,20.76340732891515,20.566784645200144,-13.182742045851862,-23.76873098297664,-7.32926286472557,113.15369031315382,12.616824573636508,34.2188999154756,10.817560858077137,-52.77140426615448,4.323366088700797,26.84,-759.328003,-655.384033,-1120.0,-4480.0,-420.0
20.049263923549876,29.5772136522789,31.85752605194504,1.35214709349699,29.35725627162956,20.08996313788757,20.1936411160758,11.413698310926222,15.987039867670685,29.15980767996897,-9.976367643216562,29.88803252809195,40.28525678081178,18.17439737199636,29.12651408043381,12.012410259752864,26.84,-760.304016,-655.384033,-840.0,-5040.0,140.0
17.267548738827344,-9.26941540982866,35.66494201535423,3.008583167474725,8.666502581203197,-2.009682333798235,-1.7072251724344418,25.295140414655563,40.56788827440872,35.43409392838216,-124.31270662654909,15.337931192611252,2.7956940447170857,6.789876852873028,82.27976592662917,7.848468598901103,27.328001,-761.280029,-654.895996,-140.0,-4620.0,560.0
4.803927636045246,-23.0825614866598,13.553070889628197,0.6923874578003042,-7.054095865670036,-11.871669628060332,-11.719033322517884,15.83740888123325,25.855192821336868,15.981667975687342,-97.35841250673955,-1.203448709283394,-17.66169840431639,-3.801042043719516,52.98397930974226,0.5063122161231162,27.816,-760.791992,-650.504028,700.0,-4060.0,1120.0
-5.351912605825033,-2.462867442087824,-11.405534693925576,-3.5810732763868915,-4.595514588171864,-2.2553881238587814,-2.4115791594925757,-6.120576119260364,-10.513652171098904,-8.830527077492784,26.748526838533166,-4.965346494276802,-5.001450656253683,-4.674629512044334,-21.80654448186604,-3.666819276190768,27.816,-758.840027,-648.552002,840.0,-4060.0,1260.0
-10.81033261685164,12.998313100085197,-23.698245648917823,-4.1280440477130185,-1.7898723345387015,5.210876875385783,4.961036508247672,-19.31923147071741,-31.33424973153767,-23.427765213556647,97.84405499774256,-6.828746193582225,5.083871225026169,-3.4273559300662,-62.82958209571465,-5.373205786119932,26.84,-759.328003,-647.575989,700.0,-3920.0,1540.0
-11.471756578844715,1.8915345282744305,-20.182726539282932,0.2021704765138473,-8.573826999675704,-1.378518799350828,-1.4367675320711848,-14.571378756209956,-21.511009295540735,-22.248608140725867,55.7229431077845,-12.773234495075398,-6.552358750391799,-5.169650520953295,-40.25231775065356,-5.5550942750218,27.816,-761.768005,-650.504028,280.0,-4060.0,1680.0
-4.955186890687815,-11.96837452105426,-4.895836154546135,4.040495754364868,-10.559917578178108,-8.144000081744787,-8.00648115416197,-0.533074625935291,1.8496476317325836,-7.197634380776169,-19.94198425788129,-10.807505962813265,-14.99337264491723,-3.9585912613740826,6.68277089178118,-2.2470031814805056,24.888,-758.840027,-647.575989,0.0,-3780.0,1820.0
6.61802239524343,-4.322617954847887,12.963485141217935,2.790349649735263,2.8474333726361416,-1.5219704284708298,-1.4000213229941578,9.701692160541386,15.8979828156158,12.43830525213971,-42.57565697872019,5.291088309773703,0.840366431752151,3.831670922603239,30.76063766427056,4.014551549855559,26.84,-756.888,-649.528015,-280.0,-3920.0,1960.0
13.566107073972413,11.764575438187237,21.24035715838553,-1.3050307463810071,17.05675965279843,9.552928078479695,9.552325397188078,11.297976930799228,15.339544417903518,22.644735749274734,-21.42416499109799,19.51517398462576,20.858258620404737,9.988902510607026,26.20450086296588,7.590999762609231,27.328001,-759.328003,-642.695984,-420.0,-3500.0,1960.0
8.759286095306903,10.777701830462815,13.494649265792903,-2.7224339072050694,12.970477985343791,8.812972025239286,8.776287098264463,6.852943297290529,7.805631957153686,15.334265170022617,-8.369022869952106,14.131360481063082,15.693082147386765,5.809484612008887,12.617055928035514,4.340887385657643,30.256001,-759.815979,-647.088013,-980.0,-3220.0,1960.0
-2.823478226390961,-4.652685065154339,-3.6581326540493655,-0.2813245491138566,-4.468210919407704,-2.3224328859273933,-2.3249431444568667,-0.2823590379045887,-1.2121042260109869,-2.892807258682136,-7.65859305300216,-4.639382374455689,-7.683376345233379,-4.195860161041814,-1.1337990769224406,-2.315207457705601,31.232,-762.744019,-644.64801,-1540.0,-3220.0,1820.0
-9.83450632303636,-11.212124660859349,-15.88290176671892,1.907996798878819,-14.057904904042484,-8.63756972162903,-8.668895398344635,-7.369301635528513,-10.016120669232272,-16.45856720585281,9.678115271274883,-15.299235884301554,-18.10178231894452,-8.257475912195103,-16.82469142274376,-5.565687428656711,27.328001,-758.35199,-647.088013,-1820.0,-3080.0,1820.0
-7.749078990090636,-2.3047454234038502,-14.75119864380402,0.7203496823565652,-8.002955778823665,-4.260881725567892,-4.354820516880404,-10.31739125923216,-13.92098826070612,-15.886802724863928,35.889315357035784,-9.70891436750251,-6.403639659057807,-3.485611181818024,-26.261721780491484,-3.6168084824289126,29.768,-757.376038,-646.600037,-1960.0,-3080.0,1680.0
-1.622993068200746,5.467409182059994,-4.056092540188238,-1.8334880207519264,1.5532243702468067,1.6915401585907794,1.661423492831132,-5.965956610720396,-7.648965653187348,-4.941956470569775,30.201108831007115,0.5028675301473896,6.36682183023758,2.0487208522580955,-15.613916491586016,-0.388353841521772,25.864,-756.888,-648.064026,-1960.0,-3220.0,1680.0
2.782403601995671,1.6583492638125057,6.686292583727951,-1.92424308761764,3.949235287848309,1.833081179702397,1.977086411642113,3.127846911012372,5.338920461838838,6.357709469577662,-11.925870754998469,4.355547024000335,4.781835041805686,2.379616156635013,10.346735733509972,1.1019504918082232,27.816,-756.400024,-650.015991,-2380.0,-3220.0,1540.0
4.9073377638360505,-3.4182805053193985,11.356863685761008,0.7015596800543311,2.980939713746249,0.3656707486323656,0.5451239319683149,9.58269585023102,13.545963086440445,11.638839582539717,-42.49349401097727,4.457165096190745,-1.133364108443912,0.7621328736456149,27.08248597313385,1.917474938222689,25.375999,-759.815979,-649.528015,-2940.0,-3220.0,1540.0
5.711114184429093,0.7826168439371738,9.232022663855783,2.6763149514782514,4.757634504538645,2.5872294610787683,2.540472801593622,8.313958506432952,10.017896611890237,10.114627146747562,-26.65675712284885,6.124242817031279,1.7379313249180497,1.7732618500044952,19.003297355450037,3.2180003459001725,24.4,-756.888,-649.528015,-2800.0,-3220.0,1540.0
3.642172188341203,6.848845574310484,2.2137848395645827,1.6443068401893348,5.275502617691668,4.57284727761421,4.294711469628139,1.2406903204897368,-0.2901312323494713,3.3246240412127173,11.187944659332423,5.65651907535498,7.096275166719505,3.18551813444467,-2.630938241460102,3.042108684212158,25.864,-754.936035,-652.455994,-2520.0,-2940.0,1540.0
-2.1338278860710846,2.858256893746628,-6.206381402772556,-1.0011506142647522,-1.2727875183192068,0.4205825712570037,0.2457224107721548,-5.594036897544166,-7.736738564771437,-5.694148350642017,26.659166735436017,-1.977582728989975,2.2363904247420336,0.4906858738965637,-16.396904974432726,-0.4223413900355819,21.960001,-758.35199,-649.528015,-2240.0,-3080.0,1680.0
-7.525412975514762,-6.950720842777184,-10.812596402246156,-2.3033361149549125,-9.499739645713731,-6.286362339969149,-6.092470540764469,-7.795413164103925,-8.42494444256523,-11.490428888214437,13.959412562429398,-10.829397569140411,-8.724860277160882,-4.5285423146995,-15.26625886250193,-4.638849645900194,23.912001,-756.400024,-648.552002,-2100.0,-3080.0,1820.0
-6.890812055872118,-8.414668836918228,-7.684703518782628,-1.280179558703474,-8.58153908893422,-6.593148314397879,-6.222293491383181,-4.891157910400917,-4.738633018850125,-9.157919966912743,-0.1263461580299811,-9.713832915586206,-10.399817147258124,-5.515631135328186,-6.878527504931548,-4.971180190319082,22.936001,-754.936035,-648.064026,-1820.0,-2800.0,1820.0
-0.2148092920512201,0.5833240737365749,1.2862300848763453,0.5262591882483236,1.538799382292564,0.453994835564331,0.5428000476813644,0.8429158916985094,0.4998679205682154,0.1502074753042457,-2.995342662315369,1.507413465764336,-0.0448762492169868,-0.7447190654538218,2.1134784655336145,-0.679162181919283,23.424,-755.424011,-649.039978,-1820.0,-2660.0,1820.0
6.23875386111973,7.534274347713378,8.849729437923946,1.3010745444038372,9.112765099357915,6.210927655801624,5.867540587101601,5.8077229148969804,5.660832396061191,8.911076867988628,-6.363462946190446,10.394639277382836,8.758989834870517,4.377319984501476,10.448817962409905,3.8985306304641054,21.960001,-756.400024,-646.600037,-1680.0,-2520.0,1820.0
6.8974947993598414,4.457930088219938,8.931099316520696,0.798898612358907,6.438812731933563,4.626139820187517,4.234057433199938,6.5721925034473685,7.887582059688242,10.177405198564806,-14.566850259085848,8.000926885322398,6.550963501110194,4.675792332638894,14.4021098981543,4.541715566545096,23.912001,-756.888,-643.184021,-1680.0,-2380.0,1960.0
2.299061620746281,-2.008318384782928,2.286037481809265,0.0178080749820839,-1.0614385144653005,-0.5015369866305958,-0.4700718965257708,2.443260226104684,4.369876695753378,4.006596703236789,-12.711763615105443,-0.706664787248777,-0.4407352487296151,1.1781035507628212,7.932588294052686,1.5724586937920593,23.912001,-756.888,-645.135986,-1400.0,-2240.0,1960.0
-2.9066639163860235,-2.9694729080685054,-4.862229665611321,-0.2432222425089835,-4.3050112345278135,-2.664403084347926,-2.22537515213101,-3.1954500421510184,-2.951759318963121,-3.7549425532302902,5.7090457498085,-5.494550313119635,-2.7838395703654224,-1.8277931140558017,-6.474647810117528,-1.6371706736658902,23.424,-758.35199,-648.064026,-1540.0,-2240.0,2100.0
-5.130285854788973,-0.1223074923371783,-7.063343584350942,-0.1314429649469437,-2.532833547258302,-1.598875187621679,-1.2488422508584074,-5.671388606876679,-7.641068725559575,-7.675442326565659,21.67029250403306,-4.0034988477407945,-1.435067980860106,-2.562899132543151,-15.867246120067245,-2.836545650002118,23.912001,-758.840027,-645.135986,-1260.0,-2380.0,2100.0
-3.8657063616976135,-0.0317984191821476,-3.9170523182249486,-0.2211874781633123,-1.025353940359641,-1.1052172256861386,-1.237908830436483,-3.5855759306281554,-5.641682249984785,-6.412691139559852,15.34318757118028,-1.3308864877157158,-2.1557592178573457,-2.115443746408126,-11.01604649349351,-2.2152433444745747,25.375999,-757.376038,-646.112,-1680.0,-2380.0,1960.0
-0.4609198097857747,-2.2303597404304663,0.9537442071634368,-0.5710236965802497,-1.304183992603057,-1.5956541482362971,-2.0521436188408364,0.3491467691166301,0.2668933905619989,-1.6641992099820968,-5.478228818257588,-0.3833988030667435,-3.756803440892187,-1.0998359209307211,2.313459375415838,-0.7167342376242761,27.328001,-758.35199,-643.671997,-1820.0,-2240.0,1820.0
3.020477469173764,-1.1269279929191065,3.806377465099151,-0.5637248324413101,-0.0578485480112864,-0.1173310936095069,-0.3914004226890587,2.9157235560907413,4.411732268285046,3.839850131501797,-16.773739021701445,0.9230019425537332,-0.7993906759693772,0.8828476359760351,10.93675828840328,1.0614777322858535,25.864,-758.35199,-646.112,-2100.0,-2240.0,1820.0
4.326711133753063,3.187251756242886,3.516334976235593,0.1940257477296553,3.361977727017576,3.236253969601731,3.415760191925072,3.3186289115005625,4.554583063563642,6.979294910194244,-10.336031992167156,3.4857305552345386,5.241248968569261,2.906897257182821,9.396629238398996,2.3241870791429973,27.816,-759.815979,-647.575989,-2100.0,-2380.0,1680.0
2.418156307779559,4.26026865328418,1.4447128248726449,1.0552386547449908,4.543058281754116,4.078045988543712,4.478776060537959,2.2430584126194404,2.3799990716860537,5.334060097675831,0.7285654164831619,4.017746890053811,6.424400878120819,2.718101721527,2.659038348570197,2.034973538015171,28.304001,-759.328003,-644.64801,-1960.0,-2100.0,1540.0
-1.1746776217144537,-0.2703924660364091,-0.5298668853188019,0.9140867546830582,0.7514665530379413,0.2061195851912995,0.4014822973753769,0.0298360759432219,-0.3406528962872766,-0.4183349565255896,4.985898476694142,0.3476949833740555,0.3126389626859085,-0.1052492705776916,-3.2324867014836065,0.1707937744977048,26.352001,-758.840027,-642.208008,-2100.0,-1960.0,1540.0
-3.441456144517495,-4.473429869815465,-1.641777778437602,-0.2833555780997761,-4.214101364228398,-4.35270343706228,-4.513431489290911,-2.677845721275389,-3.0032087881393696,-5.8792193037995535,5.367502043407924,-4.160078299665803,-5.784336255189087,-2.8514314230997875,-6.654474316023274,-1.7471145522653433,29.768,-762.744019,-642.208008,-2520.0,-1820.0,1400.0
-2.804189866946762,-2.8795719368870016,-2.119799372062459,-1.1758963924265031,-4.752787734542538,-4.250712874018593,-4.54466234601214,-3.8189439838991657,-4.272880505038528,-6.441924597753611,6.763294976637769,-4.554172933159507,-4.959872492211245,-2.7335756907881525,-7.037349752279582,-2.102047359895872,30.256001,-759.815979,-645.135986,-2800.0,-1680.0,1260.0
-0.3872860431566197,1.739926946572636,-1.9741006203297216,-0.6321227077584204,-0.6813121816882772,0.2584540843713313,0.1219287725761352,-1.7275341145694765,-2.3426684688382724,-1.8347540246815872,5.109505442137401,-0.7288816131331876,0.3903540776254168,-0.1983261796370811,-2.799805388695247,-0.853436716280365,30.256001,-760.304016,-648.064026,-2520.0,-1820.0,1260.0
1.67023072739359,3.105970382515954,-0.6724136775647732,0.6359522523636852,3.1535198295412767,3.922797451807525,4.007784184816608,2.049445745365431,1.9063514190456703,3.607921416325534,-3.395750995062338,2.9119977743089684,3.345672299306852,1.9279241732533536,4.520759818050413,0.6886992992425778,31.720001,-762.255981,-648.064026,-2380.0,-1260.0,1260.0
2.3081901234690814,0.4752097394437057,1.6483973845798623,0.9011954238983136,3.293927388953348,3.1695355698615937,3.334345299479612,3.7628986925115657,4.494461214781023,5.397478969087175,-11.414073256451102,3.25508917772968,2.092079487571408,1.899573230148032,8.624270249409642,1.4172691484630349,30.256001,-757.376038,-647.575989,-2380.0,-980.0,1120.0
1.6707097238573263,-1.5453953432843692,3.3207427079999583,-0.1896592257309205,0.9182737345079696,-0.275419280783504,-0.1669040280134262,1.875311982607111,2.8187727858089726,2.9506099577063307,-8.754285917151371,1.279994265054571,0.2816395654132396,0.4934265502933792,5.059929568371396,1.2146996620638426,31.720001,-759.328003,-645.135986,-2660.0,-980.0,1120.0
0.1737631100520083,-0.5835127917123899,2.4787053281669835,-1.02362140014335,-1.097581096266338,-2.509234987877198,-2.4829861917585667,-1.1228099654940211,-0.9741894699676,-0.8746624214447557,2.462628396169014,-0.6810504616281433,0.0550985230382225,-0.6735693364745952,-2.5766765900709583,0.4421368970490906,32.695999,-754.936035,-645.135986,-2800.0,-840.0,1120.0
-1.594943365034909,0.7638764343776876,-0.6368465583302605,-0.2785545617995187,-1.7305915984722648,-2.040090448030488,-2.0805224589501226,-2.148466173309858,-2.831183149195837,-3.2075704438061896,9.893317479477298,-1.8069645765922944,-0.2840162087457484,-1.0058381266167606,-6.620190235799154,-0.5848735707331878,30.256001,-755.911987,-648.064026,-3360.0,-980.0,840.0
-2.5016468294632888,0.0365142593193873,-3.4262530576268624,1.082533938663603,-1.5504679595049626,-0.3111087693494563,-0.4217157440535844,-1.244001693775656,-1.8451156747589228,-3.2516154934256183,7.120224125780768,-2.1318865984299964,-1.7529291239513218,-0.8357471921677154,-4.3942516741686894,-1.4097511083802994,30.256001,-761.280029,-643.671997,-3080.0,-840.0,980.0
-1.5325425458458144,-1.246006070680037,-3.403148595377374,1.0648144361741665,-0.8054795112550096,0.9252077716810648,0.7788701374789097,-0.4394453265266683,-0.3882543556017288,-1.6284182723929286,-0.0511817785652951,-1.2005203292298212,-2.2473559472328035,-0.4178931732173467,0.020074215378428,-1.3386580052092418,29.280001,-757.376038,-647.088013,-2800.0,-840.0,1120.0
0.8646208089779248,-0.5844212295646267,-0.6271980633821528,-0.4892941182545187,0.6238286992343551,1.2666347792477015,1.2068157434750997,-0.1802122262574148,0.0944786833834169,0.8154013112846468,-3.9219627561229022,0.9655025610524473,-0.1664941601661539,0.2720007231636347,2.395767907424569,-0.1096781489224582,30.256001,-756.400024,-644.64801,-2800.0,-840.0,840.0
2.72706517775615,1.3305642455665905,2.520188941678809,-1.5366621739159685,2.029122470357497,1.0592655939190114,1.1925426648453132,0.8155787430688719,0.7296474703832032,2.9894681170174184,-4.091990265304992,2.6613494457634106,2.478839553399465,1.0209501778150505,2.8325007603637533,1.4493979820036167,28.792,-758.35199,-644.160034,-2800.0,-980.0,980.0
2.336295579393622,1.800146836885925,3.60573662414114,-0.6191301482933124,2.056736711971944,0.4299077148607389,0.681553650054078,2.368967650868213,2.150719816746615,3.380050817697346,-3.562497697292468,2.0176286331679045,2.683113430364425,1.2382570008378837,2.829582502343536,1.9186000306434283,29.280001,-756.888,-650.015991,-2660.0,-1120.0,1120.0
-0.0611322089638839,0.1519469866550015,1.9816410988425976,1.0982392400148129,0.3003040337746305,-0.5986969521078926,-0.4718351331156288,2.105939538583557,2.4039900100257627,1.1863723774021535,-1.964961721520124,-0.4746877880362914,0.4597395860471385,0.4901329602176121,1.6708193336705537,0.6855640313337538,28.792,-758.35199,-646.112,-2520.0,-1120.0,980.0
-2.421276554951853,-1.6006563471350646,-1.0608081162567242,1.4043302764402754,-1.9366196566718084,-1.5285416247065635,-1.6929203419897745,-0.9214575790127252,-0.181719393544994,-2.246688144262232,2.1583970270296398,-2.294126134727604,-1.6983263158360444,-0.9079135402375826,-1.585766754160846,-1.2714101638997235,27.328001,-757.376038,-645.624023,-2380.0,-1120.0,980.0
-2.7239979180600624,-1.6952053478516929,-3.3171798111622537,-0.0170035977591713,-2.735026914999406,-1.5011120788180676,-1.82824194210835,-3.790099549572204,-3.531155785344222,-4.043069534349787,5.8841135150860095,-1.8666084118472055,-2.2310410362041564,-1.8830489300091149,-4.662149364923303,-2.192880534646961,30.743999,-758.840027,-648.064026,-2240.0,-1260.0,1120.0
-0.7246617619922833,-0.4329179106612931,-3.1045053934291187,-1.3212732186967004,-1.2955057544045652,-0.1850316404380463,-0.3441402907953521,-2.917398392294803,-3.695425047713804,-2.50229927651114,4.517812888087515,-0.1473886624230838,-1.483759066297896,-1.379049327010066,-3.935575773283041,-1.2056176160775751,30.743999,-759.328003,-646.600037,-1960.0,-980.0,1120.0
1.8214911011703672,0.9285875080623972,-0.5068811048473388,-1.0225773199915948,1.3045530698051326,1.5499495876729836,1.7451014855587803,1.074762360672235,-0.0279564370305956,1.033467671205549,-1.1652052132055062,1.0376931533073608,-0.0361097301740276,0.5313427521791633,0.5280569315399661,0.8235056724197263,32.695999,-757.864014,-647.575989,-2240.0,-1260.0,980.0
2.6740226107828327,1.5984550255166028,2.4978608243646847,0.3118410932261801,2.9145811177918373,2.1543859078484817,2.5206255560308675,3.8317444103554914,3.642043874086459,3.468646943727964,-5.09193992079146,1.1802459434356436,1.8027144851043009,2.304725462765474,4.432627639618439,2.1056245281793027,31.232,-758.840027,-648.552002,-2100.0,-1120.0,980.0
1.170083406764314,1.2747605779781626,3.55531246037476,1.161449086220081,2.1212990796261955,0.91428125009188,1.0716705075277655,2.652123700710278,3.624064517507063,3.0044635614736093,-3.7636350527077247,0.9394989696940336,2.8729966357931747,2.161517659663551,4.252685348776232,1.5963996413702175,32.208,-758.35199,-646.112,-2100.0,-1400.0,980.0
-1.1146034297203826,-0.0098104349201633,1.9309288838036145,0.9176229304488184,-0.3941033310385894,-1.1147318232022212,-1.336294012881178,-0.5509575741747199,0.5151157322602922,0.5329970108733895,-0.0631190890953607,0.5895136639200684,1.6274278327372518,-0.0117634153222745,0.8851229065913743,-0.1308874517476473,31.232,-755.911987,-644.64801,-2240.0,-1260.0,980.0
-2.0007905982967333,-1.468311605409737,-0.9947937437268378,0.0596836895335216,-2.4075976420894385,-2.0707184492699158,-2.4375854095571023,-2.32613224674351,-2.2563422560419264,-1.8027677678903808,1.8501030347325875,-0.2669053425086711,-1.4811802051128562,-2.2588407915750044,-2.3282664007878577,-1.5701748769442865,33.672001,-756.888,-649.039978,-2240.0,-1120.0,840.0
-1.0072834442777077,-1.8313217404353268,-3.091328284588874,-0.8202748894523839,-2.311307640353545,-1.2549673361836058,-1.3778974263317223,-1.8913428381134745,-2.685745650731418,-2.692315240582423,1.8244326946874736,-1.4962870131407482,-3.554507006780389,-2.454075456202045,-3.428240577316489,-1.687301058899278,30.256001,-757.864014,-645.135986,-2380.0,-1400.0,700.0
0.3688935932661886,-0.6972573613075793,-3.0720569824355013,-1.313907108320262,-0.579783505567874,0.2631116508206437,0.503939140583119,-0.8348559529448788,-1.4857141904169349,-2.0864223079817084,1.7910014092408768,-1.9461316401649849,-2.371501185951415,-0.5212311246842141,-2.552563880849239,-0.6358120438741154,30.256001,-759.328003,-647.088013,-2240.0,-1260.0,840.0
0.7083962358803367,0.8709579705404581,-1.0102251358596284,-0.9206229764976124,1.0956356502758375,1.1171425138777438,1.4456898930771018,0.0211883107965837,0.053002387772314,-0.4054328904962644,1.5043367242533392,-0.7220786846174613,0.8426798826681987,1.5882564122392655,-0.3817941626924036,0.6642050961072548,28.792,-758.840027,-650.015991,-2100.0,-840.0,840.0
0.3145446941356381,1.5555397304113574,1.8827362332544235,0.4867329117174113,1.709764757896053,1.112866529471203,1.1731327857688594,1.2253199327448292,1.5057752229996384,1.709891895914528,-0.5133453034203747,1.4245816678949328,2.86523643209926,2.05776800301847,2.221186884206983,1.361515368717756,30.256001,-756.400024,-648.064026,-2380.0,-980.0,700.0
0.3138772524664102,1.131957942798301,3.68497547649423,1.87654278509613,1.4404953807028684,0.8075283843034745,0.5599984145023427,2.426439846778108,2.4264627218172503,3.0427724513459387,-3.123042349514296,2.5703829648026084,2.196387955408216,0.9105246297392308,3.596808901968854,1.1443980609831348,31.232,-755.424011,-649.528015,-2380.0,-840.0,420.0
0.7389812561291276,0.2275247696279408,2.816127788649476,1.7163832572422142,0.6359017893068221,0.2828409687362345,0.0286602799059059,1.8742427336969307,1.816295190655376,2.314688274607645,-3.1237478361595308,1.5726845454027647,0.2234821563304987,-0.4946916699410583,2.2990357049007017,0.2673165867243272,31.232,-755.424011,-650.992004,-2520.0,-980.0,420.0
0.5217499099899973,-0.6625974885151172,-0.3938940431646729,-0.1457930921092414,-0.6511798341527124,-0.7114689406937168,-0.6933581081895439,-0.82936954974074,-0.4268507134425567,-0.3303880111755801,0.1053157553442134,-0.7106602497412859,-1.0824843715809098,-1.1195601700739104,-0.8681530655535624,-0.6518512836002254,30.743999,-754.447998,-648.552002,-2520.0,-840.0,420.0
-0.6626185671132488,-1.279528432063227,-3.3956938167273814,-1.9532796374779773,-1.90702906048722,-1.6251251746704058,-1.391351235998329,-3.1639582571382703,-2.5153010182836133,-2.8771331042480326,3.183647658438092,-2.282213035451183,-1.335088310384036,-0.9771431334695108,-3.1462612828343746,-1.0333552591295672,30.256001,-754.936035,-650.015991,-2520.0,-980.0,420.0
-1.6092539418506662,-1.2038502950439258,-3.576617483845538,-1.9593288646239209,-1.9600216286269485,-1.3042805774166313,-1.149378316738834,-2.481065842401037,-2.479122237920489,-3.1817925948651182,2.923307619888622,-1.9526028561651931,-1.2247733496963384,-0.5222655309414124,-2.759604322441979,-0.7784025257681954,32.695999,-757.376038,-651.47998,-2380.0,-700.0,280.0
-1.1244079658503885,-0.2321957620084914,-0.9255664038888992,-0.381112257162534,-0.3429707480729093,0.3086140967221882,0.2181079806443419,0.4635247441522627,-0.5168338644329138,-1.1001029731437724,0.098801154346422,-0.2957393714724978,-0.9150680400291564,0.0393455610173379,-0.6506791077638571,-0.2674777099167565,27.328001,-755.911987,-649.528015,-2100.0,-700.0,280.0
0.3738785898080832,0.9634027592823802,2.015874490081288,1.150000183923743,1.6595133281285652,1.6405474071547106,1.446006298545917,2.4210014418841923,1.368864573774702,1.5204509507578932,-2.113346975648411,1.2095488176144276,0.0591266005729306,0.6499510517565731,1.1859932886174436,0.182763193790741,27.328001,-754.936035,-647.575989,-1680.0,-560.0,420.0
1.451862085680723,1.3399308539847845,2.9407916648061385,1.6011179592078697,2.2013593802139577,1.355096986324637,1.3015696733155695,1.7921880720585583,1.85285652853297,2.788241310879165,-2.051594263078049,1.6511411613285694,1.541228636041489,1.0142818603483177,2.0146622502247347,0.6474365133162292,29.280001,-755.911987,-649.039978,-1540.0,-420.0,280.0
1.3794291864897856,0.7220555042792395,1.8306947174975765,1.1708560160142694,0.9665587902624412,0.0596339347066548,0.1914015746543363,0.1514735801127538,1.3289578694848974,2.213120249983615,-0.5747462040750562,1.146340123799984,2.30170481372051,0.739901250818649,2.120605946740759,1.1316540382684863,30.256001,-754.936035,-648.064026,-1400.0,-280.0,420.0
0.5409933361715669,-0.1006467244788358,0.0835547300751477,0.2566316222008484,-0.6590089001449968,-0.6998113261865365,-0.5643414831609246,-0.5649728392187208,0.5248577744207534,0.4396440599744476,0.8529628118310303,0.1961466823683826,1.2653512066099584,-0.1161219128464153,1.298337612850054,1.0742542040959149,27.816,-755.911987,-650.015991,-1120.0,-140.0,280.0
-0.4954736723988298,-0.554248030790626,-1.3671436793535467,-1.0076975344283523,-1.400382118287463,-0.5896125091701141,-0.6082680823264693,-0.5751570508736282,-0.5732703560766388,-1.5513810641766383,1.4893572799564976,-0.836476364148864,-1.043980168292015,-0.8930357802430268,-0.79444873994251,-0.0600272163286546,29.280001,-755.424011,-652.944031,-1120.0,-140.0,140.0
-1.385765687860484,-0.8092041645173844,-2.23737371935367,-1.9741847184642969,-1.2317376136049365,-0.5000999310054802,-0.6257947119920504,-0.944971155031326,-1.8180528357833368,-2.6713786360791363,1.0888229678692731,-1.5223738379687966,-2.6793459904481924,-0.9136644039134248,-2.973913252600078,-1.638653202662302,30.256001,-751.52002,-650.015991,-980.0,0.0,140.0
-1.5700205941965983,-0.9480953972992266,-1.988780139943469,-1.4683615159363876,-0.6282152789581088,-0.6678256994645388,-0.7447757738547325,-1.2396308889591436,-2.0805582037421604,-2.0141173610386733,-0.1544068263371987,-1.269586621478778,-2.1019509896402684,-0.217895197256515,-2.9703273909237056,-2.045231989222581,28.304001,-752.984009,-653.432007,-980.0,-280.0,140.0
-0.5111820350251025,-0.493153330773219,-0.1935241617105917,0.58754072723017,0.2874789449621941,-0.2282431438007942,-0.1937855474561542,-0.2570008798971849,-0.5402643599499424,0.2089639357478966,-1.2596482431246077,-0.0011829968320621,0.192249606193359,0.4389316629965038,-0.2656898566822058,-0.5345283230030091,28.792,-753.471985,-650.992004,-700.0,-280.0,-140.0
1.216849467589196,0.650488511948972,2.1144003440286285,2.3156980540487493,1.268697179153084,0.9813247196414951,1.0593195677578993,1.4719081763540094,1.6771132672794036,2.290705300217448,-1.1551387754420148,1.312313458968297,2.081934630319024,0.4310376909916969,2.67165963816991,1.5439214843287226,29.768,-755.424011,-649.039978,-840.0,-140.0,-140.0
1.969869415242276,1.4828255204877872,2.780273264268004,1.790219178609034,1.449528101330964,1.5450327037856169,1.5928549212365417,1.866113197380984,2.402109048282812,2.4324475845365003,-0.0362900246280869,1.4590410428854588,1.9823143030250712,0.0060521545589442,3.036665103792519,2.1033037753701858,29.280001,-753.471985,-654.895996,-840.0,-420.0,-280.0
0.8959285841112616,1.0085187322058191,0.9687237354214534,-0.4503605884787606,0.3220159835623087,0.4063674392277119,0.4176438287631167,0.2860562310939704,1.022590022044103,0.6601187624279781,0.7928708441331676,0.4089179042930712,0.4074347155646324,-0.0541232317595914,0.9130801117056028,0.7642431462678745,30.256001,-752.984009,-650.992004,-1120.0,-560.0,-420.0
-0.8108865232447791,-0.301963597717593,-1.5125607803890655,-1.9044166967288716,-1.133416822011218,-1.2410792721492432,-1.2602365186337636,-1.305952867366862,-0.8301752120042131,-1.2170098084352272,0.6685006416276161,-0.6180780529666122,-0.861636129769766,0.4556727896622989,-1.2147945853239288,-0.8164386869346512,32.208,-753.960022,-650.015991,-1260.0,-420.0,-700.0
-1.3401613454691532,-1.0433953279939818,-2.19356937601662,-1.1927102205746498,-1.3332608031114248,-1.349296284082125,-1.4169692231345594,-1.043234937579501,-1.4416395199706116,-1.6677703880299344,0.2705649166376022,-0.7044107733474579,-0.9165386098343044,0.7390837572436112,-1.7080708845404908,-1.1442950723657686,28.792,-752.984009,-650.015991,-840.0,-700.0,-560.0
-0.5560536792624037,-0.73442286250573,-0.8119029342736815,0.4235176013459769,-0.1509973952351646,0.0958205411643197,0.0052869700539876,0.2569515157252171,-0.8991657340096456,-0.887773474088679,0.2219606236962237,-0.2892276571445423,-0.4614776642596898,0.0105097139275293,-1.185910340642906,-0.5621656727082115,31.232,-752.007996,-655.384033,-840.0,-700.0,-840.0
0.1249670092540953,-0.2158360491323099,0.6896009448777604,0.9869052123404982,0.843064727146712,1.0433214960657768,1.0330572725055165,0.4961853643314513,-0.3087391640267978,-0.0127670602876735,0.0122674963783049,-0.2529812396221718,-0.4059959059727978,-1.2585316317196975,-0.702303062869297,-0.2508833730229177,30.743999,-751.52002,-652.455994,-980.0,-840.0,-1120.0
-0.0126894275826934,-0.1187351687055642,0.8118517267278481,0.2957977060769161,0.4945499078283045,0.3406569076017727,0.4685686922717532,-0.5084886528356908,-0.0218898619891753,0.4084055582451552,-0.8554151820093646,-0.4790435550668261,-0.5006830223271364,-1.6265230078886457,-0.0688285649480995,-0.3215495091269542,30.256001,-752.496033,-652.455994,-840.0,-980.0,-1120.0
-0.0819301504870868,0.0344125450060386,0.1050660044347796,-0.3686911243177005,-0.4433680867276492,-0.7237354780075587,-0.5727514776614469,-0.8717055312790274,0.4149599760580513,0.6004524056837846,-1.4591655476722816,-0.1147611006838511,0.0530641330774494,-0.3719309381672249,1.1520107356369116,0.1067110104218351,31.232,-750.05603,-652.455994,-840.0,-1120.0,-1260.0
0.6595495904503784,0.7092845909035154,-0.091563885389941,-0.2462195832214878,-0.5240412392323274,-0.501996548193797,-0.5157042005954431,0.3728479513641321,1.0026297782501616,0.7084786719357357,-0.4855849573912617,0.8832356810840177,1.105624306874062,1.4914083797800004,2.0812919659744766,1.1440161792717982,29.280001,-754.936035,-654.40802,-1400.0,-1260.0,-1540.0
1.3028769650325909,1.2195275605344988,0.4192909654012823,0.2208826312813663,0.3436591256809374,0.5971887745067681,0.4083486188478697,1.7200424409349504,1.0588558965212942,0.5352075902159744,1.5309631550362688,1.3667886804813407,1.512301730048618,2.200213995935192,1.349900641868394,1.5566044968021873,29.768,-753.471985,-651.968018,-1260.0,-1260.0,-1540.0
0.5363099473209887,0.5916153356775288,0.6859257298654905,0.4204250534010467,0.9142239384061206,0.9169080676859216,0.7715481576703614,1.285944628483256,0.2879973027761973,0.0436502506285943,2.316317522521876,0.5003254903883064,0.6076191554098458,1.05450184034277,-0.7675535154818132,0.4010204874944292,32.695999,-755.911987,-653.432007,-1400.0,-1540.0,-1820.0
-1.1844818824515198,-0.8459409587975892,0.0720318895433713,0.2489528438527608,0.4037177943803504,0.0633160778038731,0.1427597484797456,-0.6342123913103574,-0.7370728549936812,-0.4985797749953404,0.654217884606382,-0.9814006017126158,-0.9195144389284294,-0.9901384348257184,-2.2878172754772392,-1.458075898839438,30.743999,-755.911987,-648.552002,-1540.0,-1540.0,-1960.0
-1.9108360515154008,-1.6466203439879197,-0.9442802429928824,-0.234671426423296,-0.5915373120600097,-0.7403700568175965,-0.5388914512498331,-2.0297190454679943,-1.321870452049379,-0.8831059736880373,-1.8409904158368136,-1.5700487690594984,-1.802564823538189,-2.3094504602982475,-1.8167179368203228,-2.1410257547932128,29.768,-756.888,-651.47998,-1680.0,-1400.0,-1960.0
-0.681557009763609,-0.9821552240240116,-1.3449807736260273,-0.8595115385410306,-1.0304473555490612,-0.6267016386481308,-0.5639726641958862,-1.6043276219283906,-1.2101896525885778,-0.9506027220443712,-2.487630398179032,-0.7361145562438666,-1.378927683357981,-1.8876843007916468,-0.0198108913511814,-0.8658964506254284,28.792,-752.984009,-652.944031,-1540.0,-1680.0,-2100.0
1.224639639118838,0.4868060883035312,-0.5635884775815961,-0.9150865240881396,-0.586470724017051,-0.0990638364561456,-0.2454412994185189,0.1188129847181365,-0.3174733402401963,-0.3322040327452995,-0.6365754399711373,0.6157463359936787,0.0965943940238218,0.0720443602414468,1.483405842771884,1.209742718009173,29.768,-755.911987,-649.528015,-1260.0,-1540.0,-2100.0
1.8528313403319177,1.4920075055053934,0.9533590268243018,0.245248779061263,0.3066480959082332,0.1556253580809217,0.0141078899088356,1.7204605631579235,1.2015988624670004,1.015708708715156,1.689753111101472,1.2767591421584945,1.6987838278741192,2.1882532356012274,1.827638402732064,2.199113317182232,29.280001,-754.936035,-655.872009,-1400.0,-1400.0,-2100.0
0.7303075832020466,1.3116885035881745,1.883438763553632,1.74748863170171,0.9795589446207734,0.2836130720749938,0.3470582249319786,2.0378396329437947,2.2779209312095654,1.9655769306203583,2.1392940361972794,0.847087765010433,2.1498298692342304,2.632072117088955,1.0608861691338778,1.2397068493466743,29.768,-754.936035,-650.992004,-1400.0,-1540.0,-2100.0
-0.9259055098873754,0.0702462776187483,1.066826233221876,1.5355957632715944,0.8674562654364202,0.5174703840699549,0.6922843694419636,0.6884766251607939,1.393606883614296,1.0084076351844646,0.4656686860207873,-0.1863799157353479,0.6745936396062494,0.6601904025057433,-0.4611394624791807,-0.8182162444329906,30.743999,-752.984009,-653.432007,-1680.0,-1540.0,-2100.0
-1.6428189164175475,-1.3753896451102074,-1.052505287442878,-0.8365384130417518,-0.0923234151573389,0.4076221871643324,0.4360344274158705,-1.4990912313612954,-1.3163500247740485,-1.4769545753592406,-1.4425216591793348,-0.975168534478222,-1.7723036703915518,-2.175059853181568,-1.9226615847515651,-2.1320661473859785,28.792,-755.911987,-651.47998,-1680.0,-1680.0,-2100.0
-0.8983851977324259,-1.72752195219379,-2.3206446050478555,-2.7343745403794806,-1.0578841015762914,-0.3161447684544143,-0.4946425667986254,-2.566927550339765,-3.19544485917535,-2.7693512320295883,-1.6251963196715151,-0.8672657972735272,-2.7362351957399973,-3.0327163801189414,-1.9543022131976135,-1.426563107710572,28.304001,-754.936035,-655.872009,-1820.0,-1540.0,-2100.0
0.667589498142205,-0.3024180420180109,-1.0609330246568691,-1.382240148205494,-0.8608152519289041,-0.8265049198570207,-0.9811989711887392,-1.093855875457752,-1.7548722386112678,-0.8932171757440933,-0.0239512232900071,0.0759340286915535,-0.7997728389050085,-0.775245788830231,-0.0062456604645546,0.7134325198851365,31.232,-756.400024,-652.944031,-1540.0,-1820.0,-1960.0
1.7120609062040633,1.7508690596615093,1.600517920911921,2.0570757850289056,0.4771709939020262,-0.248319352517399,-0.1610351566045422,1.7654171264109375,1.8580952631154868,2.3426631072370983,1.5004803803828537,0.949499399088712,2.2430775926895694,2.3574970582497183,2.2585954276026494,2.1561810292015684,29.280001,-756.888,-654.40802,-1680.0,-1540.0,-1960.0
1.1631205170110173,2.112501934339748,2.5793206220233644,3.289576171585761,1.3325778196951985,0.743245008446056,0.9857740685993236,2.9176637447347726,3.600100944592133,3.0215269579431863,1.1629719791588482,0.7930136773246562,2.939074022189612,2.9548131112616094,2.279602734172516,1.331192136167726,32.695999,-752.496033,-651.968018,-1820.0,-1540.0,-1820.0
-0.6504894404789507,-0.009271389469992,0.4959178904406728,0.3817510591770863,0.3869053687557476,0.6255586779810175,0.7348860546300043,0.8388923904571857,1.3227722551309955,0.0672246321991297,-0.6980654597286012,-0.2719097919959818,0.2824385020911844,0.3584513667961422,-0.2226146305610201,-0.9148027095640986,30.256001,-755.911987,-650.992004,-1820.0,-1540.0,-1960.0
-1.9756785336173093,-2.416874158599984,-2.3521939635145217,-3.3062381628002604,-1.372804943750682,-0.6312632026908989,-0.7896317945590253,-2.2623864614961584,-2.415176454526057,-3.0754192834054765,-1.8666237731123196,-1.0512486469528193,-2.774769459898104,-2.4917927145357326,-2.4838687993625923,-2.113118524375877,28.304001,-755.911987,-651.968018,-1820.0,-1820.0,-1680.0
-1.3518834942813591,-2.238681645818567,-2.591529104744985,-3.1591090919220743,-1.6145494315581146,-1.2201424288510323,-1.4708716225477156,-2.8573641164742005,-3.3826038177086697,-2.656667160833329,-0.8050490230909217,-0.6792272904181936,-2.7263403855599826,-2.498872709672639,-1.93745051261824,-1.008903214132211,29.280001,-757.864014,-649.528015,-2240.0,-1540.0,-1680.0
0.6466514488403959,0.4897888735546889,0.1211868121364438,0.7694142152414092,0.2675874369885082,-0.0349318340265374,-0.1076638482824861,-0.3289416367375914,-0.7174502899396791,0.699564771726251,1.3911601934827618,0.359604927861697,0.2965735746372566,0.0801251867468148,0.6093987520686968,1.0071174934167049,31.232,-755.424011,-650.992004,-2380.0,-1540.0,-1680.0
1.9614419122508715,2.722903527082557,2.714195483909896,3.821509276766557,2.126624245953839,1.5477970786948962,1.7173459311493913,2.390860503087489,2.400423186200314,3.0104032926137982,2.180574384709241,0.948142905702568,2.830378433870216,2.2602563829741618,2.1405295635459605,1.7133164947650183,28.792,-757.864014,-650.015991,-2380.0,-1820.0,-1680.0
1.39645035319634,2.079455619217319,2.425921770865854,2.5967663116212285,1.702786140737242,1.4182388384176463,1.6435070053857517,2.4609409589320235,2.810735319674452,1.9984219296234595,0.6008844908096748,0.6908204915699114,2.287118758637941,1.940585516911148,1.2620619947065068,0.6955699456194064,32.208,-755.911987,-649.039978,-2940.0,-1960.0,-1960.0
-0.2171337082017179,-0.4889290635343773,-0.1779564272784,-1.1745174221060086,-0.5374564403315356,-0.3930093305753174,-0.3313373078116057,0.2178222121120988,0.6569340506482948,-0.6223807835591729,-1.6143098179203197,0.0450344221869035,-0.3442260924264639,-0.0789002337679652,-0.4970006933395023,-0.5782062765240586,31.720001,-758.840027,-652.455994,-3220.0,-1820.0,-1960.0
-1.3421786347291595,-2.243270233082051,-2.3246982625025776,-3.305296185395522,-2.110133295974871,-1.7782963012651751,-1.918020576455929,-1.8342705540365736,-1.634954907326034,-2.001621970288841,-2.141796740287853,-0.5564083091094341,-2.2007260782221616,-1.5969667396259266,-1.1872617259650775,-0.9220239833093452,27.816,-759.815979,-650.992004,-3080.0,-1960.0,-1820.0
-1.4212722134414846,-1.8716406659540803,-2.237146259465895,-2.130922388088352,-1.5873228344817198,-1.3101513191477818,-1.5005226591244634,-2.0445821527760875,-2.287978625727732,-1.5047208927350144,-0.6350618436748425,-0.961820501052713,-1.8392307579298008,-1.4994029917474323,-0.7526624820287845,-0.6051425763955504,26.352001,-759.328003,-653.432007,-2940.0,-1960.0,-1680.0
-0.7782404364568268,-0.2518088035734052,-0.4531347513717259,0.4885956088271072,0.0957549322304727,0.2189375274932976,0.1533907005141419,-0.7431180044917762,-1.268402736322343,-0.3572109829096811,1.2436183354239114,-0.8190363391960118,-0.1594331162888018,-0.3424411732492525,-0.2224511769694772,-0.2915989164055344,32.695999,-759.328003,-654.895996,-2940.0,-2100.0,-1960.0
0.3270113356953938,1.2318779909460882,1.3990457210146947,2.138300108439292,1.2840123709414306,1.2007721648410812,1.3011270024428625,0.8872391347847938,0.5345083838330401,0.6133100613508707,1.826477218903206,0.1919127336278611,1.1951713176006409,0.770136062081119,0.134419962333886,0.0709503824114565,29.280001,-757.376038,-653.432007,-2660.0,-1960.0,-1820.0
1.557358628767595,1.843054109883239,2.0889455860690447,2.091594262909195,1.402199847054012,1.099035106209126,1.252369922846302,1.8417767104514449,1.981204408808685,1.3579486411479071,0.8661503974214053,1.383662702908606,1.39279859055955,1.1487042400984695,0.6443050013057448,0.6761827539503624,29.768,-758.35199,-650.992004,-2660.0,-2240.0,-1960.0
1.8868276790435237,1.246829025671219,1.24499980729898,0.8036059379373671,0.7844177273766012,0.4130210073952999,0.4734457921961796,1.4478946173981757,1.9495631315216309,1.449105702053462,-0.6851106102544342,1.3105024286568498,0.6194445255516035,0.6894610142886916,0.9471759572061196,0.9901238839426204,30.743999,-760.791992,-650.504028,-2660.0,-2240.0,-1820.0
0.4710075174233211,-0.4262428809397172,-0.5593325885763308,-1.0443474588509247,-0.2325240518465639,-0.3670854042113363,-0.4367735095117107,-0.2152752266115401,0.230597803218923,0.308944301246443,-1.5712342351041813,-0.2903077743782546,-0.3689630009955341,-0.1730208727838582,0.3392748156930563,0.4117250689161789,28.304001,-755.911987,-652.944031,-2660.0,-2240.0,-1680.0
-1.7044455717141196,-1.930487689557805,-1.8795543911793355,-2.3487090673962454,-1.231139629919135,-0.9356166153336848,-1.041664827351444,-1.7752065396854406,-1.7044756542708328,-1.3142654265924794,-1.0222357302351208,-1.5970985926519128,-0.7628310965792635,-0.6772636253067306,-0.7230082855745097,-0.570616919470427,25.375999,-755.911987,-651.968018,-2940.0,-2380.0,-1680.0
-2.320221953528435,-1.6137370481126057,-1.4363258991352583,-1.791592451975751,-1.3968073526554905,-0.8487854718164273,-0.8829418132230361,-1.551080735407739,-1.8949763471357952,-1.6474614825458018,0.5606618864692913,-0.8566594224470169,-0.3661720439951051,-0.4324266956329666,-0.8752155594955925,-0.8690015742332768,28.304001,-757.376038,-651.968018,-2940.0,-2380.0,-1680.0
-0.5620551175207888,0.4176370330277246,0.3510089764352208,0.5509641490192918,-0.3294047253562896,-0.004044993958349,0.0392049567712059,0.3065405608943436,-0.2494600715588693,-0.281341994521431,1.5965074201709304,0.9887654028487938,0.0982368888632192,0.0434168510588905,0.0649818647525546,-0.3660109750628696,25.864,-756.400024,-654.895996,-3220.0,-2660.0,-1680.0
1.5311234863897882,1.8228360636267709,1.474454528699877,2.4767810548905658,1.0139202619676704,0.7564093368088327,0.800270325663323,1.556666174499543,1.1703923256971889,0.9766410294297264,0.7801453684695566,1.275682669294543,-0.155740288877483,-0.0393842448123291,0.5712990541716251,-0.0069770128625404,27.816,-759.328003,-656.359985,-2940.0,-2660.0,-1400.0
1.5844204499370798,0.8280687836437618,0.6628454428787716,1.834464175752127,1.17735888115297,0.4895889436523543,0.4907839825708724,0.6254198743433581,0.7958281920734741,0.5678920354240438,-1.1346180065667968,-0.6035670618674809,-0.7340278390021596,-0.5204305889882196,-0.2625946457555457,-0.1642658657847181,27.328001,-756.400024,-654.895996,-2800.0,-2800.0,-1540.0
0.0183125190805268,-1.1738295742712233,-0.8654396419270645,-0.684855056738667,0.1203492600340154,-0.3701655076999006,-0.3775830765382614,-1.0953304008867648,-0.3739618002490346,-0.5075592601080162,-1.7910979146097388,-1.972456786614612,-0.36878591591564,-0.3441310471182089,-1.0352132462321553,0.0058077198520713,29.768,-757.864014,-655.872009,-2520.0,-2380.0,-1400.0
-0.7510225757353279,-1.287478831415754,-0.8890464305521171,-2.1368619860738494,-0.6454845842638218,-0.393818602415945,-0.3777085189629331,-0.9900867702507412,-0.3291531017573053,-0.2161806839206621,-0.0970175013657884,-0.453487489424115,1.1594920561511703,0.8338502400924486,-0.012120847296404,0.9605070543768028,26.352001,-753.471985,-656.848022,-2520.0,-2380.0,-1260.0
0.0539252217954946,0.792444726783207,0.7470414412644428,-0.9702057242973872,-0.1819210709006403,0.6609364252831407,0.668361123246281,1.0079645425015256,0.8905385668186698,1.2303319724221182,2.037426743243974,2.380610599751875,2.139651467393474,1.723322544963546,1.8945050070038405,1.503376841176947,28.792,-756.888,-655.384033,-2240.0,-1960.0,-980.0
0.5559489556662274,2.0886305142036754,1.7107354695277648,1.0512617001237956,0.5290316015534047,1.1374664155959882,1.1013332685600996,2.0158440261525943,1.1509297876226303,1.406934124564189,1.8484009858307715,2.698247018608417,0.8626746558278137,0.8410419818156777,1.904866229996743,0.2959665839405042,29.768,-757.376038,-659.776001,-1960.0,-1540.0,-980.0
-0.5757671159738664,0.4287219276795525,0.2980366948562131,1.3058594627210856,0.1246294519839486,-0.1959797808873574,-0.2335829727185152,0.1656331305574976,-0.5562425355238368,-0.6838898780804994,-0.6716858434874263,-0.4428299307170339,-1.833180020311199,-1.3344912852016495,-0.6775477520170728,-1.7946179314896211,28.792,-756.400024,-658.799988,-1820.0,-1260.0,-840.0
-1.6775467209180546,-2.2867750986313347,-2.0214961263033238,-0.2095052307925334,-0.9461200014974962,-1.9481605253995655,-1.9222764684248776,-2.471272818832649,-2.2763205236230517,-2.675501049740085,-2.5548222523606285,-3.491350096523295,-3.0403544916496417,-2.5229609367801062,-2.995319742282958,-2.2835551861240577,28.304001,-757.376038,-654.895996,-1680.0,-840.0,-560.0
-0.4857993380163184,-2.441748764922244,-2.2725643463450664,-1.1338898878964263,-0.9661161293760367,-1.6213518776228886,-1.5615728599778262,-2.3818858386320105,-1.5362305390425464,-1.778027551625914,-1.558422316001774,-2.76163206380764,-1.1787088652803226,-1.254635638360854,-2.142660921447533,-0.2961151661083818,26.352001,-757.864014,-656.359985,-1260.0,-280.0,-560.0
2.0018347499001585,0.3795873185289308,0.1392123263661332,-0.210334135878718,0.427620811899518,0.8392439199002656,0.8331655667374074,0.6151008273617454,1.1474611193294786,1.291129256243407,1.0420501491906415,0.9196485438978974,1.8935964169766613,1.2799891359559654,0.9916817071767672,2.0024629958384144,30.256001,-754.936035,-652.455994,-980.0,280.0,-560.0
2.3357895991399595,2.7354210882268197,2.4811915975940426,1.012789893694466,1.4706792119342535,2.547006982249403,2.4661287463072177,2.917515963959403,2.6521384445029814,2.963072045639632,2.2083591196816337,3.33689348203291,2.9198949710263027,2.5176995239994198,2.8438428725845557,2.018278059515996,28.792,-751.52002,-654.895996,-840.0,840.0,-560.0
-0.4638543048159718,1.8712376006900784,2.064332709358926,0.5914749976330019,0.6944420429524694,1.342921900907598,1.3127606579051905,1.80610268265589,1.2132712870871372,1.3514537664820068,0.9499888351335588,2.1086028127204326,1.0250354787986953,1.371258512939099,1.6723873981035753,-0.016728721385519,29.280001,-750.544006,-653.432007,-560.0,1260.0,-420.0
-2.96034557562504,-0.7925512543664718,-0.4235770263982955,-0.8680831611680792,-0.883819577199765,-1.2674175358065234,-1.1688919734941807,-1.06698553328978,-1.3094661240995813,-1.4090214385912905,-0.8232701108184601,-0.8050244966937193,-1.4287574720313745,-0.7638600962337084,-0.650998190527804,-1.5040786860890831,28.304001,-752.496033,-652.455994,-560.0,1400.0,-700.0
-1.6883990919820813,-1.8657798089797013,-1.936872926426385,-1.057788143748314,-1.0909444430960482,-2.064391257028326,-1.9557417016008496,-2.0643501011498464,-1.895644437044405,-2.052377728314913,-1.1097361820754317,-2.065653480604986,-1.839430580945431,-1.786453329189457,-1.5353732505187998,-0.902955741029422,26.352001,-751.52002,-654.40802,-700.0,1540.0,-700.0
1.914365668044156,-0.5581012224178614,-0.9999939375639946,0.5544976252126214,0.3111918600224345,-0.3526625063201,-0.4052755255347444,-0.4233323556035248,-0.2286521415622581,-0.2937565129408064,-0.2010443753022901,-0.999498406946184,-0.347704179851075,-1.1011891715986766,-0.8230842552398645,0.5246014882794928,29.280001,-753.960022,-650.504028,-1400.0,1540.0,-980.0
3.1157534981090653,0.7185959279673201,0.6543718640157271,1.6964078468013366,1.2024644482819542,1.315906525736115,1.1388669999053522,1.083519578603571,1.15549199649562,1.199656308629614,0.2815735406736924,0.3468214344203605,0.7922001595864088,0.1716780467416993,-0.1314831772679039,0.7197151593507689,30.256001,-752.984009,-652.944031,-1820.0,1120.0,-980.0
0.19258035179483,0.1594014178762285,0.7247701848022394,0.4283096067701733,0.0949904686632572,0.7941404571779951,0.719271230129728,0.3374220992539831,0.4556255848954177,0.5687104377857807,-0.174502559775414,0.3976954759993205,0.3154429405503074,0.7618498132765,-0.1303816019829444,-0.4124918707996952,28.304001,-756.400024,-655.872009,-1820.0,980.0,-840.0
-3.124782241430645,-0.9074128113641108,-0.5119050958581901,-1.8718241450658104,-1.609406551845869,-0.8228804368540857,-0.6877992428995063,-1.171285558655194,-1.022545701058944,-0.937427098769078,-0.5140050054993591,-0.1601250592493943,-0.6050594309250712,0.5182618822883505,0.0339322623983719,-1.101687223219249,30.256001,-756.888,-652.944031,-2100.0,560.0,-1120.0
-2.514743535079453,-0.2915246533474979,-0.8360989321514788,-2.082789455249619,-1.3805784083402295,-1.0078986961708287,-0.8333910479785714,-0.7361065473272423,-0.8578495596062475,-0.9528730865007968,0.1117420865603076,0.0443235255327613,-0.2729970471644516,0.1403852186677663,0.8153826556232959,-0.2020059658894878,30.743999,-757.376038,-653.432007,-2100.0,140.0,-1120.0
1.26324849272359,1.5177084887763372,0.541283329135822,0.4139499200921512,0.9126520673672508,0.5276813767396326,0.5279423627807803,1.409034312650064,0.9742679300847472,0.6957431264587846,1.0606817297672948,0.8762510720210867,1.0203163190765792,0.0910936339947265,1.244620845983366,1.3196761059556856,32.208,-754.447998,-654.895996,-1680.0,140.0,-1120.0
3.4392912500512782,1.83416271217782,1.7197330446972576,2.661149949009236,2.54167321811154,1.5225442695728983,1.3827585507646163,2.22541928101199,1.949409355959708,1.8016217204432723,1.0653775981927407,0.9824278733181148,1.3451413486693304,0.1269489229027708,0.4109300069549104,1.6142515103586446,33.672001,-752.984009,-652.455994,-1400.0,-140.0,-1260.0
1.4599931679054037,-0.304406521487699,0.8001729697103369,1.8973642435604656,1.3408395565570932,0.4776362255620337,0.4007509747419824,0.1808478330831092,0.4612309531283763,0.7755940648474543,-0.0966550454445476,-0.1396940877036425,-0.119108212286872,-0.1353393667254946,-0.970802153868354,0.1723246497900957,31.232,-753.960022,-653.432007,-1260.0,-280.0,-1400.0
-1.946081491837945,-2.4227657969582674,-1.286707639373751,-0.8670744968445754,-1.4225310565882,-1.225938448058074,-1.1801086792574866,-2.3764174334066395,-1.8257836995286676,-1.2456704605084987,-1.2915325168491072,-1.3224286488121468,-1.723480068507645,-0.5230807885080062,-1.3721923539228569,-1.5866074031708683,35.624001,-753.960022,-655.384033,-980.0,-420.0,-1400.0
-2.622074365119147,-1.7608539232497384,-1.9187728116653164,-2.313872246639801,-2.559950591429677,-1.3307876207912417,-1.3021588588339257,-2.228589877468636,-2.040572118433122,-1.885408180062293,-1.3200266147415864,-1.2183488887336114,-1.392969428744269,-0.4823063265693774,-0.4564273131495217,-1.8673398179112972,34.647999,-754.936035,-650.504028,-980.0,-420.0,-1400.0
-0.2851950580002762,0.9293004916462348,-0.3746339364265554,-1.1855466325418085,-0.9383901433504572,0.143544433077599,0.086166174169233,0.4124166106236731,0.098323411339666,-0.5373603349024071,-0.1949800885063833,0.0054149363944616,0.5525908691419865,0.0859415007819029,0.5890522747242998,-0.3958724748840858,33.184002,-754.447998,-651.968018,-840.0,-420.0,-1400.0
1.6478016680822831,2.260049386709718,1.212480087252045,0.4995620878491909,1.2520893655431888,1.0622728328456708,1.0593224662769702,2.2232208958091983,1.8769602173035853,1.0323329435655744,0.9662415692589704,0.9772095899692094,1.680043126366178,0.534331378214495,0.7119096953315671,1.335708839950503,30.743999,-752.496033,-648.064026,-1120.0,-420.0,-1680.0
0.9367612924675042,0.7014206796264522,0.9123742814429237,0.7387396935136389,1.502585876743947,0.2917053873994388,0.446986027554997,1.203074492236876,1.16890379259489,1.107263494090976,1.1597524763704186,0.8611390542642217,0.6214901726238418,0.2891216530068541,0.2126813718513604,1.6705489597790415,32.695999,-753.960022,-649.039978,-980.0,-560.0,-1680.0
-0.7521797774417391,-1.4297532833929385,-0.3543982133181836,0.2425810545373753,0.1464054144483022,-0.7471852910573301,-0.6059656644819365,-0.879134976970838,-0.8109946033124418,0.1117124398882232,0.4372594194964159,0.176165125895644,-1.0924368489401424,-0.2743481060186519,-0.0076996007711305,0.4897928000825137,32.695999,-754.936035,-650.992004,-840.0,-700.0,-1260.0
-0.6651596855614554,-1.228518817374018,-0.4107273316317529,0.6666667087670849,-0.5219995476537206,-0.2738163064395066,-0.3945708232828174,-1.190613208488003,-1.284173995950023,-0.3343304530079883,-0.3606065900763679,-0.1945216734763274,-1.1042676523354151,-0.2652775354247182,0.1766224770973448,-0.826237494762551,32.695999,-754.936035,-651.47998,-980.0,-700.0,-980.0
0.9880618270941172,0.8062916392021835,0.7689061777768346,1.4581608994537767,0.2767834432346647,1.119029411674891,0.8074575450982219,0.2953680075070642,0.2683199264900606,0.1648174812131352,-0.6135590419993213,-0.1972176372098907,0.5636553953105065,0.3987792023520829,0.1167841344196606,-1.0422368846728496,29.768,-756.400024,-656.359985,-980.0,-980.0,-420.0
1.4499423916405825,1.587488365266312,0.9983130439272684,0.5253733546835749,0.7705371955736934,1.1958728286797882,1.0646291510073913,1.0902272506325088,1.4829323052106202,0.3876444598264065,-0.4391358704463122,-0.335893644935361,1.5595647818580651,0.6950763017553591,-0.4241948290212757,-0.3202185608235298,31.720001,-758.840027,-652.944031,-700.0,-840.0,280.0
-0.4618418247703796,-0.1284672559715937,-0.6618737910071112,-2.078182092460351,-0.4776974848389199,-0.655109826206911,-0.4098091493437066,-0.0820587092958322,0.4675867183039946,-0.43149811531365,-0.2362144265559872,-0.5785988948668285,0.4275875914456286,-0.1000144917019264,-0.7726214190845229,0.310195202208002,32.208,-757.376038,-656.848022,-280.0,-700.0,700.0
-2.4323771942273096,-1.9566425428608456,-2.144899585254464,-3.284834360089933,-2.033445649655916,-2.2450450542181404,-1.887858104724559,-1.516608018768525,-1.5490985806637296,-1.2514381959349987,-0.0641875677875495,-0.3090670369014859,-1.4379660252900075,-1.177610678038348,-0.2965621994231124,0.3215516741722262,30.256001,-756.888,-656.359985,-140.0,-420.0,1540.0
-1.6742234311013964,-1.2440865610197505,-1.1603929147336305,-0.9150203341056684,-1.3527470781071214,-1.335714879178428,-1.2736220514942491,-1.035380059037028,-1.8617429828052885,-0.6817829864360371,0.2523329636684459,0.5284722979945604,-1.696764917486459,-1.0653979265971596,0.5835252610234269,0.065910284976745,31.720001,-758.35199,-658.799988,140.0,-140.0,2100.0
1.2386453261481432,1.1953626698732334,1.4067025391283494,2.935547386238264,1.4085310616123372,1.293412001150973,1.0129605927859,0.9537575554800966,0.1173400452754073,0.8779517234365718,0.5976594277870803,0.9858254767988388,-0.0771872702218152,0.3726899290476357,0.83998325479796,-0.0153576256747023,31.720001,-763.231995,-658.312012,840.0,840.0,2800.0
2.941423087207059,2.1920641661629072,2.473563660650635,4.040553862090875,3.0436670889921937,2.6297266253603406,2.3434107036001834,2.024295378796545,2.1198115998864013,1.6060738586616643,0.558205223819205,0.3361323146139108,1.500127756530438,1.5652503784837724,0.1905143501586078,0.0509150921644579,32.695999,-762.255981,-655.384033,1540.0,1680.0,3220.0
1.464277267639707,0.5128222215002726,0.8107628352477471,1.1141904790945474,1.3005527219394717,1.1153121758883244,1.1049098099092065,0.87574164831766,1.8781694911263929,0.6494791971237488,-0.0001721143582448,-0.7385319047893744,1.4589638443596098,1.1323009212334008,-0.5231103954467661,0.084641673668532,29.280001,-763.231995,-660.752014,2520.0,2800.0,3500.0
-1.44771322857656,-1.6296508637100977,-1.4781099674284104,-2.7640079901891568,-2.016053707104571,-1.4951150892464926,-1.2974266888102108,-1.197719802089946,-0.2727015969968968,-0.8385030099780831,-0.6473438058162013,-0.9194516702334788,0.1865227859434384,-0.4284036314680983,-0.4803085140906739,0.0845166847291245,32.695999,-763.720032,-655.872009,3500.0,3780.0,3920.0
-2.6091238051358108,-1.6481044531439937,-1.846516741997379,-3.8364424964536337,-3.0954750468583945,-2.320674232501472,-2.1576969031390454,-2.0106807946730547,-2.028780395162736,-1.2857009234429184,-0.8061838416399553,-0.0275344818330424,-0.9225049212371438,-1.418416954106422,0.0661851568654847,0.0269102284402886,31.720001,-765.184021,-653.919983,4200.0,4900.0,4200.0
-1.055807676060162,0.2207598729779171,-0.3239472552588022,-1.4907515407070158,-0.7404437251859809,-0.6626557807964367,-0.6389719572875567,-0.8256785106681874,-1.7046060738597282,-0.4993823586362642,-0.2885368767941821,0.7760585749997337,-1.0797607653850223,-0.9337410214595252,0.3027881880494483,-0.1985848290352977,31.232,-762.744019,-649.528015,5040.0,5880.0,4060.0
1.279978742421137,1.6191207616466536,1.104998080323935,1.860090958826018,2.290726002530059,1.4809646553775002,1.4334020813994957,1.1761943101875527,0.2469801110165483,0.5416994905673757,0.5763100282995353,0.6281777762590122,-0.4270074732512257,0.3352146207135139,0.0744132266193455,-0.3965057815570409,30.743999,-762.255981,-651.968018,5880.0,6300.0,3920.0
2.017479775838624,1.0840835499446178,1.122668994625972,3.443477751499213,2.640685946748518,1.8352161462415972,1.776993151620849,2.099494346151769,1.870524465509262,0.9692804444342896,1.095539917441979,-0.0418211785297847,0.4478308412445633,1.09301492961425,-0.0736321334837824,-0.1271738878636073,31.232,-759.328003,-653.432007,6300.0,6860.0,3780.0
0.6728348103915998,-0.6311775732637888,0.0757606227900809,2.102762947271665,0.0866573190815489,0.170451711844476,0.0882854510005842,0.8889237151977674,1.513321379638114,0.5275267053313705,0.597210770445918,-0.4683261846334084,0.8026473871790987,0.7135936167431155,0.0257054858217247,0.4655657606650784,31.232,-759.815979,-654.40802,6580.0,6580.0,3500.0
-1.2299156677158634,-1.7735685836924076,-0.9791808365072884,-1.142018646448276,-2.502044721840192,-1.6858765130843132,-1.7748661579678833,-1.5651417529047449,-0.5802091197438388,-0.5414200198442966,-0.7968118284776674,-0.6140180184374431,0.2037867686696259,-0.376407130412048,-0.1044714950861458,0.5006343733682631,31.232,-761.280029,-650.015991,6580.0,6300.0,3220.0
-1.738755214690218,-1.2111978764818545,-1.1391896897128506,-3.5040559639900333,-2.370747803933408,-1.7158847835113509,-1.721048671283956,-2.70516632368933,-2.1813686369900323,-1.347271303378368,-1.723048191957827,-0.6208154335488248,-0.7105649975643031,-1.1016804310211654,-0.4934340288580144,-0.3148908502845424,33.672001,-755.911987,-650.504028,6440.0,5600.0,2800.0
-0.2651927115898163,0.8060514119722841,-0.0085701535223922,-2.439442450331903,0.3762586225320481,0.3116784964940867,0.4375224796623466,-0.7283791577663977,-1.2048238360359926,-0.7070291337207474,-0.7329120592679182,-0.0441604226568942,-0.5778814565170259,-0.5992354401283122,-0.2869962780229529,-0.8203598824489341,31.720001,-753.471985,-649.528015,6160.0,5040.0,2240.0
1.6788863986907148,2.5676423129876924,1.6375608408940154,1.3718938566010404,2.9384087098171663,2.376653911241825,2.541127034217938,2.717187839680224,1.5807444317522563,1.2618912818367098,1.5835072655727105,1.2260361626026277,0.7932285330647864,0.8007359982986729,0.8156521212896573,0.0632351126159445,32.695999,-752.007996,-650.015991,5320.0,4340.0,2240.0
1.766973870684262,1.9546710797088311,1.861734361030048,3.804115149591672,2.5291850232551325,2.0015114201076383,2.053237721960293,3.493343289631129,2.800460616804401,2.357935207192125,2.510350608373131,1.8285182591353373,1.5582945523852787,1.5351687586100586,1.4423509967770085,1.3121328563344767,33.672001,-752.984009,-654.40802,4620.0,3360.0,1820.0
-0.4445675702950733,-1.165250172695908,-0.3154169973727144,1.7865937472927589,-0.7201089783193054,-0.9018291356555664,-1.0153964641701374,-0.0696030564360655,0.4890340097865552,0.6326002754845756,0.3890269277513403,0.3187774952870454,0.1223036447158124,0.4533756177960797,0.1849908034427861,0.8448842305945504,33.672001,-751.52002,-652.944031,4060.0,2800.0,1820.0
-2.4340137326823426,-3.739892235855385,-2.816567522727629,-2.368153427026613,-3.5035900926602364,-3.291121754476068,-3.476363726844008,-4.1562389544039045,-2.835940715044814,-2.4540330364943808,-2.640743260491224,-2.211247695938532,-2.1166933486239112,-1.4469427047297931,-1.8871021402617616,-1.2131343765753848,35.624001,-750.544006,-654.40802,3220.0,2520.0,1820.0
-1.4754264379093078,-2.410164174907888,-2.3234710898513806,-3.368294205632846,-2.637168304981801,-2.135790530830862,-2.2440383852884,-3.5351636584272867,-2.876706305593841,-3.059792282212624,-2.760181507992552,-2.672904611622765,-2.07421137315537,-1.8545618184997177,-2.015336064207025,-2.0831830760878782,29.768,-747.127991,-655.872009,2660.0,2520.0,1960.0
1.5501048614153414,1.9318317873693112,1.162890621956295,0.0208798483862106,1.1484014836339689,1.6386791735237094,1.6929821199162365,1.4844931712416425,0.683529625578522,0.0225647363482893,0.4794042517202452,-0.0317579307213187,0.6615994114630209,-0.111152302478348,0.4184543571178162,-0.1894630044458769,34.16,-749.080017,-658.312012,2380.0,2240.0,2240.0
2.730976437314625,4.301012740114,3.473244409033122,3.0051014106818363,3.62367996097732,3.69101097667212,3.871409486332856,4.764489955660087,3.320090431326246,3.160928143986444,3.1114207141221364,2.7217879970895047,2.715984564767102,1.676113884750256,2.4831946890076115,2.130754248200381,30.743999,-746.640015,-661.728027,1680.0,2660.0,2380.0
0.2723658965812214,1.6722727280074734,1.5193807858017752,1.404561232898366,1.9803006929044051,1.4952017018993056,1.6634399217536415,2.1525789194852614,1.647363264846806,2.4185348650749408,1.8596242398536351,2.2373247586849754,1.3977862106357393,1.3672770784261168,1.4593588214850193,1.6653906045086633,28.792,-747.616028,-661.728027,1120.0,2800.0,2660.0
-2.631955587986528,-2.7175243262029767,-2.1738075772490224,-2.207276620355173,-1.608638054109622,-2.2470386061630343,-2.233585538216832,-2.8381997296144177,-1.8212622023292104,-1.0134036935536586,-1.38378997110805,-0.6123886321659944,-1.3817864805659017,-0.2789893536112539,-1.220386570367661,-0.9032084231344014,28.304001,-744.687988,-662.216003,840.0,2940.0,2940.0
-1.889241753344766,-3.3478942822694613,-2.6407976111179976,-2.1568659230874827,-2.7218003569316287,-2.943140686684308,-3.105676247915324,-3.683834753690912,-2.206461276614318,-2.4436470048586107,-2.234587822781688,-1.967678274289316,-1.7759241596633877,-0.8578782747144607,-1.8465666091576824,-1.827266964264413,29.280001,-747.127991,-661.23999,700.0,3220.0,3360.0
1.62795785218195,0.1927744257980024,0.5389072382842788,1.7528847841761503,-0.4239521549073183,-0.0853419743359141,-0.2865912381538179,0.2847588328009845,0.6901732496480899,-0.3562677541222351,-0.0089896227770239,-0.4829556299777622,0.3707710249666158,0.0096418366569271,0.214983171941913,0.0962752973377088,27.328001,-748.104004,-664.16803,280.0,3360.0,3220.0
2.987406250281128,2.770622525911609,2.5676721000952143,3.5311240528852688,1.7464984455057213,2.269675776371218,2.206694622292598,3.224989425192589,2.164342385832879,1.6026973185772808,1.5703722359374157,0.9893861996179072,1.398074611862385,0.2734424438294834,1.5942648825848522,1.6242142162764788,28.792,-748.104004,-664.16803,0.0,3360.0,3500.0
0.1036096437205835,1.0329173249285033,0.4216748748245289,-0.1948113302240152,0.8985336995544768,1.1912860257500706,1.314413016711817,1.207120006405781,-0.2512967523747603,0.3294026111106166,0.1579102276456738,0.0255892359061639,-0.4236698635067943,-0.9296268194765028,0.0391741670461184,0.1029855392018293,27.328001,-751.031982,-663.679993,-140.0,3640.0,3220.0
-3.1476134562542626,-2.014563071749537,-2.642595660139019,-4.650818038924398,-1.2772667701091878,-1.299781221797663,-1.1101102230501836,-2.429425543790098,-2.893149959307949,-1.9624115384274772,-1.7065397493031078,-1.55998433641502,-2.072217274264006,-1.4726736864703338,-2.0326046907953725,-2.1691872119848847,30.743999,-747.616028,-662.703979,0.0,3640.0,2940.0
-2.3043627117019616,-1.7355164172185675,-1.8783169394830608,-3.2873527445784614,-1.2983187847324849,-1.520510527782533,-1.4254939279976069,-2.296135267934479,-1.3738274608495429,-1.231018165584366,-0.7024816448123435,-0.6540401124642687,-0.4582856861466683,0.4141953777829123,-1.1222637038792669,-1.2901099034662051,27.328001,-748.59198,-666.119995,140.0,4060.0,2520.0
1.4598939511787214,1.291454248860985,1.8648995009247364,2.745087361693068,0.9025680208926082,0.5574589933582164,0.4975190381761884,1.2236387658391925,2.6409981765418973,1.94840821213616,1.917991042619121,2.001312253347064,2.47813993051303,2.6880349403423054,1.8743698840786889,2.020523051933959,29.768,-751.031982,-664.656006,700.0,3780.0,2240.0
3.1842472181888866,2.4471290386165605,3.3167139194304567,5.762303070221563,2.041777054239574,1.6865576884949534,1.538410653271407,2.9395969207881025,3.5627084720015056,2.97503011343973,2.1062861202895014,2.562793925714444,2.374487096302551,1.903848010556658,2.716879253019021,3.05246163443827,33.184002,-749.567993,-665.143982,700.0,3500.0,1680.0
1.0866026662341075,0.1428560680245886,0.4697656175858135,1.910978364611689,0.4635336892979161,0.3823453808422791,0.2652622913888381,0.6419738481302563,-0.0387010032161072,0.1128018228844369,-0.7086280989801246,-0.1752325090228039,-0.9128202100808084,-1.485174851766559,0.0510107617822155,0.0559312352186668,31.232,-751.52002,-660.752014,1260.0,3640.0,1260.0
-1.5336852743026448,-2.0534728041515287,-2.652991438513583,-3.8368528120627774,-1.5538571864829218,-1.1531913100584097,-1.1559121922657842,-2.055501413178694,-3.3509378105777463,-2.802083609031421,-2.5672711734026965,-2.7678712753972854,-2.843930426247941,-3.132328887935327,-2.521138894781445,-2.962844007946534,29.768,-751.031982,-664.656006,1400.0,3080.0,560.0
-1.6025178714246693,-1.1267211497422145,-2.034524612619077,-4.6642476286600445,-1.3788710295749966,-0.7609674997553943,-0.6561524676766126,-1.5301791198429102,-2.260321091280799,-1.984817724427158,-0.897560168061031,-1.9687561514512704,-0.888244856343134,-0.826322344247608,-1.700628424563001,-2.02330028698982,32.695999,-749.567993,-663.192017,1540.0,2660.0,-280.0
-0.292329855986525,0.9558956399079164,0.7349097474086637,-0.585686147663938,0.2197847985110501,0.4465369952336271,0.5648735219445435,0.6659435413461738,1.0404404816579855,0.8928444766632128,1.6444428094168428,0.7910999801558,1.7393484353906832,2.1674769880935614,0.8367456994530119,1.1176966960737424,32.695999,-753.471985,-663.192017,1540.0,2520.0,-560.0
-0.1202956019321288,0.7672464912686986,1.4152175352640792,2.799304132977639,0.6958319007108632,0.2605756981613932,0.289802105896831,0.8500167501598932,1.8263337354347229,1.578835956466652,1.302503097516129,1.7972654183519774,1.0754148747838506,1.7270591395993924,1.3009957304647402,1.882351486082517,33.672001,-752.496033,-661.23999,1960.0,1960.0,-1120.0
-0.5906426881702126,-1.02760742750083,-0.379428256804896,2.3037583637478964,-0.2178262227916634,-0.8616950553636031,-0.9300714623504596,-0.8482169473741032,-0.1415117113554263,-0.2888049314796198,-1.065373785657883,0.3904355523564567,-1.48252266189342,-1.1349924953525314,-0.4075791611497875,-0.2261850215778108,37.576,-753.471985,-659.288025,1960.0,1820.0,-1540.0
0.4539207130890864,-0.9183771100943116,-1.070758038742692,0.2120110840366545,-0.4039803578318849,-0.5747712353322033,-0.6494348268599036,-0.977519392231354,-0.9254359504174392,-1.0563815832010082,-1.4560761761127274,-0.6973364604659603,-1.3993352807253487,-1.8530364293341,-0.885185803237723,-1.2988907910786864,36.600002,-755.424011,-653.919983,2100.0,1400.0,-1820.0
2.3963653736346084,1.5399410489292809,0.897978216156949,-0.4620423030120562,0.926771751568666,1.3370522709923818,1.3282013503479615,1.3970912822793946,0.968926204912572,0.8620057283634667,0.9753507421191328,0.0953800141082115,1.763362309499667,0.7879049979466689,1.0809000391746344,0.5448413981433465,34.16,-755.424011,-658.312012,1960.0,980.0,-2240.0
2.0898006304045844,2.633657116520822,2.4726176231083064,-0.1605829341948588,1.744846851205834,2.189633790443326,2.2102363153905085,2.8237734794820617,2.173855194774869,2.345085584431792,2.504121813800897,1.0048860224597618,3.259246086599906,2.733616310917286,2.322623049507627,2.1655286336384494,35.624001,-756.400024,-659.288025,1820.0,840.0,-2520.0
-1.1529222016193164,0.0840786495642255,0.6788958287007799,-0.7067108379882334,0.2755110518647226,0.2737885425222244,0.2554596284141233,0.5427531386763617,-0.1039193800570258,0.4378278174802009,0.4511404549266073,0.1214162394853132,0.1628444042523862,0.6699804327808889,0.147145212558603,0.4408067400494637,36.600002,-754.447998,-656.848022,1680.0,560.0,-2660.0
-3.7277030612790303,-3.2088561681786225,-2.674555558066384,-1.5998829031086084,-2.108714813970156,-2.42018995543804,-2.447905393683203,-3.130269877709761,-3.3165460708906025,-2.840145205940089,-2.698116417381209,-1.497328252547166,-3.9093365512568936,-2.9160219575255937,-3.1447445865306785,-2.630465043863968,36.112,-755.424011,-655.872009,1260.0,420.0,-2940.0
-2.360086595061377,-2.9802720766079647,-3.299418859953912,-0.8921637396058064,-2.517336057217269,-2.674792768203178,-2.619690936107147,-3.6241432092348407,-2.894011716935328,-3.110461321179074,-2.7495460183252103,-1.5096914244771586,-3.5277609236964835,-3.096835967309737,-3.090642784411531,-2.6892853917831903,33.672001,-755.911987,-653.432007,1260.0,140.0,-2940.0
1.4316829184131423,0.608889995167376,-0.2453567840722795,1.2640543289048631,-0.2982655179755044,-0.151553721410622,-0.0297607041388915,-0.1114452068770252,1.1785131357446308,0.228303745411341,0.4079331270311074,0.2148568834746194,1.0606527157621173,0.5995688150151336,0.694431208572575,0.5939129189225315,37.088001,-753.471985,-655.872009,1260.0,0.0,-2800.0
3.404351127747673,3.341270490260787,2.9722304918678635,2.3793369640574205,2.2168131776554048,2.392062880959396,2.425884394008277,3.4967602480782998,4.082307984153558,3.2214285513719,2.906320867911013,1.604955306276567,4.261359288797413,3.5705089558574907,3.800232784653509,3.063077231211347,35.136002,-753.960022,-656.359985,1260.0,0.0,-2800.0
1.927482023264564,2.425540468987691,2.963279330157092,1.0354241077246544,2.553571313107147,2.5112213001557557,2.371398928230211,3.411139400742922,2.4454547653518985,2.643551857281265,2.143259604050056,1.3441546067484185,2.52080002690054,2.340747938651353,2.7114083548654464,1.91440039988829,35.136002,-753.471985,-659.776001,1120.0,-140.0,-2800.0
-0.7770138231935423,-0.5862381757138582,0.2253075497947229,-1.2594671981744667,0.6215169645843425,0.4501147477390349,0.2785062971895986,0.0922926937209755,-1.5915973502583585,-0.3013461284005524,-0.4284539976043639,0.1383247300738733,-1.537474193191561,-1.222788346468501,-1.002666206336689,-0.8869321270723097,35.136002,-755.424011,-656.848022,1120.0,0.0,-2520.0
-2.114101231017664,-2.4296172265784053,-2.1780018302980477,-2.131960645123652,-1.634620332081405,-1.7166144984812548,-1.709213385367573,-2.8710247718236115,-3.4804213655388736,-2.255981117936134,-1.9429298650574285,-0.8443173736490182,-3.141292061860603,-2.8770489814897,-3.1322289707973705,-1.940707829636269,35.136002,-750.544006,-657.335999,980.0,-140.0,-2240.0
-1.6770823131447172,-1.7977003427317213,-2.216641425729189,-1.000438802858996,-2.2577354452791165,-2.200548007759768,-2.0203454210834657,-2.7851329431276435,-1.667306859284749,-1.809161765826701,-1.5109598698581386,-1.2143164268508873,-1.2269487467544329,-1.2922453925383024,-1.8919477578250457,-0.8426136332789832,36.600002,-751.52002,-660.263977,840.0,140.0,-2100.0
-0.3138368122305812,0.1888844172449713,-0.3688261623951048,0.8699304793250655,-0.8353006233823097,-0.7281186064501826,-0.5995824566136659,-0.1528468037250588,1.4126485749231998,-0.1266422195142147,-0.1657177454251122,-0.841870993416134,1.31957096445416,1.1713497653455582,0.7917281598761634,0.3535111332670205,34.16,-750.05603,-659.776001,840.0,0.0,-1820.0
1.216061083413906,1.6988701804380266,1.470753761065292,1.908929511275264,1.2350798594523964,1.3375464035337052,1.27498521564442,2.2627781970207987,2.661673933567182,1.1872125229981496,0.9803886124511204,0.3524103701174039,1.8535325223048036,1.913246523845044,2.146772083510577,0.5302896966093572,35.624001,-751.52002,-658.799988,840.0,140.0,-1540.0
1.9249751854362225,1.5209260742736936,1.6568560873455331,1.2431381383136606,1.8793229641285647,1.9405825192977335,1.809499285502273,2.1091011657176018,1.2400745764944363,1.3680310170307035,1.3104708955059832,1.4922226297982852,0.484671927537833,0.6584820210096468,1.2794214355960534,0.3187938823232376,37.088001,-748.59198,-661.23999,420.0,280.0,-1400.0
0.790701885176559,-0.2387883502232323,0.0363785817449266,-0.8151682234886486,0.4039869419674931,0.3287158957406529,0.3131878600540315,-0.3358430349703607,-1.3102180279644595,0.3631707197109508,0.502771485871743,1.0664170421191606,-1.088733181861109,-1.076726648863659,-0.6560080372782218,0.224810994430176,37.088001,-747.127991,-663.679993,280.0,420.0,-840.0
-1.4631527279164818,-1.87333747123743,-1.671099651764372,-2.470337614936645,-1.4635830732082458,-1.6905984401713028,-1.6142212509365927,-2.287145333900066,-2.586037734637007,-1.0634174549138002,-0.8905663349782492,-0.8401507024645133,-1.5020232244480292,-1.660463915453505,-1.7780134164673775,-0.0335864635914879,37.088001,-748.104004,-662.216003,420.0,420.0,-700.0
-2.19689088864999,-1.3626647445890423,-1.3157996629707922,-1.61146371350243,-1.3651907902751483,-1.5211694338125163,-1.518812364937516,-1.3463650131208629,-1.1846505870884163,-1.379215347894066,-1.304338768924587,-1.864612988277441,-0.3934255700770587,-0.4657935732138198,-0.9481030166963776,-0.3350525461390237,37.576,-749.080017,-665.632019,560.0,280.0,-280.0
-0.0984541808085703,1.0811818856302415,1.0395532145837116,1.5310000988389667,0.6613627123572386,0.8214763375438389,0.7260432624717371,1.5072264160447215,1.7995468095225589,0.1359913384408652,0.0333164629070459,-0.3422581770011512,1.4244094605636624,1.5274959308577345,1.1097613619837017,-0.0467640691505567,35.624001,-746.640015,-663.192017,560.0,560.0,280.0
2.388018010335739,2.5775533452463324,2.561673610712543,3.618971926904556,1.959032690690769,2.3093201042694327,2.284704567944349,2.701749267589713,3.2246691234477067,1.8647260713629423,1.535445257482672,1.9262297569826408,2.125195916636367,2.1561366548938405,2.105478880806949,0.5506152539910667,34.647999,-746.640015,-662.216003,700.0,700.0,560.0
1.859296830075328,0.9416857918893592,0.9091317810950812,1.7054994036778517,0.6677302693986473,0.7766434622943179,0.9131937270231656,0.4360872948669274,1.0711339072616428,1.3733281871402212,0.990773254989316,1.7501811944041707,0.4627753958106005,0.2437623788405626,0.554362759667377,0.2821457052597745,34.16,-748.104004,-659.288025,700.0,980.0,700.0
-1.2406855999366349,-2.131337721071353,-2.358527002578828,-2.6416718331332816,-1.6574814788811223,-1.962591985153037,-1.8240472420863052,-2.7265492612413094,-2.687456663251031,-1.1829140898552162,-1.1799982202562491,-0.8989470445979769,-2.230714166662997,-2.4253373613243085,-2.0296013079775608,-0.8634096292451932,30.256001,-747.127991,-661.728027,700.0,700.0,1120.0
-2.873081382524968,-2.871146482970473,-3.225531670482682,-4.48863516726154,-2.029203005711022,-2.382378496790298,-2.441156130629098,-2.8474348971114884,-3.7382902676474257,-2.676016372360933,-2.069678105811859,-2.546541293768785,-2.8373702174732327,-2.5974411186292032,-2.4552257511834243,-1.1745383937750318,34.16,-749.080017,-663.679993,140.0,840.0,1120.0
-0.8628654901492051,-0.3099477930852483,-0.3196332025308873,-1.4179127130524989,-0.0150222275265137,0.018264644655666,-0.1852745524149586,0.3670376159657254,-0.5803735234006887,-0.9595618033077374,-0.2365151305183097,-0.9777224576571076,-0.2029036516122956,0.3471818136941116,0.1396387002066818,0.2501524937173718,33.672001,-749.080017,-659.776001,0.0,700.0,1260.0
2.10683786622654,2.4310835965931226,3.0534839068453823,3.259732025023328,1.8075465078225137,2.1531368960946065,2.050219881258476,3.14821058693506,3.2573377107922936,2.03180729629282,2.067262323291037,1.6733860155807658,2.8662967806232977,3.061887400574273,2.7742478530195687,1.6855318288392145,32.208,-747.127991,-659.288025,-140.0,560.0,1400.0
2.2643117942275803,2.2697897280501875,2.966615226836277,4.389501711427762,1.407395894645412,1.6294570514740834,1.736617432300128,2.414759448349093,3.344900955154787,2.622815531373318,1.8422661880017768,1.9973082974404208,2.7264606774062647,2.2133037388352275,2.1741097129738525,1.015205100595436,32.695999,-749.080017,-659.288025,-140.0,280.0,1260.0
-0.1971640051891457,-0.0826457715986486,-0.2496818482821422,1.0540171465342691,-0.2622034494839169,-0.3447899699585186,-0.1823135325564175,-0.6442828013513949,-0.1880137557092481,0.1955701377822059,-0.5803243506056126,-0.0109001810729524,-0.4577687911790674,-1.1389818174430864,-0.9804263400252708,-1.02139391249535,33.184002,-749.080017,-658.312012,-420.0,0.0,1120.0
-1.844044339091233,-1.649856307162825,-2.6952449250869126,-2.7968175173057555,-1.0431326849410445,-1.208660053274004,-1.175716380276422,-2.532399373739713,-2.979511599402644,-2.1150140009942797,-2.079399866816677,-1.3750431955560305,-2.8057190394938565,-2.8379914554068497,-2.841173991447388,-1.667640591535068,30.743999,-753.471985,-659.776001,-420.0,-140.0,980.0
-0.9277998826707652,-1.1935094499149148,-1.9072583112042003,-3.375220717302971,-0.4902046987570629,-0.5724909373561239,-0.6480696977723119,-1.7290063872163344,-2.0249942652415824,-1.6407720871130236,-0.979308373819546,-0.5932532038394208,-1.643965513206245,-1.0242248524819886,-1.2695056299115002,-0.0846761655724304,31.232,-750.05603,-660.752014,-420.0,-280.0,700.0
0.7168893476652718,-0.0338948780861408,0.5482242134978419,-0.9666366332083628,0.1549515242208914,0.0385936065661576,-0.0050485977383106,0.2756075728281352,0.8891897401924725,0.5722264788047685,1.010210957917642,0.6191017297322607,1.2360168497468256,1.6722421805104777,1.6244108703931273,1.466137833436686,29.768,-750.05603,-657.824036,-560.0,-420.0,560.0
0.8449905133321943,0.4822241232965554,1.693594264440619,1.4880924148059074,0.1234492946136347,-0.0471763016123848,-0.0323149154989423,1.4807496195584586,2.02573606712576,1.5810350556170445,1.4299120225796695,0.3748665569633129,2.15197306114877,1.8895511369587863,2.36749449770299,0.920622062851035,29.768,-750.05603,-658.312012,-420.0,-980.0,140.0
-0.209146065758136,0.463123727162954,0.7800634917296329,2.086207359619233,-0.1257382246050439,-0.0337900143316996,-0.059433887604177,1.346080951890848,0.4813987425366969,0.426729939374921,0.158191103990132,-0.6511489622951419,0.240793505761873,-0.1998921384792349,0.3399174243818896,-0.7890922701557868,29.768,-751.031982,-659.288025,-560.0,-980.0,-140.0
-0.6874428187378668,0.3440963376608204,-0.5803997546068382,1.1640290631548544,-0.0950279065676986,0.4220394841422622,0.3355943625318748,0.3569110555700767,-1.2928244639056503,-1.098414870988253,-1.0152586574642206,-0.6934024966662503,-1.8267290184207248,-1.6924407828003816,-1.914721962050559,-1.3587062158569876,28.304001,-751.52002,-657.335999,-280.0,-1260.0,-560.0
-0.1030225396829787,-0.009656882735049,-0.9025194253429396,-0.1599263935793516,0.0737133552215827,0.5223750094961187,0.5070180265637574,-0.8584256378441517,-1.0987400608988434,-1.103760002271823,-0.9049516778396358,0.3113128915615761,-1.5078567136012684,-0.9883521707766344,-1.9631920532025973,-0.3198758053620124,29.280001,-753.471985,-654.895996,-420.0,-1680.0,-1120.0
0.5682975702707864,-0.4569872121702876,-0.2340087344364076,-1.1475553446891866,0.2462534543437157,-0.0422523052424585,0.1019131234490939,-1.4709995962179887,0.4870840700331543,0.2519637012896537,0.0831907616183334,0.949947248009383,0.6524980212538541,0.6563948976911483,0.0347082170876115,0.8377520619405602,29.280001,-751.52002,-658.799988,-140.0,-1820.0,-1260.0
0.6195343169139168,-0.22929844511428,0.5643715755830585,-1.3205874116322829,0.5343358126357735,-0.3427795808889111,-0.1697829545214914,-0.7032220602970152,1.4176053318135484,1.393296737815574,0.9635159531030724,0.6226605044074017,2.1072457930194197,1.3678423314818542,1.982525960095416,1.054673911547779,28.304001,-750.05603,-657.335999,-140.0,-2100.0,-1820.0
0.2206934782880127,0.6611186906947502,0.8358371749360155,-0.4819498937344755,0.6042486435254575,0.1272168518831602,0.1099114784511402,0.9966696096615204,0.7850387863775711,1.1874427006671011,1.0825622968258672,0.0282284204337128,1.3754025947290305,0.8282470776352936,2.0664103124019757,0.6149822522828821,26.84,-751.031982,-657.824036,-140.0,-2380.0,-1960.0
-0.3545383875218979,0.8133283633540528,0.3520264097856368,0.7328164012802076,-0.179564354915056,0.3628495113216361,0.136297666669808,1.8091861622466296,-0.5677126484519873,-0.1745473775193795,0.2185082134508937,-0.3816899126616086,-0.6690721840153052,-0.174000798281491,0.2022900762971957,-0.0932865505140589,28.792,-748.59198,-653.919983,-140.0,-2380.0,-2660.0
-0.9128519331679362,-0.5444114675943835,-0.628287459514568,1.1387919578950223,-1.3997950033738564,-0.4526827369669574,-0.6507428523500924,0.5724188830714643,-1.3711475758140197,-1.5413086360096602,-1.1828802768807816,-0.8645040537683379,-2.079409459755134,-1.0458210202026312,-1.9999594656116797,-1.0637863292628815,27.328001,-749.080017,-657.335999,0.0,-2660.0,-2940.0
-0.8782831408908319,-1.8147403730228056,-1.2639510033050518,0.3562430702477074,-1.4519689640660065,-1.2121108964844158,-1.158402419826647,-1.4613730104658595,-1.08282158196323,-1.6859462764375712,-1.818885206928882,-1.1478083076944514,-1.7046981368638874,-1.410083481202624,-2.490263574803857,-1.6515421247804785,29.768,-749.080017,-655.872009,-140.0,-2660.0,-3080.0
0.1731391921324973,-0.9079857975518956,-0.7419603049870511,-0.6127333356449038,0.2978510952045994,-0.371155629384709,-0.1227329172065885,-1.9235596372433836,0.0203336798069179,-0.3005352067816749,-0.6176952774141624,-0.3038990021689275,0.0578754578036052,-0.7431339369358152,-0.6218722990212084,-0.701517971410649,31.232,-748.104004,-659.776001,0.0,-2660.0,-3220.0
1.394350254333526,1.5048095817347995,0.6516025209717139,-0.6379636010310085,2.05748504917599,1.384170623156793,1.5570121669730868,-0.2710854996977737,1.1796811399879734,1.4970100627073952,1.599814097790858,1.4341496102386662,1.7549088473435226,0.8849964183056056,1.9286702768080983,1.4550947130197185,31.720001,-748.104004,-658.312012,-140.0,-2660.0,-3500.0
1.2516039106689232,2.4200954190926423,1.5418279208940855,0.1014812471187218,1.6114020133335358,1.7156653300159224,1.6409254160586917,1.5649387511390362,1.522564004081322,1.9991458011861476,2.4570928375617296,2.0910717243170533,2.015326601662456,2.098902235841804,2.60730914032462,2.4806480864446856,28.304001,-749.080017,-655.872009,0.0,-2800.0,-3360.0
-0.3419557678319186,0.5174480942769338,0.9624104981855622,0.4934230380584629,-0.6085974083456538,-0.0197171251245569,-0.235538831271145,1.6408406767322194,0.6486893441957073,0.6701404005759888,0.735798242933911,0.4219506090757991,0.6358607898157939,1.4063146149657324,0.7461258941383598,0.8357305371792234,31.232,-748.104004,-656.848022,-280.0,-2520.0,-3640.0
-1.5342736352025812,-1.9110135900201144,-0.4683451758924711,0.0730577842270723,-1.9102856973246,-1.6755745721806228,-1.7934463913346177,0.1973443360332873,-0.8449681836341213,-1.1543492405740148,-1.849120881144676,-1.894198523935382,-1.1958833026363471,-0.7798030257598388,-1.5821195204354022,-1.7559559878864768,29.768,-748.59198,-656.359985,-420.0,-2660.0,-3640.0
-0.8910406186828359,-1.991148735772457,-1.276244830484933,-0.4378530794479719,-0.8975453860977536,-1.2545684619743096,-1.176723147143226,-1.0519016000650248,-1.674956599675372,-1.7032908074551758,-2.4716773309962865,-2.062622673309744,-1.9074605735604,-2.234104173590416,-1.9600890804777065,-2.2361033886948003,31.720001,-748.104004,-654.895996,-280.0,-2520.0,-3500.0
0.6359593373399735,0.0346333896986693,-0.8194788390595247,-0.2552891873605215,0.8133011980197458,0.429715411290001,0.5796813554576263,-1.0898045278573214,-1.0370085595814291,-0.6946852545791422,-0.5398696450455188,0.0964533000122591,-0.9734725161714808,-1.4458494558959458,-0.4185744970673943,-0.2557205589782018,32.208,-748.104004,-654.895996,-700.0,-2380.0,-3500.0
1.0768726336518268,1.5027509511596866,0.1748122408083668,0.3693473776218839,1.0407917432852534,1.1440553211613629,1.1960123474903237,-0.3529758281659012,0.511449042233292,0.5907739095854019,1.6878056668127492,1.8156850248366123,0.6297655695613114,0.5947615579082692,0.9141892075171014,1.4453846902859049,36.112,-750.05603,-654.895996,-420.0,-2380.0,-3500.0
0.1490094384183508,0.9901060405338996,0.6513351387578925,0.5394692062990666,-0.0731124332271559,0.3420046920633844,0.273050738210268,0.2740756646944612,1.4982661014744172,0.9619384671532416,1.893441260398476,1.0904664177961616,1.4161129148714964,1.6708727349883596,0.6918675490856817,0.9251055875759644,36.112,-748.104004,-650.992004,-980.0,-2380.0,-3360.0
-0.6399046434438302,-0.3071701498953287,0.3613899851606826,-0.0567390689597013,-0.7286389090890536,-0.5202093174237579,-0.5946647924076682,0.4448284965656069,0.9855158206659008,0.4654046442304285,0.2483096184046474,-0.7641875988608793,0.8128386753134584,0.9491327087675064,-0.1673960459238565,-0.4744629387061425,32.695999,-748.104004,-653.919983,-980.0,-2240.0,-3220.0
-0.3605249263265475,-0.7530279507120506,-0.1134102712166543,-0.7154048939524323,-0.1919287372107996,-0.3695125090002705,-0.360533888243961,0.3423013848943109,-0.4385210272391135,-0.1259270191217592,-1.2273665353233627,-1.1909252417576368,-0.3815991633006164,-0.362611247243614,-0.1661286660481643,-0.5036473764077168,35.136002,-746.640015,-655.872009,-1120.0,-1960.0,-3080.0
0.2285703324065028,-0.2944162583239751,-0.1551863622331028,-0.5715034213196464,0.5358777866916141,0.2309813746229479,0.2858808628559474,0.2398954594954812,-1.235072462887265,-0.3431371144516889,-1.1804681431693649,0.0795420931857779,-0.8927874763031755,-0.7950961134708275,0.5727135318810848,0.5878745204357114,34.16,-752.007996,-657.824036,-1260.0,-1960.0,-3080.0
0.2208658412978952,0.1863014885464165,0.2349981182852089,0.3361112366686749,0.5228084773081912,0.3604522180749077,0.3699943916046,0.224683590808406,-0.5730616548625161,-0.2286019799127112,-0.0984127766568552,1.012563751714715,-0.2968546942144578,-0.2849450901346855,0.6746935840389099,0.7259803328684188,34.647999,-750.05603,-653.919983,-1120.0,-1960.0,-2660.0
-0.039077493318898,0.3477880467742205,0.4772733094324389,1.0364218455586065,0.0396505498534699,0.0511909205615867,-0.0013310526232583,0.1208051265707332,0.7148086654999866,0.0437349255700376,0.7532012195345292,0.385576204961694,0.5743661145998101,0.1984101742865502,-0.3213964290319056,-0.5521960483872713,35.136002,-749.567993,-656.848022,-1260.0,-1680.0,-2520.0
0.1414143370225698,0.3603752847526856,0.0804545380412353,0.6873377735363869,-0.3086748388448997,-0.1798156800023104,-0.2205095930601507,-0.293518251563559,1.0770585916223128,0.2871108469601933,0.7766714880343285,-0.6611345345546783,0.6175627790070146,0.1197791948081726,-1.2177188190586048,-1.3262821042435249,36.600002,-751.52002,-652.455994,-1260.0,-1680.0,-2380.0
0.4072622719163047,0.1347265348248409,-0.6904897130677926,-0.4434214138744067,-0.464319851223867,-0.2326907510312744,-0.200602486351316,-0.8117880236691121,0.0930454898571611,0.2234567883008492,0.2406160320917802,-0.5953932456553769,-0.2248659188540265,-0.1285317246604054,-0.8192085778173296,-0.2946085827374112,36.112,-751.031982,-653.432007,-980.0,-2100.0,-1960.0
-0.0578778713294413,-0.4573934129875795,-0.9756343918148652,-1.217151993959248,-0.4833082606790168,-0.2465978775873337,-0.1746851518373492,-0.7750513687448364,-1.0331640095330052,-0.2614094611112101,-0.3896567061617888,0.2530565197119296,-0.8984037241457067,-0.0777295896272375,0.4225087699044573,1.1533554679379543,34.16,-746.640015,-655.872009,-1120.0,-1820.0,-1820.0
-0.9548254479693804,-0.9094626354008256,-0.3286249110049447,-0.8646240362788383,-0.1318270150097751,-0.1255727943710076,-0.0985022514727705,0.0856006425920329,-0.9997102537110342,-0.762992222166144,-0.8127454025066173,0.4211799289253273,-0.5735732038238984,0.0921999081424398,1.0363749483075506,0.9618572636280414,35.136002,-751.031982,-652.944031,-840.0,-1680.0,-1540.0
-1.0057666628036726,-0.5073083649744722,0.6471932068425522,0.2101871880133453,0.4990903806696098,0.170796887768076,0.1224830383225724,1.0055748451001914,0.0332039034571021,-0.610159354260196,-0.7471941495173646,-0.3378049163784486,0.3248911710175069,-0.0098455371604561,0.4695514600593032,-0.5533772349774445,33.672001,-750.05603,-654.895996,-560.0,-1680.0,-1540.0
0.2351505423466486,0.5850128921413879,1.0092510558532313,0.99277203318799,0.7181383426860647,0.3277467850860971,0.2630459103549823,0.9830697284577428,0.8675279063844273,0.3524673487648677,0.0155615090311149,-0.6762771987660972,0.7817195317202099,-0.1921968435327243,-0.3144253325605147,-1.1687583347666912,32.208,-752.007996,-655.872009,-560.0,-1540.0,-1260.0
1.57797668509225,1.3313303859834986,0.6289193732021787,0.9811935690774156,0.2349532950985208,0.1958948973103092,0.187257527156836,0.1355751687147762,0.8845037672836095,1.376177325847614,1.1306127426622696,0.262157897462797,0.5605067152156957,0.0989654094938031,-0.2738455146490279,0.0329236508157179,32.695999,-752.007996,-657.335999,-420.0,-1820.0,-980.0
1.5548512782659427,0.998660794044156,0.1188378594963212,0.4394124633386609,-0.2243697203825149,0.1376943574136788,0.1817221760497946,-0.466399729563843,0.4868458817888733,1.3839952829915405,1.5652388111692754,1.3973327852429596,0.2604932579830549,0.7392778215780239,0.2891371795024938,1.3726252299059412,31.232,-750.05603,-653.919983,-280.0,-1540.0,-980.0
0.0624969292304734,-0.1433207851146697,-0.2622881285054362,-0.257995912951582,-0.0697676548061745,0.2862983576269793,0.3152303930525902,-0.3888395594873232,0.0296134420629957,0.0362286691543382,0.4980703892951819,1.0378038534577068,0.1011868869261696,0.732677340281175,0.2563427619074522,0.9335477608665804,35.624001,-750.544006,-655.384033,-140.0,-1680.0,-980.0
-1.6322564385593683,-1.2742713707370197,-0.8249791863374795,-0.9507938218756924,0.052253788754188,0.0318862160366897,0.0106319754055493,-0.3443099997623782,-0.6935795783891221,-1.7170700376307442,-1.4614873159331645,-0.7879842480496247,-0.4369152035361581,-0.4530734505024675,-0.5974453148249138,-0.8498539450845405,31.232,-749.080017,-656.848022,140.0,-1540.0,-840.0
-2.121285400553167,-1.655322649533785,-1.3714273621902398,-1.288934001687678,-0.6155998138559826,-0.906183561571121,-0.9290375461385716,-0.7208486591494048,-1.496204405410044,-2.2549161190710194,-2.4035508425026526,-2.134247470059695,-1.3604875807809382,-1.727766945815711,-1.1232129354865734,-1.8237908464008528,31.720001,-749.567993,-655.384033,420.0,-1540.0,-840.0
-0.9108894066999424,-0.8690386817639277,-0.8868204203182144,-0.6981678942583627,-1.237672825977162,-1.4090498333190733,-1.37414612181003,-0.6297861606099693,-1.2944668334120584,-0.787896141850673,-1.0431421005795904,-1.3991073039769697,-1.449468389961909,-1.3701931647445131,-0.3214213700875656,-0.8575843809449509,31.232,-751.52002,-656.359985,280.0,-1680.0,-840.0
1.21891524966791,0.8292147078714392,0.8973813064551758,0.7364188791657927,-0.3208844695467623,-0.2264494156783608,-0.1662218856947618,0.6149223453803326,0.4586308893178055,1.5891292774431682,1.545489388339108,0.7649139521558234,0.2020893972016904,0.6891297982325452,1.1369037921167526,0.9470926363288118,30.743999,-748.104004,-654.895996,280.0,-1680.0,-980.0
2.57048429312077,2.195012772976807,2.352336179652772,1.8048551788788467,1.6422017403455926,1.78191735725312,1.7669289771130017,1.832193907555621,2.3342568093206544,2.672085746855645,2.760422278698878,2.190895113777392,2.336125384167293,2.3586985254757518,1.5615731935356856,1.769909196108706,32.208,-753.471985,-654.40802,560.0,-1540.0,-980.0
1.781066100388224,1.806619946874285,1.6103074833952151,1.334090387814713,2.1814525967150478,2.16316229114365,2.048214815842344,1.235580245059344,2.1713947506496503,1.3729071373707569,1.3286663521867308,1.5999475093152882,2.496631986122821,1.7309739177931738,0.3705991824707591,1.0478360255776311,29.768,-751.031982,-654.895996,280.0,-1400.0,-980.0
-0.678406214604411,-0.2597712927927173,-0.7893680300043346,-0.2871356332827149,0.2338061602833143,0.1437043394025308,0.0501585688126158,-0.8184909041248212,-0.1432590219290229,-0.9997565761966192,-1.1860986726426157,-0.1951488274989876,0.1121933067384844,-0.5610423132490705,-1.1080487838172903,-0.3332079081750361,28.792,-752.496033,-654.895996,420.0,-1400.0,-1120.0
-2.5539289269889305,-2.101573427148389,-2.237913231886206,-1.4543842538235072,-1.989123291632888,-1.98638304556222,-1.92233726097634,-1.929137559470245,-2.252819296763004,-2.1451814751771168,-2.2285600998849624,-1.4657052628124076,-2.457046435793881,-2.105379080718185,-1.2907784019225998,-1.2600224739551091,30.256001,-750.05603,-655.384033,420.0,-1540.0,-1120.0
-2.01865017362333,-1.982139878277116,-1.3500622191875151,-1.2785737785564455,-1.851017424371893,-1.7960021982641865,-1.61162954076981,-0.9049250971770672,-2.133643912666789,-1.3325631380089875,-1.1770274784418993,-1.4237409075011316,-2.618323923739383,-1.5958670658244685,-0.2621491181140974,-1.2845574497665508,29.768,-748.59198,-656.359985,280.0,-1540.0,-1400.0
0.2565201808884397,-0.2928986090024178,0.3611223812219057,-0.4293577500846493,0.0840063640104808,0.0641760122365343,0.1696205310865502,0.6029978512603995,-0.3696303241891481,0.0795363921058378,0.3484550818982912,-0.5962442741324671,-0.5258071740495701,-0.0379541442500696,0.5690479712739189,-0.5520849839471552,30.256001,-748.59198,-655.384033,840.0,-1540.0,-1400.0
1.8564991568498384,1.1318638086272217,0.8440347561442005,0.1759226864714682,1.07161768753605,1.039291353249996,0.9334002569016344,0.6705498376900827,1.0545449902885835,0.6967654148483058,0.886626649050394,0.2430169822875059,1.482668158431396,0.9809894507655796,0.4434916843963826,0.5147779398789153,34.16,-749.567993,-655.384033,700.0,-1540.0,-1400.0
1.4218391737280702,1.3048533749909104,0.3255809332917588,0.6284233886684119,0.2968770790495928,0.4071155635949912,0.1932258082862175,-0.0682971344092764,1.3304177007957414,0.7121177913734277,0.7244430302609529,0.8448782851089217,1.842326282536065,1.139592256262374,0.0332705956993588,1.2875950128435651,30.743999,-749.567993,-655.872009,700.0,-1540.0,-1680.0
-0.0225144092255062,0.7919919926535887,0.3965506579489202,1.271325106591887,-0.2318718248426966,-0.0735592829871619,-0.1679129884169154,0.2198349381336609,1.076414444803515,0.9152794392711768,0.7132431179282845,1.1516709472183204,1.019974227830427,0.9299306160615126,0.1292172165318309,1.1551287415863505,30.256001,-749.567993,-658.799988,980.0,-1820.0,-1680.0
-0.7214473207356193,0.2888000981589888,1.065517168821822,1.4348364832848572,0.7460014477664568,0.6530750467890164,0.7699873825754322,1.2464446388466135,0.6138968450805073,0.98090866951734,0.6108825953146674,0.8767532724988607,0.0502897383217928,0.3504664904704644,0.4145402179581222,0.1187558833924285,31.720001,-750.544006,-659.288025,980.0,-1820.0,-1680.0
-0.3682310415940157,-0.3223486330741237,0.6671250303874954,0.1727418044538657,1.4959324490899166,1.1317656096592497,1.323620754839712,0.8540509175709925,-0.429381051122486,-0.0083330843075918,-0.2984913110553828,-0.0793128319641205,-0.7873513717983788,-0.775716737659002,0.1480808490582494,-0.9571651604122215,30.256001,-749.080017,-656.848022,1260.0,-1960.0,-1680.0
-0.0024444496046013,-1.0955607725449057,-1.1474021826669427,-1.842568572618804,0.0528412052634644,-0.1514907452792563,-0.078245160748181,-1.293623637348671,-1.66560850104819,-1.589475895948084,-1.4758594229649344,-1.099213996810765,-1.3934641475247818,-1.633505051677445,-0.5024974765192348,-1.105300030155271,32.208,-751.031982,-658.312012,1120.0,-2100.0,-1540.0
-0.2474847681171396,-1.2768932238008668,-2.2597155313072426,-2.47904798921282,-2.305017819620448,-2.007426249020833,-2.0951053084054068,-2.534906476335514,-1.668559958374467,-1.9296984545667355,-1.4247550516696312,-1.3141141521851225,-1.1681668877728024,-1.006921370124623,-0.6751786978025163,-0.3343599498870134,34.16,-750.544006,-659.288025,1260.0,-2100.0,-1540.0
-0.5542846483181498,-0.3296233545815355,-0.972661972446405,-0.7503061143267243,-2.4630221085046773,-1.951726630965517,-2.0822251795115303,-0.8815162944648584,0.0034911610152815,-0.3104694001929429,0.1020037302631271,-0.5945515316691831,0.0950296003654667,0.7463610581787229,-0.1824449199199808,0.3920665884638653,31.720001,-749.080017,-657.824036,1120.0,-2240.0,-1680.0
-0.2231225688016301,0.9252388744999612,1.33811327800578,1.6824220655526123,0.1325029762951503,0.2428439836313631,0.1897857480416839,1.8452128577163465,1.6409078538220867,1.558437851196456,1.42789286829068,0.3563745675498811,1.3115630693140508,1.6219862641219005,0.2353173181500842,0.3939464625869758,37.088001,-746.152039,-655.872009,1400.0,-2100.0,-1540.0
0.5535079259507334,1.2027021635666484,1.9889156960104863,2.4200250957528087,2.5746045266173976,2.1480103110424267,2.1800057596710016,2.352246259374752,1.430343281138602,1.6442310502791668,1.136030339350372,0.910918125666812,1.216579159227189,0.573820489833564,0.1652973939090762,0.09488933935515,32.695999,-750.544006,-658.312012,1400.0,-2100.0,-1260.0
0.9929416571287564,0.4861921475575678,0.6243984308213203,1.0996040262067737,2.3164965938025057,1.8794509082357849,1.929820024231004,0.3658054170144527,-0.0466160470602563,0.2275372877831057,-0.035755402106622,1.0291158039430612,0.1052992079196754,-0.8775248078396088,0.1470461491721596,0.2351250049895762,30.743999,-749.567993,-658.312012,1260.0,-2380.0,-980.0
0.6619109522295068,-0.1417353000716026,-0.658454298077866,-0.6493845260619628,0.1356078267155007,0.174309718988235,0.2042367837192354,-1.3214101527456712,-0.7434721803222303,-0.7456158679083997,-0.457228535762805,0.7704387633720517,-0.5945458870288016,-0.7361515043922126,0.5665241190922525,0.608670677471746,33.184002,-749.567993,-660.263977,1400.0,-2240.0,-980.0
-0.1885140412790341,-0.2549654890323136,-0.5939046487288292,-1.5069347057344578,-1.5133742965076886,-1.1484566713077309,-1.1209282067468973,-1.0159674609968108,-0.192120495109888,-0.4963195739055987,-0.0606126256818179,-0.0472826565970806,-0.3954360065400672,0.5437379379391419,0.709965855370597,0.3016443496966427,30.743999,-749.567993,-658.799988,1260.0,-2240.0,-700.0
-0.958421927324626,-0.4843107750011839,-0.2243586726320454,-1.4893376971102126,-1.63054075950079,-1.421933145015193,-1.383805376773228,-0.0582231768312371,0.066193798668031,-0.1322691793618582,-0.1593358633083007,-1.220725770014755,-0.2092088481225216,0.7589915863430584,-0.1945636122880965,-0.7646055355416798,33.672001,-747.127991,-657.335999,1120.0,-1960.0,-420.0
-1.102490451045243,-0.9646765462306756,-0.5883871493529835,-0.8357176068079142,-0.9099763873449256,-1.0020755556334175,-0.9969037613598546,-0.0374077226747043,-0.7028938016380748,-0.442172140960384,-0.983029969086622,-1.7135638897386496,-0.5180096201399602,-0.607633413719493,-1.4112503192795296,-1.3415851965369625,32.208,-747.616028,-655.872009,980.0,-1960.0,-420.0
-0.4360815258630493,-0.7038557040411497,-0.7836033886161586,0.5719050318263057,0.0631377168301947,-0.0701034843555646,-0.1517147424504882,-0.2649430873304229,-1.0122016079552072,-0.5515275809307635,-1.0087773918847156,-0.672395036114131,-0.4243059957452839,-1.4439719560478113,-1.3030800315831006,-0.4545485893590995,32.695999,-748.104004,-659.776001,980.0,-1680.0,0.0
0.6290266792321498,0.6945761362948141,0.3057785241880087,2.079230362845542,1.1671019269830447,1.153911380372635,1.0220409249288502,0.4749388192270397,0.3591136206925273,0.3720880239450949,0.5854698025123887,1.180652822160245,0.6491351652823399,-0.1752291107896493,0.365565870283223,1.0492205197828894,33.184002,-750.544006,-658.799988,840.0,-1540.0,140.0
1.2603754829301757,1.7567240056020808,1.620708359473026,1.9709366270127069,1.6947262796862173,1.65866941733744,1.6138354010013132,1.2793523989600468,1.91080568760852,1.3148392496040446,2.125476339801756,1.99631366860482,1.4450478109066252,1.6650494675543523,1.770765760815718,1.4032854495692135,35.136002,-749.080017,-662.216003,700.0,-1540.0,280.0
0.9158647551031752,0.8998297005023626,1.1647977663127005,-0.3413667470060498,0.7222474161699203,0.5836934889269417,0.7191357196838859,0.4340619125159679,1.2733889748360003,0.7428767263676306,1.431936644523076,0.920050983525865,0.4766068635441018,1.475125920954507,1.255388495237078,0.2317801253224705,34.647999,-748.59198,-660.263977,840.0,-1540.0,420.0
-0.1155000767419928,-1.0708143028308108,-0.8020822506998169,-2.6413586777135065,-1.1530380153794233,-1.1639587177235182,-0.949757442998655,-1.352424074291737,-1.1057514354920013,-0.8594701758706015,-1.012284938665815,-0.8603634787772979,-1.3972629299135138,-0.6385378022734767,-0.5200035893529189,-0.9636106093520744,34.16,-748.104004,-660.263977,840.0,-1260.0,700.0
-1.0227143083432764,-1.7353818683145965,-1.778468076179026,-2.11670783223295,-1.8998987168847847,-1.599028499653483,-1.5363115355220822,-1.4862330924547964,-2.1973437393338933,-1.3952264960142209,-2.4064847851635007,-1.584413062283545,-1.6963325814742771,-1.9150031274155384,-1.47816091410054,-0.8537549831243919,31.232,-747.127991,-659.776001,700.0,-1260.0,980.0
-1.2085287714897472,-0.3422499945863074,-0.5425346237306301,0.8301143080323012,-0.598600010006088,-0.262109124482285,-0.4467575546610344,0.5034804705891326,-0.5707226662718577,-0.1557939861027595,-1.204738793183658,-0.8866157592300238,0.2047258564673165,-0.7641863854943957,-0.7690233038314293,0.0671388494575672,34.647999,-748.104004,-662.216003,420.0,-1260.0,1120.0
-0.5791713355718873,1.181958058905758,1.116678833972776,2.6858086681242788,1.185745880917787,1.0749719038936734,0.827007400427664,1.851065328422708,1.5736403546755946,1.123484648122584,1.0278873447157135,0.2406444728153366,1.938751672550321,1.166342453359984,0.4516456009313982,0.4871049410448293,32.208,-748.59198,-663.679993,560.0,-1680.0,1260.0
0.582725782341947,1.008658157952899,1.0795713465286956,1.293580170549727,1.4435238883983956,0.8629454138493552,0.820838085908427,0.5530414838127702,1.5376090340569937,0.8033270918183125,1.8549914739357776,0.9291822431000786,1.293006916432032,1.4496348191883863,0.8331782841556892,0.2048022211180868,34.16,-753.471985,-661.23999,420.0,-1260.0,1400.0
1.5868961056081885,-0.1997701010315872,-0.1722300351786285,-1.3458652476345434,0.2528953616318581,-0.2048464254212322,-0.0070565620064642,-1.5087149792974677,-0.2381746525890442,-0.3976917063392622,0.8965326904936864,1.0338413200850003,-0.8042511449477494,0.068198462547303,0.4007857714398171,0.0496463163188488,34.647999,-756.888,-657.824036,140.0,-1260.0,1260.0
1.4253074459292032,-0.6856533843376773,-0.7099958881952501,-1.913797796590546,-0.7750492307112403,-0.544302107392055,-0.3406878952800575,-1.3230039477066344,-1.2345896430918055,-0.7536803629387759,-0.4020692908112977,0.5242528121993609,-1.731077926989546,-1.0457571958358194,-0.0615466708949442,0.218563909887875,34.647999,-757.376038,-655.872009,420.0,-840.0,1120.0
-0.2872192314597983,-0.2591663840332717,-0.2057087445618536,-0.1941411427312971,-0.8647177522926088,-0.084582364887598,-0.0784449881165399,0.7063534022790785,-0.5891208519699049,-0.1518466793673493,-1.0279373725734218,-0.6020029669033992,-0.7558829132461647,-0.8441776119077643,-0.3170133913044344,-0.0351444201201334,36.600002,-750.544006,-655.872009,840.0,-840.0,980.0
-2.255212746242347,-0.0561849478499425,0.0228449233264222,1.131738005482201,-0.5374233855191187,0.0432494232381766,-0.0939869223984132,1.4546904568188646,0.2055259728563828,0.1293734527746275,-1.092439460770582,-1.572279464303823,0.4649051219349738,-0.0838535406716758,-0.5723634520107952,-0.8047169476129766,36.112,-749.567993,-651.968018,840.0,-420.0,700.0
-2.254032122926335,-0.2479570019094342,-0.3613002715154299,0.5834226039464324,-0.0837703749303189,-0.3065840670707349,-0.4059803050444281,-0.0636837280704214,0.1403085782988967,-0.1952501618960593,-0.6614648311862033,-1.1131387063547953,0.7021631011289798,0.3594345798860801,-0.5752330047412443,-0.867998834717983,33.672001,-746.152039,-654.40802,420.0,-420.0,560.0
0.297257158270695,0.1559669748375489,-0.1187521665794368,-0.3703338827865098,0.786813201355453,-0.0906408678763004,-0.098480942854798,-1.2600259494941828,0.1153336674239904,-0.0075084690770108,0.520888354025706,0.7812002790462035,0.616597518390146,0.6051110365791912,0.161525015520623,0.4966454322100405,37.576,-746.152039,-653.919983,-140.0,-840.0,280.0
3.0099103879031053,1.1083317304391886,1.074194413669778,-0.1060745820977093,1.563982886706434,0.8139693123118995,0.8202956385722562,-0.1617171206582073,0.8325044100426501,0.9738932639920366,1.8167401305233557,2.1578184690018274,0.901018420852984,0.8265841373156101,1.2178051928013227,1.8823281026746927,34.647999,-746.152039,-656.848022,-840.0,-1260.0,-140.0
2.8186693473374187,1.0126284683375533,1.4636159741892554,0.6002040508469544,0.8850318492609698,0.9687407447527612,0.973602485346783,1.4227839455971174,1.093892390491202,1.2264168875679984,1.6361287254063392,1.2564643354216638,0.6810405914351841,0.4744464306286602,1.2924162813237758,1.252188852557144,36.112,-747.127991,-657.824036,-1540.0,-2240.0,-280.0
-0.3695873198295532,-0.7068350493763994,-0.1851531751303643,0.1675666739069121,-1.2416145699780388,-0.3555389727528212,-0.2774044887683363,0.7685209857161795,-0.3014863624474672,-0.2906054886806369,-0.4487204454290825,-1.0427404005963516,-0.885370673917184,-0.6934962284503613,-0.1538419399287887,-1.132952069944586,35.624001,-748.104004,-660.752014,-2520.0,-3360.0,-420.0
-3.29370479950069,-2.075805603066806,-2.195597341876061,-0.978069265299212,-2.5256313302084727,-1.620892815506808,-1.4920026379271962,-1.395234395191132,-2.0825122066288104,-2.0838759220841028,-2.456009173043227,-2.128085266416396,-2.4680521397159394,-1.624529833767846,-1.853599401803826,-2.6234564751505527,36.112,-751.031982,-660.752014,-3080.0,-4060.0,-420.0
-2.9867981281309595,-1.0974632295568427,-1.9396960158263876,-1.038589219418312,-1.124187098214484,-1.0335999026242806,-1.0233537219207205,-1.8887297110887404,-1.811422723761824,-1.823671738466904,-2.083014242619236,-0.9817834905099648,-1.8116078930458648,-1.083077469856289,-1.958922375947699,-1.408957959612705,35.624001,-750.544006,-664.656006,-3080.0,-4200.0,-140.0
0.0056440808804937,1.1794817118788945,0.4531018599486205,0.2346516821129741,1.5504462545973876,0.7495903855811783,0.5678563723540182,0.1125115992584288,0.6039307418243015,0.4354574543813574,0.3597813589226458,0.7032238203041075,1.0092634072201137,0.5787350768466554,-0.1402929223215049,1.2208458399465172,34.16,-757.864014,-668.072021,-2660.0,-3920.0,-140.0
2.6433742780440483,1.941698013964114,2.2069530263389465,1.1560046621295406,2.418378484674728,1.492634681792434,1.3139593074159184,1.9045042864304496,2.4888559223223825,2.232686349045734,2.288723657664051,1.1101545448271544,3.169932437056686,1.724888352575199,1.9942203976517137,2.548093567776678,33.672001,-759.328003,-663.679993,-1260.0,-2380.0,-140.0
2.863839362070868,0.5632082090029346,1.6637556980773307,0.7543337396753922,0.798158617423706,0.587924746986138,0.6482139655160015,1.331562506052733,1.8409530567595,1.865709770215352,2.0017717919672893,0.6186404184312574,2.4013917656566504,1.4115968087787518,2.515520330374735,1.5736616799475087,31.232,-762.255981,-660.263977,840.0,-560.0,-280.0
1.0896185154999665,-0.7457554512888945,0.0810318489657991,0.0119007725261228,-0.9409076258417784,-0.3437409114292914,-0.1108511402114036,-0.3360278417633772,-0.3104076456807205,0.165705059884833,0.2938966109505138,0.5146448060151252,-0.421351326996427,0.1969905613415599,0.9172075705240392,-0.4040120430813865,36.600002,-757.864014,-656.848022,2520.0,980.0,-420.0
-1.1580589009393112,-0.4957374271880312,-0.7953850433482511,-0.1437973341209109,-0.993093693938352,-0.2370627158909862,-0.1343910465202513,-0.8578714546124613,-1.6788678563798491,-1.181068613668234,-1.1814033357499538,0.5403314928124814,-2.600387571365532,-0.968468022220366,-1.557420496878535,-1.7625502079036657,31.232,-755.424011,-656.848022,4060.0,2380.0,-560.0
-2.690548342789921,0.0122627596112161,-1.0784588892565592,-0.3620775162602207,-0.3918171866456401,-0.1206051403258241,-0.2672533492171006,-0.4130931590238893,-1.5386672446020648,-1.645587708611494,-1.7833090446932014,-0.5014864863886165,-2.5725886780231924,-1.636881572181892,-2.9001065647140307,-1.913294494321968,36.112,-755.424011,-655.384033,4340.0,2240.0,-840.0
-2.6074912862820656,-0.6834118852073748,-1.4598303424329735,-1.1813004887385312,-0.6492984111072853,-0.9313747843303288,-1.0967506939177682,-0.5451102029412243,-0.690025985932195,-1.4186618596935812,-1.515988339811002,-2.0694214679453573,-0.8047978747978225,-1.4551205987971716,-1.842417983320176,-0.9046080887527582,35.624001,-753.471985,-657.824036,4200.0,1960.0,-1120.0
-0.4510363449757094,-1.3741785164170426,-1.178315135559772,-1.310007943867436,-0.9338454787969126,-1.4110020110719463,-1.3601630122808763,-0.974789821125739,0.3138306887478286,-0.3079037642225115,-0.1803892574669196,-1.8991082429042117,1.3515083478315375,-0.0625521871847028,0.9310523003939738,0.8921708800118447,37.576,-751.52002,-657.335999,3640.0,560.0,-1540.0
2.579827789238355,-0.0809605505377831,0.7102728947629674,0.4791396862227109,0.3882090834877992,0.0448583129087608,0.2043543603099452,-0.0407548941615758,1.3498412846290515,1.5054836692617912,1.7890498177820489,0.6270498926883986,2.5581840109945726,1.8484318396755888,2.969971541335773,2.279217684911941,39.040001,-752.007996,-656.848022,2660.0,-560.0,-1820.0
3.691357571858913,2.209198192427585,2.7783100565679324,2.56180201292648,2.350579547886102,2.286788698579165,2.280469556511659,1.8906210477163088,1.6670996675390497,2.4341419797758754,2.559403669787584,2.872617111944113,1.838025441697457,2.370999720116474,2.2040412906248603,1.7337011738925991,39.040001,-746.640015,-656.359985,1540.0,-1960.0,-1680.0
1.334595853761181,2.330223105263961,2.326921074348978,1.9795400014795876,2.0868592742890124,2.3549561451707524,2.175558962488958,2.143815957528374,0.4559994324662762,1.0404495460495369,0.7787782783074036,2.1417565500068854,-0.5096931620222143,0.5384306399232478,-0.6628592134554658,-0.5849138595742424,38.063999,-746.152039,-660.752014,700.0,-2940.0,-1540.0
-2.3522811349583894,-0.3597494140700396,-0.6610545357458181,-1.108674188509575,-0.8036955356097923,-0.3154128403417114,-0.381029807862394,-0.2372142719275307,-1.3577460700127515,-1.466577592495045,-1.957233742497423,-0.6174685357710878,-2.3750401678299786,-1.8614952387340724,-2.539872935365107,-2.2403638625442466,39.040001,-745.176025,-653.432007,-420.0,-3640.0,-1120.0
-3.5060646846316432,-2.581533288853193,-2.8393721516963595,-2.9335583753919945,-2.978038947320478,-2.6711826117327613,-2.4789590485250974,-2.452629388891598,-1.612802866966029,-2.1564268249152385,-2.4277777915045635,-2.104331802468666,-1.689751423775324,-2.0898160724959363,-1.4250959424469545,-1.265183776215128,39.528,-745.664001,-652.455994,-1400.0,-3920.0,-420.0
-1.144102834651979,-1.6334069791651356,-1.829533701378535,-1.180916195107661,-1.7224807344312614,-1.997283498876759,-1.7925529126053503,-1.67965247930548,0.0611310854892317,-0.3372881048115211,-0.083213887097664,-1.1695778303471909,0.7640733458763695,-0.0681375980452798,1.031354123142915,0.997221780907418,37.088001,-747.127991,-655.872009,-2240.0,-3780.0,140.0
1.675199436423881,0.7783493758699289,0.5667480900635172,1.5891918108761196,1.1896669027502689,0.5053149444300251,0.4199214530190063,0.78056876444346,1.260106517833791,1.2194778941647928,1.837175897453197,0.07138846308696,1.8152239565610315,1.380967565799086,1.533350975140461,1.4207478486352507,28.304001,-741.76001,-651.47998,-2940.0,-3500.0,1260.0
1.920404729914032,1.2269346461597543,1.1683074076395688,1.5964851648580871,1.9838092188890124,1.6440354506380774,1.3507721664121994,1.4359362961962872,0.1359752110564672,0.2502004847642153,0.7245302790483394,-0.0755719842976756,0.0512822838669989,0.4634754767229041,-0.4538582024586037,-0.4986747921944663,29.768,-748.104004,-656.359985,-3640.0,-2800.0,1960.0
0.3043570342647035,-0.2868459223218148,0.0553415261864754,-0.6195887341717634,0.1806334359886654,0.6730235687596011,0.5468818533846008,-0.1494265545180114,-1.5581824975337502,-1.421695189175329,-1.4936820584669286,-0.3256279430714423,-1.8759362040065315,-1.0069347452602713,-1.826033037986304,-1.6787759591608449,29.768,-752.007996,-658.799988,-4340.0,-1960.0,2520.0
-0.424659360448198,-0.6315967562493572,-0.0343980916767954,-1.193178900369314,-1.0709991841266868,-0.2455224500650777,-0.0424805292625703,-0.8828776758723612,-0.7549813854666849,-0.4768812319701165,-1.0480623907362667,1.0028298681664365,-0.7390167918080586,-0.3573998378132808,-0.1193489190109693,0.1258897900066705,30.256001,-752.496033,-660.752014,-4900.0,-840.0,3080.0
0.260254444072179,1.2051606842806055,1.48368563632908,0.9211588156404636,0.058192221866139,0.2204709641479423,0.4895783084093233,0.7610653060652838,2.101057809991719,2.4921607054471537,1.8717123981617516,2.528491319843841,2.345821396378277,1.7284831129675675,2.69563984737969,2.646751273443692,29.768,-752.984009,-663.192017,-4900.0,-420.0,3220.0
0.3203418910699198,2.190127932084106,1.7621004735973085,2.142843573468479,1.4129266045400752,0.6570037675018041,0.6654597726202266,2.076075795489778,3.002955669791969,3.0766962531698545,2.894109536915454,1.388811476089846,2.901928139903736,1.917110618575666,2.4869844379901718,1.931255355834112,26.352001,-753.960022,-662.703979,-4900.0,420.0,3500.0
-1.052450589648151,-0.0999470841130231,-0.8871436110107233,-0.1479956523035996,0.397911952517812,-0.4019054132381062,-0.6259222606182755,0.287022107072259,-0.0792910137401512,-0.6545659819574293,-0.2613660452407401,-2.084392871089536,-0.6499176859651201,-0.8327109577751319,-1.2943147764669594,-1.8323540958132305,26.84,-752.007996,-665.632019,-4620.0,840.0,3500.0
-1.7558048866822764,-3.258482236539692,-3.5977745125204974,-3.1194568063260584,-1.8367999273463356,-1.7328955076926622,-1.8867109851117447,-2.760289770692946,-3.792695042225484,-4.590179319733948,-3.9559394135168304,-3.879181666450453,-4.1619841230300185,-3.274691456756432,-4.261848249904443,-3.932490970551455,28.792,-751.031982,-667.096008,-3640.0,1400.0,3640.0
-0.1036016341318688,-2.973730518921827,-2.48527300340859,-2.3099404054045367,-2.0052867230618445,-1.149120163205534,-1.0744015143366892,-2.835128282052003,-3.4364083297272674,-3.545849895041308,-3.215448849515647,-1.471915182362277,-2.936721004043784,-2.064241336138293,-2.4939165505375773,-1.342246016395828,29.280001,-749.567993,-668.559998,-2940.0,1680.0,3500.0
2.0488049260814294,0.8576820482931055,1.6528223013527268,1.6515739369014244,0.3848618343364287,0.9698360582545263,1.1185628587396383,0.5449035086649335,0.7807948164206866,1.6353218818301063,1.3980716533851183,2.4839323211701947,1.8247195022128424,1.581005647748562,2.223655019707232,2.919023070021255,27.328001,-750.05603,-665.143982,-2100.0,1820.0,3220.0
1.6604016963358617,3.7207634780717633,3.956477416209141,3.5985893997561376,2.245759330417778,1.954193154090966,1.9722009770849545,3.216164041893121,3.909890126260152,4.850899209526281,4.340267564355032,3.4254151191544118,4.34026234054228,3.348242543492967,4.416967474336075,3.5852735859472817,28.304001,-752.496033,-666.608032,-1400.0,1540.0,2940.0
-0.8615019777900266,2.431953532206917,1.8842341647986889,1.0981312134569583,1.3535462008640469,0.6573055127409589,0.5678703248954188,2.107805453911729,2.636546290896578,2.58905527944561,2.358688598883244,0.7386071968790356,1.7794372205012827,1.4264994623060996,1.735052177894985,0.0913939395709001,28.304001,-753.960022,-662.703979,-840.0,1400.0,2660.0
-1.940330227026277,-0.9695342262485056,-1.6300154500392008,-2.2284527784813206,-0.688530056447763,-0.9628764525165368,-0.9891522897821604,-0.8055350247318245,-0.8593734208492503,-1.8346902532070557,-1.6039594052007191,-1.843881458749729,-2.2365555026677355,-1.457148126548361,-2.3284461430513685,-2.860824588675545,25.864,-752.984009,-658.312012,140.0,1120.0,2100.0
-0.0513853934561514,-2.4678702697236528,-2.4853430192437407,-2.108533023502498,-1.150247627881197,-0.8432155737414513,-0.762162619078508,-1.823341540695094,-2.394394603720136,-3.1517311513645563,-2.867203019166973,-1.5361949440978135,-2.782355578750595,-2.014630552604789,-3.146783785348311,-1.779174819615848,27.816,-753.471985,-657.335999,700.0,560.0,1540.0
1.846047185499799,-1.2703940535704978,-0.7045054736418193,0.4520116721517312,-0.1131054751987599,0.2482551486319421,0.2969273976041672,-0.6850195504580661,-1.1867737093180948,-0.9238390055580052,-1.0312596904845233,0.1568943781047166,-0.0565054612615212,-0.5030011948620834,-0.6054722823713742,1.1699506845312095,27.328001,-751.031982,-657.335999,980.0,280.0,980.0
0.6330493257150402,0.2093055860915558,0.6081689797834308,1.3340794711757602,0.241915507392382,0.2472312587855513,0.1608587670582452,0.0293012090666145,0.1714399868014624,0.9765557527302878,0.6376991634089826,0.3813121327717728,1.6475796242886669,0.4898576074631509,1.567414291668927,1.6839688760463976,27.816,-751.52002,-656.359985,1260.0,-280.0,420.0
-2.0903837113084016,0.4597652453116611,0.237177048477651,-0.2605072949810511,-0.5875756623144965,-0.7805320983161387,-0.9034480956336884,-0.4700918534811876,0.125284215428563,0.4657672899119905,0.4750850931339866,-0.6997126147905058,0.3454908865244959,0.0911644783049175,1.133205242813623,-0.5381983359898291,27.816,-754.447998,-653.919983,1260.0,-560.0,-140.0
-2.049937606689409,0.4557716254281306,0.0137645959175073,-1.0673621325016405,-0.7304484252795564,-0.7692408605062421,-0.757008000136868,-0.2246690779247344,-0.0074155027037499,-0.3422065817771133,0.1544574841998675,-0.5742470270968258,-1.2312234064574423,-0.0887788211406197,-0.2419333135024395,-1.751435710713382,31.720001,-751.52002,-655.384033,840.0,-1260.0,-840.0
1.331853050465604,1.0281966021031792,1.015968615489543,0.5761140043645645,0.7100222378492689,0.8554358692085716,1.0093134226663478,1.4917650961274247,0.9963739363451084,0.6590411246863384,1.0205994831491352,1.291283543430745,-0.2562140608536015,0.8881382799428047,-0.2165041018039619,0.0902449213613469,31.232,-753.471985,-653.919983,420.0,-1820.0,-1260.0
3.57034653095318,1.0469334190422317,1.422560385489962,1.8996745912250304,1.80595975452713,1.8779686928597703,1.9942712149092927,2.1949268079044586,1.7420342639235933,1.848076777703881,1.5022748079897323,2.239281896214745,1.7742075208413912,1.466153235890442,0.683387513851827,2.2865783228612555,32.695999,-750.544006,-656.359985,140.0,-2240.0,-1540.0
