Interval=	0.001 s
ExcelDateTime=	4.5785659264868620e+004	5/8/2025 15:49:20.484648
TimeFormat=	StartOfBlock
DateFormat=	
ChannelTitle=	Channel 2	Channel 3	Channel 4	Channel 5	Channel 6	Channel 7	Channel 8	Channel 9
Range=	112.50 mV	112.50 mV	112.50 mV	112.50 mV	112.50 mV	112.50 mV	112.50 mV	112.50 mV
0	0.1974676	0.2030369	0.197556	0.1562351	0.2212418	0.1066911	0.1710415	0.1380281
0.001	0.1974676	0.2030369	0.197556	0.1562351	0.2212418	0.1066911	0.1710415	0.1380281
0.002	0.1974676	0.2030369	0.197556	0.1562351	0.2212418	0.1066911	0.1710415	0.1380281
0.003	0.1974676	0.2030369	0.197556	0.1562351	0.2212418	0.1066911	0.1710415	0.1380281
0.004	0.1974676	0.2030369	0.197556	0.1562351	0.2212418	0.1066911	0.1710415	0.1380281
0.005	0.1974676	0.2030369	0.197556	0.1562351	0.2212418	0.1066911	0.1710415	0.1380281
0.006	0.1974676	0.2030369	0.197556	0.1562351	0.2212418	0.1066911	0.1710415	0.1380281
0.007	0.1974676	0.2030369	0.197556	0.1562351	0.2212418	0.1066911	0.1710415	0.1380281
0.008	0.1974676	0.2030369	0.197556	0.1562351	0.2212418	0.1066911	0.1710415	0.1380281
0.009	0.1974676	0.2030369	0.197556	0.1562351	0.2212418	0.1066911	0.1710415	0.1380281
0.01	0.1974676	0.2030369	0.197556	0.1562351	0.2212418	0.1066911	0.1710415	0.1380281
0.011	0.1974676	0.2030369	0.197556	0.1562351	0.2212418	0.1066911	0.1710415	0.1380281
0.012	0.1974676	0.2030369	0.197556	0.1562351	0.2212418	0.1066911	0.1710415	0.1380281
0.013	0.1974676	0.2030369	0.197556	0.1562351	0.2212418	0.1066911	0.1710415	0.1380281
0.014	0.1974676	0.2030369	0.197556	0.1562351	0.2212418	0.1066911	0.1710415	0.1380281
0.015	0.1974676	0.2030369	0.197556	0.1562351	0.2212418	0.1066911	0.1710415	0.1380281
0.016	0.1974676	0.2030369	0.197556	0.1562351	0.2212418	0.1066911	0.1710415	0.1380281
0.017	0.1974676	0.2030369	0.197556	0.1562351	0.2212418	0.1066911	0.1710415	0.1380281
0.018	0.1974676	0.2030369	0.197556	0.1562351	0.2212418	0.1066911	0.1710415	0.1380281
0.019	0.1974676	0.2030369	0.197556	0.1562351	0.2212418	0.1066911	0.1710415	0.1380281
0.02	0.1974676	0.2030369	0.197556	0.1562351	0.2212418	0.1066911	0.1710415	0.1380281
0.021	0.1974676	0.2030369	0.197556	0.1562351	0.2212418	0.1066911	0.1710415	0.1380281
0.022	0.1974676	0.2030369	0.197556	0.1562351	0.2212418	0.1066911	0.1710415	0.1380281
0.023	0.1974676	0.2030369	0.197556	0.1562351	0.2212418	0.1066911	0.1710415	0.1380281
0.024	0.1974676	0.2030369	0.197556	0.1562351	0.2212418	0.1066911	0.1710415	0.1380281
0.025	0.1974676	0.2030369	0.197556	0.1562351	0.2212418	0.1066911	0.1710415	0.1380281
0.026	0.1974676	0.2030369	0.197556	0.1562351	0.2212418	0.1066911	0.1710415	0.1380281
0.027	0.1974676	0.2030369	0.197556	0.1562351	0.2212418	0.1066911	0.1710415	0.1380281
0.028	0.1974676	0.2030369	0.197556	0.1562351	0.2212418	0.1066911	0.1710415	0.1380281
0.029	0.1974676	0.2030369	0.197556	0.1562351	0.2212418	0.1066911	0.1710415	0.1380281
0.03	0.1974676	0.2030369	0.197556	0.1562351	0.2212418	0.1066911	0.1710415	0.1380281
0.031	0.1974676	0.2030369	0.197556	0.1562351	0.2212418	0.1066911	0.1710415	0.1380281
0.032	0.1974676	0.2030369	0.197556	0.1562351	0.2212418	0.1066911	0.1710415	0.1380281
0.033	0.1974676	0.2030369	0.197556	0.1562351	0.2212418	0.1066911	0.1710415	0.1380281
0.034	0.1974676	0.2030369	0.197556	0.1562351	0.2212418	0.1066911	0.1710415	0.1380281
0.035	0.1974676	0.2030369	0.197556	0.1562351	0.2212418	0.1066911	0.1710415	0.1380281
0.036	0.1974676	0.2030369	0.197556	0.1562351	0.2212418	0.1066911	0.1710415	0.1380281
0.037	0.1974676	0.2030369	0.197556	0.1562351	0.2212418	0.1066911	0.1710415	0.1380281
0.038	0.1974676	0.2030369	0.197556	0.1562351	0.2212418	0.1066911	0.1710415	0.1380281
0.039	0.1974676	0.2030369	0.197556	0.1562351	0.2212418	0.1066911	0.1710415	0.1380281
0.04	0.1974676	0.2030369	0.197556	0.1562351	0.2212418	0.1066911	0.1710415	0.1380281
0.041	0.1974676	0.2030369	0.197556	0.1562351	0.2212418	0.1066911	0.1710415	0.1380281
0.042	0.1974676	0.2030369	0.197556	0.1562351	0.2212418	0.1066911	0.1710415	0.1380281
0.043	0.1974676	0.2030369	0.197556	0.1562351	0.2212418	0.1066911	0.1710415	0.1380281
0.044	0.1974676	0.2030369	0.197556	0.1562351	0.2212418	0.1066911	0.1710415	0.1380281
0.045	0.1974676	0.2030369	0.197556	0.1562351	0.2212418	0.1066911	0.1710415	0.1380281
0.046	0.1974676	0.2030369	0.197556	0.1562351	0.2212418	0.1066911	0.1710415	0.1380281
0.047	0.1974676	0.2030369	0.197556	0.1562351	0.2212418	0.1066911	0.1710415	0.1380281
0.048	0.1974676	0.2030369	0.197556	0.1562351	0.2212418	0.1066911	0.1710415	0.1380281
0.049	0.1974676	0.2030369	0.197556	0.1562351	0.2212418	0.1066911	0.1710415	0.1380281
0.05	0.1974676	0.2030369	0.197556	0.1562351	0.2212418	0.1066911	0.1710415	0.1380281
0.051	0.1974676	0.2030369	0.197556	0.1562351	0.2212418	0.1066911	0.1710415	0.1380281
0.052	0.1974676	0.2030369	0.197556	0.1562351	0.2212418	0.1066911	0.1710415	0.1380281
0.053	0.1974676	0.2030369	0.197556	0.1562351	0.2212418	0.1066911	0.1710415	0.1380281
0.054	0.1974676	0.2030369	0.197556	0.1562351	0.2212418	0.1066911	0.1710415	0.1380281
0.055	0.1974676	0.2030369	0.197556	0.1562351	0.2212418	0.1066911	0.1710415	0.1380281
0.056	0.1974676	0.2030369	0.197556	0.1562351	0.2212418	0.1066911	0.1710415	0.1380281
0.057	0.1974676	0.2030369	0.197556	0.1562351	0.2212418	0.1066911	0.1710415	0.1380281
0.058	0.1974676	0.2030369	0.197556	0.1562351	0.2212418	0.1066911	0.1710415	0.1380281
0.059	0.1974676	0.2030369	0.197556	0.1562351	0.2212418	0.1066911	0.1710415	0.1380281
0.06	0.1974676	0.2030369	0.197556	0.1562351	0.2212418	0.1066911	0.1710415	0.1380281
0.061	0.1974676	0.2030369	0.197556	0.1562351	0.2212418	0.1066911	0.1710415	0.1380281
0.062	0.1974676	0.2030369	0.197556	0.1562351	0.2212418	0.1066911	0.1710415	0.1380281
0.063	0.1974676	0.2030369	0.197556	0.1562351	0.2212418	0.1066911	0.1710415	0.1380281
0.064	0.1974676	0.2030369	0.197556	0.1562351	0.2212418	0.1066911	0.1710415	0.1380281
0.065	0.1974676	0.2030369	0.197556	0.1562351	0.2212418	0.1066911	0.1710415	0.1380281
0.066	0.1974676	0.2030369	0.197556	0.1562351	0.2212418	0.1066911	0.1710415	0.1380281
0.067	0.1974676	0.2030369	0.197556	0.1562351	0.2212418	0.1066911	0.1710415	0.1380281
0.068	0.1974676	0.2030369	0.197556	0.1562351	0.2212418	0.1066911	0.1710415	0.1380281
0.069	0.1974676	0.2030369	0.197556	0.1562351	0.2212418	0.1066911	0.1710415	0.1380281
0.07	0.1974676	0.2030369	0.197556	0.1562351	0.2212418	0.1066911	0.1710415	0.1380281
0.071	0.1974676	0.2030369	0.197556	0.1562351	0.2212418	0.1066911	0.1710415	0.1380281
0.072	0.1974676	0.2030369	0.197556	0.1562351	0.2212418	0.1066911	0.1710415	0.1380281
0.073	0.1974676	0.2030369	0.197556	0.1562351	0.2212418	0.1066911	0.1710415	0.1380281
0.074	0.1974676	0.2030369	0.197556	0.1562351	0.2212418	0.1066911	0.1710415	0.1380281
0.075	0.1974676	0.2030369	0.197556	0.1562351	0.2212418	0.1066911	0.1710415	0.1380281
0.076	0.1974676	0.2030369	0.197556	0.1562351	0.2212418	0.1066911	0.1710415	0.1380281
0.077	0.1974676	0.2030369	0.197556	0.1562351	0.2212418	0.1066911	0.1710415	0.1380281
0.078	0.1974676	0.2030369	0.197556	0.1562351	0.2212418	0.1066911	0.1710415	0.1380281
0.079	0.1974676	0.2030369	0.197556	0.1562351	0.2212418	0.1066911	0.1710415	0.1380281
0.08	0.1974676	0.2030369	0.197556	0.1562351	0.2212418	0.1066911	0.1710415	0.1380281
0.081	0.1974676	0.2030369	0.197556	0.1562351	0.2212418	0.1066911	0.1710415	0.1380281
0.082	0.1974676	0.2030369	0.197556	0.1562351	0.2212418	0.1066911	0.1710415	0.1380281
0.083	0.1974676	0.2030369	0.197556	0.1562351	0.2212418	0.1066911	0.1710415	0.1380281
0.084	0.1974676	0.2030369	0.197556	0.1562351	0.2212418	0.1066911	0.1710415	0.1380281
0.085	0.1974676	0.2030369	0.197556	0.1562351	0.2212418	0.1066911	0.1710415	0.1380281
0.086	0.1974676	0.2030369	0.197556	0.1562351	0.2212418	0.1066911	0.1710415	0.1380281
0.087	0.1974676	0.2030369	0.197556	0.1562351	0.2212418	0.1066911	0.1710415	0.1380281
0.088	0.05190114	0.05232432	0.05771518	0.00532349	0.07197102	-0.03080012	0.0263253	-0.01530245
0.089	-0.2255659	-0.2300649	-0.2094915	-0.2659682	-0.2211581	-0.2623201	-0.2360428	-0.2855984
0.09	-0.5954886	-0.6040679	-0.5660578	-0.619253	-0.616689	-0.555096	-0.5789542	-0.634521
0.091	-1.005376	-1.016732	-0.961381	-1.004626	-1.058635	-0.8677879	-0.9539098	-1.012713
0.092	-1.397366	-1.409938	-1.339661	-1.367906	-1.484624	-1.156468	-1.308046	-1.366943
0.093	-1.716574	-1.728757	-1.647951	-1.658392	-1.834903	-1.380889	-1.591728	-1.647705
0.094	-1.918828	-1.929159	-1.843623	-1.835978	-2.060811	-1.510118	-1.765561	-1.816141
0.095	-1.976652	-1.98396	-1.900153	-1.876573	-2.131455	-1.526695	-1.805782	-1.84929
0.096	-1.882774	-1.886284	-1.810504	-1.775186	-2.037727	-1.428857	-1.707347	-1.743036
0.097	-1.650827	-1.650222	-1.587799	-1.546379	-1.793263	-1.230598	-1.484414	-1.512482
0.098	-1.313264	-1.308721	-1.263311	-1.222124	-1.432331	-0.9596421	-1.16824	-1.189754
0.099	-0.9169225	-0.9091194	-0.8821717	-0.8474716	-1.005102	-0.6536808	-0.8028881	-0.8196529
0.1	-0.5168079	-0.5068838	-0.4973691	-0.4745625	-0.5709384	-0.3553607	-0.4393245	-0.4536767
0.101	-0.1688014	-0.1582571	-0.1627258	-0.1556831	-0.1904988	-0.1065794	-0.1285814	-0.1431136
0.102	0.07789303	0.08736983	0.07436858	0.06386524	0.08246396	0.05724482	0.08521137	0.06798797
0.103	0.1876533	0.1944354	0.1795972	0.1521882	0.2086191	0.1122133	0.1710686	0.149086
0.104	0.143765	0.1465739	0.1368358	0.09562572	0.1688955	0.04958881	0.1158037	0.08775764
0.105	-0.04867444	-0.0504968	-0.04904696	-0.09880155	-0.03226471	-0.1225601	-0.07364874	-0.1080893
0.106	-0.3629757	-0.3692827	-0.3523838	-0.4039473	-0.3669926	-0.380171	-0.3708244	-0.4109746
0.107	-0.7544041	-0.764209	-0.7300992	-0.7762257	-0.787669	-0.6864933	-0.7333384	-0.777634
0.108	-1.166682	-1.178302	-1.127955	-1.162003	-1.23382	-0.9974854	-1.109099	-1.155374
0.109	-1.540499	-1.551856	-1.488745	-1.505741	-1.641243	-1.268491	-1.444191	-1.49003
0.11	-1.822576	-1.831595	-1.761046	-1.758488	-1.951821	-1.461048	-1.691095	-1.734166
0.111	-1.973663	-1.978676	-1.906964	-1.885205	-2.122275	-1.548619	-1.815764	-1.85409
0.112	-1.974054	-1.974105	-1.907486	-1.869634	-2.130279	-1.520239	-1.802335	-1.834465
0.113	-1.825808	-1.820805	-1.764646	-1.716019	-1.977039	-1.381592	-1.654802	-1.679912
0.114	-1.551548	-1.542225	-1.500355	-1.447632	-1.686137	-1.153512	-1.395596	-1.413557
0.115	-1.190379	-1.178114	-1.15243	-1.10267	-1.29921	-0.8684255	-1.061631	-1.073072
0.116	-0.7919961	-0.778532	-0.7688541	-0.7285437	-0.8696098	-0.5655618	-0.6988051	-0.7051563
0.117	-0.4100215	-0.3971896	-0.4013087	-0.3755719	-0.4552024	-0.285762	-0.355908	-0.3593816
0.118	-0.09548181	-0.08496505	-0.0988605	-0.09087483	-0.111302	-0.06651722	-0.07872873	-0.08216996
0.119	0.1090743	0.1158952	0.09768049	0.08704466	0.1156925	0.06237039	0.0951955	0.0886367
0.12	0.1745413	0.1766738	0.1604821	0.1328014	0.1936678	0.08230996	0.1409648	0.1283281
0.121	0.08916439	0.08605151	0.07837352	0.03757508	0.1090464	-0.01149312	0.04970631	0.02880064
0.122	-0.1389454	-0.1473877	-0.1407977	-0.1888044	-0.1304261	-0.2086459	-0.1693406	-0.1994156
0.123	-0.4813318	-0.4946779	-0.4697253	-0.5177256	-0.4950304	-0.4838321	-0.4886297	-0.5271803
0.124	-0.891428	-0.9087242	-0.8637639	-0.9042134	-0.9353053	-0.7991575	-0.8646019	-0.9093711
0.125	-1.310014	-1.329816	-1.266112	-1.292314	-1.387755	-1.108834	-1.242886	-1.29045
0.126	-1.673767	-1.694267	-1.615955	-1.623246	-1.783942	-1.365949	-1.566226	-1.612671
0.127	-1.925819	-1.945082	-1.858571	-1.845251	-2.061863	-1.530381	-1.784086	-1.825802
0.128	-2.02632	-2.042588	-1.955483	-1.923232	-2.177447	-1.576283	-1.862079	-1.896448
0.129	-1.960501	-1.972522	-1.892274	-1.845882	-2.113497	-1.497349	-1.788961	-1.814765
0.13	-1.742013	-1.749285	-1.681872	-1.6283	-1.883574	-1.308315	-1.579217	-1.596679
0.131	-1.410197	-1.413053	-1.362015	-1.308947	-1.529308	-1.041968	-1.270137	-1.280613
0.132	-1.021565	-1.021074	-0.9870983	-0.941365	-1.111377	-0.742109	-0.9137551	-0.9192072
0.133	-0.6374505	-0.6351228	-0.6162884	-0.5825342	-0.696192	-0.4541111	-0.5655121	-0.5679477
0.134	-0.3108972	-0.3082989	-0.3008488	-0.2807985	-0.3416342	-0.2154334	-0.272489	-0.2735189
0.135	-0.0762092	-0.07457295	-0.07400174	-0.06648135	-0.08556076	-0.04853696	-0.06426069	-0.06488429
0.136	0.05618566	0.05623062	0.05409012	0.05242939	0.05997468	0.04203047	0.05131701	0.05068936
0.137	0.09846495	0.09697452	0.09513463	0.08864993	0.1075397	0.06783872	0.08652891	0.08588847
0.138	0.07860969	0.07620348	0.07614651	0.06896048	0.08707582	0.05096047	0.06734869	0.0668475
0.139	0.03045781	0.02804223	0.02981767	0.024853	0.03515003	0.01644839	0.02435044	0.02411211
0.14	-0.01622524	-0.01779346	-0.01510521	-0.01658281	-0.01585344	-0.01475516	-0.01614153	-0.01610538
0.141	-0.0427474	-0.04294901	-0.04060572	-0.0388866	-0.04541541	-0.03044603	-0.03809865	-0.03786824
0.142	-0.04392182	-0.042728	-0.04174017	-0.03814575	-0.0476183	-0.02832318	-0.03765161	-0.03732269
0.143	-0.0259054	-0.02375623	-0.02451768	-0.02069392	-0.02888323	-0.01388835	-0.02086396	-0.02048169
0.144	-0.0009122329	0.001456676	-0.0007487965	0.001963591	-0.002282641	0.003690682	0.001171988	0.001625081
0.145	0.01892635	0.02074204	0.01791574	0.01885189	0.01910481	0.01603834	0.01783967	0.01839551
0.146	0.02628544	0.02699069	0.02454249	0.02376634	0.02732355	0.01873982	0.02308652	0.02371634
0.147	0.02054195	0.01996131	0.01870589	0.01680503	0.02161494	0.01233044	0.01690182	0.01746613
0.148	0.006709794	0.005082363	0.005388101	0.003152435	0.007282311	0.00116377	0.004152386	0.004416382
0.149	-0.007679071	-0.009800054	-0.008099602	-0.009973573	-0.007667201	-0.009062086	-0.008334284	-0.008612586
0.15	-0.0161639	-0.01810362	-0.01561574	-0.01669997	-0.01638721	-0.01391797	-0.01498756	-0.01592888
0.151	-0.01589922	-0.01707896	-0.0146275	-0.01479412	-0.01591884	-0.01192386	-0.01366725	-0.01516258
0.152	-0.00828964	-0.008398206	-0.00675007	-0.006103103	-0.007844883	-0.004753423	-0.006063521	-0.007744658
0.153	0.002247235	0.003176803	0.003544983	0.004767766	0.003074065	0.003896584	0.003574162	0.00225187
0.154	0.0106027	0.01222724	0.01125779	0.0127602	0.01142284	0.01012758	0.01061747	0.01019596
0.155	0.01329422	0.01508705	0.01313338	0.01459798	0.01361817	0.01152561	0.01213987	0.01294417
0.156	0.009758522	0.01118235	0.008879955	0.009984043	0.009261146	0.007997706	0.007991913	0.009964615
0.157	0.00222547	0.002893097	0.0009573663	0.001404939	0.0009368544	0.001528398	0.0005515295	0.003210607
0.158	-0.005585145	-0.00580708	-0.006798222	-0.007206884	-0.007253686	-0.004896859	-0.006582048	-0.004029615
0.159	-0.01025566	-0.01122896	-0.01100141	-0.01227862	-0.01166452	-0.008662825	-0.01028542	-0.008700932
0.16	-0.01012223	-0.01150104	-0.01015517	-0.01205806	-0.01066805	-0.008575237	-0.009229052	-0.009247033
0.161	-0.005794301	-0.007146691	-0.005116075	-0.007153306	-0.00517032	-0.005185089	-0.004287241	-0.006069918
0.162	0.0003885676	-0.0005563003	0.001529924	-1.352225e-005	0.002047678	-0.0003239338	0.002060749	-0.001076095
0.163	0.005568142	0.005252318	0.006762092	0.006278726	0.007717421	0.003824553	0.006944677	0.003347122
0.164	0.007668131	0.007993247	0.008481895	0.009343766	0.009545756	0.005687017	0.008375569	0.005431326
0.165	0.006212969	0.007002188	0.00634093	0.008404061	0.007121951	0.004888663	0.006031492	0.004720094
0.166	0.002334248	0.003298668	0.001707688	0.004394255	0.001900804	0.002236955	0.001240939	0.002075363
0.167	-0.001928269	-0.001085592	-0.003110677	-0.0006494322	-0.003614232	-0.0007972555	-0.003735176	-0.0009028548
0.168	-0.004640797	-0.004130964	-0.00597488	-0.004573868	-0.007053248	-0.002815205	-0.006751336	-0.002712827
0.169	-0.004818557	-0.00471328	-0.005829933	-0.006005955	-0.007174581	-0.003089181	-0.006671878	-0.002633598
0.17	-0.002759833	-0.002992895	-0.003066896	-0.004815235	-0.004283889	-0.001799458	-0.003768118	-0.0009792731
0.171	0.0002461596	-0.0001697929	0.0007954196	-0.001979091	6.695801e-005	0.0001747586	0.0005230429	0.001169516
0.172	0.002641869	0.00221335	0.003907766	0.001014142	0.0038954	0.001759289	0.004318629	0.002578481
0.173	0.003345576	0.003023282	0.004934657	0.002870404	0.005670297	0.002199033	0.006103077	0.002470319
0.174	0.002211054	0.002026632	0.003601622	0.003018772	0.004910175	0.001375279	0.005319188	0.0008802972
0.175	5.047569e-006	-8.875126e-005	0.0007186136	0.001747309	0.002260751	-0.0002043827	0.002502886	-0.001400816
0.176	-0.002048096	-0.002130394	-0.00228381	-6.541669e-005	-0.0009276166	-0.001707155	-0.001049952	-0.003243364
0.177	-0.002902981	-0.003027536	-0.004057501	-0.001449999	-0.003278497	-0.002401863	-0.003895698	-0.003738393
0.178	-0.002186523	-0.002340389	-0.003929344	-0.001806025	-0.003979843	-0.001990759	-0.005037246	-0.002618682
0.179	-0.0003285487	-0.0004277903	-0.00213022	-0.001121397	-0.003040551	-0.0007065043	-0.004257983	-0.0003583834
0.18	0.001678511	0.001749668	0.000379471	8.943375e-005	-0.0011739	0.0008239567	-0.002118377	0.002051443
0.181	0.002793932	0.003118848	0.002412447	0.001106241	0.0006338539	0.001901432	0.0003809016	0.003570177
0.182	0.002439771	0.00300927	0.003111917	0.001382865	0.001615781	0.002080306	0.002265014	0.003575721
0.183	0.0007610886	0.001447081	0.002301468	0.0007941411	0.001533307	0.001343537	0.002962723	0.002114383
0.184	-0.001457918	-0.0008749872	0.0005023588	-0.0003363049	0.0007009085	7.642704e-005	0.002465989	-0.0001482781
0.185	-0.003167562	-0.002923442	-0.001359088	-0.001420455	-0.0002479989	-0.001132111	0.001237463	-0.002240511
0.186	-0.003538008	-0.003788929	-0.002402098	-0.001901303	-0.0007180124	-0.001762174	-6.048011e-005	-0.003309624
0.187	-0.002349174	-0.003092791	-0.002199954	-0.001528031	-0.0004625065	-0.001592655	-0.0008884173	-0.002985147
0.188	-7.315961e-005	-0.001124572	-0.0009318375	-0.0004509794	0.0003318537	-0.0007632205	-0.001028593	-0.001496033
0.189	0.00234494	0.001306305	0.00074519	0.000865558	0.001178511	0.0003195351	-0.0006184468	0.0004678857
0.19	0.003892958	0.003216524	0.002017249	0.001854222	0.001548688	0.00117179	-3.340862e-005	0.002065895
0.191	0.003929611	0.003864994	0.00229667	0.002103099	0.001150522	0.001449459	0.0003292288	0.002671194
0.192	0.002444352	0.003041035	0.001474817	0.001525142	7.49303e-005	0.001079601	0.0002439762	0.002115283
0.193	3.739625e-005	0.001115855	-5.776736e-005	0.0003731141	-0.001253477	0.000262941	-0.0002526427	0.0007205197
0.194	-0.002357134	-0.001148766	-0.001617317	-0.0008930855	-0.002284828	-0.0006421615	-0.0009071649	-0.0008783429
0.195	-0.003850992	-0.002912486	-0.002531743	-0.001797566	-0.002582344	-0.001272208	-0.001372053	-0.002012197
0.196	-0.003949087	-0.003582252	-0.002428966	-0.002036815	-0.002008888	-0.00140484	-0.001369457	-0.002254914
0.197	-0.002725676	-0.003023684	-0.001387329	-0.001591095	-0.0007834372	-0.001036579	-0.0008243227	-0.00158746
0.198	-0.0007359871	-0.001553399	0.0001346409	-0.0006913194	0.0006415482	-0.0003470074	0.0001152221	-0.0003612969
0.199	0.001239702	0.0002254131	0.001510752	0.0002948619	0.001774107	0.0003905771	0.001135234	0.000874389
0.2	0.002514885	0.001673116	0.002212355	0.001013794	0.00227008	0.000918562	0.001873143	0.001610173
0.201	0.002750647	0.00235158	0.002016042	0.001255165	0.002044332	0.001084013	0.002051092	0.001581217
0.202	0.002047166	0.002159223	0.001074169	0.00101409	0.00126937	0.0008789774	0.001578414	0.0008610115
0.203	0.0008386764	0.001314303	-0.0001834729	0.0004594625	0.0002630131	0.0004142273	0.0005780627	-0.0001975304
0.204	-0.0003365902	0.0002171826	-0.00125514	-0.0001620481	-0.000662979	-0.0001442809	-0.0006628755	-0.001132899
0.205	-0.001056182	-0.0007104162	-0.001759044	-0.0006123622	-0.001293553	-0.0006246392	-0.001771309	-0.001555114
0.206	-0.001174304	-0.001188198	-0.001575089	-0.0007514831	-0.001558736	-0.0009016659	-0.002408811	-0.001305135
0.207	-0.0008396699	-0.001157094	-0.0008646085	-0.0005750976	-0.001508157	-0.0009218823	-0.002376975	-0.0005080588
0.208	-0.0003720452	-0.000753913	3.370671e-005	-0.0001898551	-0.001234059	-0.000696251	-0.001669088	0.0004969291
0.209	-8.289694e-005	-0.0002217296	0.000759651	0.0002378555	-0.0008095994	-0.000288285	-0.0004736295	0.001300466
0.21	-0.0001252983	0.0001971785	0.001071381	0.0005395938	-0.0002754342	0.0001986813	0.0008756583	0.001582498
0.211	-0.0004341979	0.0003501426	0.0009180752	0.0005965309	0.0003328939	0.0006361947	0.001989902	0.001227615
0.212	-0.000762814	0.0002277115	0.0004420847	0.0003845466	0.0009560578	0.000904272	0.002545917	0.0003702297
0.213	-0.0008294287	-6.60149e-005	-0.0001171685	-3.463525e-005	0.001471041	0.0009101685	0.002371012	-0.0006740937
0.214	-0.0004748346	-0.0003760271	-0.0005377402	-0.000537169	0.001702449	0.0006154543	0.001493242	-0.001533959
0.215	0.0002522554	-0.0005553937	-0.0006933522	-0.0009636679	0.001498621	6.957654e-005	0.0001482945	-0.001908512
0.216	0.001090453	-0.0005267719	-0.0005936841	-0.001171923	0.0008060126	-0.0005936669	-0.001289229	-0.001676283
0.217	0.001670177	-0.000304211	-0.0003553886	-0.001078714	-0.0002715588	-0.001183466	-0.002413589	-0.0009295878
0.218	0.001678557	2.63091e-005	-0.0001278106	-0.0006830735	-0.001465502	-0.001502538	-0.002903252	6.9752e-005
0.219	0.001015548	0.0003531445	-1.147108e-005	-6.430137e-005	-0.002402341	-0.001406582	-0.002609211	0.0009962179
0.22	-0.0001505444	0.0005713743	-2.390662e-005	0.0006241917	-0.002738076	-0.0008711314	-0.001606557	0.001564804
0.221	-0.001428254	0.0006168658	-0.000103153	0.001194678	-0.002288404	-1.473245e-005	-0.0001726239	0.001623237
0.222	-0.002333531	0.0004911702	-0.000141204	0.001487819	-0.001103968	0.0009330231	0.00130443	0.001199689
0.223	-0.002490597	0.0002396522	-5.729195e-005	0.001406427	0.0005077027	0.001685036	0.00242455	0.0004663568
0.224	-0.001782287	-6.610338e-005	0.0001582012	0.0009494101	0.002071206	0.001991072	0.002890247	-0.0003274494
0.225	-0.0004039809	-0.0003476717	0.0004369164	0.0002207505	0.003098067	0.001725884	0.002589544	-0.0009399883
0.226	0.001194193	-0.0005410956	0.0006586593	-0.0005971213	0.003249294	0.0009364472	0.00162004	-0.001212999
0.227	0.002457748	-0.0006162165	0.0006986393	-0.001299328	0.002444183	-0.0001711505	0.0002484427	-0.001116908
0.228	0.002930933	-0.0005730706	0.0004889149	-0.00170981	0.0008979732	-0.001286006	-0.001165856	-0.0007401239
0.229	0.002432598	-0.0004256227	6.308037e-005	-0.001717781	-0.0009334055	-0.002081035	-0.00225921	-0.0002361121
0.23	0.001109856	-0.0002090174	-0.0004594875	-0.001319269	-0.002511143	-0.002322967	-0.002769865	0.0002247336
0.231	-0.000603247	3.826835e-005	-0.0009076186	-0.0006067499	-0.003373389	-0.001934964	-0.002588734	0.0005193668
0.232	-0.002136225	0.0002807375	-0.001118255	0.0002584807	-0.003273378	-0.001015254	-0.001775577	0.000606003
0.233	-0.00298932	0.0004783503	-0.001007552	0.001075933	-0.002261063	0.0001857138	-0.0005448461	0.0005136974
0.234	-0.002903156	0.0005874218	-0.0006051888	0.001650243	-0.0006613719	0.001337754	0.0007884348	0.0003150467
0.235	-0.001933856	0.0005734869	-4.079838e-005	0.001840093	0.001038874	0.00212924	0.001889954	9.355652e-005
0.236	-0.0004150768	0.000427599	0.0005088185	0.001595031	0.002351023	0.00235565	0.002492286	-8.214539e-005
0.237	0.001157349	0.0001647614	0.0008745537	0.0009582996	0.002922771	0.001962721	0.002450802	-0.0001840484
0.238	0.002309893	-0.0001584321	0.0009666456	7.514599e-005	0.002652252	0.001065382	0.001791993	-0.000210188
0.239	0.002745761	-0.0004504232	0.0008056822	-0.0008355476	0.00170597	-8.580254e-005	0.0007100761	-0.0001698214
0.24	0.00240973	-0.0006207398	0.0004951023	-0.001540982	0.000434348	-0.001184119	-0.0004952776	-8.252604e-005
0.241	0.001482921	-0.0006041433	0.0001763513	-0.001848918	-0.0007499693	-0.001942905	-0.00149509	3.403764e-005
0.242	0.0002936836	-0.0003867598	-3.510037e-005	-0.001662888	-0.001511178	-0.002169392	-0.002023715	0.0001626472
0.243	-0.0008094934	-2.227523e-005	-0.000102012	-0.001019711	-0.001696412	-0.001814243	-0.001956827	0.0002782635
0.244	-0.001573859	0.0003710165	-8.434075e-005	-9.530364e-005	-0.001376032	-0.0009878608	-0.001354846	0.0003386096
0.245	-0.001888285	0.0006561799	-9.400522e-005	0.0008495236	-0.0007809874	7.919015e-005	-0.000433107	0.0003021207
0.246	-0.001779419	0.000723013	-0.0002333732	0.001540604	-0.0001985008	0.001094877	0.0005051551	0.0001423911
0.247	-0.001373846	0.00051878	-0.0005402453	0.00176341	0.0001359112	0.001774107	0.001158217	-0.0001420255
0.248	-0.000816883	8.687953e-005	-0.0009391657	0.001444993	0.000142986	0.001927196	0.0013367	-0.0004994583
0.249	-0.000224369	-0.000442467	-0.001257816	0.0006789225	-8.083885e-005	0.001511611	0.001023792	-0.0008295619
0.25	0.0003327447	-0.0008933222	-0.001293624	-0.0003017548	-0.0003203137	0.0006464864	0.0003753064	-0.00100787
0.251	0.0008173651	-0.001099817	-0.0009028849	-0.001192482	-0.0003448021	-0.000413632	-0.0003389273	-0.000924985
0.252	0.0012047	-0.0009579498	-7.640813e-005	-0.001707146	-1.688767e-005	-0.001344071	-0.0008302706	-0.0005269471
0.253	0.00145433	-0.0004720556	0.001018719	-0.001674334	0.0006261702	-0.001848006	-0.0009021267	0.0001455351
0.254	0.001498957	0.0002298895	0.002060499	-0.001101528	0.001360628	-0.00175491	-0.0005310126	0.0009392865
0.255	0.001283175	0.0009447236	0.002682904	-0.0001611015	0.001870067	-0.001071828	0.0001353674	0.001631801
0.256	0.0007922275	0.001447225	0.002600126	0.0008567059	0.001865102	1.985284e-006	0.0008256367	0.001983866
0.257	7.932318e-005	0.001558749	0.001721231	0.001631412	0.001209041	0.0011247	0.001243677	0.001815513
0.258	-0.0007204954	0.001216353	0.0002192862	0.001920058	5.991467e-006	0.001921598	0.001189381	0.001086145
0.259	-0.001415377	0.0004996029	-0.001497587	0.00163301	-0.001406184	0.0021088	0.0006413304	-6.790909e-005
0.26	-0.001815739	-0.0003928111	-0.002908378	0.0008539625	-0.002563178	0.001590951	-0.0002307519	-0.001353157
0.261	-0.001799284	-0.001204865	-0.00355193	-0.0001908547	-0.003040213	0.0005029924	-0.001125424	-0.00239683
0.262	-0.00134376	-0.00169056	-0.003177549	-0.001191329	-0.002600839	-0.0008129952	-0.001708872	-0.002848129
0.263	-0.0005539068	-0.001702887	-0.001855476	-0.001859579	-0.001314118	-0.001924623	-0.001750113	-0.002508037
0.264	0.0003619912	-0.001245645	2.756712e-005	-0.002014127	0.0004442349	-0.002453994	-0.001212541	-0.00141432
0.265	0.00116115	-0.000462495	0.001895144	-0.001619348	0.00211766	-0.002202314	-0.000262568	0.0001571579
0.266	0.001632205	0.0004031423	0.003163821	-0.0007957647	0.003150015	-0.001230601	0.0007821519	0.001755521
0.267	0.001657286	0.001087244	0.003439772	0.0002191576	0.00318195	0.0001529191	0.001566561	0.002890116
0.268	0.001248669	0.001395472	0.002657855	0.001145562	0.002186696	0.001495263	0.001827846	0.003191156
0.269	0.0005494521	0.001272139	0.001110747	0.001745538	0.0004966697	0.002359135	0.001496771	0.002546308
0.27	-0.0002248184	0.0008025177	-0.0006650284	0.001874303	-0.001317747	0.002464168	0.0007105612	0.001139655
0.271	-0.0008529558	0.0001780039	-0.002077836	0.001514723	-0.002643823	0.001786258	-0.0002404239	-0.0005959507
0.272	-0.001163525	-0.0003663958	-0.002678296	0.0007873302	-0.003029365	0.0005727867	-0.001013182	-0.002107617
0.273	-0.001097802	-0.000652435	-0.002325176	-0.0001000454	-0.002356959	-0.0007574527	-0.001351433	-0.002917593
0.274	-0.0007177219	-0.0006184714	-0.001220932	-0.0009069358	-0.0008820157	-0.001760882	-0.001174646	-0.002782784
0.275	-0.0001746144	-0.000331387	0.0001792624	-0.001420405	0.0008641709	-0.002121336	-0.0005967858	-0.001774159
0.276	0.0003434345	4.58954e-005	0.001343819	-0.001513056	0.002264089	-0.0017578	0.000127033	-0.0002506885
0.277	0.0006668581	0.00031798	0.001858989	-0.001183821	0.002825937	-0.0008491382	0.0006994662	0.001261448
0.278	0.0007020897	0.0003423911	0.001580303	-0.0005537021	0.002360111	0.0002443049	0.0009002142	0.002255637
0.279	0.0004666918	9.622196e-005	0.0006815114	0.000178023	0.001048892	0.001124655	0.0006747393	0.002426941
0.28	6.332042e-005	-0.0003272327	-0.000439623	0.0007787929	-0.0006387356	0.001492487	0.0001355527	0.001758613
0.281	-0.0003518632	-0.0007474234	-0.001320301	0.001062015	-0.002111209	0.001257523	-0.0004807375	0.0005242274
0.282	-0.0006229731	-0.0009666487	-0.001612936	0.0009504533	-0.00285904	0.0005634494	-0.0009084728	-0.0008168362
0.283	-0.0006536987	-0.0008558347	-0.001221002	0.0004976689	-0.002636131	-0.0002842691	-0.0009629977	-0.001793247
0.284	-0.0004383485	-0.000408331	-0.0003256048	-0.0001249502	-0.001535393	-0.0009421339	-0.0006113696	-0.00208749
0.285	-5.434812e-005	0.000256582	0.0007027013	-0.0006792964	5.942937e-005	-0.001158274	2.049259e-005	-0.001636325
0.286	0.0003702079	0.0009375655	0.001461038	-0.0009403836	0.001618098	-0.0008634822	0.0007016285	-0.0006347004
0.287	0.0006890557	0.001408748	0.001661723	-0.0007930075	0.002636294	-0.0001987014	0.001174863	0.000537036
0.288	0.0007991595	0.001510654	0.00124855	-0.0002690738	0.002813124	0.0005567783	0.001264297	0.001468878
0.289	0.0006750273	0.00120573	0.0004076368	0.0004557558	0.002140313	0.001101328	0.0009386399	0.001866907
0.29	0.0003617674	0.0005767749	-0.0005285959	0.001108905	0.0008746505	0.001221218	0.000309616	0.001636412
0.291	-3.742113e-005	-0.0001972776	-0.001213443	0.001424608	-0.0005581998	0.0008759331	-0.0004076634	0.0009025237
0.292	-0.0003985016	-0.0009011909	-0.001419234	0.00124598	-0.001712945	0.0002078371	-0.0009738682	-5.150346e-005
0.293	-0.0006212353	-0.001354779	-0.001117706	0.0005892493	-0.002270887	-0.0005225459	-0.001210381	-0.0008984953
0.294	-0.0006663774	-0.001469559	-0.0004805663	-0.0003591339	-0.002136056	-0.001048464	-0.0010658	-0.001390121
0.295	-0.0005500109	-0.001253367	0.0002161409	-0.001290278	-0.00143023	-0.001192041	-0.0006167252	-0.001421798
0.296	-0.0003301747	-0.0007943492	0.0007102453	-0.001881113	-0.0004321938	-0.0009297787	-3.428187e-005	-0.001050241
0.297	-9.152022e-005	-0.0002327706	0.0008450332	-0.001921137	0.0005193517	-0.0003996378	0.000472175	-0.0004589587
0.298	9.990457e-005	0.0002995999	0.0006306063	-0.00137727	0.001152806	0.00017521	0.0007419439	0.0001345865
0.299	0.0002130418	0.0007101098	0.0002164806	-0.0004109921	0.001338617	0.0005804284	0.000714921	0.0005571058
0.3	0.000251781	0.0009532912	-0.0001897868	0.0006751453	0.001106232	0.0006941819	0.0004422397	0.0007290426
0.301	0.0002429541	0.00102472	-0.0004170475	0.001543624	0.0006107594	0.0005291081	5.826945e-005	0.0006723652
0.302	0.0002244976	0.000948575	-0.0003928036	0.001945222	6.875503e-005	0.0002193103	-0.000269478	0.0004839314
0.303	0.0002209782	0.0007537426	-0.0001643315	0.001793753	-0.0003271649	-5.269578e-005	-0.0004094925	0.0002782627
0.304	0.0002240176	0.0004567564	0.0001283509	0.001175762	-0.0004775796	-0.0001499343	-0.000320511	0.0001290497
0.305	0.0002141323	8.228842e-005	0.0003384571	0.0003200105	-0.0003819794	-3.487405e-005	-5.056028e-005	5.915258e-005
0.306	0.0001662206	-0.0003335518	0.0003731813	-0.000502161	-0.0001303388	0.0002097981	0.0002771261	3.629723e-005
0.307	6.440148e-005	-0.0007361906	0.0002286098	-0.001075001	0.0001372608	0.0004208964	0.0005123934	5.070594e-009
0.308	-7.939128e-005	-0.001044921	-1.216223e-005	-0.001294721	0.0002944867	0.0004415125	0.0005440425	-9.346055e-005
0.309	-0.0002263992	-0.001167809	-0.0002253278	-0.001181638	0.000275054	0.0002021789	0.0003443458	-0.000242512
0.31	-0.0003291498	-0.001037317	-0.0003119838	-0.0008484042	8.675898e-005	-0.0002404396	-2.265045e-005	-0.0004003959
0.311	-0.0003552527	-0.0006449931	-0.0002472408	-0.0004404474	-0.0002007927	-0.0007211299	-0.0004288997	-0.0004989961
0.312	-0.0002910839	-4.886882e-005	-7.65429e-005	-6.390485e-005	-0.0004731716	-0.001026287	-0.0007226935	-0.0004716299
0.313	-0.0001602334	0.0006146148	0.0001000805	0.000231004	-0.0006271908	-0.0009974852	-0.0007985187	-0.0002993933
0.314	-1.846845e-005	0.001158717	0.0001778282	0.0004410619	-0.00060888	-0.0006093571	-0.0006365612	-2.851291e-005
0.315	7.988535e-005	0.001410587	0.0001074297	0.0005880967	-0.0004175298	1.800568e-005	-0.0003003684	0.0002521231
0.316	9.875352e-005	0.001263404	-8.58915e-005	0.0006772094	-0.0001092753	0.0006568398	8.724707e-005	0.0004396926
0.317	3.811871e-005	0.0007229774	-0.0003127657	0.000681	0.0002259252	0.001063253	0.0003966131	0.0004600957
0.318	-5.95168e-005	-7.595924e-005	-0.0004560504	0.0005580369	0.0004994336	0.001083133	0.0005444629	0.0003049872
0.319	-0.0001185058	-0.0008916057	-0.0004167979	0.0002947969	0.0006583838	0.0007262509	0.0005301106	4.718033e-005
0.32	-7.427348e-005	-0.001456704	-0.0001699879	-7.41094e-005	0.000685148	0.0001540788	0.0004180119	-0.000194887
0.321	9.547899e-005	-0.001564949	0.0002223833	-0.0004546316	0.0005958107	-0.0003862214	0.0002996363	-0.0003032365
0.322	0.0003622384	-0.001137852	0.0006397428	-0.000707972	0.0004345063	-0.0006629003	0.0002492462	-0.000204096
0.323	0.0006343086	-0.0002793435	0.0009336357	-0.0007204365	0.0002377125	-0.0005731419	0.0002712116	8.065576e-005
0.324	0.0007874901	0.0007454251	0.0009840134	-0.0004589671	2.41038e-005	-0.0001881842	0.0002947986	0.000434988
0.325	0.0007165505	0.001592408	0.0007458507	-7.499543e-008	-0.0002008156	0.0002799503	0.000214357	0.000690763
0.326	0.0003801606	0.001951022	0.0002649387	0.0004831427	-0.0004330479	0.0005731596	-4.826248e-005	0.0006952328
0.327	-0.0001766545	0.001649719	-0.0003421942	0.0007761041	-0.0006604419	0.0005023132	-0.0004900028	0.000373593
0.328	-0.0008186754	0.0007333737	-0.0009186048	0.0007187035	-0.0008451135	4.672255e-005	-0.0009957176	-0.0002220646
0.329	-0.001345939	-0.0005253264	-0.001303216	0.0002931258	-0.0009172893	-0.0006175329	-0.001359248	-0.0009071951
0.33	-0.001571646	-0.001720176	-0.001388317	-0.0003645956	-0.0008138135	-0.001193641	-0.001374831	-0.001434345
0.331	-0.001379919	-0.002435702	-0.001140041	-0.0009948718	-0.0005006064	-0.001382465	-0.000926838	-0.00157392
0.332	-0.0007720659	-0.00238949	-0.0006044863	-0.001309534	2.360451e-006	-0.001015227	-6.140056e-005	-0.001204198
0.333	0.000115294	-0.001546697	9.824435e-005	-0.001119017	0.0006010535	-0.0001463044	0.0009935283	-0.0003763751
0.334	0.001043516	-0.0001450171	0.0008022786	-0.0004234865	0.001142552	0.0009475625	0.001889045	0.0006848773
0.335	0.001746521	0.001376456	0.001339663	0.0005695385	0.00146199	0.00186615	0.002280192	0.001649499
0.336	0.002015424	0.002522409	0.001581758	0.001509633	0.001439147	0.002240233	0.00196696	0.002192751
0.337	0.001752304	0.002897098	0.001458363	0.002018893	0.001033039	0.00187063	0.0009793142	0.002099287
0.338	0.001015829	0.002355577	0.0009884457	0.001851784	0.0003209381	0.0008258832	-0.0003980555	0.001357343
0.339	7.481301e-006	0.00106224	0.0002809039	0.001003418	-0.000514265	-0.0005674368	-0.001710363	0.0001742909
0.34	-0.0009984403	-0.000570067	-0.00049879	-0.0002792196	-0.001245436	-0.001844714	-0.002501644	-0.001094532
0.341	-0.00172956	-0.002010126	-0.001161476	-0.001566714	-0.001663553	-0.002563936	-0.002479533	-0.002054545
0.342	-0.001992804	-0.002787266	-0.001541556	-0.002396638	-0.001643676	-0.002465924	-0.00163148	-0.002402338
0.343	-0.001730894	-0.0026544	-0.001544565	-0.002447519	-0.00118788	-0.001571208	-0.0002401302	-0.002028974
0.344	-0.001040399	-0.001679013	-0.00117964	-0.001670896	-0.0004318413	-0.0001797529	0.001207021	-0.001062872
0.345	-0.0001246998	-0.0002059942	-0.0005462577	-0.0003075877	0.0004106623	0.001246011	0.002204621	0.0001857728
0.346	0.0007673249	0.001262934	0.000193196	0.001189418	0.001112373	0.002241139	0.00241459	0.001327832
0.347	0.001403034	0.002234902	0.000849151	0.002302227	0.001489103	0.00249028	0.001780667	0.002015003
0.348	0.001640778	0.002407081	0.001269213	0.002645835	0.001464837	0.001940843	0.0005576815	0.002062261
0.349	0.001454785	0.001762972	0.001371834	0.002102516	0.001080691	0.0008084415	-0.0007918766	0.001496285
0.35	0.0009262018	0.0005634514	0.00115562	0.0008586581	0.0004651965	-0.0005120137	-0.001779543	0.0005299421
0.351	0.0002118533	-0.0007529839	0.0006913097	-0.0006603269	-0.0002113056	-0.001587947	-0.002073847	-0.0005184564
0.352	-0.0004965438	-0.001723306	0.0001019044	-0.00193412	-0.0007806012	-0.002089168	-0.001612266	-0.001327669
0.353	-0.001027494	-0.002029036	-0.0004773724	-0.002535649	-0.00112467	-0.00189486	-0.0006147103	-0.001679052
0.354	-0.001275377	-0.001607761	-0.0009351997	-0.002284168	-0.001201389	-0.00112483	0.0005088336	-0.00151992
0.355	-0.001201269	-0.0006473453	-0.00118516	-0.001285755	-0.001022603	-7.032368e-005	0.001339671	-0.0009471455
0.356	-0.000842203	0.0004858429	-0.001181596	0.0001049904	-0.0006443201	0.0009084832	0.001603006	-0.0001653469
0.357	-0.0002978426	0.001384437	-0.0009219866	0.001413475	-0.0001508888	0.001504889	0.001260846	0.0005867675
0.358	0.0003019672	0.001754509	-0.0004409726	0.002218848	0.0003682817	0.001567732	0.0005118997	0.001116277
0.359	0.0008240206	0.001511864	0.0001861253	0.002292313	0.0008283371	0.001137011	-0.0003053152	0.001322395
0.36	0.001150876	0.000791289	0.0008374648	0.001656852	0.001146256	0.000410151	-0.0008637645	0.00119991
0.361	0.001199406	-0.0001232762	0.001352988	0.00055839	0.001246036	-0.0003416993	-0.0009810963	0.0008147954
0.362	0.0009529635	-0.0009031257	0.001577774	-0.0006230157	0.001087519	-0.0008645505	-0.0006725165	0.000278949
0.363	0.0004555336	-0.001309305	0.001396083	-0.001522548	0.0006698913	-0.001016709	-0.000136964	-0.0002949281
0.364	-0.0001921873	-0.001271245	0.0007811312	-0.001909398	4.720696e-005	-0.0008088554	0.0003433671	-0.0008125696
0.365	-0.0008383849	-0.0008820607	-0.0001611863	-0.001737068	-0.0006586219	-0.0003776097	0.0005396141	-0.001191169
0.366	-0.001318725	-0.0003447699	-0.001200218	-0.001138009	-0.001283334	7.174689e-005	0.0003708751	-0.001362112
0.367	-0.001496406	0.0001236613	-0.002031812	-0.0003530544	-0.001661397	0.0003493593	-6.734212e-005	-0.001274354
0.368	-0.001298901	0.0003862077	-0.002364687	0.0003709663	-0.001670317	0.0003582492	-0.0005507019	-0.0009048626
0.369	-0.0007382933	0.0004389265	-0.002016115	0.0008710421	-0.001265968	0.0001351227	-0.0008233394	-0.0002756345
0.37	6.71487e-005	0.0003794576	-0.001006435	0.001092991	-0.0005189017	-0.000179284	-0.0007231748	0.0005147641
0.371	0.0009160032	0.0003428564	0.0004205703	0.001079466	0.0004002723	-0.0003993822	-0.0002511217	0.001294749
0.372	0.001583986	0.0004281901	0.001862154	0.0009291146	0.001275466	-0.0003697696	0.0004350645	0.001858867
0.373	0.001872361	0.0006250482	0.002864277	0.0007228108	0.001888363	-4.852925e-005	0.001073561	0.002012627
0.374	0.00167399	0.0008136541	0.003076019	0.0004903077	0.002082323	0.0004689376	0.001408437	0.001646523
0.375	0.001017755	0.0008244932	0.002381642	0.0002145669	0.001808515	0.0009812614	0.00129468	0.0007944706
0.376	6.722977e-005	0.0005264276	0.0009534631	-0.0001352169	0.001133277	0.001255561	0.0007542012	-0.0003512731
0.377	-0.0009265642	-9.754706e-005	-0.0007970787	-0.0005635443	0.0002081388	0.00111587	-4.167772e-005	-0.001487229
0.378	-0.00168928	-0.0009082018	-0.002341686	-0.001008664	-0.0007652561	0.0005285059	-0.0008355876	-0.002281398
0.379	-0.00199846	-0.001635564	-0.003202605	-0.001338008	-0.00157692	-0.0003643521	-0.001375803	-0.002474473
0.38	-0.001768227	-0.001991775	-0.003126277	-0.001408217	-0.00207083	-0.00129411	-0.001518672	-0.001987488
0.381	-0.001069452	-0.001779924	-0.00216002	-0.001121218	-0.002160229	-0.001947198	-0.001261161	-0.0009501038
0.382	-0.0001074062	-0.0009856824	-0.0006287269	-0.0004823463	-0.001831264	-0.002074129	-0.0007221551	0.0003360966
0.383	0.0008347284	0.0001903554	0.0009752644	0.0003700196	-0.001146066	-0.001587863	-8.998342e-005	0.001488181
0.384	0.001485016	0.001389516	0.002163537	0.001195015	-0.0002290383	-0.0006021681	0.0004542853	0.002168771
0.385	0.001672382	0.002224327	0.002618646	0.001731507	0.0007574114	0.0006055005	0.0008010414	0.002200904
0.386	0.001379812	0.002420623	0.002291123	0.001795323	0.00163601	0.001684894	0.0009359091	0.00162372
0.387	0.0007314048	0.001907406	0.001380565	0.00134071	0.002226058	0.002317941	0.0009080311	0.0006598827
0.388	-4.247006e-005	0.000856758	0.0002533056	0.0004997235	0.002390805	0.002329194	0.0007958266	-0.0003598173
0.389	-0.000685643	-0.0003796699	-0.0007035182	-0.0004573856	0.002072769	0.00173617	0.0006596396	-0.001115723
0.39	-0.001012161	-0.001410283	-0.001229634	-0.001224851	0.001306786	0.0007258409	0.000504376	-0.001417226
0.391	-0.0009558701	-0.001936835	-0.001260834	-0.00156303	0.0002338181	-0.0004093201	0.0002922347	-0.001250554
0.392	-0.0005845572	-0.001851395	-0.0009215242	-0.001382886	-0.0009179443	-0.001368028	-2.047156e-005	-0.0007610912
0.393	-6.87718e-005	-0.001261834	-0.0004486797	-0.0007793084	-0.001886041	-0.001930314	-0.0004417763	-0.0001814834
0.394	0.0003788354	-0.0004365573	-8.234212e-005	1.765903e-006	-0.002447322	-0.002013767	-0.0009189401	0.0002605127
0.395	0.0005929023	0.0003226639	4.599205e-005	0.0006696796	-0.002466946	-0.001663287	-0.001329219	0.0004375602
0.396	0.0005096003	0.000795207	-4.564596e-005	0.0009956965	-0.001941399	-0.001015303	-0.001518603	0.0003551639
0.397	0.0001735064	0.0009037427	-0.000224857	0.0008862392	-0.00101216	-0.0002482454	-0.001369549	0.0001213804
0.398	-0.0002718832	0.000730601	-0.0003121648	0.0004236893	8.95585e-005	0.0004815049	-0.0008440326	-0.0001033997
0.399	-0.000646842	0.0004485254	-0.00018098	-0.0001783328	0.001102953	0.001062769	-1.995082e-005	-0.0001876186
0.4	-0.0008054736	0.0002230714	0.0001725123	-0.0006657477	0.001806052	0.001428904	0.0009126047	-8.697407e-005
0.401	-0.0006838216	0.0001351493	0.0006235666	-0.0008423601	0.002071738	0.001546372	0.001701232	0.0001446051
0.402	-0.0003104232	0.0001584368	0.000979226	-0.0006370722	0.001897237	0.001408563	0.002112152	0.000393481
0.403	0.000202809	0.0001837488	0.001060966	-0.0001318873	0.001379781	0.001026466	0.002001428	0.0005379311
0.404	0.0006963449	8.65309e-005	0.0007828418	0.0004687796	0.0006667543	0.00043542	0.00135997	0.0004979404
0.405	0.001032026	-0.0001778293	0.000211763	0.0009346914	-7.552672e-005	-0.0002780305	0.000340162	0.0002819416
0.406	0.001123725	-0.0005434547	-0.0004592862	0.001089373	-0.0007116648	-0.0009795701	-0.0007906873	-3.036751e-005
0.407	0.0009535011	-0.0008537562	-0.0009871496	0.0008711304	-0.001159822	-0.001507375	-0.001727643	-0.0003284616
0.408	0.0005725365	-0.0009261161	-0.001169351	0.0003576746	-0.001380914	-0.001708029	-0.002209598	-0.0005134157
0.409	7.522728e-005	-0.0006449134	-0.0009293373	-0.0002693364	-0.001366772	-0.001489535	-0.002095832	-0.0005357988
0.41	-0.0004363507	-3.812495e-005	-0.0003566001	-0.0008001717	-0.001134686	-0.0008710559	-0.001413947	-0.0004122143
0.411	-0.0008773312	0.0007070376	0.000322873	-0.001075214	-0.0007269968	1.96242e-006	-0.000358326	-0.0002112914
0.412	-0.001176161	0.001316428	0.0008440325	-0.001024501	-0.0001992736	0.0008980017	0.0007744786	-7.614662e-006
0.413	-0.00128754	0.001522537	0.000996264	-0.0006960679	0.0003596509	0.001555412	0.00165816	0.0001391326
0.414	-0.001188148	0.001179508	0.000707213	-0.0002263162	0.0008347067	0.001765779	0.002033065	0.0002026939
0.415	-0.0008670349	0.0003466087	8.372433e-005	0.0002251195	0.001119486	0.001456547	0.001794545	0.0001990092
0.416	-0.0003436003	-0.0007221423	-0.0006320029	0.0005276801	0.00114092	0.0007156905	0.001021517	0.0001611212
0.417	0.000319011	-0.001660689	-0.001151889	0.0006210238	0.0008893744	-0.0002315143	-4.446542e-005	0.0001175139
0.418	0.001009045	-0.002118766	-0.001248825	0.0005289226	0.0004362111	-0.001090821	-0.001069645	8.101482e-005
0.419	0.001580717	-0.001888839	-0.0008394766	0.0003421143	-7.538758e-005	-0.001590056	-0.001724824	5.472379e-005
0.42	0.001870019	-0.001001952	-3.3761e-005	0.0001615591	-0.0004884267	-0.001578669	-0.00180262	2.88845e-005
0.421	0.001746625	0.0002779196	0.0009019462	5.750198e-005	-0.0006837557	-0.001073312	-0.001281702	-2.01484e-006
0.422	0.001177655	0.001549563	0.001642887	5.15521e-005	-0.0006161013	-0.0002431609	-0.0003296596	-2.441343e-005
0.423	0.0002474954	0.002397951	0.001907739	0.0001023121	-0.0003460947	0.000639226	0.0007373539	-2.450182e-005
0.424	-0.0008364339	0.002540786	0.001564227	0.0001356337	-1.281077e-005	0.001294109	0.001561294	3.488075e-006
0.425	-0.001785244	0.001926563	0.0006835201	8.632239e-005	0.0002277824	0.001527708	0.001864169	4.999009e-005
0.426	-0.002312067	0.0007470296	-0.0004794711	-6.808423e-005	0.0002679539	0.00128899	0.001543052	8.811163e-005
0.427	-0.002233033	-0.0006383422	-0.001572645	-0.0002991888	8.933091e-005	0.0006733012	0.0007001733	7.916982e-005
0.428	-0.001534584	-0.001818319	-0.002255262	-0.0005297101	-0.000220768	-0.0001132804	-0.0003870971	-6.386651e-007
0.429	-0.0003890076	-0.002456498	-0.002302777	-0.0006590852	-0.0004994709	-0.0008243327	-0.001356886	-0.0001368867
0.43	0.0008717881	-0.002406313	-0.001692746	-0.0006200409	-0.0005943743	-0.001263653	-0.00189882	-0.0002881985
0.431	0.001865234	-0.001732901	-0.0006038919	-0.0004008966	-0.0004227574	-0.00133411	-0.00184906	-0.0003895043
0.432	0.002284559	-0.000673426	0.0006449043	-5.447067e-005	-1.126692e-005	-0.001053614	-0.001238045	-0.0003787351
0.433	0.001999447	0.0004464215	0.001689966	0.0003136099	0.0005018861	-0.0005377865	-0.0002768464	-0.0002338632
0.434	0.00110756	0.001321029	0.002236196	0.0005841972	0.0009181585	4.898395e-005	0.0007218897	1.14013e-005
0.435	-8.798401e-005	0.001758472	0.002150214	0.0006773039	0.001062864	0.0005546465	0.001456947	0.0002786803
0.436	-0.001178024	0.001724169	0.001495802	0.0005845675	0.0008597938	0.0008825661	0.001737465	0.000475811
0.437	-0.001802075	0.00131522	0.0004914994	0.0003604517	0.0003516997	0.0009967614	0.001523462	0.000525299
0.438	-0.001762295	0.0007186005	-0.0005539637	0.000110789	-0.0002974876	0.0009224539	0.0009318145	0.0004108476
0.439	-0.001094318	0.0001358992	-0.001342122	-5.662463e-005	-0.0008633634	0.0007181036	0.0001787959	0.0001866754
0.44	-6.209182e-005	-0.000293521	-0.001681757	-8.881982e-005	-0.001154274	0.0004383429	-0.00051107	-5.258493e-005
0.441	0.0009468007	-0.0005209005	-0.00153066	-7.675811e-006	-0.001073611	0.0001226076	-0.0009714311	-0.0002078956
0.442	0.001563554	-0.0005842295	-0.0009924014	9.912322e-005	-0.0006516907	-0.0002049032	-0.001131852	-0.0002210494
0.443	0.00156992	-0.0005752527	-0.0002713318	0.0001149027	-3.302318e-005	-0.0005245184	-0.001017106	-0.0001048417
0.444	0.0009688501	-0.00059336	0.0003948123	-5.127232e-005	0.0005713702	-0.0008111626	-0.0007201547	5.400227e-005
0.445	-8.562763e-006	-0.0006827795	0.0008230374	-0.0003984237	0.0009714994	-0.001013084	-0.0003465416	0.0001447919
0.446	-0.0009957299	-0.0008107168	0.0009316165	-0.0008168176	0.001056397	-0.001063499	1.834247e-005	8.356559e-005
0.447	-0.00163622	-0.0008862899	0.0007433832	-0.001126353	0.0008134828	-0.0009098049	0.0003149397	-0.0001476587
0.448	-0.001701881	-0.0007871896	0.0003732934	-0.001133665	0.0003353939	-0.0005313392	0.0005164597	-0.0004711348
0.449	-0.00117592	-0.0004231143	-2.602211e-005	-0.0007247742	-0.0002233199	3.194859e-005	0.0006120545	-0.0007405643
0.45	-0.0002534971	0.0002076179	-0.0003209654	6.332231e-005	-0.0007013579	0.0006715939	0.0005946023	-0.0008028917
0.451	0.0007383656	0.0009922755	-0.0004356197	0.001027801	-0.0009761491	0.001230419	0.0004619031	-0.0005670984
0.452	0.001470754	0.00172537	-0.0003611127	0.001858037	-0.0009825947	0.001548546	0.000235182	-4.862624e-005
0.453	0.001722173	0.002158284	-0.0001524634	0.002233431	-0.0007274698	0.001508718	-3.709262e-005	0.0006158377
0.454	0.001440627	0.00207654	9.211286e-005	0.001941255	-0.0002856293	0.001076344	-0.000286166	0.001203176
0.455	0.0007614321	0.001401571	0.0002818258	0.0009894738	0.0002387201	0.0003334892	-0.0004286626	0.001497199
0.456	-6.807033e-005	0.0002324368	0.0003537817	-0.0003778299	0.0007245775	-0.0005410191	-0.0004088346	0.001363189
0.457	-0.0007858902	-0.001158384	0.0002870637	-0.001745616	0.001053677	-0.001316847	-0.00023064	0.0008036548
0.458	-0.001200016	-0.002383113	0.0001098487	-0.002655679	0.001140419	-0.00177194	3.728968e-005	-2.91892e-005
0.459	-0.001240799	-0.003053135	-0.0001149085	-0.002769984	0.0009511632	-0.001760935	0.0002808882	-0.0008821314
0.46	-0.000968297	-0.002913181	-0.0003169351	-0.002007437	0.0005120658	-0.001269249	0.0003824115	-0.001492026
0.461	-0.000528076	-0.001941402	-0.0004407968	-0.0005904784	-8.907894e-005	-0.0004254904	0.0002719464	-0.001679582
0.462	-7.119655e-005	-0.0003658092	-0.0004476919	0.001031983	-0.0007036057	0.0005386234	-2.38282e-005	-0.00139928
0.463	0.0002882281	0.001375398	-0.0003356988	0.00232177	-0.001169606	0.001344329	-0.0003926923	-0.0007623365
0.464	0.0005007101	0.002763878	-0.0001367158	0.002842613	-0.001356889	0.001750987	-0.0006746034	1.115135e-005
0.465	0.0005844307	0.003374604	0.0001024572	0.002425958	-0.001198981	0.001640159	-0.0007188745	0.0006833217
0.466	0.0005851064	0.0030111	0.0003258819	0.001226937	-0.0007284522	0.001049912	-0.0004595488	0.001077692
0.467	0.000539422	0.001776077	0.0004796684	-0.0003301244	-7.396637e-005	0.0001659957	4.432846e-005	0.001133282
0.468	0.000457063	4.78302e-005	0.000526209	-0.001702208	0.000579858	-0.0007337052	0.0006205183	0.0009114442
0.469	0.0003285368	-0.001635046	0.000457842	-0.002417869	0.001056651	-0.001362581	0.001050168	0.0005584262
0.47	0.0001312489	-0.002761783	0.0002838038	-0.002259404	0.001232885	-0.001530727	0.001142802	0.0002225869
0.471	-0.0001392326	-0.003012858	3.281291e-005	-0.001332052	0.001082276	-0.001203533	0.000822665	-4.818616e-006
0.472	-0.0004403226	-0.002352362	-0.0002426064	-5.997666e-006	0.0006900539	-0.0005048279	0.0001774573	-0.0001130679
0.473	-0.0006987279	-0.001042136	-0.000485513	0.001217797	0.0002022974	0.0003172909	-0.0005757826	-0.0001698034
0.474	-0.0008265698	0.0004622084	-0.000638174	0.001904377	-0.0002268465	0.0009824545	-0.00116314	-0.0002656548
0.475	-0.0007527082	0.001678503	-0.0006492379	0.001848086	-0.0004876445	0.001278545	-0.001354895	-0.0004493487
0.476	-0.0004547692	0.002261929	-0.0004877062	0.001137465	-0.0005502917	0.001133113	-0.001055946	-0.0006869279
0.477	1.512211e-005	0.002103683	-0.0001641475	9.675216e-005	-0.0004711004	0.0006274087	-0.0003559008	-0.0008714992
0.478	0.0005425812	0.00135056	0.0002638397	-0.0008494984	-0.0003499945	-3.762066e-005	0.0005014049	-0.0008650957
0.479	0.0009857377	0.0003326861	0.0006999635	-0.001344599	-0.0002722249	-0.0006173847	0.001207764	-0.0005674683
0.48	0.001199089	-0.0005888962	0.001010611	-0.001251895	-0.0002820865	-0.0009275014	0.001489241	4.557377e-006
0.481	0.001087804	-0.001146953	0.001067358	-0.0006860317	-0.0003530067	-0.0009005347	0.001218637	0.0007054162
0.482	0.0006420705	-0.001250091	0.0007936426	5.332436e-005	-0.0004020779	-0.000598178	0.0004687735	0.001299654
0.483	-5.584205e-005	-0.0009930618	0.0001999553	0.000615852	-0.0003393619	-0.0001782308	-0.0005123751	0.00154272
0.484	-0.000842228	-0.0005848897	-0.0005941764	0.0007572346	-0.0001167326	0.0001807066	-0.001385019	0.001285093
0.485	-0.001500879	-0.0002339871	-0.001367833	0.0004478043	0.0002457841	0.0003604311	-0.001831194	0.0005539323
0.486	-0.00181614	-5.208959e-005	-0.001852861	-0.0001194717	0.0006580996	0.0003476813	-0.00166579	-0.0004323551
0.487	-0.001647809	-2.647178e-005	-0.001831438	-0.000633796	0.0009781008	0.0002185946	-0.0009138608	-0.001340102
0.488	-0.0009709347	-3.383486e-005	-0.001210916	-0.0007997632	0.001079586	9.992481e-005	0.0002053997	-0.00182803
0.489	9.607146e-005	7.789644e-005	-8.430459e-005	-0.000479035	0.0009029181	9.753778e-005	0.001345408	-0.001681634
0.49	0.001292842	0.0003854164	0.001259692	0.0002309204	0.0004716119	0.000231581	0.00213631	-0.0009153288
0.491	0.002281996	0.000838401	0.002412749	0.001036468	-0.0001036888	0.0004270685	0.002310538	0.0002223405
0.492	0.002741354	0.00126482	0.002971607	0.001570052	-0.0006605025	0.0005496907	0.001789819	0.001331663
0.493	0.002462831	0.0014368	0.002677016	0.001545714	-0.001042366	0.0004711133	0.0007108501	0.002003983
0.494	0.001430034	0.001169115	0.001517019	0.000883069	-0.001155853	0.0001343644	-0.0006216909	0.001970552
0.495	-0.0001354951	0.000429405	-0.0002274357	-0.0002324875	-0.0009849304	-0.0003931552	-0.001817949	0.00122102
0.496	-0.001819262	-0.000624503	-0.002052607	-0.001415429	-0.0005942588	-0.0009365463	-0.002525334	1.074559e-005
0.497	-0.00313252	-0.001689124	-0.003392896	-0.00223341	-0.0001118263	-0.001284127	-0.002541991	-0.001236991
0.498	-0.003649182	-0.002402902	-0.003796397	-0.00236308	0.0003286041	-0.001264652	-0.001863944	-0.002075083
0.499	-0.00315262	-0.002482087	-0.003089586	-0.001721501	0.0006246753	-0.0008262738	-0.0006852456	-0.002201969
0.5	-0.00172704	-0.001835885	-0.001452719	-0.0005046446	0.0007273804	-7.258013e-005	0.0006597676	-0.00157521
0.501	0.0002495204	-0.0006100967	0.0006271973	0.0008864775	0.0006466587	0.000766953	0.001796547	-0.0004248611
0.502	0.002216209	0.0008583102	0.002518549	0.002000358	0.0004453792	0.001423121	0.002425937	0.0008411128
0.503	0.003593449	0.002141925	0.00364817	0.002490808	0.0002054126	0.001677805	0.002400543	0.001784929
0.504	0.003962991	0.002856643	0.003687246	0.00222847	-4.641376e-006	0.001440137	0.001755492	0.002095086
0.505	0.003219761	0.002800889	0.002671952	0.00134683	-0.000130993	0.0007886058	0.0007027664	0.00170853
0.506	0.001598739	0.002005388	0.0009718557	0.0001677625	-0.0001558678	-6.721504e-005	-0.0004480407	0.0008114922
0.507	-0.0004011095	0.0007140338	-0.0008467483	-0.00092673	-9.996132e-005	-0.000862746	-0.001385657	-0.000244611
0.508	-0.002174942	-0.0006956833	-0.002216705	-0.001624656	-6.10022e-006	-0.001364707	-0.001880901	-0.001079227
0.509	-0.003210802	-0.001835459	-0.002763871	-0.001780797	7.341638e-005	-0.001445439	-0.001844486	-0.001427071
0.51	-0.0032579	-0.002428073	-0.002427635	-0.001445786	8.561866e-005	-0.00111988	-0.001344416	-0.001233195
0.511	-0.002397466	-0.002378723	-0.001456788	-0.0008180261	-7.146734e-006	-0.000526754	-0.0005737559	-0.0006578103
0.512	-0.0009827059	-0.001769779	-0.0002793852	-0.0001372702	-0.000197149	0.0001374044	0.0002279872	1.592487e-005
0.513	0.0004860491	-0.0008264959	0.0006618228	0.0003955208	-0.0004411958	0.0006753578	0.0008377579	0.0004954152
0.514	0.001544012	0.0001678024	0.001078114	0.0006793116	-0.0006628176	0.0009491229	0.001113779	0.0006006873
0.515	0.001927487	0.0009687449	0.0009383215	0.0007287909	-0.00076136	0.0009191217	0.001035708	0.000339534
0.516	0.001639899	0.001424883	0.0004474535	0.0006291207	-0.000651923	0.0006351959	0.0006909616	-0.0001129706
0.517	0.000921519	0.001500358	-6.337448e-005	0.0004769084	-0.0003030004	0.0002091775	0.0002332777	-0.0004996095
0.518	0.0001352812	0.001261689	-0.0002907258	0.0003358876	0.0002409017	-0.0002215989	-0.0001735265	-0.0005970013
0.519	-0.0003817276	0.0008405809	-8.96204e-005	0.0002242102	0.0008601554	-0.0005279932	-0.0004042499	-0.0003117881
0.52	-0.0004635176	0.0003699318	0.0004521555	0.0001143459	0.001369753	-0.0006311925	-0.0004187302	0.0002636988
0.521	-0.0001656469	-5.012304e-005	0.001057609	-2.841163e-005	0.001579239	-0.0005146056	-0.0002606599	0.0008906776
0.522	0.0002833623	-0.0003607929	0.001392593	-0.0002037752	0.001369116	-0.0002192335	-2.444488e-005	0.001289274
0.523	0.0005818349	-0.0005552473	0.00120564	-0.0003773812	0.00073133	0.0001565943	0.0001745191	0.001246077
0.524	0.000501034	-0.0006546058	0.0004525578	-0.0004884686	-0.0002025655	0.0004864107	0.0002477055	0.0007128597
0.525	-1.949661e-006	-0.0006793964	-0.0006623982	-0.0004764053	-0.001180157	0.0006544306	0.0001687351	-0.0001586481
0.526	-0.0007562653	-0.0006368555	-0.001754897	-0.0003164506	-0.001900576	0.0005922906	-2.05925e-005	-0.001065469
0.527	-0.001449779	-0.0005279357	-0.002411286	-4.799233e-005	-0.002120358	0.0002997077	-0.0002368101	-0.001673565
0.528	-0.001750406	-0.0003476285	-0.002343735	0.0002418244	-0.001734064	-0.000141304	-0.0003846454	-0.001740853
0.529	-0.00144482	-9.661463e-005	-0.001506195	0.0004535929	-0.0008183922	-0.0005817534	-0.0003921128	-0.001211599
0.53	-0.0005554114	0.0001904332	-0.0001373816	0.0005016291	0.0003632966	-0.0008645104	-0.0002525379	-0.0002588469
0.531	0.0006592371	0.000456623	0.001325195	0.0003589571	0.001449401	-0.0008729221	-1.742727e-005	0.0007818404
0.532	0.001788908	0.000635805	0.002399048	7.148187e-005	0.002099113	-0.0005778326	0.0002247768	0.00153593
0.533	0.002416072	0.0006692315	0.002723871	-0.0002624284	0.002102795	-6.348683e-005	0.0003812623	0.001725924
0.534	0.002276831	0.000531955	0.002191492	-0.0005261983	0.001457679	0.000495945	0.000391336	0.001278981
0.535	0.001375102	0.0002544497	0.0009894416	-0.0006203803	0.0003792669	0.0009008192	0.0002558302	0.0003651692
0.536	-4.990265e-006	-8.038749e-005	-0.0004665516	-0.0004971553	-0.0007702209	0.001001864	3.749232e-005	-0.0006621428
0.537	-0.001407768	-0.0003719943	-0.001693146	-0.0001886236	-0.001617463	0.0007534041	-0.0001739823	-0.001407841
0.538	-0.002353255	-0.0005229592	-0.002297303	0.0002172036	-0.001893271	0.0002471311	-0.000286293	-0.001573124
0.539	-0.002512614	-0.0004775612	-0.002112043	0.0006024596	-0.00152698	-0.0003209299	-0.0002456123	-0.001076157
0.54	-0.001836275	-0.0002548792	-0.001252307	0.0008474636	-0.0006754963	-0.0007327284	-6.692753e-005	-9.757895e-005
0.541	-0.0005638397	6.125816e-005	-5.558357e-005	0.0008729981	0.0003444362	-0.000829827	0.0001753579	0.0009877876
0.542	0.0008641275	0.000351232	0.001048727	0.0006636105	0.001176322	-0.0005787559	0.0003775953	0.001750324
0.543	0.001961563	0.000500229	0.001692598	0.0002675013	0.001548173	-9.113508e-005	0.000446418	0.001866483
0.544	0.002363245	0.0004360068	0.001688023	-0.0002238688	0.001359519	0.000415831	0.0003311685	0.001241435
0.545	0.001961733	0.0001726239	0.001093541	-0.000686428	0.0007216972	0.0007196427	5.682858e-005	6.498943e-005
0.546	0.0009291075	-0.0001980013	0.0001710589	-0.001001817	-0.0001031232	0.0006794326	-0.0002897414	-0.001255149
0.547	-0.0003640513	-0.0005464144	-0.0007311673	-0.001095593	-0.0008180776	0.0002926707	-0.0005984608	-0.002245641
0.548	-0.001475719	-0.0007395543	-0.001298817	-0.0009422681	-0.001189662	-0.0002885454	-0.0007625602	-0.002527952
0.549	-0.002054333	-0.0006970366	-0.001365478	-0.0005763362	-0.001133983	-0.0008213069	-0.0007204397	-0.001964487
0.55	-0.001954995	-0.0004243775	-0.0009620391	-8.599396e-005	-0.0007370345	-0.001072814	-0.0004775426	-0.000715519
0.551	-0.001269015	-8.610574e-006	-0.0002841414	0.0004131539	-0.0001996617	-0.0009159603	-0.000101412	0.0008144038
0.552	-0.0002621322	0.000420688	0.0004041851	0.0008150318	0.0002641085	-0.0003785889	0.0003108544	0.002124024
0.553	0.0007274839	0.0007320839	0.0008698595	0.001041863	0.0005110101	0.000357714	0.0006578981	0.002784446
0.554	0.001406014	0.0008338206	0.0009888829	0.001055723	0.0005160898	0.001023931	0.0008591768	0.002582613
0.555	0.001627397	0.0007175546	0.0007914171	0.0008767538	0.0003823373	0.001378943	0.0008860394	0.001604066
0.556	0.001407981	0.0004440119	0.0004192363	0.0005598776	0.0002649238	0.001294028	0.0007487889	0.0001865702
0.557	0.0008880677	0.0001117015	4.956231e-005	0.0001733412	0.0002810092	0.000800178	0.0004823392	-0.001205498
0.558	0.0002632024	-0.0001795243	-0.0001810813	-0.0002146892	0.0004467771	7.631993e-005	0.0001358456	-0.002138918
0.559	-0.0002936371	-0.0003646444	-0.0002319354	-0.0005502104	0.0006593508	-0.0006236089	-0.0002376338	-0.002356314
0.56	-0.0006865792	-0.0004370815	-0.0001689931	-0.000801665	0.000735415	-0.00107529	-0.0005898473	-0.00185615
0.561	-0.0009032848	-0.0004396495	-0.0001190316	-0.0009534915	0.0005018874	-0.001165416	-0.0008757416	-0.0008745188
0.562	-0.0009713568	-0.0004215003	-0.0001849385	-0.0009829776	-9.134533e-005	-0.0009160132	-0.001039179	0.0002242482
0.563	-0.0009296956	-0.0004198072	-0.0003944645	-0.0008718448	-0.0009308178	-0.0004721225	-0.00103227	0.001072045
0.564	-0.0007957994	-0.0004343419	-0.0006728451	-0.0006099905	-0.001751179	-2.931511e-005	-0.0008266182	0.001425421
0.565	-0.0005536693	-0.0004179105	-0.0008612807	-0.0002019556	-0.002212955	0.0002586326	-0.0004224978	0.001245571
0.566	-0.000187712	-0.0003074363	-0.0007955017	0.0003084932	-0.002043231	0.0003343738	0.0001290177	0.0006860079
0.567	0.0002815178	-6.142257e-005	-0.0003915793	0.0008311337	-0.001161741	0.000251233	0.000723567	1.664319e-005
0.568	0.0007772375	0.0003112905	0.0002992503	0.001243831	0.0002581195	0.0001375611	0.001222452	-0.0004856617
0.569	0.001178877	0.0007425596	0.001090225	0.001429115	0.001823762	0.0001308925	0.001491195	-0.0006366292
0.57	0.001345688	0.001104072	0.001701542	0.001300142	0.003027242	0.0002928993	0.001429448	-0.0004175253
0.571	0.001179702	0.001252556	0.001867864	0.0008438485	0.003425618	0.0005765984	0.001013584	3.396693e-005
0.572	0.0006849706	0.001090465	0.001454001	0.0001479895	0.002815108	0.0008446577	0.000321847	0.0004939025
0.573	-2.813811e-005	0.0005964458	0.0005138914	-0.0006258023	0.001308185	0.0009171569	-0.0004896901	0.0007337342
0.574	-0.0007612865	-0.0001447657	-0.000700252	-0.001276612	-0.000676203	0.0006615222	-0.001219261	0.0006173799
0.575	-0.001287624	-0.0009506552	-0.001807418	-0.001620289	-0.002534787	6.755922e-005	-0.001670596	0.0001590099
0.576	-0.001434297	-0.001590155	-0.002426954	-0.00155128	-0.003678651	-0.0007281593	-0.001710379	-0.0004810144
0.577	-0.001155639	-0.001859569	-0.002322667	-0.001085945	-0.003740889	-0.001481569	-0.001316568	-0.00106143
0.578	-0.0005475443	-0.001642476	-0.001488993	-0.0003533043	-0.002696251	-0.001916081	-0.0005830508	-0.001344171
0.579	0.0001880987	-0.0009514889	-0.0001604837	0.0004474469	-0.0008687806	-0.001824218	0.0003066242	-0.001181409
0.58	0.0007991874	4.621574e-005	0.001244139	0.001093022	0.001158561	-0.00116515	0.001113578	-0.0005887794
0.581	0.001084406	0.00107992	0.0022704	0.001414062	0.002750969	-8.762421e-005	0.001620099	0.0002625729
0.582	0.0009657059	0.001850587	0.002583254	0.001343431	0.003433807	0.001106639	0.001692489	0.001100009
0.583	0.000509249	0.002116775	0.002077669	0.0009258944	0.003039227	0.002052463	0.001314558	0.001637443
0.584	-9.969925e-005	0.001775218	0.0009176087	0.0002985153	0.00175254	0.002441996	0.0005920978	0.001676222
0.585	-0.0006220734	0.0009075605	-0.000514055	-0.0003506259	4.052561e-005	0.002135522	-0.0002718556	0.001181765
0.586	-0.0008538796	-0.0002347608	-0.001745501	-0.0008400182	-0.001517424	0.001212341	-0.001034995	0.00030165
0.587	-0.0007132467	-0.001313512	-0.002386529	-0.001057456	-0.002442608	-6.089914e-005	-0.001495094	-0.0006908084
0.588	-0.0002550666	-0.001993763	-0.002245749	-0.0009709142	-0.002496684	-0.001304171	-0.001533728	-0.001473501
0.589	0.0003471763	-0.002054832	-0.001390474	-0.0006308193	-0.001746456	-0.00214763	-0.001150276	-0.001786654
0.59	0.000860417	-0.001474075	-0.000122559	-0.0001536375	-0.0005258869	-0.002355009	-0.0004650759	-0.001528741
0.591	0.001085985	-0.0004324466	0.001138068	0.0003242713	0.0007091883	-0.001887709	0.0003258904	-0.0007838184
0.592	0.000931216	0.0007407756	0.001997318	0.0006848522	0.001551068	-0.0009084113	0.001009874	0.0002073366
0.593	0.0004378869	0.001670497	0.002210674	0.000850177	0.001772717	0.0002759755	0.001415764	0.001125991
0.594	-0.0002406904	0.002053985	0.001746851	0.000789594	0.001381225	0.00131063	0.00145049	0.001675791
0.595	-0.0008826285	0.001774477	0.0007923761	0.0005312759	0.0005983251	0.001911932	0.001125555	0.001690075
0.596	-0.001281513	0.0009319394	-0.0003324099	0.0001437565	-0.0002532145	0.00194021	0.0005357066	0.001176047
0.597	-0.00132185	-0.000198576	-0.001293533	-0.0002872659	-0.0008868927	0.001424151	-0.0001798206	0.00029975
0.598	-0.0009986623	-0.001248896	-0.001836647	-0.0006637926	-0.00113876	0.0005480363	-0.0008628431	-0.0006622623
0.599	-0.0004178859	-0.001888601	-0.001858963	-0.0008984014	-0.001010698	-0.0004197746	-0.00137217	-0.001417772
0.6	0.0002444206	-0.001935227	-0.001419109	-0.0009323387	-0.0006400317	-0.001210927	-0.001605759	-0.00175148
0.601	0.0008053131	-0.001405517	-0.0006907044	-0.0007471756	-0.0002161433	-0.001628538	-0.001510206	-0.001583178
0.602	0.001138577	-0.000492056	0.0001161055	-0.0003645075	0.000117533	-0.001585729	-0.001077666	-0.0009746192
0.603	0.001195263	0.000506061	0.0008152569	0.0001441418	0.000309093	-0.001122675	-0.0003580716	-0.0001075138
0.604	0.00099897	0.00128574	0.001281549	0.0006624851	0.0003933182	-0.0003864339	0.0005310657	0.000773473
0.605	0.0006345097	0.001652249	0.001474024	0.001066769	0.0004604831	0.0004245883	0.001421507	0.001444792
0.606	0.0001997544	0.001557605	0.001405604	0.001244147	0.0005739019	0.001103909	0.002101962	0.001747159
0.607	-0.0002257236	0.001094056	0.001114186	0.001124728	0.0007167329	0.001484368	0.002359455	0.001616672
0.608	-0.00058677	0.0004447039	0.0006488711	0.0007119755	0.0007937506	0.001478014	0.002046703	0.001095514
0.609	-0.0008489925	-0.0001933572	6.584679e-005	9.041518e-005	0.000677901	0.001093132	0.001147413	0.0003141729
0.61	-0.0009914085	-0.0006807061	-0.0005675461	-0.0005955164	0.0002808054	0.0004268103	-0.0001877708	-0.00054625
0.611	-0.0009949646	-0.0009654319	-0.001161246	-0.001175483	-0.0003766044	-0.0003567924	-0.0016501	-0.001291424
0.612	-0.0008301743	-0.001057864	-0.001591009	-0.001486323	-0.001125555	-0.001054636	-0.002828618	-0.001742879
0.613	-0.0004889196	-0.001008384	-0.001735289	-0.001433358	-0.001707173	-0.001485649	-0.003341034	-0.001788319
0.614	-4.126438e-006	-0.0008609848	-0.001512131	-0.001018393	-0.001864448	-0.001535821	-0.002960618	-0.001406852
0.615	0.000544913	-0.0006237556	-0.0009142181	-0.0003375475	-0.001445549	-0.001184557	-0.001706841	-0.0006741072
0.616	0.001029565	-0.0002854294	-4.115498e-005	0.0004340351	-0.0004961691	-0.0005211351	0.0001229142	0.0002397611
0.617	0.001303497	0.0001532715	0.0009091933	0.001088829	0.0007280935	0.0002752721	0.002020497	0.001104331
0.618	0.001255616	0.0006496632	0.001690259	0.001449505	0.001838051	0.0009862888	0.003417362	0.001689217
0.619	0.0008650594	0.001110668	0.002084135	0.001426535	0.002451187	0.001421752	0.003872025	0.001834268
0.62	0.0002110345	0.001397177	0.001960321	0.001033436	0.002322112	0.001465344	0.003213417	0.001490517
0.621	-0.0005313853	0.001380785	0.001331106	0.0003890665	0.001452477	0.001115251	0.001616301	0.0007505399
0.622	-0.001134726	0.001010811	0.0003623387	-0.0003097232	0.0001120321	0.0004902411	-0.0004373883	-0.0001660108
0.623	-0.001404132	0.0003427012	-0.0006826682	-0.0008602792	-0.001260575	-0.0002185783	-0.002320658	-0.0009866678
0.624	-0.001242168	-0.0004557255	-0.001515354	-0.001111046	-0.002206114	-0.0008037936	-0.00346069	-0.001466951
0.625	-0.0006875812	-0.001149719	-0.001908559	-0.001006691	-0.00240735	-0.001105568	-0.003525959	-0.001469466
0.626	8.971752e-005	-0.001518988	-0.001768048	-0.0006064062	-0.001806639	-0.001061044	-0.002532559	-0.001012949
0.627	0.0008348255	-0.001448792	-0.001165259	-7.063963e-005	-0.0006344574	-0.0007243678	-0.0008394396	-0.0002739938
0.628	0.001301047	-0.0009709248	-0.0003032217	0.0004026614	0.0006838287	-0.0002353708	0.0009862124	0.0004798449
0.629	0.001339071	-0.0002518744	0.000554991	0.0006511426	0.001688383	0.0002343588	0.002365683	0.0009868505
0.63	0.0009327679	0.0004522255	0.001157932	0.0005918704	0.00203558	0.0005315355	0.002888988	0.001071845
0.631	0.0002156212	0.0009037208	0.001351537	0.0002624129	0.001630626	0.0005802802	0.002451798	0.0007190396
0.632	-0.0005779726	0.0009743269	0.001121412	-0.0001917971	0.0006536333	0.0004022684	0.001272486	7.790091e-005
0.633	-0.001196154	0.0006871093	0.0005824709	-0.0005755128	-0.0005202617	9.794614e-005	-0.0002038709	-0.0005960735
0.634	-0.001452188	0.00020355	-6.566761e-005	-0.0007169702	-0.00146286	-0.0001957595	-0.001469315	-0.001034596
0.635	-0.001273284	-0.0002415095	-0.000602871	-0.0005298025	-0.001842999	-0.0003537853	-0.002123712	-0.001051433
0.636	-0.0007173016	-0.0004421174	-0.0008597889	-5.235976e-005	-0.001540934	-0.0003093109	-0.00199983	-0.0006140713
0.637	4.312154e-005	-0.0003202177	-0.0007804937	0.0005469146	-0.0006918751	-8.55122e-005	-0.001210467	0.0001310923
0.638	0.0007945491	5.465241e-005	-0.0004200144	0.001040953	0.0003894495	0.0002265188	-7.5836e-005	0.0009218604
0.639	0.00134252	0.0004922523	7.828985e-005	0.001223587	0.00132706	0.000500528	0.0009981518	0.001468445
0.64	0.001554875	0.0007575235	0.0005290481	0.0009832818	0.001808982	0.000616441	0.001655333	0.001550887
0.641	0.001393909	0.0006829081	0.0007746994	0.0003615747	0.001697344	0.0005117796	0.001709264	0.001105307
0.642	0.0009120156	0.0002474533	0.0007373371	-0.0004512732	0.001062874	0.0002052202	0.001190619	0.0002512297
0.643	0.0002247869	-0.0004073208	0.0004379439	-0.001181212	0.0001405731	-0.0002102063	0.0003162281	-0.0007470458
0.644	-0.0005263224	-0.001034874	-2.22738e-005	-0.001572868	-0.0007705535	-0.0006046475	-0.0006054395	-0.001573885
0.645	-0.001187772	-0.001370791	-0.0004879773	-0.001471207	-0.001398943	-0.0008446011	-0.001272838	-0.001955663
0.646	-0.001622995	-0.001248264	-0.0008082479	-0.0008899003	-0.001590569	-0.0008447026	-0.00149378	-0.001758545
0.647	-0.001737648	-0.0006784857	-0.0008914436	-1.850151e-005	-0.00135121	-0.0006017374	-0.001243418	-0.001038939
0.648	-0.00148366	0.0001573923	-0.0007214286	0.0008523529	-0.0008083461	-0.0001858366	-0.0006440648	-1.33708e-005
0.649	-0.000881487	0.0009684002	-0.0003613559	0.001428561	-0.00015643	0.0002783453	8.484788e-005	0.001007353
0.65	-3.19267e-005	0.001462839	7.158811e-005	0.001516535	0.0004134044	0.0006507615	0.0007054693	0.001717002
0.651	0.0008913865	0.001462792	0.0004500335	0.001095232	0.0007751033	0.0008231022	0.001038997	0.001911841
0.652	0.001677375	0.0009797849	0.0006853137	0.0003309565	0.0009009808	0.0007585446	0.001023502	0.001557626
0.653	0.002116662	0.000201303	0.0007442028	-0.0004934665	0.0008393917	0.0004942273	0.0007141882	0.0007868299
0.654	0.002058304	-0.0005859662	0.000645615	-0.001086764	0.0006733663	0.0001232847	0.0002497161	-0.0001527822
0.655	0.001479749	-0.001094567	0.0004545913	-0.001242897	0.0004925451	-0.0002282357	-0.0001903087	-0.0009692735
0.656	0.0004992236	-0.001157496	0.0002394955	-0.0009260358	0.000343802	-0.0004531267	-0.0004592473	-0.001431204
0.657	-0.0006427317	-0.0007883431	4.352651e-005	-0.0002776048	0.0002199393	-0.0004980119	-0.000492063	-0.001436043
0.658	-0.001639128	-0.0001618302	-0.0001215897	0.0004468758	7.974403e-005	-0.0003729176	-0.0003166516	-0.001027692
0.659	-0.002206409	0.0004609287	-0.0002684032	0.0009757341	-0.0001215379	-0.0001436105	-3.619792e-005	-0.0003696157
0.66	-0.002181459	0.0008332947	-0.000419413	0.001116299	-0.0004059799	8.969791e-005	0.0002085553	0.0003119795
0.661	-0.00157731	0.0008191219	-0.0005795978	0.0008227087	-0.0007466829	0.0002307615	0.0002943843	0.0008061277
0.662	-0.0005714402	0.0004522788	-0.0007103954	0.000216934	-0.00105322	0.0002301195	0.0001732147	0.0009912565
0.663	0.0005341877	-0.0001000641	-0.0007495028	-0.0004770873	-0.001211046	9.031593e-005	-0.0001214991	0.0008511968
0.664	0.001413528	-0.0006079388	-0.0006338332	-0.001016299	-0.001118121	-0.0001329685	-0.0004801596	0.0004693408
0.665	0.00182793	-0.0008671196	-0.0003281455	-0.001219315	-0.0007203089	-0.000345723	-0.0007486533	-5.386385e-006
0.666	0.001691707	-0.0007852892	0.0001381446	-0.001031926	-5.378972e-005	-0.0004542062	-0.0007903811	-0.0004193707
0.667	0.001092719	-0.0004116321	0.0006634075	-0.0005347481	0.0007460301	-0.0004001015	-0.0005406693	-0.0006636269
0.668	0.000256549	9.550589e-005	0.001098721	0.0001011226	0.001473844	-0.0001788511	-3.629751e-005	-0.0006966248
0.669	-0.0005321759	0.0005447859	0.001299599	0.0006849141	0.001914635	0.0001600785	0.0005917478	-0.0005379527
0.67	-0.001041724	0.0007776094	0.00116688	0.001057141	0.001897365	0.0005151366	0.001143401	-0.0002591357
0.671	-0.001158512	0.0007344732	0.0006963982	0.001138964	0.001366886	0.0007685791	0.00141981	5.503282e-005
0.672	-0.000904962	0.0004754829	-8.745611e-008	0.000947405	0.0004259798	0.0008302647	0.001299383	0.0003396164
0.673	-0.0004247653	0.000130909	-0.0007324232	0.0005607862	-0.0006912994	0.0006585232	0.0007747019	0.0005493977
0.674	8.826578e-005	-0.0001565411	-0.001283158	8.809057e-005	-0.001674342	0.000281221	-2.983546e-005	0.0006610218
0.675	0.0004671697	-0.0002908263	-0.001476968	-0.0003616564	-0.002225364	-0.0002053456	-0.0008860871	0.0006655465
0.676	0.0006244968	-0.000260472	-0.001242062	-0.0007035352	-0.002158196	-0.0006636888	-0.001530262	0.0005579555
0.677	0.0005599358	-0.0001411115	-0.0006459575	-0.0008914414	-0.001475436	-0.0009631487	-0.001754196	0.0003305448
0.678	0.0003474834	-4.43528e-005	0.0001302705	-0.0009059675	-0.0003707058	-0.001012901	-0.001471161	-7.822243e-006
0.679	9.317116e-005	-5.507301e-005	0.0008516672	-0.000746783	0.0008283337	-0.0007908838	-0.0007474595	-0.0004151348
0.68	-0.0001252234	-0.000199757	0.001292196	-0.0004469553	0.001747666	-0.0003633895	0.0001986832	-0.0008210699
0.681	-0.000271341	-0.0004187509	0.001319041	-6.309255e-005	0.002102138	0.0001442768	0.001074231	-0.001121926
0.682	-0.0003478235	-0.0005902747	0.0009348294	0.0003268847	0.001793411	0.0005878186	0.001606394	-0.001205461
0.683	-0.0003784562	-0.000590052	0.00027095	0.0006309185	0.0009396922	0.0008448701	0.001630135	-0.0009950769
0.684	-0.0003781147	-0.0003505297	-0.0004558222	0.0007682841	-0.0001639275	0.0008549511	0.001144958	-0.0004870753
0.685	-0.0003310433	0.0001060712	-0.001009568	0.0007043491	-0.0011412	0.0006408446	0.0003209672	0.0002339095
0.686	-0.0002009479	0.000660929	-0.001212866	0.0004677603	-0.00166786	0.0002940561	-0.0005586496	0.001001873
0.687	2.78992e-005	0.001124125	-0.001014216	0.0001365598	-0.001595761	-6.961626e-005	-0.001204802	0.001598208
0.688	0.000337278	0.001315992	-0.0004884846	-0.000171697	-0.0009843476	-0.0003412037	-0.001408782	0.001830955
0.689	0.0006563086	0.001132628	0.0001881485	-0.0003483779	-7.54754e-005	-0.0004581502	-0.001117943	0.001597012
0.69	0.0008693327	0.0005845924	0.0007924405	-0.0003444056	0.0007931459	-0.0004252805	-0.000456456	0.0009197505
0.691	0.0008668187	-0.0001878915	0.001134905	-0.0001862862	0.001321526	-0.0002952314	0.0003285947	-3.889491e-005
0.692	0.0005975184	-0.0009539338	0.001120145	3.35666e-005	0.001355646	-0.0001382158	0.0009597215	-0.00101774
0.693	0.0001008601	-0.001470424	0.0007694269	0.0001903678	0.0009271882	-1.277985e-005	0.00122571	-0.00173803
0.694	-0.0004978695	-0.001570209	0.0002005212	0.0001786099	0.0002217023	5.113843e-005	0.001048319	-0.001997415
0.695	-0.001010648	-0.001209189	-0.0004040066	-2.378516e-005	-0.0004892641	6.698486e-005	0.0005144691	-0.001724758
0.696	-0.001261153	-0.0004943398	-0.000865691	-0.0003448493	-0.0009659693	6.645111e-005	-0.0001721172	-0.001012638
0.697	-0.001160639	0.0003421675	-0.001071116	-0.0006474933	-0.001091486	6.965424e-005	-0.0007773994	-9.175834e-005
0.698	-0.0007344078	0.001030908	-0.0009908253	-0.0007735461	-0.0008865886	7.895682e-005	-0.001111529	0.0007595443
0.699	-0.0001208462	0.001351552	-0.0006813487	-0.000620062	-0.0004849792	7.331966e-005	-0.001094599	0.001304516
0.7	0.0004786623	0.001208121	-0.0002569174	-0.0001916002	-6.256224e-005	2.388829e-005	-0.0007730341	0.001425065
0.701	0.0008789858	0.0006668023	0.0001582037	0.0003910626	0.0002449671	-7.822186e-005	-0.000284055	0.001154525
0.702	0.0009885859	-5.839593e-005	0.0004785166	0.000937937	0.0003993714	-0.0001972823	0.0002150137	0.000658689
0.703	0.000829438	-0.0006913236	0.0006676008	0.001250339	0.0004464128	-0.0002654512	0.0005994456	0.000153215
0.704	0.0005129872	-0.000996781	0.0007300629	0.001196012	0.0004661866	-0.0002131153	0.0008103394	-0.000188965
0.705	0.0001951071	-0.0008562872	0.0007026855	0.0007756998	0.000526521	-4.286944e-007	0.000865954	-0.0002942177
0.706	-9.770048e-006	-0.000328967	0.0006142928	0.0001149766	0.0006203885	0.000337439	0.0008138532	-0.0002195309
0.707	-7.674307e-005	0.000367144	0.0004692452	-0.0005790734	0.0006621656	0.0006837616	0.0006884995	-0.000113466
0.708	-6.864125e-005	0.0009405521	0.0002557238	-0.001087826	0.0005393305	0.0008781679	0.0004906557	-0.0001303208
0.709	-9.258175e-005	0.00113807	-3.506287e-005	-0.001258738	0.0001819212	0.0007815138	0.0001938015	-0.0003428912
0.71	-0.0002374803	0.0008416984	-0.0003897258	-0.001061782	-0.0003827997	0.0003406971	-0.000225723	-0.0006980637
0.711	-0.0005126298	0.0001254983	-0.000753389	-0.00059155	-0.001010606	-0.0003632267	-0.0007439052	-0.001026189
0.712	-0.0008156908	-0.0007518167	-0.001023447	-1.301674e-005	-0.001468579	-0.001111932	-0.001251205	-0.001102686
0.713	-0.0009852919	-0.001453375	-0.001094683	0.0004885418	-0.001541458	-0.001628114	-0.001582211	-0.0007710598
0.714	-0.0008738438	-0.001686834	-0.0009001579	0.0007759395	-0.00112709	-0.001674032	-0.001565781	-3.122221e-005
0.715	-0.0004230063	-0.001315693	-0.0004450163	0.0008049061	-0.0002928283	-0.001149205	-0.001097019	0.0009321323
0.716	0.000279925	-0.0004297263	0.000170959	0.0006178744	0.0007185833	-0.0001573209	-0.0002111624	0.001789105
0.717	0.001015256	0.0006773147	0.0007746178	0.0003115199	0.001564727	0.001007383	0.0008922361	0.002182966
0.718	0.001512068	0.001614347	0.001177818	-4.142552e-006	0.001934934	0.00195516	0.001893694	0.001880051
0.719	0.00156274	0.002041407	0.001252322	-0.0002400665	0.001678633	0.002341825	0.002458152	0.0008891098
0.72	0.001103664	0.001786198	0.0009692759	-0.0003631657	0.0008600778	0.00198942	0.002344277	-0.0005222027
0.721	0.0002633992	0.0009225336	0.0004243593	-0.0003823851	-0.0002448934	0.0009711739	0.001514448	-0.001893504
0.722	-0.0006687849	-0.0002464849	-0.000187759	-0.0003218347	-0.001240023	-0.000396123	0.0001765153	-0.002725347
0.723	-0.001363141	-0.001311029	-0.0006565402	-0.0002124855	-0.001770131	-0.001666291	-0.001279676	-0.002679693
0.724	-0.001571466	-0.001899942	-0.000831704	-7.428561e-005	-0.001650717	-0.002414199	-0.002400313	-0.001714074
0.725	-0.001224153	-0.001815088	-0.0006802308	8.427994e-005	-0.0009354529	-0.002385083	-0.002817461	-0.0001147383
0.726	-0.0004619723	-0.001105283	-0.0003004949	0.0002500389	0.0001017395	-0.001587814	-0.002379753	0.001590033
0.727	0.000411459	-5.112733e-005	0.0001116028	0.0003858076	0.001063508	-0.0002979231	-0.001217647	0.002806578
0.728	0.001059545	0.0009530327	0.0003550095	0.0004416977	0.001589639	0.001048588	0.0003020865	0.003099046
0.729	0.001248119	0.001551142	0.0003142067	0.0003742376	0.001495368	0.002009594	0.001699362	0.00235199
0.73	0.0009229388	0.001542709	1.366399e-006	0.0001583085	0.0008220284	0.002280319	0.002528741	0.0008057993
0.731	0.0002364207	0.0009618239	-0.0004343771	-0.0001773478	-0.0001721734	0.001801782	0.002538009	-0.001017728
0.732	-0.0005208281	5.324162e-005	-0.0007681623	-0.0005452507	-0.001114962	0.0007691601	0.001748153	-0.002502034
0.733	-0.001044731	-0.0008335109	-0.0008011094	-0.0008244075	-0.00166562	-0.0004519298	0.0004371837	-0.003158466
0.734	-0.001138235	-0.001379007	-0.0004518799	-0.000898975	-0.001637251	-0.001458946	-0.0009592605	-0.002793601
0.735	-0.0007783899	-0.00140422	0.000202723	-0.0006987627	-0.001049449	-0.001943564	-0.001990745	-0.001561099
0.736	-0.0001160484	-0.0009268385	0.0009447972	-0.0002370326	-0.0001109005	-0.001787947	-0.002339569	0.0001060889
0.737	0.0005834322	-0.0001494754	0.001484236	0.0003708029	0.0008541061	-0.001094814	-0.001927185	0.001650294
0.738	0.001064427	0.0006444209	0.001585948	0.0009521283	0.001541105	-0.0001211435	-0.0009151226	0.002601123
0.739	0.001174434	0.001195945	0.001165142	0.001326013	0.001761749	0.0008179616	0.0003550939	0.002722893
0.74	0.0009064415	0.001353616	0.0003237048	0.001358634	0.001485773	0.001450097	0.001473415	0.002065301
0.741	0.0003914479	0.001118847	-0.000672314	0.001019813	0.0008386988	0.001630832	0.002100465	0.0009202831
0.742	-0.0001691582	0.0006202718	-0.00148655	0.0003946365	4.076515e-005	0.00136744	0.002068216	-0.000307194
0.743	-0.0005945783	4.080239e-005	-0.001841598	-0.0003462743	-0.0006807376	0.0007881772	0.001418292	-0.0012553
0.744	-0.0007950645	-0.000463788	-0.001625478	-0.001006214	-0.001166929	7.818457e-005	0.0003705561	-0.001723406
0.745	-0.0007754383	-0.0008008498	-0.0009204081	-0.001411086	-0.001345224	-0.0005742428	-0.000744256	-0.001698127
0.746	-0.0006159439	-0.0009582294	2.322006e-005	-0.00146741	-0.001236335	-0.00103506	-0.001599525	-0.001321457
0.747	-0.0004209735	-0.0009804973	0.0008780622	-0.001189321	-0.000927899	-0.001248424	-0.00197289	-0.0008046616
0.748	-0.0002524349	-0.0009073889	0.00137115	-0.0006708206	-0.0005171353	-0.001216112	-0.001792345	-0.0003191213
0.749	-0.0001123104	-0.0007462648	0.00137498	-5.301701e-005	-8.508995e-005	-0.000978266	-0.001147053	5.730875e-005
0.75	4.028096e-005	-0.0004721172	0.0009421468	0.0005197406	0.0003124506	-0.0005924465	-0.0002489587	0.0003404681
0.751	0.0002482985	-5.595539e-005	0.0002739922	0.0009409082	0.0006426998	-0.0001181756	0.0006403658	0.0005933667
0.752	0.0005190623	0.0004973401	-0.0003591337	0.00116479	0.0008895779	0.0003897813	0.001294205	0.0008663766
0.753	0.000793213	0.001102916	-0.0007328854	0.001189916	0.001030571	0.0008656836	0.001572659	0.001137715
0.754	0.000956442	0.001594791	-0.0007519373	0.001036371	0.001033476	0.001227915	0.001448258	0.00130602
0.755	0.0009027463	0.001788034	-0.0004620864	0.0007412748	0.0008828665	0.001398234	0.001009899	0.001245711
0.756	0.0005799406	0.001539372	-2.768498e-005	0.0003359814	0.0005795696	0.001310921	0.0004110082	0.0008644975
0.757	3.098432e-005	0.000822384	0.0003464658	-0.0001466081	0.0001516166	0.0009401508	-0.0001833715	0.0001696166
0.758	-0.0006000976	-0.0002286912	0.0005050513	-0.0006529243	-0.000337451	0.0003261753	-0.0006404984	-0.0007016953
0.759	-0.001113176	-0.001339398	0.0003993122	-0.001099881	-0.0007991328	-0.0004200063	-0.0008885091	-0.001511046
0.76	-0.001331891	-0.002181082	9.197939e-005	-0.001387066	-0.001144962	-0.001140087	-0.0009272701	-0.002000992
0.761	-0.001172128	-0.002479114	-0.0002780411	-0.00141888	-0.001304221	-0.001662102	-0.000808887	-0.001988632
0.762	-0.0006684868	-0.002102234	-0.0005482214	-0.001129793	-0.001227272	-0.001839284	-0.0005980912	-0.001430032
0.763	1.836502e-005	-0.001132544	-0.0006115572	-0.000536911	-0.0009130491	-0.001605293	-0.0003589086	-0.0004610709
0.764	0.0006640811	0.0001577429	-0.0004498933	0.0002480306	-0.0004063822	-0.0009927316	-0.0001312042	0.0006447473
0.765	0.001066257	0.00139763	-0.0001279771	0.001038994	0.0002132034	-0.0001261282	7.755768e-005	0.001569336
0.766	0.001109363	0.002229869	0.0002328977	0.001615116	0.000832955	0.000800167	0.0002741605	0.002047293
0.767	0.0008028648	0.002425533	0.0005059035	0.001788572	0.001323178	0.001568607	0.0004614836	0.001952026
0.768	0.0002767635	0.001956851	0.000608429	0.001476814	0.001565862	0.001994964	0.0006262653	0.001334692
0.769	-0.0002667902	0.001000043	0.0005299625	0.0007461032	0.00148831	0.001976827	0.0007392841	0.0004051103
0.77	-0.0006420766	-0.0001457778	0.0003136906	-0.0002088165	0.00107342	0.001508942	0.0007523473	-0.0005545251
0.771	-0.0007362371	-0.00115111	4.045132e-005	-0.001108153	0.0003881368	0.000692592	0.0006267487	-0.001274321
0.772	-0.0005388365	-0.001753449	-0.00019927	-0.001670947	-0.0004152673	-0.0002834794	0.0003581759	-0.001573544
0.773	-0.0001492755	-0.001838688	-0.0003455251	-0.001718977	-0.001143536	-0.001195849	-2.207375e-005	-0.001416895
0.774	0.0002735223	-0.00144817	-0.0003741006	-0.001233844	-0.001604847	-0.001831618	-0.0004427016	-0.0009039509
0.775	0.0005736511	-0.0007405644	-0.0002938358	-0.0003672741	-0.001663369	-0.002036837	-0.0008047088	-0.0002199579
0.776	0.0006489777	6.986684e-005	-0.0001380008	0.0006023427	-0.001288607	-0.001756394	-0.00100859	0.0004297765
0.777	0.0004737001	0.0007723897	4.072259e-005	0.001352372	-0.0005813787	-0.001056508	-0.0009913868	0.000874418
0.778	0.0001104253	0.001217734	0.0001903611	0.001632901	0.0002592223	-0.0001060943	-0.0007414056	0.001027644
0.779	-0.0003149773	0.001340362	0.0002713479	0.001354063	0.0009966266	0.0008612139	-0.0003037799	0.0008971147
0.78	-0.0006693276	0.001139494	0.00025051	0.0006058831	0.001415958	0.001594652	0.0002146809	0.000552932
0.781	-0.0008420522	0.0006767116	0.0001218299	-0.0003578803	0.001406846	0.001902425	0.0006832547	0.0001073195
0.782	-0.0007765997	5.754905e-005	-8.730741e-005	-0.00120619	0.0009967928	0.001705124	0.0009818785	-0.0003203484
0.783	-0.0004880725	-0.000588002	-0.0003200294	-0.001646852	0.0003338131	0.001059203	0.001030696	-0.0006345851
0.784	-5.538601e-005	-0.001119071	-0.0004982543	-0.001525998	-0.0003648684	0.0001462977	0.0008128882	-0.000777984
0.785	0.0004082811	-0.001397682	-0.0005385625	-0.0008759953	-0.0008815499	-0.0007711244	0.0003859755	-0.0007289645
0.786	0.0007840084	-0.001321602	-0.0003855465	9.241325e-005	-0.001073111	-0.001427865	-0.0001324289	-0.0005029049
0.787	0.0009665297	-0.000872257	-5.156215e-005	0.001050391	-0.0009221743	-0.001644943	-0.0006051016	-0.0001566666
0.788	0.000907819	-0.0001234951	0.0003870428	0.001676377	-0.0005159947	-0.00137378	-0.000897878	0.0002354791
0.789	0.00062448	0.0007508744	0.0007997125	0.001760976	-9.842595e-006	-0.0007146482	-0.0009232584	0.0005874836
0.79	0.000189809	0.001505736	0.001035723	0.001273183	0.0004275471	0.0001123432	-0.0006728036	0.0008129573
0.791	-0.0002784007	0.001899726	0.0009846371	0.0003778404	0.00067858	0.0008453127	-0.0002168066	0.000851412
0.792	-0.0006513516	0.00177562	0.0006231896	-0.0006224097	0.0007081006	0.001267145	0.0003133181	0.0006861852
0.793	-0.0008306125	0.001120356	3.171408e-005	-0.001394991	0.000555081	0.001271517	0.0007583042	0.0003489162
0.794	-0.0007846443	8.161935e-005	-0.0006287223	-0.001696485	0.0002964051	0.0008884002	0.0009729377	-8.894395e-005
0.795	-0.0005452987	-0.001051726	-0.001153889	-0.001443149	2.224969e-005	0.000275989	0.000882523	-0.0005216729
0.796	-0.0002045587	-0.001945004	-0.001374386	-0.0007432582	-0.0002058269	-0.0003493134	0.0005009513	-0.000845391
0.797	0.000114799	-0.00232921	-0.001219061	0.0001396087	-0.0003712552	-0.0007953291	-7.240854e-005	-0.0009893253
0.798	0.0003146064	-0.002079164	-0.000730793	0.0008945084	-0.0004762537	-0.0009477517	-0.0006667237	-0.0009217456
0.799	0.0003525335	-0.001261589	-5.669464e-005	0.001270085	-0.0005264324	-0.0008044513	-0.001094458	-0.0006597226
0.8	0.000254372	-0.0001136288	0.0006024014	0.001161131	-0.0005161781	-0.0004626353	-0.001210258	-0.0002610205
0.801	0.0001017939	0.001036905	0.001063462	0.0006436671	-0.0004245091	-6.864284e-005	-0.0009584553	0.0001938073
0.802	9.101381e-007	0.001884202	0.001225591	-5.190504e-005	-0.0002237168	0.0002496177	-0.0003904314	0.0006252237
0.803	2.341798e-005	0.002226361	0.001084494	-0.0006413129	8.224148e-005	0.0004198121	0.0003372998	0.0009571064
0.804	0.0001679614	0.002013013	0.0007167419	-0.0008983713	0.0004378499	0.0004406495	0.001006543	0.001122984
0.805	0.0003689141	0.001354699	0.0002521222	-0.0007283285	0.0007556514	0.0003740338	0.001415692	0.001083786
0.806	0.0005103097	0.0004563383	-0.0001882621	-0.0002141658	0.000927792	0.0002941907	0.00143286	0.0008229618
0.807	0.0004810932	-0.0004548857	-0.0005254297	0.0004202109	0.0008713175	0.0002483165	0.001042249	0.000359086
0.808	0.0002350025	-0.001187545	-0.0007256254	0.0009040982	0.0005730696	0.0002387199	0.0003554852	-0.0002376765
0.809	-0.0001783827	-0.001622703	-0.0007880019	0.001027052	0.000105969	0.0002262172	-0.0004212313	-0.0008446192
0.81	-0.0006287111	-0.001724721	-0.0007283881	0.0007158562	-0.0003965005	0.0001519977	-0.001058853	-0.001309849
0.811	-0.0009489548	-0.001518381	-0.0005609841	6.649943e-005	-0.0007845231	-2.328567e-005	-0.001378198	-0.001488602
0.812	-0.0009934577	-0.001053696	-0.0002887558	-0.000681075	-0.0009387611	-0.0002841522	-0.00130005	-0.001283928
0.813	-0.0007167664	-0.0004085542	6.432656e-005	-0.001249543	-0.0008331954	-0.0005690301	-0.000881425	-0.0007081056
0.814	-0.000195706	0.0003174824	0.0004385891	-0.001423691	-0.0005394614	-0.0007857717	-0.0002861471	0.0001036869
0.815	0.0003968924	0.001005487	0.0007402036	-0.001126172	-0.0001882674	-0.0008416636	0.00028356	0.0009229429
0.816	0.0008488995	0.001515061	0.0008573277	-0.0004521917	8.284093e-005	-0.0006859542	0.0006558057	0.001488086
0.817	0.0009929559	0.001709472	0.0007058758	0.0003686105	0.000191402	-0.0003323146	0.0007505506	0.001594837
0.818	0.0007797082	0.001502948	0.000284171	0.001062708	0.0001514888	0.0001455692	0.0006032965	0.001181114
0.819	0.0003057904	0.0009098147	-0.0002951306	0.001416527	7.021015e-005	0.000639554	0.000345902	0.0003708658
0.82	-0.0002341999	5.366357e-005	-0.0008353167	0.001336627	7.829746e-005	0.001027296	0.0001319323	-0.0005658151
0.821	-0.0006182324	-0.0008403247	-0.001112387	0.000882958	0.0002658754	0.001210962	7.123178e-005	-0.001293207
0.822	-0.0006843494	-0.001501547	-0.0009619934	0.0002378324	0.0006263958	0.001141819	0.0001816753	-0.001528755
0.823	-0.0004105388	-0.001716566	-0.0003724253	-0.0003795137	0.001025186	0.0008186571	0.0003690504	-0.001167022
0.824	7.926597e-005	-0.001404516	0.000488762	-0.0007890862	0.001248677	0.0002921058	0.0004744115	-0.0003262051
0.825	0.0005659077	-0.0006563021	0.001316356	-0.0009063597	0.001097216	-0.0003414554	0.0003534237	0.0006854895
0.826	0.0008227474	0.0002834201	0.001770396	-0.0007589481	0.0004842235	-0.0009543043	-4.47382e-005	0.001477194
0.827	0.0007047134	0.001089076	0.001604239	-0.0004646443	-0.0005035713	-0.001412531	-0.0006405593	0.001716359
0.828	0.0002234842	0.001481797	0.0007869946	-0.0001616875	-0.001593397	-0.001590232	-0.001228176	0.001270145
0.829	-0.0004491498	0.001334095	-0.0004572194	5.176542e-005	-0.002404092	-0.001402679	-0.001547147	0.0002683485
0.83	-0.001057667	0.0007077449	-0.001720389	0.0001384652	-0.002595705	-0.0008489594	-0.001401982	-0.0009454117
0.831	-0.001350159	-0.0001550573	-0.002539217	0.0001344783	-0.001995113	-2.235606e-005	-0.0007458836	-0.001923178
0.832	-0.001181028	-0.0009249829	-0.002570751	0.0001141627	-0.0006892916	0.00089204	0.0002739451	-0.002280465
0.833	-0.0005767775	-0.001316515	-0.001735878	0.000139341	0.0009689579	0.001648877	0.001344434	-0.001846378
0.834	0.0002696994	-0.001195387	-0.0002658438	0.0002254883	0.002464055	0.0020094	0.002089266	-0.0007339484
0.835	0.001075328	-0.0006215749	0.001374481	0.0003389015	0.003297351	0.001827173	0.002214743	0.0007006967
0.836	0.001569089	0.0001759666	0.002643937	0.0004134874	0.003162683	0.001107766	0.001627989	0.001979702
0.837	0.001580231	0.0008821947	0.003109934	0.0003778338	0.002056911	2.20905e-005	0.0004803394	0.0026644
0.838	0.001113998	0.001237007	0.002618302	0.0002099077	0.0003129765	-0.001117778	-0.0008578281	0.002523282
0.839	0.0003390565	0.001127531	0.001342816	-5.062561e-005	-0.001510726	-0.00195401	-0.001928765	0.001603758
0.84	-0.0004848676	0.0006202401	-0.0002866885	-0.0003191635	-0.002826615	-0.002205779	-0.002357756	0.0002051628
0.841	-0.001096659	-6.78695e-005	-0.001737184	-0.0004935393	-0.003216814	-0.00176722	-0.001990682	-0.001224981
0.842	-0.001324874	-0.0006622465	-0.002563545	-0.000497864	-0.002578498	-0.0007545355	-0.0009549201	-0.002244902
0.843	-0.001144075	-0.0009466816	-0.002562294	-0.0003231994	-0.001162296	0.0005160622	0.0003800146	-0.002565732
0.844	-0.0006747523	-0.0008515413	-0.001829932	-4.03102e-005	0.0005149294	0.001624411	0.001531962	-0.002139283
0.845	-0.0001110168	-0.0004586499	-0.0006892406	0.0002383795	0.001874367	0.002199061	0.002096254	-0.001143812
0.846	0.0003506658	3.484018e-005	0.0004429449	0.0003957019	0.002472874	0.002039541	0.001886622	8.490002e-005
0.847	0.000579878	0.0004023391	0.001212218	0.0003549484	0.002154361	0.00118755	0.0009992137	0.001168909
0.848	0.0005612327	0.000497966	0.00145664	0.0001254583	0.001107258	-7.251737e-005	-0.0002175271	0.001818336
0.849	0.0003763666	0.0003084482	0.001231966	-0.0002027969	-0.0002259275	-0.001314974	-0.001303355	0.001902637
0.85	0.0001527514	-4.975795e-005	0.0007498571	-0.0004935074	-0.001327231	-0.002120667	-0.001863386	0.001465856
0.851	3.140835e-006	-0.0003860213	0.0002650949	-0.0006144243	-0.001799216	-0.002220465	-0.001714467	0.0006905152
0.852	-1.531285e-005	-0.0005170272	-3.421364e-005	-0.0004846026	-0.001503804	-0.001580597	-0.0009416803	-0.0001679528
0.853	7.061321e-005	-0.000358842	-0.0001060772	-0.0001202268	-0.0006128347	-0.0004207308	0.0001372308	-0.0008714141
0.854	0.0001724359	3.512543e-005	-4.786364e-005	0.0003643703	0.0004723575	0.0008658237	0.001102047	-0.001258698
0.855	0.0002019664	0.0005091436	-1.131652e-005	0.0008067187	0.001303021	0.001859231	0.001607691	-0.001262671
0.856	0.0001081757	0.000860243	-0.0001174205	0.001041867	0.001550657	0.002246602	0.00150282	-0.0009217703
0.857	-9.165562e-005	0.0009271024	-0.0003804813	0.000965631	0.001135902	0.001924746	0.0008781858	-0.000354912
0.858	-0.00031177	0.0006640045	-0.0006898141	0.0005791464	0.0002563984	0.001030187	1.944304e-005	0.0002782445
0.859	-0.0004386714	0.0001591895	-0.0008638597	-7.590974e-006	-0.0007031503	-0.0001213171	-0.0007194017	0.0008141812
0.86	-0.0003938213	-0.0004090242	-0.0007524229	-0.0006193641	-0.001341668	-0.001155138	-0.001068449	0.001112005
0.861	-0.0001742353	-0.0008429876	-0.0003222141	-0.001070925	-0.001405126	-0.001765317	-0.000945941	0.001085087
0.862	0.0001460663	-0.000996409	0.000315406	-0.001220994	-0.0008785293	-0.001804151	-0.0004710073	0.0007327909
0.863	0.00042617	-0.0008440788	0.0009243794	-0.001033715	-2.864645e-006	-0.001328077	8.787591e-005	0.0001320358
0.864	0.0005232923	-0.0004784713	0.001244276	-0.0005815906	0.0008367563	-0.0005545469	0.0004457072	-0.0005661561
0.865	0.0003637741	-5.764628e-005	0.001111335	-1.185761e-005	0.001280894	0.0002359352	0.0004354118	-0.001162044
0.866	-2.022402e-005	0.0002610363	0.0005355954	0.0005009303	0.001140281	0.0007988126	7.79406e-005	-0.001464011
0.867	-0.0004904348	0.0003882918	-0.0002879183	0.000814279	0.0004750053	0.001005906	-0.0004290816	-0.001347984
0.868	-0.000844691	0.0003388639	-0.001044462	0.0008687243	-0.0004254034	0.0008782436	-0.0007988883	-0.0008019972
0.869	-0.0008924074	0.0002188694	-0.001419044	0.0007028413	-0.00115952	0.0005590849	-0.0007844434	5.793211e-005
0.87	-0.0005533039	0.0001516594	-0.001242342	0.0004142561	-0.001399013	0.0002276263	-0.0003102803	0.0009946287
0.871	0.000103396	0.000218749	-0.000559046	0.0001241776	-0.001017137	2.578136e-005	0.0004872168	0.001723522
0.872	0.0008713454	0.0004147238	0.0003839272	-7.039763e-005	-0.0001413643	4.901354e-006	0.001306939	0.002003089
0.873	0.001462484	0.0006317789	0.001221419	-0.0001412874	0.000881866	0.0001047602	0.001791127	0.001707049
0.874	0.00162013	0.0007127419	0.001620406	-0.000124988	0.001633712	0.000197722	0.001679912	0.0008833675
0.875	0.001224848	0.0005304021	0.001416208	-9.538965e-005	0.001795352	0.0001586877	0.0009313947	-0.0002470334
0.876	0.0003531458	5.84556e-005	0.0006793199	-0.0001230881	0.001277051	-7.013493e-005	-0.000245129	-0.001352969
0.877	-0.0007413599	-0.000603617	-0.0003188456	-0.000244063	0.0002486942	-0.0004497333	-0.001462832	-0.002102496
0.878	-0.001697618	-0.001242789	-0.001204171	-0.0004288257	-0.0009153765	-0.0008441886	-0.002289144	-0.00226185
0.879	-0.002173317	-0.00160802	-0.00164689	-0.0005923368	-0.001782475	-0.001076713	-0.002410773	-0.001774747
0.88	-0.001984142	-0.001523963	-0.001501804	-0.0006427783	-0.002044517	-0.001014272	-0.001768094	-0.0007943206
0.881	-0.001165686	-0.0009579054	-0.0008495852	-0.0005132676	-0.001621466	-0.0006201943	-0.0005702444	0.000377863
0.882	2.853071e-005	-5.00213e-005	4.080029e-005	-0.0001985382	-0.0006876216	1.906546e-005	0.0007784454	0.001389664
0.883	0.001208253	0.0009233756	0.0008226583	0.0002314884	0.0003993672	0.0007151189	0.001825176	0.001950819
0.884	0.001984784	0.001646675	0.001213623	0.0006538406	0.001245718	0.001244011	0.002235677	0.001925362
0.885	0.002116216	0.001886983	0.001112333	0.0009421635	0.001581889	0.00143455	0.001917859	0.001372762
0.886	0.001588488	0.001576458	0.0006254952	0.001009525	0.001355845	0.001228202	0.00104419	0.000513024
0.887	0.000606417	0.0008270502	8.454503e-007	0.0008287273	0.000727225	0.0006926992	-3.533996e-005	-0.0003681057
0.888	-0.0004712298	-9.779997e-005	-0.0004729692	0.0004541418	2.329991e-006	5.676341e-006	-0.0009208928	-0.001007388
0.889	-0.001272785	-0.0008916042	-0.0005998029	-7.600353e-006	-0.00050948	-0.0006182261	-0.001324374	-0.001255888
0.89	-0.001553695	-0.001322779	-0.0003617338	-0.000440769	-0.0006328288	-0.001008489	-0.001176069	-0.001119646
0.891	-0.00127095	-0.001306247	8.767513e-005	-0.0007506384	-0.0003837541	-0.001087941	-0.000628962	-0.0007280664
0.892	-0.0005867583	-0.0009194269	0.0004985925	-0.0008850471	5.068577e-005	-0.0008872473	2.275724e-005	-0.0002641626
0.893	0.0002019522	-0.0003601687	0.0006395443	-0.000843263	0.0004012334	-0.0005214748	0.0004744648	0.0001109111
0.894	0.0007809449	0.0001399276	0.0004010818	-0.0006651967	0.0004402246	-0.0001364866	0.0005364174	0.0003126309
0.895	0.0009512766	0.0004241277	-0.0001393032	-0.0003947986	0.0001021734	0.0001602013	0.0002208527	0.0003612975
0.896	0.0006899223	0.0004554679	-0.0007556984	-7.412339e-005	-0.0004921939	0.0003261016	-0.0002830126	0.0003399954
0.897	0.0001416298	0.0003114626	-0.001173229	0.0002569526	-0.001087384	0.0003800967	-0.0007019176	0.0003320017
0.898	-0.0004396031	0.0001400377	-0.00117983	0.000564664	-0.001390372	0.0003829389	-0.0007962186	0.0003782102
0.899	-0.0008051439	7.095193e-005	-0.000727372	0.0008044937	-0.001205887	0.0003873194	-0.000473179	0.0004456593
0.9	-0.0008122371	0.0001475637	4.008903e-005	0.0009174601	-0.0005281903	0.0004046708	0.0001659968	0.0004446962
0.901	-0.0004718565	0.0003083593	0.0008417746	0.0008456672	0.0004470201	0.0004007833	0.0008664548	0.0002841695
0.902	7.262607e-005	0.0004276007	0.001380231	0.000565501	0.001397508	0.0003250224	0.001332065	-6.197018e-005
0.903	0.0006007493	0.0003746464	0.001451438	0.0001011474	0.001983926	0.0001386367	0.00134216	-0.000527157
0.904	0.0009069619	9.11316e-005	0.001027652	-0.0004611096	0.00197849	-0.000150545	0.0008484305	-0.0009596615
0.905	0.0008922474	-0.0003521587	0.0002780907	-0.0009711705	0.001366584	-0.0004682803	1.108948e-005	-0.001164819
0.906	0.0005830439	-0.000784032	-0.0005111255	-0.001266548	0.0003402127	-0.0007058352	-0.0008700515	-0.000999288
0.907	0.000112992	-0.0009979961	-0.001050207	-0.001223857	-0.0007706356	-0.0007620729	-0.00146969	-0.0004414648
0.908	-0.000334045	-0.000841843	-0.001156838	-0.0008058764	-0.001612296	-0.0005866817	-0.001561084	0.000381443
0.909	-0.0006016086	-0.0002986943	-0.000825085	-9.058904e-005	-0.001931996	-0.0002104983	-0.001104366	0.001221503
0.91	-0.0006258197	0.0004770707	-0.0002266387	0.0007306707	-0.001669411	0.0002527256	-0.0002682947	0.001783986
0.911	-0.0004491353	0.001205248	0.0003682626	0.001406953	-0.0009621264	0.0006476897	0.000636064	0.00183555
0.912	-0.0001820103	0.001589401	0.0007140953	0.001713765	-7.438171e-005	0.0008423811	0.001281063	0.001304935
0.913	3.723099e-005	0.001420387	0.0006778659	0.001513981	0.00068941	0.0007655265	0.001432108	0.0003055733
0.914	0.0001103763	0.0006781247	0.0002947796	0.0008181053	0.001102065	0.0004397414	0.00104031	-0.0008852957
0.915	2.454327e-005	-0.000436223	-0.0002476493	-0.0002018728	0.00109145	-2.343588e-005	0.0002625788	-0.001909181
0.916	-0.0001535442	-0.001563369	-0.0006986142	-0.001262493	0.0007421641	-0.0004721016	-0.0006047845	-0.002448306
0.917	-0.0003088633	-0.002303558	-0.0008510965	-0.002047223	0.0002463027	-0.0007675871	-0.001237333	-0.002327424
0.918	-0.0003264278	-0.002354142	-0.0006229897	-0.002295182	-0.0001771148	-0.0008271298	-0.001398792	-0.001563047
0.919	-0.0001399379	-0.001621472	-8.72539e-005	-0.001881807	-0.0003659311	-0.000642997	-0.001023503	-0.0003520192
0.92	0.0002213333	-0.000280294	0.0005477482	-0.0008773399	-0.0002869491	-0.0002862775	-0.0002496046	0.0009796928
0.921	0.0006477291	0.001282343	0.001033861	0.000472119	-2.63855e-005	0.0001327457	0.0006436108	0.002085589
0.922	0.000989781	0.00259079	0.001185492	0.001807846	0.0002607149	0.0005066574	0.001338416	0.002696911
0.923	0.001100144	0.003220393	0.0009422269	0.002744406	0.0004097109	0.0007513232	0.001582879	0.002675639
0.924	0.0008957786	0.002942805	0.000394661	0.002985171	0.0003245493	0.0008244952	0.001283318	0.002042306
0.925	0.0003936896	0.001803186	-0.0002555157	0.002414768	2.103275e-005	0.0007247933	0.0005383241	0.0009568642
0.926	-0.0002898006	0.0001069853	-0.0007809908	0.001139787	-0.000383154	0.0004776308	-0.000399497	-0.0003328353
0.927	-0.0009780706	-0.001680043	-0.001024651	-0.0005341153	-0.0007246971	0.0001184011	-0.001218445	-0.001558388
0.928	-0.001476269	-0.00305953	-0.0009455375	-0.002165859	-0.0008520216	-0.0002993888	-0.001646994	-0.002473235
0.929	-0.001630087	-0.00364611	-0.0006234286	-0.003296412	-0.0006882122	-0.0007026137	-0.001545988	-0.002894003
0.93	-0.001384189	-0.003287027	-0.0002226472	-0.00359162	-0.0002773119	-0.001009818	-0.0009638415	-0.002736672
0.931	-0.0007876163	-0.002084527	9.574229e-005	-0.00293175	0.0002438814	-0.001128904	-0.0001040331	-0.002016221
0.932	1.667703e-005	-0.0003615896	0.0002408453	-0.001461045	0.000695398	-0.0009862516	0.0007460683	-0.0008495719
0.933	0.0008278077	0.001429476	0.0002217834	0.000437677	0.0009176129	-0.0005645564	0.001312044	0.0005514641
0.934	0.001443074	0.0028335	0.0001321385	0.002245716	0.0008325639	7.02627e-005	0.001424318	0.001909321
0.935	0.00171952	0.003515774	9.973745e-005	0.003462971	0.0004798682	0.0007737798	0.001076875	0.002932073
0.936	0.001604698	0.003336791	0.0002125014	0.003751641	-4.141669e-006	0.001347257	0.0004192189	0.00337076
0.937	0.001135103	0.002365925	0.0004576368	0.003030131	-0.0004481911	0.001591811	-0.0003103575	0.003075291
0.938	0.0004362541	0.000868253	0.0007304796	0.001514944	-0.0006956395	0.001391998	-0.0008580873	0.002060542
0.939	-0.0003242969	-0.0007788581	0.000870361	-0.0003523852	-0.0006703035	0.0007640138	-0.001051051	0.00051539
0.94	-0.0009833221	-0.002184206	0.0007331455	-0.002042408	-0.0004058211	-0.0001324582	-0.0008563983	-0.001227086
0.941	-0.001411755	-0.003027703	0.0002743224	-0.003091904	-2.06347e-005	-0.001027813	-0.0003783864	-0.002753511
0.942	-0.001536774	-0.003130434	-0.0004116574	-0.003241719	0.0003324911	-0.001627984	0.0001890115	-0.003672989
0.943	-0.001353136	-0.002495198	-0.001113615	-0.002512101	0.0005238645	-0.001722354	0.0006352747	-0.003726111
0.944	-0.0009174547	-0.001304081	-0.001580327	-0.001184793	0.0004910557	-0.001267454	0.0008062457	-0.002869291
0.945	-0.0003165073	0.0001432359	-0.001604853	0.0003129288	0.0002731972	-0.0004043725	0.000666671	-0.001288139
0.946	0.0003392407	0.001491957	-0.001123368	0.001541417	-2.385207e-005	0.0005747179	0.0002923268	0.0006312633
0.947	0.0009280773	0.002416159	-0.000256601	0.002184824	-0.0002800146	0.001325536	-0.0001698162	0.002396328
0.948	0.00134304	0.002709103	0.0007311082	0.002146566	-0.0004011419	0.001585439	-0.0005533018	0.003550185
0.949	0.001497244	0.002326505	0.001515896	0.001548248	-0.0003636189	0.001267188	-0.000738205	0.003792752
0.95	0.001339067	0.001393486	0.001830563	0.0006603723	-0.0002195858	0.0004939953	-0.0006897915	0.003065362
0.951	0.0008732544	0.0001722019	0.001566786	-0.0002059837	-6.287925e-005	-0.0004409419	-0.0004562628	0.001571304
0.952	0.0001802666	-0.001004504	0.0008244105	-0.0008014134	2.806496e-005	-0.001178536	-0.0001303155	-0.0002736395
0.953	-0.0005991552	-0.00183619	-0.0001334648	-0.001021859	2.185031e-005	-0.001437711	0.0001864405	-0.001969811
0.954	-0.00128516	-0.002135305	-0.0009777112	-0.0009168671	-4.739036e-005	-0.001122327	0.000422474	-0.00307497
0.955	-0.001687196	-0.001862305	-0.0014238	-0.0006264476	-8.406699e-005	-0.000350092	0.0005631205	-0.003318433
0.956	-0.001670965	-0.001140158	-0.001346314	-0.0003170633	3.759667e-006	0.0005813223	0.0006254291	-0.002683117
0.957	-0.001203154	-0.0002056826	-0.0008164676	-0.0001033651	0.0002505542	0.001312062	0.0006311936	-0.001397945
0.958	-0.0003724109	0.000672985	-6.284894e-005	-5.885806e-006	0.0006030687	0.001561135	0.0005834294	0.0001452677
0.959	0.0006201805	0.00127775	0.0006214941	3.654535e-005	0.0009230401	0.001233677	0.0004583416	0.001515494
0.96	0.001501225	0.001491215	0.0009870205	0.0001088059	0.001027142	0.0004492705	0.0002150488	0.002363156
0.961	0.002004953	0.0013188	0.0009226311	0.00026207	0.0007706678	-0.0005039513	-0.0001674745	0.002517411
0.962	0.001964911	0.0008753019	0.0004980273	0.0004818153	0.0001335482	-0.001276775	-0.0006477166	0.002024503
0.963	0.001356104	0.0003145429	-8.846021e-005	0.0006703759	-0.0007590028	-0.001604132	-0.00112323	0.001094223
0.964	0.0003213598	-0.0002202456	-0.0005917071	0.0006974607	-0.001646048	-0.001396484	-0.001441083	2.262465e-005
0.965	-0.0008599839	-0.0006330268	-0.0008165871	0.0004714391	-0.00220523	-0.00076151	-0.001443491	-0.0009045403
0.966	-0.001855395	-0.0008914076	-0.0006966033	-6.901598e-006	-0.002174592	4.509606e-005	-0.001039635	-0.001495163
0.967	-0.00237507	-0.001006415	-0.0003105834	-0.0006199228	-0.001460384	0.0007286318	-0.0002604012	-0.001684376
0.968	-0.002254837	-0.0009947867	0.0001639676	-0.001156443	-0.0001916358	0.00107545	0.0007274998	-0.001516314
0.969	-0.001503812	-0.000851758	0.0005348348	-0.001384421	0.001300711	0.001031529	0.001658869	-0.001095169
0.97	-0.0003184922	-0.0005640411	0.0006632342	-0.001158709	0.002564127	0.0006961203	0.002235264	-0.0005443331
0.971	0.0009831968	-0.0001202397	0.0005255602	-0.000483407	0.003181691	0.0002696631	0.002236093	4.094835e-005
0.972	0.002053876	0.0004559185	0.0002154981	0.0004698229	0.002920105	-4.399966e-005	0.001605877	0.0006015399
0.973	0.002602636	0.001066613	-0.0001149596	0.001395991	0.001807376	-0.0001388741	0.0004794287	0.001086052
0.974	0.002481398	0.001552073	-0.0003200118	0.001965351	0.0001438461	-4.276766e-005	-0.0008395127	0.001432788
0.975	0.001725228	0.001733215	-0.0003219481	0.001944837	-0.001584967	0.0001083376	-0.001964697	0.001562368
0.976	0.0005361917	0.001478724	-0.0001428552	0.00128977	-0.002864788	0.0001459156	-0.002551315	0.00139547
0.977	-0.0007814951	0.0007646183	0.0001048225	0.0001669432	-0.003327127	-4.420648e-005	-0.002415355	0.0008864097
0.978	-0.001892851	-0.0002763429	0.0002826888	-0.00108094	-0.002855736	-0.0004457187	-0.00159058	7.962615e-005
0.979	-0.002520016	-0.001372976	0.0002900306	-0.002047352	-0.001619465	-0.0009076069	-0.0003234143	-0.000868812
0.98	-0.002524199	-0.002202682	9.861479e-005	-0.002413564	-2.319014e-005	-0.001213014	0.0009923417	-0.001722738
0.981	-0.001922963	-0.002484363	-0.0002233792	-0.002049422	0.001445955	-0.001165069	0.001954615	-0.002217555
0.982	-0.0008832524	-0.002085007	-0.0005429045	-0.001064379	0.002375414	-0.0006852558	0.002282126	-0.002153648
0.983	0.0003218229	-0.001083021	-0.0007218162	0.0002239767	0.002550667	0.0001329611	0.001902296	-0.001484622
0.984	0.001388286	0.0002465637	-0.0006715532	0.001400558	0.002008497	0.001045413	0.0009710899	-0.0003556083
0.985	0.002066982	0.001521556	-0.0003810026	0.002103187	0.00100826	0.001746932	-0.0001787781	0.0009297543
0.986	0.002221159	0.002373486	7.696578e-005	0.002140421	-8.051136e-005	0.001981993	-0.001157792	0.001995747
0.987	0.001846632	0.002559403	0.0005638015	0.001542421	-0.0009231016	0.001636874	-0.001660319	0.002509879
0.988	0.001079536	0.002054251	0.0009374179	0.0005542666	-0.001312933	0.0007972755	-0.001552925	0.002312237
0.989	0.0001451993	0.00104431	0.001092385	-0.0004676207	-0.001229019	-0.0002844955	-0.0009187053	0.001468271
0.99	-0.0007121597	-0.0001480669	0.0009847605	-0.001190723	-0.000818935	-0.001280421	-2.203251e-005	0.0002464389
0.991	-0.001290796	-0.001172451	0.0006436895	-0.0014162	-0.0003115066	-0.001895151	0.0007982776	-0.0009678724
0.992	-0.001483583	-0.001764499	0.000154566	-0.001140415	8.426609e-005	-0.001961652	0.001253919	-0.001804789
0.993	-0.001304621	-0.001827066	-0.0003737722	-0.0005446702	0.0002521697	-0.001492842	0.0012049	-0.002038596
0.994	-0.0008750282	-0.00144292	-0.0008394167	8.565479e-005	0.0001954932	-0.0006661501	0.0006983243	-0.001661335
0.995	-0.0003610462	-0.0008068899	-0.001151689	0.0004928276	2.771044e-005	0.0002581438	-4.863466e-005	-0.0008607734
0.996	7.634144e-005	-0.000150193	-0.001251586	0.0005363333	-0.0001060269	0.001018026	-0.000748172	5.03185e-005
0.997	0.0003319073	0.0003432026	-0.001117869	0.000241938	-0.0001049957	0.001427942	-0.00115236	0.0007527775
0.998	0.0003953197	0.0006011662	-0.0007595686	-0.0002094018	5.213528e-005	0.001431072	-0.001133108	0.001045889
0.999	0.0003349158	0.0006558996	-0.000225143	-0.0005706691	0.0002945476	0.001089235	-0.0007248022	0.0009045751
1	0.0002563747	0.0006005639	0.0003947587	-0.0006381403	0.0004948581	0.0005414087	-9.94729e-005	0.0004692182
1.001	0.0002527073	0.0005306591	0.0009773682	-0.000338261	0.0005346967	-4.916246e-005	0.0005091921	-2.515427e-005
1.002	0.0003645442	0.0005017147	0.001394835	0.0002440653	0.0003693761	-0.0005365209	0.0009034858	-0.0003451962
1.003	0.000547033	0.0004969739	0.001532565	0.0008850444	4.042409e-005	-0.000832643	0.0009817564	-0.0003629673
1.004	0.0006884317	0.0004489902	0.001326628	0.001310985	-0.000335668	-0.0009107423	0.0007641681	-9.940591e-005
1.005	0.0006713824	0.0002971816	0.0008021039	0.00132	-0.0006025522	-0.0007857615	0.0003778692	0.0003041997
1.006	0.0004174447	1.816499e-005	6.703312e-005	0.0008552487	-0.0006439285	-0.0005092258	-1.849194e-005	0.0006423638
1.007	-6.143872e-005	-0.0003458443	-0.0007048456	3.888922e-005	-0.0004305329	-0.0001515272	-0.0002999028	0.0007382861
1.008	-0.0006463742	-0.0006908671	-0.001314612	-0.000861883	-3.026133e-005	0.0002128822	-0.0004147868	0.0005215258
1.009	-0.001145419	-0.0008923598	-0.001597101	-0.001532357	0.0004130455	0.0005130103	-0.0003890613	5.51226e-005
1.01	-0.001369629	-0.0008654257	-0.001479079	-0.001732078	0.0007260107	0.0006839488	-0.0003020316	-0.000499889
1.011	-0.001205168	-0.0006017931	-0.0009993869	-0.001381722	0.0007752391	0.0006848098	-0.0002333296	-0.0009466877
1.012	-0.0006598208	-0.0001710507	-0.000290925	-0.0005868514	0.0005276495	0.0005177086	-0.0002143592	-0.001123669
1.013	0.0001107335	0.000285722	0.000446731	0.0003824529	4.859391e-005	0.0002207828	-0.0002301375	-0.000977424
1.014	0.000857222	0.0006163726	0.001014103	0.001195387	-0.0005102245	-0.0001310314	-0.0002280478	-0.0005687436
1.015	0.00132826	0.0007195523	0.001275234	0.001581422	-0.0009580004	-0.0004410068	-0.0001519489	-3.81288e-005
1.016	0.001359389	0.0005777651	0.001187939	0.001421005	-0.00113406	-0.0006242176	1.638966e-005	0.0004490442
1.017	0.0009401672	0.0002631493	0.0008088075	0.0007855776	-0.0009616258	-0.0006353828	0.0002398563	0.0007646063
1.018	0.0002292867	-8.743404e-005	0.000271347	-8.527777e-005	-0.000469757	-0.0004795077	0.0004420185	0.0008603825
1.019	-0.0004987731	-0.0003247559	-0.0002574754	-0.0008689419	0.0002174334	-0.0002065598	0.0005456321	0.0007722444
1.02	-0.00097127	-0.000359581	-0.0006414743	-0.001288637	0.0009015151	9.68807e-005	0.0004996019	0.0005767394
1.021	-0.001013867	-0.0001873381	-0.0008014201	-0.001201883	0.001380598	0.0003468155	0.00031606	0.0003567677
1.022	-0.0006210438	0.0001116858	-0.000725433	-0.000647786	0.001509704	0.0004905062	6.776223e-005	0.0001645979
1.023	2.889091e-005	0.0003940939	-0.0004705534	0.00015997	0.001231858	0.0005109859	-0.0001534279	-1.938391e-006
1.024	0.0006503834	0.0005188998	-0.0001295888	0.0009184517	0.0006041477	0.000430996	-0.0002735869	-0.0001750902
1.025	0.0009683006	0.0004084609	0.0002005405	0.001345846	-0.0002131833	0.0002961372	-0.0002699283	-0.0003802077
1.026	0.00083081	8.099469e-005	0.000440005	0.001279194	-0.001001451	0.0001505246	-0.0001796419	-0.0006054529
1.027	0.0002699292	-0.0003597414	0.0005339525	0.00072363	-0.001550572	1.293096e-005	-8.470282e-005	-0.0007982433
1.028	-0.0004932489	-0.0007489229	0.0004690839	-0.0001387914	-0.001705888	-0.0001160216	-5.938417e-005	-0.0008707843
1.029	-0.001136855	-0.0009253189	0.0002699864	-0.001013866	-0.00141515	-0.0002456844	-0.0001309817	-0.0007435138
1.03	-0.001379733	-0.0008061915	-1.764119e-005	-0.001607193	-0.0007593135	-0.0003868119	-0.0002715921	-0.0004002816
1.031	-0.001087775	-0.0004093481	-0.0003216737	-0.001709796	8.307085e-005	-0.0005231425	-0.0003965704	9.843315e-005
1.032	-0.0003391784	0.0001437286	-0.0005588269	-0.001270997	0.0008824671	-0.0006112387	-0.0004069157	0.0006214234
1.033	0.0005960383	0.000666431	-0.0006547416	-0.0004165891	0.001420153	-0.0005969574	-0.0002424163	0.001006231
1.034	0.001361014	0.0009761777	-0.0005651108	0.0005936138	0.001554792	-0.0004380529	8.182946e-005	0.001121292
1.035	0.001661665	0.0009693138	-0.0002866355	0.001457165	0.001271437	-0.0001249265	0.0004776998	0.000926057
1.036	0.001379789	0.0006564648	0.0001265278	0.001918055	0.0006777348	0.0002987297	0.0008099569	0.000488017
1.037	0.0006135843	0.0001513414	0.0005594107	0.001835759	-4.105335e-005	0.0007312202	0.0009420017	-4.815115e-005
1.038	-0.000345512	-0.0003554582	0.0008789195	0.001240154	-0.0006661257	0.001051753	0.0008068561	-0.0005002964
1.039	-0.001137123	-0.000676971	0.0009691944	0.0003104537	-0.001024075	0.001152828	0.0004304541	-0.0007276483
1.04	-0.001478773	-0.0007051353	0.00077247	-0.0006851857	-0.001043452	0.0009744637	-7.790689e-005	-0.0006873577
1.041	-0.001268258	-0.0004463541	0.0003249292	-0.001465027	-0.0007636804	0.0005359858	-0.0005612529	-0.000441684
1.042	-0.0006192864	-1.881649e-005	-0.0002445152	-0.001815092	-0.0003122739	-6.36971e-005	-0.0008721984	-0.0001257027
1.043	0.0001882042	0.0003899205	-0.0007559213	-0.001654494	0.0001422127	-0.0006759076	-0.000928926	0.0001111521
1.044	0.0008254212	0.0005947188	-0.001042613	-0.001056809	0.0004481669	-0.001147845	-0.0007439436	0.0001700982
1.045	0.001063236	0.0005012036	-0.001000763	-0.0002087305	0.0005360305	-0.001356181	-0.0003995155	5.689434e-005
1.046	0.0008494457	0.0001355701	-0.0006432319	0.0006366967	0.0004222051	-0.001251454	-1.988451e-005	-0.0001347575
1.047	0.0003174921	-0.0003639954	-0.0001015998	0.001237624	0.0001888884	-0.0008699614	0.000279123	-0.0002716221
1.048	-0.0002720702	-0.0007893599	0.0004282264	0.001441712	-4.52096e-005	-0.0003095367	0.0004390508	-0.0002384567
1.049	-0.0006589629	-0.0009511329	0.0007531608	0.001221522	-0.0001846084	0.000295341	0.0004658081	-4.210936e-006
1.05	-0.0006973037	-0.0007563764	0.0007582737	0.0006744812	-0.0001937533	0.0008112973	0.0004100688	0.0003541744
1.051	-0.0004112789	-0.0002478861	0.00045648	-1.099365e-005	-0.0001032889	0.001138394	0.0003331465	0.0006810119
1.052	3.310171e-005	0.00041378	-7.382557e-006	-0.0006131458	1.914113e-005	0.001232831	0.0002785201	0.0008143568
1.053	0.0004021575	0.0009969043	-0.0004242135	-0.0009587399	9.408223e-005	0.001095221	0.0002420941	0.0006505053
1.054	0.0005101021	0.00128666	-0.0006044768	-0.0009730944	7.212444e-005	0.0007619618	0.0001829865	0.0002019092
1.055	0.0003185057	0.001178055	-0.0004503237	-0.0006855663	-2.972092e-005	0.0003000439	6.278406e-005	-0.0003864507
1.056	-5.834685e-005	0.0007022503	-1.227956e-005	-0.0002223093	-0.0001490953	-0.0002142452	-0.0001345592	-0.0008977281
1.057	-0.0004052069	1.905874e-005	0.0005284092	0.0002476493	-0.0002049801	-0.0006986998	-0.0003787285	-0.001124569
1.058	-0.0005092533	-0.0006402182	0.0009328934	0.0005766679	-0.0001345039	-0.001065871	-0.000592303	-0.0009518895
1.059	-0.0002706367	-0.001060557	0.001001041	0.000685302	7.119801e-005	-0.00123281	-0.0006790501	-0.0004119005
1.06	0.0002308047	-0.001128765	0.0006505808	0.0005730518	0.0003458478	-0.001145211	-0.0005728416	0.0003120229
1.061	0.0007634539	-0.0008654812	-3.632047e-005	0.0003101401	0.0005717822	-0.0007939277	-0.0002706889	0.000953106
1.062	0.001049234	-0.0004003942	-0.0008285942	7.975798e-006	0.0006330575	-0.000228801	0.0001603862	0.001267078
1.063	0.0008784875	7.098109e-005	-0.001443272	-0.0002422437	0.0004486102	0.0004250744	0.0005844513	0.001113786
1.064	0.0002269204	0.0003787945	-0.001643696	-0.0003917569	2.326149e-005	0.000996173	0.000850675	0.0005252677
1.065	-0.0007068264	0.0004493161	-0.001326984	-0.000437613	-0.0005355454	0.0013149	0.0008534121	-0.0002959277
1.066	-0.001570259	0.0003217527	-0.0005715689	-0.0004128244	-0.001051288	0.001266002	0.0005713834	-0.001052116
1.067	-0.001991458	0.0001207585	0.0003898135	-0.0003567912	-0.001334022	0.0008373602	8.193363e-005	-0.001459415
1.068	-0.001729346	-3.057682e-006	0.001256027	-0.000282384	-0.00124178	0.0001444568	-0.000458135	-0.001350092
1.069	-0.0007843462	5.409671e-005	0.001765614	-0.0001674428	-0.0007358987	-0.000593396	-0.0008623622	-0.0007363909
1.07	0.0005673767	0.0002826846	0.001771945	1.336802e-005	7.859073e-005	-0.001131106	-0.0009928076	0.0001772818
1.071	0.001873303	0.000570048	0.001295609	0.0002710511	0.0009862709	-0.001275224	-0.000797562	0.00107428
1.072	0.002668313	0.0007485291	0.0005065052	0.0005753891	0.001722735	-0.0009585395	-0.0003301111	0.001639709
1.073	0.0026406	0.0006634965	-0.000351727	0.0008387457	0.00204475	-0.0002836124	0.0002600284	0.001664467
1.074	0.001762204	0.0002596223	-0.001039825	0.0009468413	0.001819303	0.0005112973	0.0007849589	0.001128721
1.075	0.0003079714	-0.0003771723	-0.001395032	0.0008065757	0.001074505	0.001133362	0.001083097	0.0002119807
1.076	-0.001242724	-0.0010398	-0.001370453	0.0003936867	-2.105614e-006	0.001341017	0.00107032	-0.0007707275
1.077	-0.002386245	-0.001479133	-0.001035227	-0.0002241393	-0.001122126	0.001033229	0.0007554804	-0.001487204
1.078	-0.002763017	-0.001490154	-0.0005226191	-0.0008813853	-0.001969519	0.0003039017	0.0002404965	-0.001697095
1.079	-0.00228487	-0.001003354	2.0576e-005	-0.001366015	-0.002300228	-0.0005887438	-0.0003224124	-0.001339066
1.08	-0.001165893	-0.0001370801	0.0004673298	-0.001504314	-0.002029912	-0.001321474	-0.0007915393	-0.0005601862
1.081	0.000181139	0.0008450894	0.0007459629	-0.001218042	-0.001245148	-0.001614611	-0.001064768	0.0003516375
1.082	0.001301088	0.001617737	0.0008363946	-0.0005667874	-0.0001785686	-0.001341396	-0.001101538	0.001071209
1.083	0.001859079	0.001906247	0.0007541464	0.0002608048	0.00086247	-0.0005817032	-0.0009210724	0.001353158
1.084	0.00175237	0.001590163	0.0005361554	0.001010175	0.001595505	0.0004061821	-0.0005808616	0.001119719
1.085	0.001131355	0.0007585538	0.0002376401	0.001455256	0.001855377	0.001283659	-0.0001452533	0.0004912072
1.086	0.0003104152	-0.0003229048	-7.967168e-005	0.001472541	0.001630091	0.001749283	0.0003236009	-0.0002694616
1.087	-0.0003781407	-0.001308711	-0.0003573773	0.001076054	0.001043453	0.001641511	0.0007619739	-0.0008663395
1.088	-0.0007023716	-0.001876381	-0.0005327262	0.0004213919	0.0003176887	0.001005996	0.001112907	-0.001069333
1.089	-0.0006181096	-0.001844821	-0.0005607693	-0.0002645946	-0.000319868	6.670026e-005	0.001310756	-0.0008089848
1.09	-0.0002666024	-0.001234577	-0.0004335966	-0.0007703151	-0.0007167348	-0.0008599703	0.001284486	-0.0002004039
1.091	0.0001158882	-0.0002478329	-0.0001845136	-0.0009660074	-0.0008288105	-0.001473155	0.0009851476	0.0005110183
1.092	0.0003125354	0.0008040522	0.0001151069	-0.00084116	-0.0007167228	-0.00158993	0.0004179181	0.001047196
1.093	0.0002193457	0.001600541	0.0003698305	-0.0004995671	-0.000507443	-0.001204027	-0.0003372062	0.001199506
1.094	-0.0001186893	0.001908814	0.0004889227	-0.0001076099	-0.0003335599	-0.0004779704	-0.001125159	0.0009023319
1.095	-0.0005251314	0.00166022	0.0004326026	0.0001865774	-0.0002627011	0.000333173	-0.001734458	0.0002636376
1.096	-0.0007913219	0.000945681	0.0002177007	0.0002962568	-0.0002855393	0.0009647408	-0.001969257	-0.0004937854
1.097	-0.0007769639	-2.621353e-005	-8.717128e-005	0.0002200366	-0.0003313805	0.001228429	-0.001718653	-0.001119387
1.098	-0.0004637389	-0.0009876721	-0.0003772037	3.634739e-005	-0.0003004016	0.001074469	-0.0009997973	-0.001416476
1.099	3.207751e-005	-0.001693902	-0.0005562456	-0.0001458415	-0.0001248355	0.0005889895	2.252597e-005	-0.001310624
1.1	0.0005154163	-0.001980444	-0.0005713786	-0.0002358679	0.0001901842	-4.742851e-005	0.00107295	-0.000861242
1.101	0.0008043717	-0.001788369	-0.0004263319	-0.0001921061	0.000564825	-0.0006225464	0.001848808	-0.0002218532
1.102	0.000816676	-0.001159057	-0.0001666162	-2.450203e-005	0.0008808292	-0.0009538723	0.002125993	0.000431273
1.103	0.0005895185	-0.0002305969	0.0001322263	0.000207044	0.001017865	-0.0009507013	0.001826417	0.0009494182
1.104	0.0002568141	0.0007950186	0.0003963109	0.000423262	0.0009075061	-0.0006297648	0.001050525	0.001250114
1.105	-1.215268e-005	0.001697619	0.0005844139	0.0005647224	0.0005739165	-9.448992e-005	5.460725e-005	0.001325091
1.106	-0.0001104288	0.002263452	0.000677748	0.0005920101	0.0001113191	0.0004873766	-0.0008502903	0.001199063
1.107	-4.107566e-005	0.002333034	0.0006727209	0.0004933616	-0.0003504705	0.0009359785	-0.001403118	0.0009012416
1.108	9.104541e-005	0.001848645	0.0005689691	0.0002820405	-0.0006920575	0.001111312	-0.001477916	0.0004546907
1.109	0.0001356214	0.0008813053	0.0003604948	-1.2574e-005	-0.0008478643	0.0009510141	-0.001119734	-0.0001155948
1.11	-2.659157e-005	-0.0003737714	3.690692e-005	-0.0003543927	-0.0008296979	0.0004822031	-0.0005227138	-0.0007621898
1.111	-0.0004045364	-0.00162456	-0.0003882595	-0.0006920388	-0.0007021005	-0.0001767755	5.823148e-005	-0.001385616
1.112	-0.0008666816	-0.002541883	-0.0008485155	-0.0009498292	-0.0005336681	-0.0008395463	0.0004160801	-0.001829112
1.113	-0.001201767	-0.002867237	-0.001232767	-0.001053017	-0.0003733516	-0.001312095	0.0004568393	-0.001932097
1.114	-0.0012001	-0.002484137	-0.001399083	-0.0009375601	-0.0002169651	-0.001440105	0.0002374446	-0.001582128
