-2.24363,-4.28285,-3.04609,-1.61636,-4.02169,-1.71791,-0.694398,1.2832,-9.36889,-0.859114,0.612363,-0.67234,-1.64839,-1.68024,0.638405,0.525031,12.688,-825.208,-562.176,2100,980,420
-1.17647,-1.46939,-1.33787,1.88495,-1.16192,-0.121459,2.31378,0.838262,-13.1157,-5.17433,-1.9957,-3.56504,-4.40725,-3.54306,1.48663,-0.675987,15.616,-824.72,-563.152,2100,840,560
-3.02723,-1.85564,-1.13627,3.46629,0.620155,-0.361932,3.53565,-1.39825,-13.1709,-7.51892,-2.49531,-6.35977,-6.90945,-3.52978,0.755525,-2.04945,14.64,-823.744,-564.128,2100,840,560
-3.76575,0.086962,-0.722432,4.06034,1.97935,-0.744798,3.24444,-1.32153,-9.1239,-5.00485,-3.98738,-7.22035,-7.74193,-4.13024,-1.98554,-3.74048,12.688,-821.304,-561.688,2240,700,420
-1.54839,2.45594,0.228167,3.213,1.62453,0.109911,0.0645414,-2.1939,-2.48269,-1.65038,-4.04347,-5.89423,-4.51123,-2.81181,-6.43694,-4.94561,13.176,-823.256,-563.152,2380,560,420
0.208398,2.33816,0.33463,1.47649,2.42564,1.1061,1.12515,-3.17628,1.07381,0.59796,-0.879812,-1.53551,0.918925,1.50433,-5.24534,-2.18596,12.688,-818.864,-565.104,2660,560,420
1.11513,3.93302,0.391722,2.91118,3.01951,0.452604,1.36426,-2.97388,2.22022,-0.501611,-2.64289,-1.36408,-1.60217,-0.950927,-4.02958,-3.66033,15.616,-818.864,-563.64,2660,280,420
2.87216,8.62236,1.24119,6.22136,5.01139,0.0960944,0.941343,-4.59596,2.23268,-2.86182,-9.06827,-2.77218,-6.78719,-6.1037,-4.57761,-7.19094,17.08,-819.84,-563.64,3080,280,420
1.38256,8.58516,1.36727,3.91464,4.21372,1.15683,1.21594,-5.27424,1.11588,-1.26922,-8.06382,-1.67839,-4.99975,-5.34254,-0.68535,-5.58346,16.592,-822.28,-563.152,2800,0,280
-1.93098,1.65101,-0.671464,-2.47117,-0.0500095,1.35649,-3.38125,-4.40597,2.38926,4.00504,-0.602069,2.89002,2.32593,0.195941,0.0448137,-0.734765,18.056,-820.816,-563.64,2800,-420,280
-5.53609,-7.10105,-2.54536,-8.07635,-4.53206,-1.50431,-6.14662,-3.75266,3.33881,5.4918,5.07431,5.58063,5.87874,4.20336,0.0388,4.25036,16.104,-823.744,-561.688,2660,-700,140
-1.75191,-3.84784,0.305494,-3.67532,-3.08623,0.694434,-2.42817,-0.583832,2.74511,1.62774,3.1547,4.32171,2.82714,3.63802,0.199674,3.38737,16.592,-818.376,-559.248,2660,-700,140
4.32699,0.422332,2.2765,-1.1021,-1.81839,1.58373,-3.31412,1.18987,5.83424,1.97268,2.43868,4.35149,2.70801,3.37471,-4.38508,0.257172,16.592,-821.792,-560.712,2660,-840,0
4.25901,0.0611385,3.80971,-1.53929,-0.739286,2.50467,-1.94471,3.91752,4.79086,4.07465,5.13852,2.88249,4.21421,4.9444,-3.21842,2.73182,16.592,-821.304,-562.176,2520,-980,0
2.82234,-0.363378,3.88752,-0.83683,2.06276,2.88991,3.36949,4.91068,1.55702,3.98786,4.39315,0.142576,4.05389,4.85284,4.55469,6.36322,18.056,-822.768,-561.2,2520,-700,-140
0.0501856,-3.41392,0.65502,-3.00383,0.314424,0.604448,2.12918,0.760134,2.50017,2.77326,4.2123,-1.00695,4.15886,4.13889,7.56018,6.53175,15.128,-820.816,-563.64,2380,-560,-140
-0.706446,-3.12563,-0.538883,-3.11253,-2.12083,-0.32871,-1.39251,0.622202,2.2519,1.6392,3.65722,-0.728955,4.19859,3.33501,2.41232,4.37574,14.152,-819.84,-560.224,2100,-560,-560
-4.97072,-7.58772,-3.78224,-7.9925,-5.95405,-3.22555,-5.729,0.373913,1.03081,1.97356,6.82696,0.469492,6.52509,5.70065,0.126964,5.7264,15.616,-822.28,-560.712,2100,140,-700
-4.57308,-5.60285,-2.71892,-5.73364,-2.42783,-1.36957,-1.5198,1.80208,-1.84565,0.0906101,5.94002,1.82474,5.61053,4.67268,4.67029,5.90346,12.688,-821.304,-562.664,1960,420,-840
1.21238,2.57498,0.512219,4.23676,2.76331,-1.27937,1.97761,1.26606,-3.69632,-6.59117,-3.33673,-1.10627,-2.62687,-3.88799,1.98944,-3.54628,13.176,-825.208,-561.688,1820,280,-840
4.21685,6.56703,1.32322,7.21914,5.1957,-0.928144,3.37225,1.80873,-2.83207,-6.9051,-5.91862,-1.84047,-5.25894,-5.95445,0.0412995,-5.22137,13.176,-823.744,-564.616,1820,560,-840
4.61953,6.73108,0.465866,9.16788,5.99354,0.204162,5.73428,2.41496,-3.39804,-9.01809,-9.92146,-4.15152,-8.31746,-8.34078,2.39786,-5.94738,13.664,-826.184,-562.664,2100,560,-840
6.04866,7.88001,2.74987,9.59611,7.09055,0.9686,5.29172,1.34343,0.270097,-7.65136,-9.04707,-2.99452,-7.81904,-7.68921,0.317453,-7.08263,16.592,-830.088,-563.152,2240,700,-840
3.43107,4.06106,4.11565,2.12691,3.42824,1.8225,1.67695,1.39161,4.61384,1.24496,0.659346,2.17735,0.335521,-0.0691028,-2.35179,-1.65534,16.592,-827.648,-561.2,2520,980,-700
-3.5277,-6.06508,-0.434418,-6.61001,-3.41536,0.0670086,-1.66561,0.129714,3.41978,7.87395,6.86876,3.60769,7.82553,6.32687,0.52176,4.3832,14.64,-826.672,-563.152,2940,700,-700
-2.65871,-3.46414,-0.759204,-2.06191,-2.27355,-0.0570052,1.18301,-0.959803,-0.193811,3.98228,1.75791,-0.329475,3.42014,2.8679,1.42271,1.58061,14.64,-826.672,-565.104,3220,700,-560
-3.39165,-1.87782,-1.65974,1.23963,-3.28497,-0.43883,0.531991,-3.28798,-3.60861,-0.914215,-2.65644,-3.17134,-2.19203,-2.7295,-0.288153,-2.34138,15.616,-827.16,-563.64,3360,840,-560
-1.06936,-0.0564927,-2.03821,1.24506,-3.70187,-0.414829,-0.0918253,-2.26255,-2.06216,0.660576,-1.35018,-2.21997,-2.46888,-3.98932,-0.746309,-2.68037,15.616,-824.232,-564.128,3640,840,-560
2.97038,2.85432,-0.984223,1.99161,-1.66383,-0.49439,1.68681,0.253128,1.78536,1.80132,-0.457214,-0.985933,-2.42225,-2.44952,0.727768,-0.561706,14.64,-825.208,-563.64,3640,980,-420
7.32803,6.78,1.88641,2.405,1.95639,-0.343598,3.12592,0.566581,6.05981,3.8237,0.898843,0.828942,-2.04939,-0.229601,0.278809,0.238309,15.128,-823.744,-560.224,3640,980,-280
6.01459,6.07058,2.19703,1.28837,0.967898,-0.0110453,0.828069,-0.197235,6.51044,3.19226,0.212773,1.05277,-2.70071,-0.925794,-1.95689,-1.24073,16.104,-823.256,-565.104,3500,840,-280
-1.48928,-1.13475,-0.971986,-1.17321,-1.94791,0.324161,-0.877892,0.0722898,1.48274,0.317451,-1.24536,0.92177,-2.01127,-0.361482,-1.54195,-0.247539,16.592,-822.28,-565.104,3500,840,-420
-6.55787,-7.61101,-3.92518,-5.51549,-6.24783,-1.27933,-3.4151,-1.48572,-0.523698,-0.702055,2.08713,0.851743,0.539917,2.35027,-2.84746,1.40711,15.616,-816.912,-561.2,3080,700,-560
-10.5388,-12.8669,-5.02927,-7.65081,-6.60622,-2.20778,-5.835,-2.47656,-3.52698,-1.0243,3.3963,0.685631,3.48571,4.81752,-2.2306,2.72298,18.056,-820.328,-563.64,3220,560,-420
-4.74074,-4.12421,-0.866618,1.55032,1.33153,-0.312415,-0.873518,0.460426,-7.03485,-4.53613,-4.08683,-1.3008,-1.77721,-0.738091,-0.411483,-3.27675,15.616,-818.376,-564.616,2940,280,-560
-1.97184,1.47558,1.45929,3.25569,4.96439,2.13206,1.83774,2.65867,-6.47348,-3.94081,-5.23191,0.673661,-2.05821,-1.1453,1.76574,-2.7779,15.616,-820.328,-564.128,2380,140,-700
-3.5788,0.0329367,-0.28107,-2.3003,1.82122,1.20048,-2.73966,-0.475187,-2.91881,0.946751,0.32165,3.65548,2.19067,0.844149,-0.358966,0.142703,16.592,-815.936,-563.152,2100,280,-700
-3.87062,-2.3439,-1.6101,-6.37644,-1.42175,-0.0490968,-5.29921,-3.05931,-1.15186,4.33033,4.69863,4.44416,4.6703,2.39165,-1.56597,3.23467,20.008,-818.864,-565.104,2100,280,-840
-3.63039,-4.19345,-3.17148,-7.77793,-3.57384,-2.0978,-6.73157,-2.50559,-0.412343,3.59765,5.48029,2.31515,4.99986,3.57377,-0.248361,4.77502,16.592,-819.352,-564.128,2100,280,-700
1.41001,1.52053,-1.33645,1.31545,0.00385588,-2.30734,-1.44076,0.365419,-2.48581,-4.38189,-2.78355,-3.47342,-2.93086,-2.37093,0.531567,0.145892,19.52,-820.328,-568.52,1960,140,-560
6.14686,6.26524,4.29697,6.97423,5.30925,1.66636,4.37379,3.43312,-2.93059,-5.34306,-4.5868,-4.37922,-5.18143,-3.79726,1.36707,-0.985145,18.056,-817.888,-567.056,1680,0,-560
3.18643,-0.280552,2.57417,0.146384,1.43516,1.69042,1.14197,0.845084,-0.665701,0.811262,3.23124,-0.377333,1.87616,1.44249,0.895425,2.36451,16.104,-821.792,-567.056,1820,-280,-420
1.79273,-3.12007,2.04795,-1.34354,0.256877,2.23272,1.79611,0.646751,0.0604847,1.46991,6.77639,0.917054,4.36706,3.81213,2.20076,4.06069,15.616,-822.28,-564.128,1820,-420,-560
7.49751,6.34414,3.89798,5.30589,4.31,2.44401,3.56015,2.1776,0.291018,-1.84845,1.4097,-1.34415,-1.02554,-1.28441,-0.53429,-0.840054,17.08,-821.304,-569.008,2100,-560,-560
10.8228,13.1351,5.21229,10.7174,7.02358,2.88534,4.0025,2.62915,0.907465,-4.51627,-4.26328,-3.16527,-6.15533,-6.03708,-5.02589,-6.53026,16.104,-823.256,-565.592,2100,-560,-420
5.98211,5.83361,2.36083,4.02702,2.27399,0.650048,0.239327,1.00025,3.79817,0.833214,-0.473928,-0.593626,-2.27994,-2.89055,-2.85929,-4.64854,17.08,-821.304,-562.664,2380,-700,-420
-1.89779,-3.78026,-2.27097,-2.39891,-2.4685,-2.47685,0.50276,-0.0456155,2.82253,3.12715,0.0962277,0.712831,1.42859,1.0818,1.66231,0.621722,16.592,-824.232,-564.128,2520,-700,-420
-6.30943,-7.78724,-3.35908,-5.06581,-3.86634,-4.15386,1.89257,1.84734,3.94953,4.42907,1.53896,0.93629,3.59197,1.96777,5.07788,4.3255,15.128,-821.792,-564.128,2660,-560,-560
-4.22507,-5.01367,-3.02844,-3.49706,-1.96571,-4.54151,0.718091,-0.405817,5.7605,3.33286,-0.183629,1.16227,3.09851,0.367714,4.66856,2.66744,14.152,-826.184,-563.64,2940,-560,-560
0.620621,3.62604,-0.00923781,5.4533,4.58281,-0.788427,6.38825,0.892107,1.99841,-3.84744,-8.10105,-2.25283,-3.59244,-3.70743,4.21542,-1.70837,10.736,-826.184,-562.664,3220,-280,-560
3.23917,6.54609,2.55448,6.90345,6.42203,2.54192,7.8761,1.47565,-2.11951,-3.36363,-8.03672,-2.07233,-5.78547,-1.78099,2.70019,-2.841,13.176,-824.72,-562.664,3640,-140,-560
0.0847421,1.38524,0.971961,-0.496647,-0.00178066,2.00332,-0.27801,-1.06418,-2.09058,2.69251,-0.832,1.30632,-0.362159,3.61861,-4.24013,-0.819926,13.176,-825.208,-562.176,3780,-140,-560
-3.48094,-5.1382,-2.23874,-7.8084,-6.30286,-0.883493,-7.35413,-2.29066,0.0582783,5.94168,5.61386,3.96737,5.47008,6.68118,-7.39417,2.38389,18.056,-823.744,-567.056,3920,-280,-420
-1.00123,-4.08993,-0.877511,-6.30641,-7.40918,-1.94444,-7.87889,-4.00322,3.33637,3.78999,6.71197,4.4495,4.76803,4.28285,-5.24064,-0.0677209,12.688,-823.744,-564.128,3920,140,-560
-1.11947,0.705941,-0.566996,-1.20805,-5.24382,-0.739942,-5.92384,-4.33442,2.71549,-1.55942,2.14689,1.17788,-0.00365714,-1.64463,-1.3881,-3.78703,13.664,-822.768,-563.64,4480,0,-560
-1.70593,1.52797,-0.974985,-2.78334,-4.75739,0.896754,-7.0857,-5.10627,2.83766,0.583041,4.51036,1.46265,2.06342,-0.781075,-2.36418,-1.95623,15.616,-823.256,-563.64,4200,280,-560
-5.7816,-3.4195,-4.09643,-5.78176,-5.27148,0.96832,-6.47095,-3.46103,-0.881575,1.00538,6.42101,0.419101,3.62076,1.08407,-0.673928,1.85733,14.152,-824.72,-562.664,4200,280,-420
-6.45192,-2.82878,-3.51364,1.14438,-0.325594,1.81537,0.374089,-1.65826,-8.12658,-6.95388,-3.5927,-5.88795,-3.13953,-3.75261,2.35765,-1.0207,17.568,-821.304,-562.664,4200,0,-560
0.108611,1.42264,0.230761,4.56272,2.22311,2.39185,2.08817,0.10184,-4.43767,-3.48701,-5.08347,-5.20214,-3.17539,-4.77111,-0.153433,-2.29601,17.568,-821.792,-561.688,3920,0,-560
3.16883,1.98648,0.845759,2.4487,1.4952,1.1936,0.735547,0.61001,1.86356,1.85714,-2.92164,-1.07984,-0.805982,-3.2276,-3.86877,0.0168573,17.08,-821.304,-561.2,3780,-140,-420
0.299698,-4.38285,0.828922,-3.31631,0.321559,0.93774,0.396416,-0.299912,3.77451,5.6815,1.69256,2.45391,4.67869,3.51609,-0.0838551,6.52442,14.64,-821.792,-562.664,3780,-140,-700
1.29594,-1.89043,1.72889,1.2956,4.7489,1.82027,5.37437,0.839412,-2.11043,-0.211534,-1.44896,-0.448163,0.488281,2.60744,5.88931,5.54668,14.152,-820.816,-563.152,3640,-280,-700
-1.85081,-3.53116,0.264486,0.0631297,2.98247,0.250872,4.94746,3.12174,-6.94381,-2.27252,-0.885732,-1.11309,0.454801,2.97732,7.23074,5.0755,14.64,-821.792,-562.176,3500,-280,-560
-2.84348,-6.86846,-1.44379,-5.5195,-2.99853,-1.31636,0.536366,3.68933,-5.02936,1.97805,3.97293,1.5947,5.17804,5.74382,5.49523,5.96485,15.128,-821.304,-565.592,3500,-420,-700
-0.589383,-1.19002,-1.97709,-0.909711,-3.0507,-3.57431,2.01786,1.93421,-6.14711,-4.03486,-2.21254,-2.09444,-1.65649,0.0815593,4.78691,-0.360815,18.544,-823.744,-564.616,3640,-560,-980
1.46431,3.72721,0.297728,3.6024,1.05758,-2.75378,4.2544,2.63185,-6.3608,-5.66994,-5.14309,-3.20139,-6.80328,-1.78115,5.82109,-4.79706,17.08,-823.744,-564.128,3920,-560,-1120
7.54464,11.9193,4.38245,10.1361,6.84211,-0.68006,6.29574,4.21474,-0.488246,-6.15902,-8.42929,-2.24874,-11.0792,-5.69459,2.13952,-9.17559,16.104,-823.744,-565.592,4340,-560,-1260
4.50574,8.596,3.38182,6.03161,3.93428,-1.05658,-0.964452,1.49442,4.42684,-4.08446,-5.99895,0.066817,-7.21325,-4.30541,-5.22383,-6.35786,13.176,-822.28,-562.664,4340,-280,-1400
3.53417,2.09984,2.98043,2.59366,1.87515,-0.314597,-3.85879,0.986533,6.96455,-1.96078,-1.40423,2.1268,-2.63475,-1.81083,-9.66425,-3.19384,15.616,-824.232,-565.104,4620,-140,-1540
0.442753,-4.24233,1.61098,-1.88181,1.34665,0.140214,-1.55492,2.20975,8.69818,2.98839,4.07095,4.18941,2.77073,2.16116,-4.91883,2.39923,15.616,-823.744,-564.616,4900,-140,-1680
0.856728,-3.8731,1.82822,-2.97374,2.28476,0.571111,0.644922,1.76316,9.86981,7.6269,6.75051,5.39761,4.89584,3.95459,-0.196851,5.35221,15.616,-826.672,-566.568,5320,0,-1680
-0.347495,-3.56874,-0.396193,-2.30997,-0.118243,-0.823255,0.143231,1.23695,4.90663,7.07307,7.72435,3.90604,3.78817,2.0918,1.07507,4.06612,15.616,-827.16,-566.568,5740,-140,-1680
-2.0855,-1.48654,-1.3815,-0.0635159,-1.22508,-0.587692,-1.45174,-1.75086,-1.60711,3.26685,3.27349,0.733372,0.544131,-1.76572,-2.06347,-2.08402,13.176,-826.184,-565.592,6160,0,-1680
0.697659,2.90287,-0.417417,1.58644,-0.0379851,1.07651,2.21894,-0.41204,-0.00702408,0.218996,0.928821,-1.50858,-0.539569,-3.22846,-1.27969,-1.8986,15.616,-825.208,-568.032,6580,140,-1680
4.76843,11.0773,2.03494,7.54931,4.50119,2.76354,6.51607,2.02758,1.27134,-4.1482,-3.14279,-4.51698,-4.97432,-6.9739,-0.0637623,-3.98657,12.2,-827.648,-563.152,6860,140,-1820
4.00457,10.6545,1.98068,5.77684,3.31477,3.84534,3.92308,0.0742956,-0.037991,-2.94114,-3.75648,-3.7209,-2.39331,-5.15309,-0.956618,-4.38828,15.128,-825.208,-562.664,7420,280,-1540
-4.50629,-1.12275,-1.75707,-5.16377,-2.74562,1.69068,-1.66141,-1.82246,-1.81586,4.25486,4.12225,1.24951,7.61135,3.48495,0.823964,4.19121,15.128,-824.72,-566.568,7840,280,-1680
-8.06387,-6.05504,-2.17635,-6.92926,-1.36575,-0.616164,-1.84268,-3.7521,-3.57363,3.7578,3.02482,1.74839,7.39807,4.44134,2.92642,5.02776,12.2,-826.672,-565.592,8120,560,-1680
-6.22948,-7.43799,-3.09234,-7.80657,-2.75196,-1.524,-3.93083,-4.17614,-0.616765,2.75012,2.2182,1.15182,6.08065,4.65369,2.24449,3.88675,15.616,-827.648,-565.104,8400,700,-1540
3.72763,-0.525802,-1.63823,-3.45894,-2.88592,-1.94858,-6.66177,-3.20376,9.8492,3.07881,2.19174,2.29008,2.80336,1.30916,-2.26468,-2.77709,15.128,-827.16,-563.64,8680,700,-1400
9.56804,6.01684,0.935534,0.66173,0.553371,-1.2267,-6.91536,-2.77564,13.922,2.23485,0.4632,2.85632,0.333658,0.0680293,-7.61069,-6.56174,15.616,-825.208,-565.104,9100,840,-1540
1.6813,1.43065,-0.40939,-1.70144,-0.77859,-0.162722,-7.62488,-0.968811,3.91788,0.229931,0.827764,2.18469,2.07316,4.18094,-8.84017,-2.26662,14.64,-826.672,-566.08,9240,840,-1260
-8.58356,-11.0392,-3.04925,-6.73534,-6.22474,-0.184657,-6.97559,-0.769788,-7.84692,-1.54575,3.91068,2.18114,4.99958,7.16385,-2.88807,4.21777,14.64,-829.6,-567.544,9660,700,-1120
-8.02951,-13.7781,-2.44813,-6.83195,-5.84186,-1.53606,-3.11989,-1.14626,-9.68438,-0.513874,4.96945,3.65078,4.4999,5.75414,4.31671,6.55345,16.104,-826.184,-560.712,9800,560,-980
-0.606906,-6.1513,-0.39863,-3.24615,-3.54776,-1.37131,0.137314,-1.98946,-3.12076,1.36333,2.84143,2.51333,-0.227547,1.18374,6.14469,2.48238,17.568,-827.648,-564.128,10500,980,-700
5.22011,7.47532,3.70343,9.05684,5.34767,1.39047,8.15764,-1.12625,-6.96059,-6.35697,-9.06942,-4.95042,-11.28,-6.2264,5.56174,-6.60719,16.104,-827.16,-562.176,10780,980,-420
3.62876,11.7029,3.08362,14.1218,6.5318,2.40453,9.73425,1.9264,-12.7458,-12.6417,-14.0804,-9.79553,-14.9862,-10.3451,3.24321,-9.33905,18.544,-828.624,-560.224,10780,840,-280
2.29898,9.08039,1.2337,9.78497,0.88777,1.014,5.18241,0.819356,-10.1913,-9.09833,-10.5451,-7.31434,-10.6319,-9.13917,-0.996356,-7.12118,17.08,-827.16,-564.616,11200,700,0
-1.54431,1.19747,-1.38581,3.4669,-3.19889,0.72039,2.86847,0.119399,-10.2832,-4.49735,-3.90813,-4.43153,-3.51911,-4.73834,1.28522,-0.825539,19.52,-828.136,-563.152,11340,560,280
-7.52922,-10.6938,-4.62602,-5.60584,-7.21138,-0.227658,-1.8492,0.185394,-10.1385,1.28511,3.13744,-1.43377,5.4383,1.83006,5.0307,7.90705,18.056,-828.136,-561.2,12040,560,560
-6.73531,-13.1109,-4.50134,-9.91278,-6.85947,-0.694232,-3.25423,-0.518477,-3.95571,8.4607,6.3149,2.72349,10.5542,6.27374,6.63211,12.451,19.52,-828.136,-561.688,12460,420,700
-1.32955,-5.47818,-3.23901,-5.11473,-3.17145,-0.373199,0.887562,0.180659,3.36264,6.29232,3.05269,0.71909,5.03025,3.35184,5.61732,8.52136,20.496,-827.16,-561.688,12880,560,840
0.0770385,0.582197,-1.87785,1.62985,1.35734,-0.170894,4.10981,2.66508,3.86132,-1.37218,-4.23238,-3.90435,-2.96636,-1.22969,4.40608,1.5656,18.056,-829.6,-563.64,13440,700,980
1.97578,7.32197,1.29313,9.34462,6.09172,0.445861,4.92427,6.24402,1.51503,-7.62869,-10.4327,-7.5836,-10.0297,-6.75473,-0.113094,-5.45037,20.008,-827.648,-562.176,14140,840,1120
4.92938,5.40264,2.55421,1.90264,1.69428,-0.538437,-1.81939,3.62294,11.5327,2.54406,0.540304,-0.0195933,-1.47215,-0.996138,-5.84028,-3.71665,22.936,-829.6,-564.616,14700,840,1400
-1.4628,-5.92892,-1.69227,-11.1055,-5.01151,-2.91518,-8.44433,-1.91565,14.1409,11.1999,12.9864,7.88254,8.68759,7.36788,-7.05003,3.75375,19.52,-828.624,-561.688,15540,980,1540
-0.76858,1.89471,1.82043,-0.601705,5.42509,-0.491221,1.88203,0.626525,4.75842,0.435247,1.65667,3.79283,0.408153,3.53007,-4.40545,1.49569,19.032,-830.088,-565.592,15680,1260,1680
1.33121,2.83548,5.90181,2.35125,8.84489,2.64296,5.82443,2.35736,2.06168,0.0758604,0.252756,5.14432,2.8797,4.19073,-4.59426,2.69416,22.448,-832.528,-561.2,16100,1260,1680
-0.898196,-5.49894,0.532337,-5.56364,-1.14077,-1.09236,-3.18133,-1.5607,6.29094,6.01328,9.21917,6.52419,8.84683,4.58484,-4.96829,3.31797,17.568,-830.576,-564.616,16940,1540,1680
0.79131,-1.46366,-3.3777,-4.17182,-4.37624,-3.6609,-5.368,-2.12664,11.297,3.66462,6.70023,1.71786,2.25867,-2.34124,-4.97471,-0.934882,20.008,-831.064,-567.544,17640,1820,1820
4.65616,9.91757,1.51811,8.48911,6.26169,-0.692698,3.32158,0.967481,5.15971,-7.514,-7.59254,-5.40723,-11.3313,-8.75576,-3.42878,-7.67873,19.032,-830.088,-565.592,18200,1820,1960
5.18894,12.8204,4.09758,17.0639,11.4208,0.57237,10.1361,1.95164,-4.51936,-13.8672,-16.3057,-10.5509,-16.4117,-12.1341,1.29621,-12.6838,18.544,-833.504,-560.712,19040,1680,2100
-3.2389,1.97606,0.0884189,10.8244,4.66158,-1.41233,5.07516,1.50333,-13.3889,-12.2939,-13.8461,-11.1571,-12.5361,-8.7153,2.2451,-8.97337,17.568,-830.576,-563.64,20020,1960,2380
-0.74391,-2.35852,0.195415,-1.01779,-2.95854,-0.853566,-6.93101,-0.336366,-1.87342,0.306762,-0.015822,-0.410413,0.821603,0.187432,-4.60045,-3.17237,17.08,-832.528,-565.104,20580,2100,2520
6.70039,0.636064,4.04402,-8.24377,-3.41576,1.44222,-14.4357,-2.87029,11.1308,12.5893,11.5727,12.6391,12.1473,8.61895,-13.1497,-0.58786,14.152,-833.504,-565.104,21000,1960,2520
1.88704,-6.27636,2.71498,-16.0723,-5.21665,2.30164,-15.1832,-3.56435,9.63219,18.1993,18.7545,18.3172,18.7756,16.4847,-7.44008,6.55854,16.592,-833.504,-560.224,21560,1820,2660
1.10091,-7.89864,0.603271,-17.5385,-7.30002,0.901768,-13.592,-5.44695,9.61811,19.727,20.8105,17.9648,19.1814,15.0808,-1.0201,8.24489,16.104,-834.48,-559.248,22260,1680,2800
-3.47223,-5.76449,0.995037,-7.56602,-0.435448,2.85105,-2.32996,-4.7716,-4.48234,6.47997,8.1015,7.85351,7.72592,8.46449,7.25527,4.95982,15.616,-828.624,-560.712,22820,1400,2940
-6.62624,-7.79752,-1.41564,-3.03555,0.592003,2.14457,6.53121,-2.1402,-11.3425,-0.584515,1.90225,1.19132,3.02445,3.29688,17.0976,5.60312,17.568,-834.48,-560.224,23660,840,3220
0.561187,-2.20154,-3.38364,-0.107882,-0.215737,-0.162865,11.7551,1.20032,0.0307805,-1.0164,0.0231702,-2.30477,0.392297,-0.129497,21.0484,6.26387,18.544,-836.92,-560.712,23940,140,3640
8.29834,8.77939,-1.74588,8.00585,1.70215,0.296791,16.2237,3.49257,6.96837,-4.87546,-7.1428,-7.65931,-6.98895,-8.21386,20.3777,0.357554,16.104,-833.504,-563.152,24080,-420,3920
12.8448,21.2968,4.46924,21.8678,9.16525,2.92062,18.7543,5.24178,-3.01908,-14.7354,-18.7195,-14.1395,-18.5248,-16.6233,10.1629,-10.5532,17.568,-835.944,-565.104,23800,-420,4200
10.3271,27.5936,8.94102,28.1564,14.5669,5.57968,18.5423,6.33913,-13.743,-20.9948,-25.1596,-16.0267,-22.7646,-18.1027,-0.466175,-14.0619,15.616,-841.312,-560.224,23380,-280,4760
-5.92118,5.25891,2.03825,7.93379,2.10758,3.39338,7.73061,6.12274,-17.8897,-9.36957,-8.05324,-8.08004,-6.18124,-3.51565,-2.12468,1.66643,18.056,-837.408,-562.664,24080,-280,5040
-8.60306,-6.44612,-2.79433,-3.30693,-4.01646,1.56107,3.42729,6.93106,-7.70173,-0.881512,2.53555,-2.76483,1.45573,5.00062,-0.395515,10.6241,20.008,-837.896,-563.64,24780,-560,5460
8.63073,8.36439,4.00409,2.53889,1.13584,1.64313,-0.906322,2.98377,8.08664,2.40754,0.994782,1.88421,-0.911127,-0.20436,-8.51515,0.231858,20.008,-836.432,-567.544,23380,-140,5600
6.04179,4.10609,4.72943,0.466595,0.481062,-0.270626,-8.79129,-1.39006,3.85551,3.60415,1.8012,4.61798,2.93028,0.356367,-14.226,-2.14941,18.544,-834.968,-560.224,19600,700,5600
-3.95441,-4.37266,-0.183243,-2.27946,-1.1915,-2.45806,-8.51309,-1.63983,-3.19208,-0.718089,0.362474,1.9475,2.79771,0.979527,-10.4432,0.167167,15.616,-834.48,-546.072,17920,1120,5600
-7.48535,-5.85004,-2.31417,3.25293,1.69987,-2.66856,-1.22355,-2.28061,-12.2296,-9.22142,-6.48793,-5.64153,-4.93915,-4.05943,-6.73952,-4.05514,13.664,-830.576,-544.608,20720,-140,6160
-2.68571,-4.22784,-5.43062,-1.27497,-5.07881,-5.40589,-6.58229,-6.89954,2.13982,-0.424877,-1.14349,-2.26712,-1.44219,-4.87417,-9.81521,-6.01104,15.128,-829.112,-547.048,24780,-2240,6720
-6.56414,-12.0358,-9.81365,-12.1662,-12.0728,-4.0833,-8.61715,-4.79507,10.5343,6.65224,6.68913,1.41405,6.1719,2.93746,-3.71336,3.39163,13.176,-830.088,-550.464,26740,-3780,7280
-11.8055,-13.7403,-9.23581,-11.3018,-9.41507,-3.40418,-9.32898,-4.37473,-0.544929,-0.27401,1.80022,-1.23326,3.23839,2.3049,-2.5014,2.70895,14.152,-830.576,-550.952,27440,-4620,7560
-22.8035,-27.7961,-10.9441,-22.6603,-14.7469,-5.54639,-19.7689,-8.22393,-11.5736,5.17151,11.7348,3.66435,13.6294,11.3847,-5.42281,8.56115,14.152,-830.576,-555.344,28280,-5040,8120
-27.7096,-37.3922,-16.6654,-23.4834,-18.8428,-8.95384,-17.1657,-5.27521,-13.7972,3.5461,11.5669,-0.508142,12.1025,9.53012,2.90072,10.4408,11.712,-827.16,-553.88,28280,-4900,8120
-9.07587,-22.1994,-12.6377,-19.2434,-18.381,-9.5593,-16.9656,-3.77749,10.9057,10.2712,13.2506,5.07348,10.9228,6.09759,0.938765,3.94633,15.128,-829.112,-554.856,27580,-4620,8260
-1.62544,-13.2649,-7.30149,-16.6431,-13.4405,-5.69379,-11.8617,-2.49109,19.5813,13.8498,14.174,8.51177,11.5296,7.69626,2.9459,3.53649,13.176,-829.6,-553.88,27580,-5180,8400
4.83255,3.94732,-4.01886,-2.78999,-3.5236,-3.28005,-1.27082,-0.46534,16.7853,4.85189,1.4995,1.94647,-1.73428,-2.69648,5.49054,-3.26975,11.712,-831.064,-551.928,27160,-5320,8120
9.75005,23.8878,3.79447,17.6322,13.0733,2.9889,13.8998,2.79086,1.88895,-12.767,-18.3363,-6.90859,-18.1267,-12.8723,6.46974,-13.8045,7.808,-830.088,-553.88,27160,-5460,8400
-1.5446,22.5823,9.2703,33.4693,27.0574,8.10815,25.8187,6.64176,-36.1314,-35.1062,-36.4391,-20.0441,-29.1636,-19.474,6.94824,-19.2441,9.272,-832.04,-553.88,26880,-5460,8400
-8.24458,-6.81767,5.51301,9.85408,12.5823,7.37453,13.379,6.56491,-30.3948,-12.1547,-8.66302,-8.16614,-3.36165,0.107766,8.04634,0.904811,8.784,-829.6,-547.048,25340,-5180,8540
19.4207,1.71189,9.55904,-8.04116,0.0147547,3.24722,-4.09703,-1.62343,28.3147,25.0028,22.1028,17.5566,17.5584,12.586,-0.069182,7.94837,8.296,-834.48,-549.976,25760,-5180,8260
36.5296,24.6063,18.4113,-1.90488,8.2936,5.71823,-4.04903,-4.13891,46.6797,31.0779,21.5899,26.816,14.276,11.3808,-8.29205,2.44904,10.736,-831.552,-549.488,26320,-5180,8120
23.0503,23.036,17.2992,2.71516,14.2276,9.12147,1.8499,1.46219,22.0117,18.3983,10.4683,18.7156,7.62033,11.8873,-9.25995,4.79407,10.248,-831.064,-549.488,25760,-5320,7980
7.16153,15.2441,13.3511,10.1686,18.3519,8.85954,7.45855,5.42554,-10.6374,0.031646,-2.08351,3.22409,-1.72501,4.60129,-6.44531,2.20233,10.736,-831.064,-550.952,26460,-5180,7700
1.57632,5.26806,7.34266,12.1218,13.1379,5.67976,12.8978,7.69353,-18.8639,-8.36271,-6.72705,-6.3862,-5.95403,-2.85943,5.72604,1.82296,9.272,-831.064,-550.464,26460,-5460,7420
10.7871,4.34832,4.07868,2.3708,1.82298,1.33581,7.31426,3.66177,9.21882,4.80829,4.93753,0.823068,1.58554,0.311081,7.86121,6.20595,10.248,-831.552,-547.048,25620,-5460,7280
19.0317,18.0526,5.98598,8.75958,4.84595,2.01351,9.57104,2.33012,20.3897,4.1276,0.439496,1.23565,-3.95115,-3.46814,3.71189,0.0175555,13.664,-835.944,-543.632,25340,-5740,7140
6.27949,18.317,3.54605,15.5357,7.08307,1.14704,11.4738,0.896724,-1.18253,-10.8862,-12.8585,-7.28566,-12.2852,-10.5393,1.05822,-6.76214,9.76,-838.384,-546.56,25200,-6440,6860
-9.11429,-6.00966,-5.26133,2.20833,-4.97329,-2.12126,4.02037,-0.68755,-11.2533,-8.22714,-4.12938,-9.9819,-3.849,-5.4178,5.87247,-0.698157,6.832,-838.384,-545.096,24640,-7000,6580
-6.75913,-1.22576,-5.00521,7.20528,-2.98822,-2.82051,6.90083,1.02792,-11.0448,-14.3056,-11.8211,-13.8328,-10.904,-9.94585,3.61893,-6.46678,8.784,-837.408,-545.096,24360,-7700,6580
-10.9696,-1.98896,-3.57294,7.48011,0.242926,-0.111046,6.91178,2.52933,-20.07,-16.1559,-14.7867,-12.6882,-10.8723,-7.5852,1.49642,-4.85124,1.952,-832.528,-541.192,24080,-7560,6580
-15.1142,-10.7483,-9.30266,2.66259,-6.95823,-3.7436,1.65207,3.26479,-19.3331,-14.6848,-12.1687,-13.5142,-8.86433,-9.3172,3.24465,-2.8236,5.856,-831.064,-543.144,24920,-7420,6720
-6.38023,-3.77412,-6.19722,2.13249,-8.52227,-5.33189,-4.24689,-0.191333,-5.18623,-8.89194,-7.82276,-7.68672,-7.76034,-10.1919,-3.46819,-6.61328,5.856,-831.064,-539.728,24220,-7140,6440
-11.9244,-7.7768,-6.13554,-1.16957,-5.74641,-4.62265,-5.88754,-1.77704,-11.0283,-8.49142,-7.19591,-5.97269,-5.54818,-5.17611,-5.17732,-4.15594,4.392,-829.6,-536.312,23240,-6720,6300
-18.5381,-18.5887,-10.2846,-11.494,-11.4753,-6.05372,-12.6382,-2.70167,-12.701,-1.80326,0.627795,-1.76287,2.97489,0.360047,-4.44953,1.83867,8.784,-825.696,-536.8,22680,-6020,5880
-5.97217,-13.6695,-5.90487,-19.9543,-15.4847,-4.78493,-17.4705,-2.75238,11.8128,14.1521,14.3602,12.1815,15.3696,8.97092,-2.88939,7.59812,7.808,-826.672,-537.288,22540,-6160,5600
-6.42978,-9.46476,-5.14393,-15.8631,-11.3799,-2.29877,-13.3763,-3.29227,7.5291,9.3045,10.0613,10.0298,12.3748,8.72379,-2.06611,4.93157,6.832,-824.72,-534.36,21420,-5880,5040
-8.62299,-9.97674,-5.90575,-6.66853,-5.46325,0.57297,-3.26167,-0.591016,-3.62436,-0.326048,1.28524,-1.0602,2.81815,3.80247,4.58981,3.10374,7.808,-827.648,-534.36,20860,-5600,4620
-2.39071,-5.71048,-3.96329,2.08824,-0.497937,0.537317,4.72779,1.49478,-1.84262,-3.9824,-2.35522,-7.55655,-3.53979,-4.10192,9.33846,-0.507356,9.76,-826.672,-533.872,20580,-5740,4480
10.232,4.27141,0.942869,1.10042,0.0981607,0.850616,1.48786,-1.00532,19.1994,3.82193,4.59682,2.43182,1.12684,-1.40749,1.14187,-1.57284,8.296,-830.576,-533.384,19600,-5740,4340
15.5028,10.4902,5.22899,-1.37391,2.70917,0.149519,-4.1373,-5.39404,26.972,7.99455,6.88785,11.5146,4.93736,3.37676,-9.59011,-3.42116,10.736,-829.112,-531.92,18760,-5600,4060
12.3208,8.20671,8.67779,-10.97,-1.13644,0.0467612,-22.2161,-12.9069,23.837,19.0632,18.8488,23.515,17.075,13.2424,-28.017,-3.91521,9.76,-831.552,-533.872,17360,-5320,3780
4.56931,3.56955,8.90797,-20.827,-1.80298,2.18471,-27.37,-10.7777,16.8344,25.4171,25.8958,30.2115,26.871,26.0531,-27.491,8.00876,11.224,-832.528,-533.872,15960,-4760,3500
-16.4012,-27.3248,-2.69272,-29.9694,-8.15735,1.89709,-14.6202,-4.24909,-5.55049,24.2466,30.046,18.6594,31.0289,31.065,1.97217,27.0885,10.736,-834.48,-535.824,15540,-4620,3360
-12.9072,-21.3096,-7.58804,-10.8294,-2.63905,-1.19599,7.35579,1.59515,-8.75412,6.19696,9.79974,-3.53806,8.49228,9.37414,24.9106,19.3255,10.248,-834.968,-534.36,14840,-4340,3360
4.79458,10.0639,2.14853,17.0654,14.2601,1.94148,22.2092,7.98244,-11.5786,-12.3287,-15.575,-14.9932,-16.4443,-10.8669,20.5955,-1.82637,11.712,-833.504,-534.36,13860,-4060,3220
7.43435,15.4599,7.22465,18.903,16.8933,4.15349,16.3974,8.05461,-14.7704,-13.3615,-16.69,-9.64099,-16.1384,-9.32594,4.32175,-8.51141,11.224,-832.528,-531.432,13580,-4060,3220
0.150471,2.1072,1.40331,10.1264,8.49637,0.635337,11.4605,6.10081,-16.0274,-10.292,-11.4841,-7.46087,-10.59,-5.03873,5.92545,-4.92383,11.224,-832.04,-532.408,13300,-3640,3220
5.14374,4.98177,-0.81356,13.6411,4.89271,-0.459217,14.304,4.51292,-9.66129,-11.4618,-13.3252,-10.9452,-15.403,-10.9708,10.6839,-8.71706,12.2,-832.04,-534.36,12180,-3360,3080
12.5394,14.2724,0.451635,16.0022,2.5187,0.383233,11.4192,3.69759,1.59358,-8.82445,-13.2659,-10.1267,-16.062,-15.8574,4.98094,-12.4043,12.688,-833.016,-532.408,11340,-2940,3080
10.7784,12.6227,1.89313,11.935,1.067,0.631291,6.33084,3.33853,5.22706,-5.98232,-10.3325,-5.24038,-9.92138,-12.4774,-2.90065,-9.79053,10.736,-830.088,-538.752,10640,-2520,2940
6.98261,11.5275,-0.047431,14.1053,1.55495,-1.40236,8.24552,3.20919,0.96799,-11.3723,-13.033,-11.3855,-13.5957,-17.1963,-1.44673,-11.9341,10.248,-833.016,-536.312,9660,-1540,2800
-1.52412,5.58387,-0.726321,15.0499,2.9826,-0.182651,8.16131,2.85957,-16.1176,-16.01,-16.3428,-18.0335,-15.6808,-16.5522,-3.17702,-12.8864,6.832,-830.088,-535.824,8820,-700,2800
-5.5561,0.976577,2.06781,3.32739,1.19204,2.56383,-7.42429,-0.676208,-14.5606,-4.55283,-4.24131,-4.61213,-1.49652,-2.71231,-19.5566,-6.56907,8.296,-831.552,-536.312,8120,-280,2660
-14.7371,-23.8328,-5.80729,-24.9608,-15.3835,-0.754488,-21.2767,-3.43689,2.17985,18.2163,23.2628,11.7144,24.501,17.6318,-13.8102,15.2607,9.272,-831.552,-532.896,6860,280,2380
-6.43301,-9.97898,-2.47843,-14.9692,-7.01292,-2.14848,-11.0133,-6.18227,7.57086,10.8191,12.3786,8.72729,14.0278,10.9248,-2.69145,9.29786,10.248,-834.48,-535.336,6440,700,2240
-7.97105,-0.677738,0.784462,5.58905,6.0054,0.0179267,6.00554,-2.68447,-14.9094,-10.8428,-9.82271,-5.50716,-7.2236,-2.93207,7.5023,-1.18145,10.248,-836.432,-535.824,5740,280,2100
-7.98521,-6.00521,-2.20147,1.52003,2.38142,-1.48899,4.42779,-0.855399,-5.72254,-7.12042,-6.30224,-5.76731,-4.99447,-2.43055,11.1833,2.41876,8.296,-836.92,-539.24,5600,0,1820
8.37032,2.05975,1.45555,-9.01526,-3.59828,-1.54213,-5.64404,-1.42689,32.298,14.8212,12.5089,10.2484,8.95459,6.15564,3.63695,8.06283,10.248,-833.016,-532.896,5180,-560,1680
3.68821,-2.65431,1.0746,-13.6819,-5.19369,-0.144655,-8.49098,-2.32736,27.2252,16.9648,17.3457,13.9977,15.3489,11.8422,1.73266,12.5313,8.784,-833.016,-531.92,4760,-840,1400
2.53201,-3.73918,0.561564,-16.6612,-6.58275,-0.878608,-12.0038,-5.4504,25.2046,19.1325,18.9737,16.1776,18.0362,13.9045,-1.48606,11.761,6.832,-829.112,-534.848,4340,-840,980
11.1474,9.83116,2.91213,-5.84163,-1.14739,-1.88463,-5.53126,-4.17621,25.2067,10.5851,8.10312,11.9541,6.52555,5.50507,-2.54892,2.30553,9.76,-828.624,-537.288,3920,-1260,420
10.2956,20.8657,7.87721,12.463,10.7382,1.19066,4.32657,-1.73312,1.74484,-7.0939,-11.1271,1.84351,-9.50041,-5.58406,-5.97091,-10.4415,10.248,-831.064,-536.312,3080,-1540,-140
-2.87715,4.68906,2.81136,12.9793,8.53592,3.3532,9.95626,5.43196,-20.7773,-14.9837,-14.595,-6.39936,-11.9333,-5.9663,0.0178388,-7.22506,8.784,-830.576,-536.312,2800,-1680,-560
-3.53322,2.42164,0.811394,16.3786,8.11501,4.42721,14.6348,10.9911,-23.8232,-18.1356,-17.2759,-11.4955,-15.5115,-10.6575,4.03295,-6.83533,14.152,-831.552,-538.264,2520,-2100,-980
-7.09559,-5.13727,-2.91384,4.37266,-0.607903,2.80873,7.68543,6.84758,-13.6312,-7.25651,-7.2301,-6.17605,-4.303,-4.14828,5.75896,1.13917,13.664,-830.088,-533.384,2520,-2520,-1260
-2.0396,-3.05691,-3.35024,-1.78482,-5.85321,0.304337,0.864935,1.55148,-0.469652,0.264344,1.30773,-0.097543,1.2896,-0.686569,3.91067,2.22303,12.2,-835.944,-538.264,2380,-2800,-1820
-1.94341,-1.53753,-2.25245,0.344929,-3.72108,-1.45785,-0.0139733,-1.03224,-5.64437,-1.39594,2.45441,-1.24895,-1.31223,-2.18461,1.56544,-2.48686,11.712,-834.48,-533.384,2380,-2940,-2240
-5.26729,-4.8397,-3.01291,-4.05077,-5.06748,-2.32441,-4.2719,-2.31031,-8.43467,0.544985,3.64872,1.52799,0.613914,1.19264,-2.57125,-2.11567,11.712,-835.456,-534.36,2660,-2800,-2380
-7.09104,-3.14532,-2.26432,3.60477,1.03778,-0.959929,2.42924,0.641154,-20.2183,-7.33296,-6.51152,-4.81512,-8.22832,-3.20646,-0.360482,-5.278,13.664,-839.848,-535.336,2800,-2240,-2800
-2.97739,-2.93746,-1.39096,7.08695,4.3285,-0.357222,9.11633,1.46402,-17.454,-9.1546,-11.7568,-9.01715,-10.9554,-4.7706,6.29926,-4.33646,15.128,-843.264,-534.36,3220,-1680,-2660
8.99204,10.4292,5.50825,12.6299,10.2118,1.63271,8.22829,0.99246,-4.71151,-8.31921,-13.7761,-4.41493,-12.2302,-6.68395,-1.53402,-8.23767,13.176,-845.216,-536.312,3780,-1260,-2940
6.51817,-0.921281,2.32266,-4.5719,-1.38789,-0.787521,-6.74921,-3.7285,7.9706,7.05583,7.24204,3.4772,6.40717,4.05614,-6.62328,-0.217873,14.64,-846.192,-535.336,4060,-560,-2940
9.33035,-6.44021,-0.380219,-16.8364,-9.67354,-2.27786,-13.6179,-5.2512,27.5514,21.2889,22.3848,10.7326,19.4238,13.5614,-5.68173,10.0783,13.176,-847.656,-536.312,4480,-420,-2940
-0.0714739,-5.57262,-4.66293,-7.03435,-3.94865,-1.12633,-4.26307,-0.879288,7.6778,4.09138,8.82398,-0.872222,6.77894,5.3637,1.0997,7.23193,12.2,-849.12,-536.312,5040,-280,-2520
-8.65515,-10.7649,-6.62371,-9.01016,-6.40039,0.088433,-6.56775,0.344127,-3.18256,0.516325,7.63867,-3.25775,6.85164,5.09252,-0.0743607,6.17571,13.176,-849.608,-537.288,5600,-280,-2380
1.72874,-5.11106,-0.572963,-15.5908,-9.4206,-0.84065,-21.9439,-6.2435,15.2697,15.1772,18.6727,9.37291,15.9624,10.8709,-16.7172,1.59242,11.224,-849.12,-535.824,5880,-280,-2240
9.09184,-4.29001,2.65112,-22.6504,-12.6843,-2.69593,-27.7096,-9.8503,31.3923,29.2495,29.2639,19.9435,25.1592,16.8904,-17.0417,3.62446,10.736,-846.68,-535.336,6020,140,-2100
-4.9651,-3.13508,-0.445072,-0.997698,0.283241,-1.41258,2.07616,0.421915,-5.08705,-1.5807,-0.627732,-2.44695,1.00908,-1.05309,8.15696,0.82503,10.736,-849.608,-538.264,6300,140,-2100
-15.8755,-2.80738,-0.583844,17.5805,11.0413,0.272255,22.7678,7.3139,-36.6452,-26.3522,-25.1956,-20.2563,-17.8992,-14.8278,20.0038,-5.50694,10.248,-853.512,-533.384,6440,280,-1960
-11.3144,-3.1886,0.500876,16.4422,10.2337,2.54819,22.1926,10.1845,-27.283,-20.5441,-23.5785,-16.7497,-14.2754,-11.3343,18.056,-2.77498,9.272,-847.168,-539.24,6580,140,-1820
8.5443,7.68092,3.61075,9.78633,5.33248,3.29398,9.67079,8.01275,11.2833,-0.284715,-9.62579,-1.64031,-5.12892,-5.88198,2.52,-0.632606,13.664,-848.144,-536.312,7140,140,-1680
21.6435,18.6338,7.22547,6.86279,4.69437,1.06495,0.383831,2.33407,33.9658,10.6035,0.39775,9.60347,-2.83778,-4.37707,-9.40925,-3.92387,8.784,-844.24,-539.728,7140,700,-1680
17.3713,23.4194,5.35128,12.3447,6.35624,-0.0992363,1.84175,-0.446638,24.1019,0.16173,-5.68522,3.5291,-9.62283,-10.4173,-9.52974,-11.0488,10.248,-846.68,-539.24,7700,1260,-1540
8.44525,14.0394,1.37024,3.74588,-0.856373,-0.515314,-2.50906,-2.70017,17.6445,1.00395,0.687024,4.41171,-2.65703,-3.97258,-8.97151,-5.43561,15.128,-844.24,-540.704,7980,1820,-1400
-7.01233,-2.96799,-1.96331,-2.22112,-2.05899,-0.207582,-1.84086,-3.07735,-5.66058,-3.85698,2.90863,0.732261,1.0528,1.66632,-1.48212,2.84038,10.248,-841.312,-539.728,8400,1960,-1260
-9.42551,-13.7768,-3.04323,-10.2648,-4.52541,-0.264504,-2.02086,-2.92086,-1.69592,4.4954,10.9648,3.79707,10.0932,8.78138,6.50227,12.4399,10.736,-839.848,-540.216,9100,2520,-840
-0.699724,-2.58637,-1.61849,-4.98692,1.01158,1.11077,5.57952,-1.2223,4.37692,3.3391,4.94031,1.95557,5.31413,5.35782,13.0031,10.0975,12.688,-835.456,-539.24,9240,2520,-560
-4.92167,4.60673,-3.23767,3.44626,3.29471,1.29031,9.32615,-1.04364,-12.9594,-7.38827,-7.51191,-5.90645,-4.65218,-4.36138,10.2801,2.12102,13.176,-840.336,-538.264,9520,2660,-420
-18.1607,-12.6685,-7.04251,-2.66304,-1.22006,0.350344,5.56378,0.0051004,-31.4318,-9.23539,-6.46604,-7.00777,-2.72487,-1.07499,8.82102,7.45701,7.32,-832.528,-540.704,9660,2800,140
-11.8698,-14.3227,-4.33946,-7.69386,-4.86742,0.0585944,-3.04348,-0.613809,-19.7753,0.425949,1.47662,-0.848034,3.67159,3.94941,3.82534,5.50374,2.44,-830.576,-540.216,9240,2800,280
2.92877,2.25495,1.31455,-0.745432,-1.99979,-0.945651,-4.74302,-1.41118,-4.51861,2.03452,-1.46284,3.5534,0.0969634,-0.228827,-3.54237,-4.19621,2.44,-828.624,-542.656,8820,2940,700
3.91069,11.0564,4.59197,7.6483,6.74758,0.31441,-0.419351,-1.41765,-9.21003,-6.60263,-11.6446,1.63253,-9.0464,-3.19804,-6.69693,-9.71965,-0.976,-829.6,-545.584,8680,2940,1260
-5.41264,12.3726,4.97495,16.5441,14.104,1.36935,4.79535,-0.745485,-30.5218,-20.6773,-23.1828,-7.66612,-18.7082,-7.67385,-9.31787,-14.91,-0.488,-833.016,-545.096,7980,2940,1680
-18.798,-10.4416,0.833021,2.74909,5.47086,0.715777,-4.51182,-0.891712,-39.4866,-14.2802,-8.41869,-4.45324,-5.6035,2.60283,-15.2917,-5.61869,-3.904,-833.016,-547.536,7840,3220,2100
-7.11221,-25.7122,-6.37234,-25.6791,-19.1804,-5.03992,-20.9354,-5.0471,11.8037,22.7228,27.4706,13.3962,21.6802,16.6109,-7.19256,10.5212,-3.904,-834.968,-546.56,7700,3360,2380
18.5437,12.83,1.49397,5.59622,-1.44792,-3.55545,0.427729,-0.812635,23.8713,5.8735,-0.183505,0.899647,-7.46472,-7.37933,-0.143042,-7.58706,-5.856,-836.432,-551.44,7840,3500,2660
16.5801,16.2636,5.83818,10.3958,4.60097,1.15426,3.98438,2.59795,15.6899,0.763321,-3.51254,-1.45867,-8.6913,-5.82484,-4.0157,-7.18608,-6.344,-839.848,-546.072,7560,3360,2940
6.36662,-5.22513,-1.51982,-16.7424,-13.676,-1.48925,-12.5734,-0.0432802,27.3482,21.6519,24.5091,10.209,18.1488,11.7963,-4.77088,10.3923,-5.368,-842.288,-547.536,7700,3220,2940
10.181,-1.74649,-0.0975933,-19.2368,-12.8065,-2.54816,-16.1854,-3.65032,32.659,26.4093,29.2972,13.9426,22.3913,14.0003,-7.44783,9.27068,-6.344,-843.264,-545.584,8540,3220,3080
9.09764,3.04205,2.20951,-8.84098,-3.99562,-0.13697,-6.92421,-2.57912,21.3438,15.7912,16.2244,8.69186,12.4921,7.67614,-1.03201,4.54295,-3.904,-848.144,-549,8960,3360,2660
-7.97068,-12.5032,-4.41257,-4.28057,-1.11868,1.45589,6.6178,4.92069,-2.24937,-0.264282,2.0781,-2.60948,4.75735,3.21047,15.5886,10.1146,-1.952,-849.12,-546.072,9520,3080,2660
-7.24841,-14.8343,-5.91468,0.221546,1.57031,2.26994,15.789,9.32615,-4.95942,-7.46285,-5.66689,-9.30927,-1.54946,-1.83785,25.2034,9.81931,-1.952,-850.584,-547.048,9940,2660,2380
0.552143,-5.63107,-3.14046,4.06267,2.58801,1.10042,10.9643,5.77122,0.533189,-6.76986,-7.14246,-9.94193,-5.02818,-6.31181,14.6123,-0.194413,1.952,-852.536,-543.632,10780,2240,2100
0.237287,-4.99859,-1.18003,-2.9463,-1.75175,-0.877084,-0.897617,2.46001,9.20874,2.53586,3.80696,-2.77493,4.09292,0.327202,2.92415,0.107625,0.976,-852.536,-540.216,12040,1260,1540
-3.326,2.76433,0.747947,5.19876,3.76216,-0.544202,-2.35453,-0.940802,-3.1031,-7.77927,-5.71842,-6.59757,-4.79646,-5.84524,-6.91064,-8.08973,3.416,-850.096,-540.216,12880,560,1400
-15.1249,3.33913,1.79341,13.9249,11.0961,3.34789,3.45565,1.17439,-33.9129,-23.8201,-20.1033,-11.3674,-13.1676,-8.67014,-11.8562,-12.1092,8.296,-852.048,-536.312,13860,-140,840
-28.4031,-20.4388,-4.15792,1.0062,0.70737,4.68432,2.26576,3.75509,-43.5194,-17.5805,-10.7185,-8.78587,-1.85333,1.32129,-1.27068,0.845495,14.152,-848.144,-537.776,14840,-1120,280
1.62148,-10.116,2.82292,-7.09187,-6.42909,1.95633,-7.07717,-2.6929,8.53531,10.8011,9.17986,9.3213,12.0932,7.31346,-3.85437,3.26287,16.104,-851.56,-541.68,15400,-1400,140
32.584,24.0134,12.4193,-0.787144,-1.59775,-2.18543,-8.17966,-7.55497,47.8373,21.9663,11.554,21.7308,9.46178,2.41258,-10.2644,-5.48957,17.08,-852.536,-538.752,15260,-1960,-280
19.8026,20.4734,5.33942,14.2623,7.60371,-1.70035,14.3215,-1.42708,20.1007,-3.52532,-10.6938,-0.290842,-11.8282,-10.6578,10.7538,-7.65315,24.4,-852.048,-539.728,15680,-2100,-420
20.3547,35.0959,8.14403,33.6469,20.6672,2.86138,23.3645,2.34218,5.28745,-24.3992,-31.9229,-13.0941,-32.0324,-22.6563,2.84723,-18.9031,23.424,-852.536,-544.12,16800,-2380,-280
5.85703,26.146,5.11679,29.6607,17.9085,4.35273,14.5895,0.824385,-18.3303,-28.1115,-29.7242,-14.1995,-30.0688,-19.1052,-7.18192,-17.1831,24.888,-850.096,-540.216,17360,-2240,-280
-8.27722,-7.61881,-5.79267,-0.665775,-3.28347,1.19875,1.57716,1.47588,-12.5963,-3.76564,0.904526,-4.8082,-2.0282,0.696254,3.19728,5.9935,30.256,-850.096,-546.072,18900,-1820,-280
3.24336,8.39899,-2.41944,1.00658,-1.46198,-1.26558,4.23099,2.67577,3.9021,0.75904,-0.11274,0.286149,-2.59271,-1.33903,4.46447,3.06367,26.352,-850.096,-548.024,20440,-1120,0
-5.87938,6.11076,0.577952,7.84163,7.42908,0.828738,11.689,5.61592,-20.0734,-11.1591,-10.6773,-5.88869,-8.04449,-2.96471,5.9326,1.90715,30.744,-850.096,-549.488,21700,0,420
-21.1941,-17.5296,-8.23119,1.08802,-0.333735,-1.60367,14.944,7.39772,-33.5987,-14.2284,-9.34325,-15.4806,-5.86855,-2.19587,20.7489,9.99317,33.184,-850.584,-552.416,23800,1120,700
-10.4993,-5.46752,-5.29392,0.799655,-3.17034,-3.2793,0.710889,1.15411,-19.5337,-7.94454,-5.63856,-9.20316,-4.75315,-6.26298,1.72625,-1.0368,31.232,-848.632,-553.392,25620,2240,1120
5.57852,-10.3716,-1.03516,-24.1838,-17.2186,-4.80804,-29.1679,-9.7278,19.571,29.2759,27.9226,18.7011,23.8089,13.1776,-18.7137,4.4133,33.672,-850.584,-556.32,27720,3360,1820
19.5551,14.6778,6.88871,-9.65104,-4.58177,-3.86673,-22.4025,-10.4131,31.5096,23.0585,16.7297,20.1934,10.5093,6.01768,-23.1206,-6.55575,37.576,-848.632,-555.832,29120,5040,2520
5.05577,-5.74798,-3.24428,-24.9162,-17.9713,-8.65409,-33.0142,-14.1846,34.5175,28.4235,30.6052,20.3681,21.7463,13.4811,-20.5262,1.09298,29.768,-848.632,-560.224,30940,5880,2800
12.6677,-0.554951,-2.70065,-23.3622,-16.6447,-7.84005,-29.8282,-13.1751,51.0667,30.0762,30.6373,20.7593,21.5018,12.7556,-17.4474,1.82722,31.72,-847.168,-557.296,33320,7420,3220
2.97205,10.0296,2.91424,-11.6972,-0.875335,-0.920663,-18.2771,-5.28404,21.6916,13.9233,13.8796,15.9867,13.1363,11.0008,-17.5645,1.35752,32.208,-850.096,-558.76,34860,7980,3640
-24.5733,-6.17555,-5.5774,4.66336,8.42794,3.06142,12.8597,5.70491,-39.108,-19.3397,-14.6576,-13.1849,-8.3056,-1.25419,15.6954,6.60495,29.768,-852.048,-559.248,37520,8680,4480
-26.6398,-15.6208,-2.18528,-0.497599,7.56523,7.22046,10.8498,7.31497,-44.8277,-14.5687,-10.0698,-7.75136,-1.84544,6.77778,12.0827,13.1614,30.256,-852.048,-557.784,39060,9380,5040
-50.2052,-65.6157,-14.1428,-19.2999,-6.62191,4.89149,10.9935,6.60828,-66.3793,-8.65744,2.62486,-14.4832,12.3355,17.87,34.2984,29.2697,30.256,-855.464,-555.832,40180,9660,5460
-12.6951,-27.6737,-6.34689,7.70186,2.71097,2.11252,21.5878,4.74077,-29.7109,-14.0392,-12.4935,-23.3334,-10.9885,-7.83615,28.9834,4.0079,26.84,-859.368,-553.88,41720,9380,6300
29.6682,12.6917,11.2086,-5.88846,-0.982076,2.25045,-6.80999,-1.83098,42.9313,27.8035,19.4554,16.6309,13.6182,8.30481,-11.7257,1.91386,25.376,-861.32,-555.344,42000,9100,6720
25.0139,16.9717,12.7445,0.0902145,7.605,6.26469,1.70848,3.12943,27.7462,19.1215,9.55908,13.3678,9.30444,7.38532,-8.05662,2.75734,22.936,-862.296,-555.344,41720,9240,7140
19.445,15.2388,9.90855,8.69966,10.5862,6.27013,9.31368,8.29826,16.7313,4.44029,-5.84519,3.81419,-2.56065,-0.606441,-3.11437,-0.801755,21.472,-861.808,-548.512,42280,9520,7560
7.11483,-5.21958,-1.07484,-15.6154,-11.9121,-1.40626,-13.9614,-0.104836,25.7633,20.5309,17.2464,13.8815,15.6948,9.94758,-9.52938,7.88191,16.592,-862.296,-544.12,42840,9380,8260
-14.6869,-20.3949,-12.0027,-20.3672,-20.5719,-6.51335,-18.1077,-5.76721,4.36778,9.28664,15.842,5.81623,15.3799,7.04929,-0.84082,5.34564,15.128,-864.248,-547.536,44100,8820,8540
-29.335,-2.65282,-8.32026,18.39,4.49322,-2.53138,11.5594,1.27543,-59.3342,-41.6791,-31.3391,-24.1065,-22.6096,-19.6229,7.42015,-17.5756,9.272,-862.296,-544.12,44660,8120,9100
-27.8698,-9.00475,-8.79859,24.2916,6.81369,-1.201,20.9447,4.65368,-69.0358,-46.1497,-35.6471,-31.747,-27.1646,-23.9248,14.7244,-16.8444,9.76,-865.224,-536.312,45640,7420,9380
15.3016,4.88943,0.928535,18.942,4.76328,-0.0460919,20.1849,5.93058,6.59615,-12.3732,-14.3341,-12.4172,-17.479,-17.1337,17.3675,-11.2518,4.88,-864.248,-540.216,46760,6720,9380
52.957,50.9797,16.8603,30.9059,16.0944,2.95699,17.5089,4.02065,55.8133,-1.42892,-13.8529,3.02933,-23.7362,-21.1833,-0.663654,-24.4399,0.488,-858.392,-535.336,46200,6160,9660
45.1393,57.9039,17.999,30.0787,17.41,2.71687,8.36351,-2.01782,45.9074,-4.61301,-16.7666,5.24053,-24.0986,-19.5077,-17.5388,-28.8063,-3.904,-859.368,-528.016,45500,6300,9380
1.86278,13.261,3.26355,8.10872,1.79914,1.01166,-3.16071,-1.67599,-1.42766,-7.02803,-6.3393,-0.598895,-8.10751,-5.04973,-12.322,-11.4684,-13.664,-853.512,-526.552,45780,6300,9100
-11.3869,7.67252,-0.771879,15.6353,7.56849,1.42086,8.72349,3.88169,-24.1261,-25.7887,-20.8956,-14.8308,-18.2155,-11.0528,1.61175,-11.1379,-8.784,-850.096,-523.624,45640,5740,8680
4.25908,10.1041,4.91775,8.70049,6.89334,1.72684,3.40677,1.36526,5.30349,-7.47514,-7.11806,-3.45351,-5.77298,-2.46506,-3.0661,-5.06427,-11.224,-841.8,-521.672,44660,5040,8120
5.95745,2.05749,7.93724,-19.0575,-2.73496,2.77284,-20.5988,-4.00135,29.1434,25.0501,25.8383,24.1945,25.7449,23.3702,-25.3104,12.9393,-12.2,-844.728,-525.576,43540,4900,7840
-21.9777,-37.3454,-3.90252,-51.5548,-19.2622,0.513416,-34.1781,-5.12857,14.9965,41.8826,53.4149,35.9569,51.5245,47.6177,-19.697,40.0838,-12.2,-846.192,-526.064,40740,4620,7000
-50.1827,-71.6211,-20.0461,-50.8183,-24.6087,-5.00666,-20.3802,0.521322,-31.1541,22.5112,41.1632,14.3941,41.0702,39.4528,13.0115,47.1375,-15.128,-845.216,-518.256,38780,4900,6160
-28.7546,-39.6392,-15.1822,-22.2421,-13.1034,-8.00926,-7.83076,-1.76772,-23.3891,5.7512,12.0738,-0.64735,13.7396,10.2172,13.5731,20.5658,-9.272,-849.12,-519.232,37520,4480,5040
-0.822613,-12.7176,-10.4179,-5.48153,-11.6959,-9.39517,0.179662,-5.57013,7.18494,7.3067,2.99674,-6.36763,2.36837,-8.96194,21.9604,4.59478,-9.76,-840.824,-518.744,35280,4620,3780
30.914,40.7124,5.74155,29.0964,11.01,-3.04054,16.9672,-4.05061,27.0559,-9.387,-23.7995,-12.2449,-24.5383,-31.9058,13.8388,-20.7644,-8.296,-840.336,-518.256,33460,4900,2940
16.6975,33.1091,6.5104,29.3652,14.842,1.76216,20.185,-1.80697,-1.45427,-17.9194,-27.333,-15.5196,-24.8866,-25.2205,7.96498,-18.4487,-1.952,-841.312,-518.256,32200,5880,2100
3.42458,11.4586,1.73038,11.794,6.92455,2.46861,10.7126,-1.2389,-11.9387,-8.04196,-12.9345,-8.21476,-10.6459,-8.50455,2.37892,-5.97946,-5.368,-835.456,-510.936,30380,7000,1260
1.82412,5.818,0.742179,0.358297,3.0975,3.23129,-1.77395,0.62003,-1.31907,1.41265,-0.623094,0.153664,-0.23591,2.18551,-7.85048,0.41337,-6.832,-833.016,-509.96,28980,7840,0
8.63044,2.49854,-0.619801,-12.4987,-8.67507,-0.987145,-20.0753,-2.9867,22.0367,18.7439,15.9972,10.4718,11.2718,8.10414,-20.1224,1.19036,-1.952,-827.648,-512.888,28280,8540,-420
22.6362,14.8519,6.23869,-14.0156,-6.75978,0.0862145,-21.2473,-3.54675,44.2622,27.71,21.0378,20.1576,14.6205,12.9619,-22.9096,2.50961,4.392,-829.112,-513.376,26320,9660,-700
22.7508,29.1249,10.7334,8.46022,9.49815,2.78646,-0.985523,0.706475,23.491,3.49324,-2.76265,7.06502,-5.15518,-1.25378,-12.9951,-9.16816,3.416,-831.064,-511.424,22120,11760,-1680
-3.07776,5.71551,1.22527,12.9358,8.352,0.677442,9.80176,2.62597,-16.8211,-16.2593,-15.8407,-10.715,-14.0833,-8.51054,3.85493,-10.7888,6.832,-829.6,-514.84,19880,12880,-1960
-38.6649,-20.6321,-9.47942,14.8933,7.47707,0.0794072,17.3264,7.43332,-70.4505,-40.7664,-30.5391,-30.3767,-24.2149,-12.444,13.2836,-6.96009,8.296,-828.624,-501.176,17360,14560,-2100
-44.2445,-30.3991,-10.1016,3.8648,2.12025,1.85469,9.55843,7.28336,-69.1023,-30.7812,-18.3926,-21.9722,-11.7499,-2.72693,7.02445,2.48622,10.248,-826.672,-501.664,17920,15260,-2100
-24.7263,-34.1526,-6.08899,-20.2485,-12.9272,-0.137551,-9.01967,0.0595735,-18.42,7.08195,15.8352,5.63154,17.8887,16.1364,1.39176,15.5493,13.176,-830.088,-504.104,18900,15400,-1960
14.0177,-8.51631,-1.05254,-12.8242,-14.9988,-5.1934,-9.00484,-6.02839,36.1676,20.8147,19.5019,11.4152,12.8299,3.54423,3.70294,1.65363,18.056,-830.576,-505.568,17920,15820,-1820
24.1957,21.1784,4.42705,25.7108,10.0491,-2.44324,20.6334,0.0747772,15.0007,-13.4429,-21.5131,-13.1377,-25.3399,-23.8445,15.1059,-20.0905,21.96,-837.896,-497.76,16240,16380,-1820
20.9908,24.3962,8.0022,26.9416,16.0012,2.18489,20.2239,2.82821,4.36209,-14.7329,-23.0066,-10.6954,-22.5839,-18.8972,7.64873,-18.2456,21.96,-836.92,-499.224,14000,17080,-1680
11.5492,10.1222,6.60692,11.3519,8.46197,4.29408,5.88889,0.495978,1.41632,-3.16481,-5.94186,-0.764517,-4.83846,-4.8405,-1.05983,-7.50715,24.4,-837.408,-502.152,12180,16660,-1540
-11.7614,-19.7338,-3.51847,-17.9654,-7.83292,3.0516,-12.0535,-2.04819,-6.53138,9.6394,16.8987,10.1063,20.4049,16.945,-6.15801,13.5347,23.424,-848.144,-490.928,11200,16660,-980
-19.1268,-40.1446,-10.6622,-36.4047,-20.9361,0.391656,-19.5665,0.84467,1.04431,23.3233,32.9929,16.2561,35.3911,28.0445,0.414924,27.2896,27.328,-839.848,-507.032,10640,15960,-560
1.97069,-17.0016,-1.44984,-29.4759,-13.3919,0.557635,-18.1357,2.53975,24.5221,28.1358,30.9424,23.1359,30.835,24.3549,-5.2835,20.3685,26.352,-843.752,-504.592,10080,15960,-280
6.66843,-2.44205,1.4005,-13.5339,-0.756135,2.77984,-2.84805,4.84937,18.7017,14.3597,15.5479,13.6852,15.8409,14.9512,1.9291,13.8456,26.352,-842.288,-501.176,9940,16660,-140
16.5008,26.8493,11.2444,27.2447,23.3111,6.43358,21.4946,4.79295,-5.99997,-19.0378,-23.0235,-10.0804,-22.3531,-13.441,5.35005,-13.9542,22.448,-841.8,-503.616,9520,16800,280
26.1719,34.061,17.976,18.9657,16.4421,5.88713,4.76803,-2.12555,15.5742,-0.456848,-9.4375,6.02884,-9.6132,-5.52043,-12.7087,-15.1373,19.032,-839.36,-499.224,9380,17080,280
10.9544,15.4966,10.3479,-3.53157,0.780331,1.26843,-16.9131,-6.35097,18.0641,16.8392,9.94032,18.3086,10.67,8.85126,-24.6487,-3.71291,19.52,-835.944,-503.128,9380,17640,420
-22.9954,-9.40986,-2.98558,-9.38832,-1.15421,-0.318035,-9.94717,-0.902974,-24.8853,0.159707,4.60244,4.59519,8.66005,10.7488,-12.0812,6.06294,13.176,-841.312,-494.832,9520,18480,420
-38.4464,-29.1729,-14.1143,-8.68493,-6.23268,-3.92682,2.37387,3.51544,-45.2642,-11.3086,-2.1572,-11.8485,1.93214,2.67016,12.0707,10.7849,11.224,-838.872,-501.176,8820,18620,560
-5.84029,-7.91569,-8.3152,-4.0326,-9.73395,-7.0968,-2.12776,-3.88139,3.64107,1.72829,2.09232,-5.97726,-1.65667,-5.65481,6.71643,-0.0398635,13.664,-835.944,-506.544,8400,18060,560
10.3591,6.77106,-4.37891,-3.26907,-11.5264,-9.03232,-4.61019,-6.87948,29.4038,9.57619,6.39701,0.0401956,-1.41301,-6.78303,4.17556,-2.48431,12.2,-835.456,-500.688,7000,18060,280
2.75593,11.8443,-4.32912,12.6485,-1.23025,-6.11141,11.0257,0.468306,4.13019,-12.4207,-13.0878,-14.9476,-18.2395,-19.2386,16.5094,-7.96996,9.76,-839.36,-507.52,5460,18060,-140
-5.72378,6.92069,-1.39132,10.7518,4.91228,-0.419302,12.3399,4.67409,-10.2925,-15.8185,-14.5092,-11.4108,-15.3761,-11.1783,11.6607,-2.21819,7.808,-838.872,-503.616,4760,18060,-560
-3.22394,-9.60744,-4.0821,-12.419,-8.60917,-2.8132,-6.72582,-2.53203,11.1468,9.64179,10.4767,4.96548,7.71085,6.63986,2.63231,10.4842,7.808,-839.36,-504.104,4620,17780,-420
5.64682,4.53022,0.0796265,4.02055,0.690012,-1.928,-1.35537,-5.36585,4.05699,-3.3112,-5.19378,-2.46938,-7.30485,-6.59845,-1.41826,-4.12311,8.296,-839.848,-505.08,4480,16800,-420
12.3379,18.174,4.65367,14.7317,7.07206,1.06631,4.69372,-1.96932,4.35643,-11.1937,-15.604,-4.10017,-15.8415,-14.105,-5.99272,-13.3836,11.712,-837.896,-507.032,3640,16240,-560
1.50465,9.12881,-0.111769,6.67132,1.20513,1.14004,0.38455,0.909332,-1.63735,-8.22498,-9.60279,-3.63593,-7.55984,-7.7928,-7.37675,-7.69636,12.688,-840.824,-508.984,2940,16520,-1120
-25.0509,-16.0138,-7.91388,5.92211,3.31594,3.47301,11.7832,6.34609,-44.8291,-20.3944,-16.3278,-17.4746,-8.40447,-4.09868,9.66723,1.68618,9.272,-836.92,-509.96,2520,16940,-1680
-11.7522,-10.3449,-1.80852,11.9843,8.74535,6.45035,16.9806,8.77451,-38.6518,-16.9266,-15.5583,-16.895,-9.12624,-6.799,10.5366,-1.0226,8.784,-837.896,-508.984,2240,16660,-2380
19.1985,11.1615,9.44927,6.81005,6.34821,5.25986,1.22314,2.9004,14.9496,7.22255,0.374593,5.27865,1.00238,-0.830057,-7.05312,-4.67684,11.224,-837.896,-509.472,2100,16800,-2800
22.0107,17.7562,8.24818,6.11157,3.11423,0.579497,-4.09229,-2.00703,25.7422,6.11808,0.41163,6.79205,-1.06974,-2.04028,-11.8412,-7.50955,12.2,-837.408,-506.544,1400,16940,-3080
10.3566,-0.444635,1.48615,-15.319,-10.834,-3.14344,-19.8362,-5.91339,27.5302,19.3476,21.2903,17.394,18.9379,13.1299,-17.9911,5.03597,15.128,-838.384,-508.008,1120,17080,-3640
7.6429,-5.27819,-2.15729,-17.0382,-12.122,-3.51538,-17.054,-7.48777,28.6791,20.9294,23.492,15.0538,18.027,11.7728,-7.14685,5.44993,14.152,-840.824,-511.912,700,16800,-3920
19.4632,15.5691,3.11735,3.85465,0.808181,-1.66621,-1.76173,-2.97273,27.0746,8.38854,5.23633,4.83806,-0.0951127,-5.37583,-1.08956,-6.89064,16.592,-840.824,-508.008,420,16660,-4620
8.50841,1.20613,1.82599,-7.57932,-3.87407,-1.24732,-5.02506,-2.92554,20.5637,15.9464,15.6426,8.9376,11.5106,5.83135,1.22936,2.38492,14.64,-841.8,-512.888,280,16520,-4900
-8.20729,-5.18804,0.911302,4.54043,6.66899,1.78323,6.79596,2.76129,-14.6606,-6.89484,-2.55066,-6.95922,-3.22098,0.79262,5.55201,-1.39046,14.64,-844.24,-509.472,0,16520,-5460
-16.0664,-4.0378,3.51796,8.15262,13.4579,5.46638,12.0765,7.14424,-28.0916,-16.694,-11.5753,-8.15727,-7.69973,3.53448,4.77011,0.105501,18.544,-845.704,-511.912,0,16660,-6020
-29.0191,-18.6303,-0.00327977,-4.12996,7.58086,4.6758,3.70255,2.30188,-42.9368,-12.57,-4.37095,-1.40551,3.91377,14.0597,0.404044,7.29063,16.592,-848.144,-512.888,280,16800,-6160
-21.302,-27.6104,-2.40741,-19.5322,-4.11958,2.27578,-6.52519,1.64411,-18.2277,6.01024,12.2443,9.64455,19.1722,22.4423,-0.436334,17.061,16.104,-850.584,-510.448,420,16800,-6440
-3.04156,-7.73478,-1.35839,-13.0343,-4.69722,-0.376177,-6.05602,0.100536,5.76491,11.5552,9.52965,10.8901,12.7863,10.9828,0.967954,9.98165,17.08,-851.072,-511.912,280,16800,-6440
0.363282,0.850141,-3.94242,-2.01012,-2.61154,-1.5624,2.49466,1.85066,1.80403,1.56351,-1.40828,1.04824,0.366327,-2.36344,6.44591,3.99296,17.568,-851.56,-519.232,1260,16800,-6300
5.71129,0.921968,-6.78045,3.89762,-5.45863,-4.40089,9.10657,1.72156,7.67978,-2.69764,-4.06671,-9.90368,-7.62703,-13.8107,15.8048,-1.6945,14.152,-850.584,-511.424,1680,17080,-6440
9.51225,13.2568,-3.89307,15.3075,0.383283,-3.02851,14.048,1.14901,5.21789,-11.5827,-15.1428,-16.563,-19.1881,-21.1358,13.926,-10.1754,18.056,-853.024,-513.864,1820,16940,-6440
-2.20869,-3.88574,-4.17975,-2.51608,-5.85313,-0.965483,1.43624,1.09994,-0.358013,1.77963,1.70693,-3.9982,-1.98491,-2.25169,5.96323,2.60319,12.2,-854.976,-511.912,2240,17080,-6440
-14.571,-20.6914,-6.19651,-16.7127,-9.80029,-2.22902,-11.9842,-1.88604,-11.6164,7.74357,13.0857,5.30103,12.2549,10.6982,-0.592887,10.5175,12.688,-857.904,-510.448,2380,16940,-6300
-20.0163,-15.9638,-2.6009,-1.49466,4.65617,-0.0179895,-0.310713,1.2845,-37.8077,-12.9937,-7.28025,-4.96692,-3.24913,4.28083,-0.708531,3.82074,14.152,-858.88,-510.448,3080,16520,-6160
4.40322,-2.3422,3.38257,-4.36149,-0.366418,-0.0534671,-11.6582,-3.68123,3.75735,5.90203,3.40199,6.46273,5.37864,6.01544,-16.4247,0.884181,12.2,-856.44,-509.96,3220,15960,-6020
20.9967,22.0521,5.87373,-0.760325,-3.55022,-0.66155,-16.1742,-8.08654,38.1725,11.9183,4.12438,10.8706,3.87748,0.375054,-23.1973,-7.53127,14.64,-857.416,-511.912,3640,14840,-5740
8.15553,9.16605,-1.18445,4.13048,-3.45381,-2.1942,-2.75967,-3.90614,12.2677,1.59199,-2.55077,-3.58029,-6.39984,-8.12669,-5.91579,-7.49276,13.664,-857.416,-510.936,4060,14280,-5460
12.9421,12.5197,2.58332,9.84477,2.86558,-2.11648,5.91698,-2.3131,13.0288,-0.661849,-5.09701,-3.42032,-11.9521,-10.3257,0.941539,-9.69292,13.176,-855.952,-508.984,4340,13440,-5040
10.601,12.9119,5.72261,9.75231,7.85512,1.64467,8.68186,1.06708,11.8608,-2.11125,-4.44573,0.460568,-10.2034,-5.03154,-0.0609195,-4.83546,16.104,-855.952,-510.448,4340,12740,-4900
3.27944,6.04496,5.23664,9.11282,8.01529,4.31905,8.26673,2.4485,0.47755,-5.49351,-4.99915,-1.96082,-6.60973,-3.74452,2.39503,-2.62265,17.568,-855.952,-512.4,4620,11620,-4340
11.3066,24.1213,11.971,21.0531,16.8139,5.60888,11.1158,2.46055,-2.18106,-13.0573,-15.5556,-4.21623,-14.0097,-11.8436,-0.394439,-14.5575,15.616,-857.904,-515.816,4900,11340,-4200
5.5316,16.9048,5.43594,13.2993,6.88225,2.83161,3.957,1.94469,-2.53265,-10.5381,-13.6385,-3.96774,-9.45203,-10.5149,-2.56947,-11.2259,16.592,-854.488,-517.768,5460,11060,-3920
-5.52807,6.59275,-1.40857,4.79986,-0.757815,0.441232,-3.07974,-0.240726,-10.3182,-8.30654,-10.5155,-3.31193,-4.00723,-6.057,-5.98509,-7.70422,18.056,-854.488,-516.304,6020,10920,-3640
-8.71132,-14.2014,-1.93633,-11.1132,-5.75228,0.556021,-6.91042,0.188714,-9.31326,9.07996,9.53648,7.14755,12.9217,9.07775,-3.96821,7.55347,18.544,-852.048,-514.352,6440,11060,-3220
1.38264,-15.8986,-0.878208,-15.3102,-8.18771,-1.66354,-5.16958,0.978613,8.95937,19.0722,19.1868,11.9782,17.4778,12.2694,3.76365,13.2164,20.984,-851.56,-515.328,7000,10920,-2800
5.28042,-4.39542,-0.717748,-8.13816,-5.7042,-1.5841,-2.51512,0.943911,14.0352,9.58451,10.2936,6.21336,9.03134,7.20949,3.74181,6.46051,20.984,-850.096,-513.864,7000,10920,-2660
-4.01131,-5.28273,-3.78489,-3.5692,-4.61478,-1.92134,-2.49762,-0.103468,-4.06446,-1.44215,2.45839,-2.62225,2.14217,2.67734,3.07475,0.944017,19.032,-850.584,-515.816,7560,11200,-2520
-9.47234,-2.41124,-4.48117,5.62415,2.99582,-2.06634,6.05054,1.65844,-21.3463,-13.6115,-10.9291,-12.2098,-8.76914,-4.5151,6.67703,-2.88191,22.936,-849.608,-516.304,7560,11900,-2520
-18.6826,-12.9835,-8.65338,-1.26681,-2.30933,-1.8975,5.69302,1.13823,-23.68,-12.0472,-7.33188,-12.0805,-2.59572,0.327742,10.3458,5.10723,20.496,-848.144,-514.352,7840,12320,-2380
-14.7078,-23.2222,-14.4063,-25.6299,-23.3598,-5.38107,-16.4077,-4.86996,15.9157,15.3226,23.05,3.89122,22.1075,12.0045,6.85663,16.0937,19.032,-852.536,-512.4,7840,13020,-2520
17.9437,10.5319,2.58354,-9.10958,-6.49231,-1.78471,-8.61405,-4.27777,43.8192,18.9373,16.1739,13.4533,12.1696,5.6479,-0.497125,3.98415,20.984,-854.976,-510.936,8260,13020,-2380
18.9341,21.6753,11.2687,16.1371,16.2394,2.90236,14.3513,2.07542,6.49507,-2.99363,-9.99906,1.67377,-11.1158,-6.96745,1.47777,-4.17216,18.544,-858.88,-505.08,8400,13300,-2520
-5.8589,5.7827,5.27708,22.9828,19.3546,5.00915,21.2663,6.58853,-39.6744,-24.7292,-23.8708,-13.826,-20.1947,-11.8138,5.03628,-7.12745,20.008,-858.88,-505.08,8820,13440,-2380
-13.0948,-11.4983,-0.870862,3.95725,5.51304,3.37065,6.37638,5.49655,-29.76,-10.3867,-5.17393,-5.76033,-3.159,0.233025,1.72223,1.65954,22.936,-855.952,-504.592,8820,12740,-2380
-17.6167,-17.742,-5.20012,-6.97692,-0.322335,1.464,1.64357,5.79648,-19.8235,-2.99712,3.99232,-1.10692,5.6316,5.98098,3.4609,10.2422,24.4,-856.44,-504.592,8120,13160,-2660
-16.5795,-16.3023,-4.41666,-7.39727,-1.72371,0.940605,-3.37159,4.04695,-17.3914,-2.97978,5.81144,-0.49035,7.07943,6.08208,-2.27331,7.10533,24.4,-854,-504.592,8260,13020,-2940
-8.33414,-14.6902,-4.29353,-13.317,-9.62656,-0.327972,-12.3272,-1.06129,-0.105813,7.98239,14.2393,5.30935,11.8451,8.22533,-5.67669,5.72645,25.376,-854,-499.712,9520,12740,-2940
25.2637,10.4683,6.37595,-13.8513,-8.42789,-1.85297,-17.8394,-5.41809,49.2774,29.6665,24.456,23.508,16.6901,10.3739,-12.2809,0.683876,28.304,-851.56,-504.104,11480,12320,-2940
20.2794,8.68574,5.11308,-8.165,-1.25659,-0.632501,-5.23457,-1.68002,38.7833,19.088,15.3532,14.245,9.04471,6.10649,-2.68167,3.29007,31.232,-853.024,-510.448,11760,11760,-2800
-1.58628,-1.5054,-3.95861,-4.44393,-3.97923,-2.2401,-2.75977,-2.90392,7.79722,1.75819,3.473,-1.36478,1.42529,0.151996,4.66086,0.0244993,24.888,-860.832,-514.352,8960,12040,-2520
-1.79642,-2.36847,-7.31314,-4.66802,-7.77286,-5.17212,-4.98561,-4.72299,7.21525,1.48462,1.31662,-4.00513,-0.524676,-2.96814,4.00954,-3.17103,20.496,-867.176,-508.496,7700,12320,-2100
11.6002,11.634,3.19512,15.6922,9.98347,0.0353741,15.7496,0.433614,1.19558,-7.58163,-16.5526,-9.38754,-17.5471,-12.2223,4.99754,-10.3491,23.912,-877.424,-504.592,7420,12040,-1960
19.0257,24.4454,12.7205,24.352,17.7096,3.97175,14.1665,-1.66911,0.797304,-7.06497,-22.5519,-5.38664,-20.1277,-12.5221,-6.16353,-19.1481,24.4,-877.424,-502.64,7420,11340,-1820
-8.26027,7.31176,5.76902,13.3284,11.7481,5.38872,5.63786,-1.49886,-25.2347,-14.4052,-21.1674,-6.51715,-10.5736,-2.27137,-8.38942,-10.2557,24.888,-876.448,-505.568,8260,10360,-1820
-26.2177,-14.7159,-5.16697,-3.58533,-4.46409,1.37043,-5.35774,-1.15653,-34.2271,-12.1816,-8.59528,-6.94917,0.327972,4.17326,-3.95572,2.5256,25.864,-875.96,-507.52,8820,9940,-1820
-4.74592,-2.35478,-2.74695,-2.80871,-7.15507,-1.62519,-7.12709,-2.02456,-4.05555,-1.25254,-2.20849,-2.3379,-0.970837,-1.64324,-4.25759,0.586964,23.424,-873.52,-511.912,9100,10220,-1960
15.6056,12.1726,0.815284,0.449051,-7.33181,-3.68941,-10.384,-6.05139,26.2383,8.37806,3.56116,2.37859,-0.512598,-5.55443,-10.7629,-6.54457,22.936,-868.152,-508.496,9660,10780,-2100
15.2315,12.5643,-0.915596,1.18643,-5.41381,-4.41829,-6.46612,-7.09905,24.9696,5.84612,3.93786,0.148906,-3.11176,-7.55357,-4.52941,-6.77433,24.4,-867.664,-506.056,10220,11340,-2100
18.3176,19.8332,7.52131,12.5805,9.21702,-0.933691,3.76944,-5.23082,10.8558,-2.4402,-6.48062,0.110409,-13.7763,-9.96711,-2.01645,-11.8202,26.352,-862.784,-508.496,11200,13020,-2240
0.199626,18.0913,6.50037,28.0419,20.4854,3.47764,20.077,1.81518,-29.206,-28.4209,-29.2647,-14.8684,-29.8351,-19.3737,7.08874,-16.072,26.84,-859.368,-511.424,12180,14140,-2520
-22.222,-14.2901,-4.77386,-1.60804,0.771005,4.08472,8.36209,6.73035,-27.2513,-12.7841,-5.23865,-5.51109,-1.46578,1.3666,11.1265,11.2145,29.28,-858.392,-504.592,12880,14840,-2520
-25.5741,-39.5136,-10.3894,-31.7198,-20.4434,-0.312515,-15.6624,0.944788,-4.79606,17.0633,27.3648,11.357,30.2722,22.8388,3.81085,26.1986,34.16,-858.392,-506.544,13300,14700,-2240
15.6357,-1.23119,1.92006,-21.0879,-12.6203,-2.61902,-17.226,-0.658932,43.8238,30.2952,27.4908,23.313,25.4373,16.3816,-6.21962,11.2045,28.304,-858.88,-505.568,13300,14280,-1820
19.8913,22.2841,6.77117,8.20966,6.82652,1.27914,7.42788,9.12369,20.7098,0.465726,-3.96619,5.16247,-3.7499,-3.96471,0.103243,-2.40167,29.768,-859.368,-508.008,12460,13160,-1260
-4.98982,12.8886,5.37129,24.5128,18.2325,4.51113,24.6253,10.0522,-38.3196,-29.2939,-25.7234,-14.9139,-20.4508,-13.4366,8.78359,-8.57598,29.28,-860.344,-505.568,12040,12320,0
-29.3319,-24.4356,-4.02756,-1.71498,1.34856,2.53036,9.43393,4.18058,-50.8855,-14.1661,0.725306,-8.96287,4.46689,5.4202,11.4445,7.97396,29.28,-859.368,-507.52,11340,11620,420
-36.4311,-50.0521,-15.9756,-27.2754,-20.63,-2.3138,-9.19159,0.736992,-28.2894,6.14239,24.0845,-2.67202,26.7111,17.5705,10.9625,21.8821,23.912,-864.736,-506.056,10500,11200,1120
1.39154,-22.4271,-4.18566,-26.2187,-17.0017,-3.36382,-19.5667,-1.36579,26.754,27.8095,30.5856,14.9318,28.5063,18.7295,-5.00663,14.8607,22.936,-864.248,-505.08,9660,11060,1820
23.2654,3.97702,1.85028,-12.589,-6.05949,-3.01807,-12.1931,-0.696336,47.4584,26.7235,19.3897,15.5445,15.2538,9.54795,-7.41041,6.19388,20.008,-866.688,-506.544,8820,11340,2100
32.5563,33.7735,4.27535,15.6566,6.65329,-1.71834,4.64877,0.12398,41.9195,1.56147,-11.159,-1.22624,-14.5403,-14.78,-3.77776,-15.0418,19.52,-865.224,-506.056,7980,11340,2380
14.9149,19.3069,-1.71271,4.24934,-3.71658,-1.00784,-3.54613,0.150723,29.0214,4.34764,-2.27113,-0.951374,-5.02951,-8.34345,-5.44386,-8.05975,17.08,-863.272,-502.152,7700,11620,2660
-25.5596,-7.13197,-8.24446,5.31073,4.19174,2.61764,9.47624,7.58673,-34.859,-23.2174,-18.2044,-14.6524,-9.00337,-2.06127,4.72522,3.67057,16.104,-863.272,-499.224,7280,11760,2800
-37.5223,-15.5893,-2.94391,17.881,21.9815,6.58159,28.064,13.4665,-82.9662,-40.6576,-31.8728,-22.9771,-20.6021,-4.54674,15.3242,3.12139,14.64,-864.736,-499.712,7140,11620,2800
27.1299,15.7229,12.7336,10.4309,10.9942,0.196471,5.1478,-1.22244,14.9308,10.9996,2.15299,9.02838,-4.94877,-5.35762,-1.79445,-9.64398,18.056,-867.176,-503.128,6860,10780,2940
48.655,38.945,13.6757,10.1336,1.65931,-4.46173,-7.02027,-11.669,62.0334,22.0826,7.54771,16.3176,-6.12515,-12.6628,-11.5709,-20.9674,13.664,-865.224,-501.176,6580,9520,2940
6.63826,9.38191,0.47903,3.28782,-1.23798,-3.28688,-4.48525,-8.77228,10.0694,1.26075,-1.11095,-0.166961,-6.22393,-8.20084,-2.48322,-11.5703,19.032,-863.76,-502.64,6720,8540,2800
-7.73058,6.21749,2.67497,16.6871,12.252,2.34876,9.1084,-2.11127,-26.8883,-23.0927,-22.0218,-12.8683,-18.7161,-10.1343,1.41103,-13.5205,15.128,-864.248,-503.616,6860,7140,2520
-30.8459,-37.0894,-13.5873,-25.7744,-18.4725,-3.04409,-15.7197,-3.80968,-20.9361,6.39055,16.6657,0.9004,18.2409,17.3457,1.06428,17.3795,17.08,-860.832,-501.176,6580,6160,2240
-35.4285,-48.0422,-15.2591,-32.3445,-20.7345,-3.25075,-18.6798,-2.65608,-25.2933,10.5303,21.4805,1.7114,24.6762,23.385,2.17283,24.2768,19.52,-862.296,-500.688,6160,5320,1680
11.4984,-1.94805,3.30174,-18.8533,-11.53,-3.26602,-27.0181,-12.2114,33.172,27.3912,23.8682,19.3964,21.253,13.5875,-17.0947,2.88038,18.056,-860.832,-498.736,5600,4340,980
40.8171,31.82,14.2289,-4.41721,-0.854261,-3.35017,-21.651,-16.2561,67.0904,32.0588,18.399,25.2745,10.004,3.10742,-24.7017,-10.9614,19.032,-859.368,-500.2,4620,3640,560
-12.0629,9.84234,4.9744,15.2522,19.2262,4.3665,16.0733,0.866717,-30.7059,-21.343,-21.7411,-8.68243,-16.3822,-5.62571,-0.191362,-3.20289,18.544,-863.272,-494.832,3360,2940,-280
-51.4537,-25.4275,-7.81194,18.175,20.2806,7.81422,31.5884,10.7364,-99.3877,-47.9429,-36.1509,-30.7853,-22.9602,-8.59207,21.7469,4.6281,18.544,-865.712,-498.736,2380,2660,-560
-27.9464,-37.3802,-14.5218,-17.1732,-14.4989,0.555594,-0.227046,3.91466,-24.7148,0.0231069,9.91025,-4.38691,11.1055,8.89535,15.8983,19.2278,18.544,-866.688,-495.32,1680,2520,-1400
17.504,-12.6927,-9.36021,-37.759,-36.0738,-8.13702,-29.4472,-7.33167,75.2355,48.859,46.4843,24.8524,35.8413,16.0478,-0.605213,19.5757,22.936,-865.224,-493.856,1120,2520,-1960
26.873,22.4669,6.11857,1.05764,-1.36166,-0.318993,-1.64573,-2.18136,51.2945,15.6674,8.50786,7.92694,4.7062,-0.275673,-1.62069,-1.16008,18.544,-869.128,-498.736,280,2380,-2520
19.7519,27.6627,9.45436,19.4078,13.8366,3.28246,12.6409,1.3072,17.7258,-10.4075,-15.9866,-4.66717,-14.4026,-9.45538,-1.27279,-10.1633,21.472,-871.08,-500.688,140,3360,-2940
22.3217,47.1689,18.956,47.8292,38.1326,9.02798,35.9876,7.16975,-16.2501,-38.7205,-48.8849,-18.2065,-42.104,-25.6296,0.0546129,-24.9703,17.568,-867.664,-493.856,140,3640,-3080
-0.323967,19.4619,12.4853,29.0068,30.1859,11.0012,29.311,12.6634,-32.0573,-34.6453,-37.6962,-14.5167,-24.6728,-8.0503,1.64894,-7.10463,16.592,-861.32,-488,-1260,4060,-3360
18.2224,19.3537,4.25237,17.3672,10.1208,4.62623,16.9366,14.8716,10.9012,-12.0707,-17.464,-9.79843,-14.2112,-11.4026,5.47719,-4.22509,19.52,-858.392,-491.904,-2520,4760,-3640
27.9951,19.5308,1.36262,7.00864,-5.7557,-2.79573,2.02954,8.48658,32.1686,8.78232,2.52222,-2.09459,-5.5661,-12.1811,1.47388,-8.45493,17.568,-855.952,-484.096,-4620,5180,-4060
8.08825,3.70574,-0.677953,5.55364,-6.31851,-4.44298,2.29892,3.75775,-2.92661,4.55861,3.63523,-5.99943,-5.07966,-12.1486,4.67554,-10.3282,17.568,-849.12,-485.072,-7840,6440,-4620
-42.6033,-41.6529,-12.9056,-13.6417,-13.4574,-1.78891,-3.51784,2.46442,-58.2598,-7.15819,8.61786,-8.80282,9.73875,6.82156,8.97298,8.42797,14.152,-847.656,-478.24,-10360,7420,-5180
-57.7277,-69.1158,-20.9546,-40.8172,-32.5108,-5.98601,-26.9619,-4.36941,-50.0324,6.41983,29.8544,3.36153,33.5388,25.1467,3.48119,20.5423,18.056,-850.584,-486.048,-14420,7980,-5600
9.87883,-4.07181,-1.34747,-18.4861,-17.1778,-5.83467,-22.7364,-6.09333,28.4283,23.6338,24.7614,17.1935,17.9098,7.91196,-8.42386,-1.67439,15.616,-849.12,-484.584,-16940,8960,-6020
34.5123,34.9803,12.5648,7.90623,7.21527,-1.50262,-4.00175,-6.56703,39.8948,13.174,4.37775,16.6492,-4.49532,-4.02752,-10.8369,-15.0588,17.08,-856.928,-492.88,-20160,9100,-6300
8.90918,20.6868,-0.94315,12.8722,3.28878,-2.16177,5.24183,-2.29869,6.6353,-7.97382,-8.16571,-2.98213,-15.284,-14.5535,-0.183198,-12.5991,18.544,-857.904,-495.32,-21420,9520,-6300
-22.4158,-10.3756,-12.4498,-5.00099,-10.0299,-1.17571,-4.26119,-0.570706,-16.2909,-7.8569,-0.219833,-6.09905,-0.853905,-2.24758,0.528623,4.86064,19.52,-861.808,-497.272,-22260,9800,-6300
-48.9548,-40.8331,-16.7907,-19.9345,-9.45858,2.99452,-0.970755,6.30209,-43.1112,-8.84036,3.79175,-5.34405,12.3251,17.6238,8.31138,28.2068,19.52,-851.56,-494.832,-23520,10080,-6160
-20.2774,-17.8885,-0.0897242,-3.86569,8.81305,5.80907,5.01712,5.96148,-26.7808,-7.83966,-5.36772,1.41539,4.07451,13.8218,2.2115,13.0938,22.448,-860.344,-496.784,-24360,9800,-6580
45.0462,36.4778,25.9439,19.4216,19.553,2.6448,0.211414,-9.14243,37.2151,12.65,-3.05654,15.1685,-5.46725,-5.06693,-13.8339,-22.3837,25.376,-855.952,-499.224,-25200,9660,-6720
56.4671,38.2784,25.1053,2.32725,1.77189,-2.76629,-24.1613,-20.4477,69.3297,39.6357,21.7994,29.6758,11.4332,-0.204685,-26.3342,-22.9936,25.864,-857.904,-498.248,-26040,9240,-6300
23.4294,15.5226,12.4744,-5.17583,-0.541724,-2.84937,-27.1073,-18.0071,27.3656,24.2681,13.7927,20.9389,10.9453,5.39948,-29.9494,-12.5334,33.672,-859.856,-509.96,-26600,8960,-6020
-32.8543,-31.9339,-17.3541,-17.0534,-10.4094,-3.34965,-12.6496,-3.27349,-29.4346,-5.29923,0.121236,-6.49751,8.25607,8.96299,-5.11914,14.9058,31.72,-853.512,-508.008,-26180,8540,-5600
-49.2553,-50.7826,-27.0556,-16.006,-11.2409,-3.34572,4.49365,7.30657,-48.1925,-18.6139,-8.63412,-21.7856,3.45145,5.43448,18.8695,25.7688,32.208,-857.904,-502.64,-26600,7700,-5180
-10.3861,-13.5477,-5.18362,6.05178,9.52982,1.94154,17.421,8.53557,-21.5922,-14.3189,-16.1221,-14.3688,-8.81944,-2.77574,11.9369,9.83588,33.184,-856.44,-507.032,-27160,7280,-5180
14.7079,9.31969,5.72681,11.7836,14.0236,3.56037,15.2937,5.2625,9.17003,-4.59505,-11.6525,-2.44464,-7.94655,-3.92246,6.2043,0.85085,41.48,-865.712,-536.8,-27860,6300,-5180
26.0881,13.2999,0.911483,-1.74714,-4.39285,-2.49902,1.04275,0.775238,46.9843,13.3625,7.87025,5.73202,3.93513,-2.70126,6.36714,3.44467,30.744,-856.44,-510.936,-26040,7700,-5180
10.7892,20.6051,1.25092,11.6642,5.4879,0.345084,12.1085,4.13324,10.6407,-9.21308,-8.33094,-7.67591,-9.75524,-12.1372,7.95783,-4.89702,33.672,-857.416,-511.424,-24080,7140,-4620
-15.3037,-0.638668,-8.78106,14.6398,6.8013,1.26036,26.8262,11.1091,-31.5018,-28.5394,-21.0484,-24.6846,-18.7227,-14.9159,23.1627,0.292992,36.112,-858.88,-517.28,-24920,7140,-5040
-9.16102,-8.35144,-7.61256,-4.11955,-6.35292,-0.895946,10.5662,4.99938,-0.237341,-4.66563,1.89335,-9.91473,-0.419084,-1.6025,17.8852,7.68301,39.04,-854.976,-517.768,-23940,6580,-5040
-11.9954,-6.6107,0.0382548,-4.99616,0.283019,1.96595,4.99285,3.34414,-6.25447,-2.60424,2.43295,-2.813,2.49095,5.52387,7.43423,6.22464,39.528,-856.928,-520.696,-23800,5880,-5180
-1.11053,5.15105,10.6305,1.76585,10.9526,6.14148,4.5649,3.11529,-7.76653,0.149438,-2.63838,4.59409,-1.31617,9.21896,-4.374,1.70629,40.016,-857.416,-521.672,-22540,5460,-5180
17.0144,9.23861,14.1821,-12.9286,-0.492504,2.184,-20.5441,-10.4485,27.9096,28.8836,22.1323,26.6643,18.2045,19.5218,-20.9986,-0.268545,40.992,-857.904,-522.16,-20860,4620,-5040
1.35181,1.22695,2.70941,-14.151,-8.62824,-2.65662,-19.2981,-11.6411,16.1675,15.4906,15.2642,17.3306,14.4793,12.6958,-12.48,-0.229023,39.528,-853.512,-520.696,-20020,4060,-5040
-6.68514,-0.927666,-1.31741,1.47646,-1.03169,-2.22504,2.49701,-2.58105,-11.1427,-5.93131,-3.62813,-0.991767,-2.3132,-2.47814,7.00458,-2.67728,39.528,-851.56,-517.28,-19320,3920,-5040
6.21232,1.1445,-3.53894,-4.67978,-9.74953,-4.36979,-7.40276,-1.19203,15.8306,9.40707,8.50042,4.15964,4.39466,-1.1721,1.06481,-1.22995,38.552,-849.12,-517.768,-19040,3640,-5040
10.5595,5.92484,-5.88164,-10.0894,-18.0178,-5.86888,-17.2513,-2.69948,35.0652,17.1931,16.959,6.6189,9.56755,-0.299457,-5.08917,-2.74921,35.624,-849.608,-515.816,-18620,3500,-5040
3.18758,13.9398,-1.88949,12.4181,2.2884,-0.163461,2.44422,2.64862,-4.30386,-11.9306,-8.38641,-9.34009,-13.3327,-12.2627,-2.7645,-12.3304,33.672,-846.192,-518.744,-18340,3220,-5320
-13.1713,10.7419,5.03737,33.9845,24.7557,7.56212,26.8428,11.0191,-61.2661,-43.2546,-35.1052,-24.6275,-32.7212,-20.4562,3.85566,-16.6173,31.72,-847.168,-517.28,-18480,3080,-5460
-13.0334,-10.1779,1.75336,17.7878,13.1311,4.51679,20.8065,7.87568,-49.1233,-25.4379,-17.9676,-17.811,-16.4829,-10.7748,11.1547,-5.39064,33.672,-846.192,-515.816,-18620,2660,-5600
8.27803,-0.862138,0.0795301,3.88608,-3.20486,-1.71943,-0.0211028,-0.18636,4.29934,-0.878135,0.0398486,-4.51445,-3.65127,-8.02314,-0.977976,-6.74394,32.208,-845.216,-517.768,-18760,2100,-5740
7.23759,-7.5979,-3.29374,-11.6693,-14.2507,-3.07489,-14.4706,-3.23423,21.6911,15.3998,16.3631,5.44116,10.5802,3.85511,-8.06296,0.614303,35.624,-848.144,-525.576,-19320,1820,-5880
34.6355,17.5775,15.0254,-9.83183,-4.10337,0.0557137,-23.6681,-10.6466,51.9348,36.256,24.485,28.5261,16.7478,11.8741,-28.3782,-6.45704,35.136,-848.632,-528.504,-18480,1540,-6020
33.2535,23.7095,18.9519,-4.05786,4.74778,2.03259,-14.284,-8.48442,47.3542,31.3032,16.9253,29.7752,12.2682,10.3807,-22.4331,-4.65512,36.6,-850.096,-526.552,-17360,1540,-5740
-14.5179,9.13278,2.08858,29.096,24.1098,6.12052,26.188,7.42513,-46.6517,-39.3777,-39.5009,-21.3359,-30.9365,-18.0643,6.10533,-10.6244,29.768,-851.072,-512.4,-15960,1260,-5600
-34.8539,-14.458,-7.06415,15.3656,12.1116,4.44858,12.8383,8.75156,-64.1744,-38.2933,-31.4519,-23.5252,-19.1582,-11.3145,-3.39223,-2.59537,34.16,-853.512,-527.528,-15820,140,-5320
-47.1907,-44.2643,-21.0759,-11.0743,-11.3806,-1.62962,7.79852,11.596,-52.2102,-18.1735,-7.41456,-19.3842,3.00733,2.40022,19.8557,21.1577,29.28,-849.12,-503.616,-14980,560,-5180
-16.605,-39.603,-23.5622,-27.7844,-31.8691,-9.28387,-7.21254,2.43967,10.0392,18.086,23.3553,-4.14707,20.5124,4.61622,25.0067,24.2828,43.92,-866.2,-548.512,-15120,-2520,-4760
23.9445,-8.08857,-4.8981,-39.415,-31.9303,-7.70745,-34.6409,-11.019,77.4435,55.691,51.0696,32.0964,41.323,21.0919,-10.8962,17.1693,29.768,-846.192,-535.336,-11200,-1400,-4340
23.7474,16.5181,12.7528,-3.8722,4.93467,2.35166,-4.9745,-6.64938,30.9447,19.9039,10.6957,19.9622,10.8329,9.28223,-6.67607,-0.794632,25.864,-848.632,-511.424,-10360,-280,-4200
19.655,26.954,12.7507,20.1958,19.7309,4.23324,14.686,-2.85177,4.05147,-8.90472,-18.7336,-0.136381,-14.335,-7.80468,3.80924,-13.2945,29.28,-856.44,-514.352,-9520,-2380,-3640
-10.8207,9.98416,-2.12484,20.7994,16.6821,4.04118,20.1728,3.24942,-33.3589,-31.97,-32.0412,-19.655,-23.2858,-12.5461,11.1052,-7.70831,40.992,-863.76,-552.416,-8540,-3640,-3500
-16.9422,-25.6709,-12.6519,-24.2387,-15.4066,-2.98655,-16.3707,-5.51403,-1.42592,11.8794,16.5733,5.32024,17.9893,16.1803,2.07445,17.7358,35.624,-857.904,-556.32,-4060,-2100,-3220
-11.7176,-9.11474,-8.7272,-12.0796,-6.23621,-4.34951,-3.64863,-3.24331,-0.0757525,2.07341,5.09734,0.553253,5.4757,6.90158,8.60452,13.126,33.184,-846.192,-549,-980,-1120,-3080
-6.75583,14.0228,2.63953,23.0093,20.5029,2.30478,26.5333,5.3567,-29.9204,-28.7779,-29.0534,-18.0706,-25.4534,-14.0727,15.5141,-5.47168,28.304,-828.624,-533.384,1820,140,-3080
11.4593,20.5838,11.7292,9.12522,10.8037,1.77939,-1.57882,-2.90671,5.4017,0.898371,-3.19325,5.51796,-4.39887,-0.724498,-13.9463,-9.73592,29.28,-831.552,-516.792,1400,1540,-3360
2.1252,2.98312,11.3782,-9.67425,2.73406,2.79473,-13.9933,-5.49734,6.51669,15.221,13.5759,18.6615,14.5077,17.5014,-17.7586,3.71718,35.136,-846.68,-541.68,840,1120,-3500
6.49123,4.92617,6.90176,1.97759,4.87378,2.58901,2.10275,-0.104945,4.25319,4.51802,1.72942,5.59467,1.46489,5.17642,1.65767,-0.0279614,27.816,-847.168,-529.968,1960,2240,-3920
-10.437,-6.46626,-2.34271,4.56842,0.403065,2.87217,5.39029,4.57927,-21.0101,-11.0573,-7.59646,-7.68047,-4.29018,-0.722905,6.8845,-1.02534,25.376,-865.712,-529.968,2660,2940,-4200
-5.38928,-19.9143,-10.263,-15.82,-20.472,-4.86314,-12.6317,-1.09797,10.4408,11.1778,15.642,1.90425,13.0039,4.08086,6.03005,3.78363,29.28,-854.488,-539.24,6020,2380,-4200
19.1347,5.5769,-6.1445,-6.05147,-16.4052,-8.90506,-7.95353,-0.130373,42.8479,14.5453,12.9272,1.87818,2.98698,-7.90792,1.9702,-4.98481,23.912,-857.904,-527.528,8680,5600,-4900
19.9865,20.3052,7.77723,12.3257,5.84392,-0.421357,1.20005,3.46439,16.0121,-1.29898,-4.16123,0.397054,-8.86644,-9.59881,-8.79616,-15.3885,26.84,-859.856,-518.744,10920,5880,-4760
14.6679,15.5663,11.0708,16.9561,12.7594,2.60229,6.62457,4.18584,-0.441384,-6.45223,-8.33475,-1.74681,-10.301,-9.16384,-8.76909,-15.6396,26.84,-861.32,-508.984,13020,5040,-4900
-4.72955,-0.312,1.04756,5.27524,5.11707,2.01991,3.57326,6.60508,-5.12076,-10.6869,-6.67064,-5.14027,-4.88784,-2.02232,-7.39501,-4.09213,20.496,-784.216,-504.104,14000,5180,-5180
-33.6565,-31.6722,-15.9185,-15.8166,-14.4125,-2.47062,-7.48246,7.01691,-20.5385,-8.93174,5.82939,-9.70814,8.83062,6.69203,0.336489,11.4099,40.016,-837.408,-538.752,3920,4200,-6440
-32.7208,-30.2295,-16.9637,-10.5323,-12.3538,-3.70187,-1.82865,6.27541,-30.1851,-10.0312,3.91909,-13.3557,3.57964,-0.656162,7.25987,9.99245,37.576,-839.36,-527.04,4900,3080,-5880
-2.87449,-9.31905,-2.67017,-9.63069,-6.62408,-2.08268,-5.21656,-1.65775,4.87432,11.1795,12.6816,5.00543,7.52403,2.84356,0.354149,5.70194,35.624,-849.608,-528.504,5180,3920,-5740
20.7479,15.541,11.4352,-3.24396,2.90368,2.81226,-6.14621,-6.00832,32.3849,19.5278,10.8513,16.9169,6.78557,7.40035,-9.01976,1.07923,35.136,-847.168,-520.208,4480,2520,-6160
22.2669,37.8121,17.3875,33.2318,27.7739,7.87039,25.0154,2.02553,0.217239,-19.8085,-30.8742,-7.82354,-27.6693,-15.9272,2.62386,-17.0119,39.04,-853.024,-525.088,4340,1540,-6300
7.64573,21.7759,10.2285,28.2804,23.4759,7.90034,28.3359,5.93391,-17.0621,-24.1241,-29.341,-15.0395,-23.6167,-14.9325,9.78286,-8.12868,38.552,-843.752,-549,6300,2240,-6300
5.58442,-3.22485,0.324764,-8.79818,-6.19036,-0.104087,-7.97449,-5.75349,12.2891,15.0335,12.652,6.40945,11.4951,4.56185,-1.924,7.7019,30.256,-837.896,-512.888,8680,6160,-6160
8.36707,-5.96781,1.35138,-16.2952,-9.10375,-1.50336,-15.0844,-11.5867,17.8588,23.7298,19.0993,16.2229,19.8846,10.7711,-6.2156,10.2923,39.528,-842.288,-517.28,7560,4340,-6160
13.9237,10.0384,3.55824,2.12899,3.57256,-1.29612,-0.0577105,-9.28942,9.53264,7.45464,-0.1685,8.52591,1.1731,-2.58896,-3.29129,-2.34617,39.04,-843.752,-521.184,7700,3640,-6020
-8.66493,-9.1965,-10.2125,-3.32587,-5.61998,-4.49366,0.0778131,-5.68832,-10.5362,-4.09807,-3.524,-3.72558,-0.83549,-3.21888,3.34429,1.61867,42.456,-844.728,-525.576,6860,3640,-6020
-15.3976,-20.3177,-16.1399,-17.6785,-16.9538,-6.42163,-11.3859,-5.65923,-4.46142,4.94031,10.2671,-0.649258,9.94112,5.90486,2.83782,8.24627,39.04,-843.752,-519.232,7280,3640,-6160
-9.7434,-3.91011,-8.29238,-0.363842,-2.89001,-3.98807,0.435625,-1.85241,-17.6005,-7.54797,-3.27382,-7.9015,-4.90826,-3.49073,4.18846,-1.86886,46.848,-843.752,-540.216,7000,2800,-5880
-21.3023,-6.879,-3.20404,7.595,7.76477,2.95946,12.1708,6.52093,-42.3271,-21.5389,-15.4713,-12.7344,-9.82867,-1.20318,7.75485,3.13367,39.528,-839.848,-520.208,7840,3640,-5600
-9.26677,-11.8294,-0.243999,-6.76459,-1.46813,2.40333,-0.821424,3.61743,-6.82319,2.01712,2.47448,2.53725,6.30804,8.97074,3.79351,10.72,42.944,-845.216,-522.648,7420,3080,-5600
-3.9106,-9.51088,-1.60857,-12.6427,-8.1302,-0.435125,-13.0292,-1.77577,9.04145,10.4925,12.1377,9.12451,11.0634,8.7225,-4.27301,5.52154,46.36,-843.264,-525.576,8260,2240,-5180
1.04311,-5.60143,1.15555,-12.2063,-7.34184,-1.49773,-15.4853,-2.62011,10.9069,13.9149,15.9878,13.094,12.087,9.9613,-9.00024,1.86189,43.432,-846.192,-524.6,8400,1680,-5040
28.531,24.8204,13.8671,10.7646,8.12207,2.40082,0.766009,0.741952,25.4904,11.0012,4.18337,8.64066,-3.37596,-2.95129,-7.1325,-12.1673,41.48,-847.168,-519.72,9380,1540,-5040
21.8322,26.5991,15.5469,21.6083,18.0191,6.47123,16.6136,7.29637,6.79094,-5.54127,-10.262,-2.92726,-16.3363,-8.13238,0.932183,-12.0491,48.312,-856.44,-522.648,8820,1120,-4900
8.55108,15.1098,10.4585,17.1372,15.6194,5.90225,13.6276,7.22269,-6.17246,-11.3886,-13.1785,-7.105,-15.6454,-5.9407,-0.173672,-8.27444,48.8,-848.144,-537.288,10920,1540,-4900
-5.66731,-7.02561,-3.15676,-4.17194,-3.95972,0.366155,-2.57005,3.18849,1.74517,-0.741798,1.86899,-2.74416,1.74174,3.54851,0.260478,2.8357,44.408,-843.264,-526.064,12600,3780,-4900
-29.0071,-29.586,-16.5933,-20.1886,-18.0286,-4.4177,-11.6413,0.74476,-10.151,-1.51607,8.89108,-5.22382,11.6652,9.68272,5.23244,12.1475,45.384,-842.776,-511.424,12880,4200,-5180
-26.3192,-20.5295,-13.2998,-7.552,-9.96069,-4.84339,-3.15418,0.799838,-25.0507,-12.4087,-0.945576,-11.3471,0.148231,-1.33564,8.04115,1.58696,47.824,-853.024,-506.544,12460,3640,-4900
-2.03202,-1.73915,-1.16876,6.02592,3.37418,0.626764,10.6317,6.45528,-7.26271,-9.99452,-9.38608,-8.14527,-6.96936,-6.0153,9.60311,-1.87988,54.656,-868.64,-544.12,13160,2380,-4480
21.6207,17.3337,8.50029,9.59502,4.96571,1.06816,0.787906,0.266321,21.911,6.15507,-4.39274,2.83965,-4.54749,-7.97934,-2.3544,-12.4381,57.096,-846.192,-583.16,19740,3080,-3920
26.8087,25.5513,14.3508,17.5004,12.3929,1.77345,3.77081,-3.02583,18.8827,2.45366,-9.35732,4.60491,-8.82386,-10.6892,-4.27249,-18.4447,31.232,-835.944,-498.248,21560,8540,-4200
29.8921,37.0994,17.7148,31.4302,23.6706,4.18452,17.0674,-0.856341,8.90797,-10.864,-23.6968,-2.47036,-21.2078,-17.5018,-1.88243,-23.2084,43.432,-832.528,-506.544,20020,5320,-4480
0.575435,5.95909,0.709233,7.47153,4.41614,1.1813,7.96053,2.19113,-2.68973,-8.7068,-9.87829,-3.61315,-4.74459,-3.47298,4.41688,-2.05858,36.6,-839.36,-517.28,19040,5600,-4760
-29.2109,-32.017,-17.717,-28.5563,-23.9631,-4.7982,-19.7574,-3.65759,-4.34828,6.91087,18.6527,4.33086,23.3955,16.1798,2.18132,18.0442,39.528,-848.144,-528.016,18200,6300,-5320
-30.9516,-40.699,-25.398,-40.4899,-36.9987,-11.0377,-34.3249,-10.7421,3.51259,19.1124,31.6156,6.91297,31.5946,15.2815,-1.76147,18.3099,33.184,-838.872,-526.552,19740,7280,-5600
-23.1624,-28.9757,-18.5855,-27.9493,-24.793,-7.64519,-22.9439,-7.55792,-0.670238,11.7386,20.6514,3.40452,19.1832,8.95622,-0.667233,13.2331,36.112,-832.04,-521.184,19320,7420,-6300
-11.2457,-13.2045,-6.41061,-13.3888,-8.74818,-3.31139,-9.45579,-3.02539,-3.38182,4.80512,9.04269,3.7156,7.02749,7.64737,-1.21738,10.3845,39.04,-833.992,-515.816,19040,7000,-6860
11.9328,14.9279,7.3434,14.6814,14.3924,2.41645,16.1558,3.5072,-2.71873,-8.97441,-13.1527,-1.15453,-14.8749,-4.92209,1.86138,-0.161335,35.136,-835.456,-521.184,18480,7000,-7420
20.7356,27.5844,16.6587,24.4175,24.2066,7.2015,19.215,3.92615,-2.96977,-11.8379,-21.3584,1.19184,-18.3771,-6.65408,-6.58873,-6.37952,39.04,-834.968,-521.184,17920,6580,-7700
13.0482,14.1811,9.80296,13.2787,11.4483,5.2991,12.905,4.96069,-1.76639,-4.07719,-10.4035,0.283276,-8.57759,-3.83028,-5.88471,0.703652,40.992,-834.968,-522.648,17640,5880,-8260
3.01759,-1.28942,3.58303,-0.122191,0.613825,2.38738,5.17956,1.46675,-2.02007,4.5321,4.23358,2.08662,2.85384,3.15579,-4.25239,7.0725,36.112,-832.04,-520.208,17500,5320,-8820
-0.018688,-4.54471,0.221816,-2.71336,0.0173036,-0.612404,6.62368,2.76507,-2.15957,5.84791,5.62513,-1.591,3.27295,0.870634,-1.1392,8.23491,40.016,-833.504,-521.184,17220,5740,-9520
14.07,15.0767,9.71941,12.969,14.0328,2.41032,14.3378,6.05965,1.14683,-1.09787,-5.97469,-3.57766,-8.8884,-7.73386,-3.44638,-4.54939,37.576,-831.064,-522.16,16940,5880,-10080
27.5984,30.6856,18.4793,20.2286,21.0597,5.56798,10.6446,0.594737,11.9271,0.447063,-7.00877,3.32786,-10.4693,-8.77265,-11.4273,-15.4787,38.064,-830.576,-519.72,16660,6440,-10640
6.8562,7.47115,5.64663,-1.46922,1.27584,2.05041,-5.98811,-4.69315,11.2624,10.9926,10.1012,8.5563,7.51414,3.01134,-11.9636,-5.03354,41.48,-835.456,-516.304,16380,6020,-11060
-30.5739,-31.7791,-15.6217,-30.3039,-21.7569,-2.76133,-20.4174,-2.15194,-1.84141,15.1602,25.4233,6.57077,26.2835,18.5872,-5.35617,17.544,42.456,-835.944,-513.376,16380,6020,-11200
-36.3796,-37.3216,-24.446,-31.8276,-25.034,-7.16952,-19.6419,-1.7207,-4.40556,8.31448,20.8424,-0.702012,20.5775,14.3391,0.459516,18.1214,46.848,-831.552,-520.696,17360,4900,-11620
-18.3644,-18.5913,-16.4598,-18.1715,-17.1802,-7.11295,-15.7543,-2.80031,3.83253,4.39328,10.9406,-1.68952,9.52109,4.21745,-0.532234,4.98199,40.504,-828.624,-516.792,17640,6020,-12040
13.2841,15.8279,4.23342,10.8892,7.8783,-0.0240823,4.98805,-1.5459,9.85833,-2.40545,-7.85118,-1.96065,-9.62072,-8.06979,2.63519,-10.3578,45.872,-827.648,-515.816,16800,4900,-12180
27.5423,34.795,17.748,33.5318,28.7358,7.82061,26.7068,4.55425,3.95219,-14.2114,-26.5058,-5.50525,-26.1313,-14.3077,7.96131,-15.4151,46.36,-826.184,-514.84,16380,3920,-12320
10.4515,14.2926,9.42354,23.4275,19.685,6.4976,24.4727,8.90876,-8.5433,-17.0235,-24.3135,-8.74691,-20.1621,-9.69783,13.8875,-5.55385,49.288,-824.72,-513.376,15680,3500,-12600
-17.4507,-20.5397,-10.3548,-8.84728,-9.97817,0.316314,-0.813586,4.2043,-11.1206,-6.21778,-3.22328,-6.04156,2.56755,4.32851,16.2776,9.80631,51.728,-823.744,-512.888,15960,3360,-12740
-19.2378,-22.4135,-14.2793,-15.6299,-19.3352,-4.90674,-13.72,-2.91319,-9.83447,0.785592,4.39541,-3.99809,5.70417,4.0474,13.4235,5.76003,57.096,-826.184,-515.328,14840,3640,-12880
6.44217,6.50951,6.08871,5.43139,1.38096,-2.97483,-7.4181,-10.9953,-6.10632,-1.19116,-6.35612,2.48932,-6.41389,-4.35505,4.96224,-15.6435,56.608,-826.672,-512.4,13720,3220,-13160
21.2693,25.3455,17.4449,20.6637,14.6338,2.25128,3.07571,-8.20325,-0.197056,-8.53088,-15.4291,3.2311,-14.834,-10.0096,4.00174,-23.8035,56.12,-824.72,-518.256,13160,2380,-12880
3.50443,4.33236,6.63138,8.36878,6.46007,2.77485,3.89725,-1.50859,-7.49212,-10.8547,-7.83746,-0.0574508,-5.38763,-0.757213,11.0694,-7.15695,63.928,-832.04,-505.568,10640,2240,-12460
-3.09959,-6.88016,-3.23952,-0.219418,-2.95317,0.317501,0.145152,3.18169,-5.07177,-5.68872,1.19624,-3.67424,0.186202,-1.29938,12.6765,-0.360431,66.368,-831.552,-495.32,10780,1540,-12040
-6.04879,-13.1132,-8.4737,-11.0834,-13.8201,-3.56348,-11.4117,0.827795,0.13382,6.03121,13.1422,-0.10779,11.6991,0.430056,6.66373,2.16362,70.272,-833.016,-524.6,13300,420,-11200
-4.41944,-7.05705,-5.61429,-8.72979,-9.12094,-2.21463,-7.8247,0.553838,0.708022,5.22929,10.9187,-0.6046,10.3289,0.304523,-2.40952,3.87963,70.272,-834.968,-498.248,7280,1540,-10780
11.37,12.0515,8.42138,5.04804,6.69168,0.138115,-0.583268,-1.86338,4.38965,3.44882,2.17978,1.47457,-1.15972,-1.43156,-13.2183,-4.62496,68.808,-837.408,-507.032,5880,1820,-10220
18.5714,16.5548,15.0775,6.46631,11.8631,2.18613,-1.89943,-5.11917,7.28752,7.60986,3.78595,9.10593,0.18901,3.37136,-21.6207,-5.90063,70.76,-848.632,-508.008,3220,1820,-9520
-2.78741,-0.407896,0.251529,-4.0609,1.83109,1.77076,-0.91802,2.59354,-4.28511,-0.3939,2.41926,3.89749,2.83895,6.47533,-15.8875,6.55932,81.496,-851.072,-487.024,-980,3220,-9240
-14.8696,-13.205,-12.6619,-12.6201,-10.0292,-2.12778,-1.78653,5.6873,-7.29,-1.24864,4.60581,-3.41533,5.80688,6.29105,-5.90601,14.3452,74.664,-851.56,-494.344,-980,3220,-9240
-4.8001,-6.03871,-10.367,-6.62255,-7.30295,-3.84946,2.86231,5.04559,0.713755,2.94016,5.44809,-6.73901,1.9323,-1.54745,-3.1584,9.21104,71.248,-849.608,-497.76,-1680,3920,-8260
4.00552,8.05724,3.89896,5.02871,7.32014,1.66857,8.68856,2.60275,1.06174,0.296492,-1.27907,-1.92704,-4.27531,-1.83555,-6.09187,0.527766,68.808,-855.464,-494.832,-1680,3920,-8260
9.18362,20.0402,11.555,18.0666,20.315,8.01616,17.9284,6.69915,-3.3614,-10.764,-16.5535,-2.21963,-13.2244,-4.16984,-5.30581,-4.49584,74.176,-866.688,-484.584,-6160,6580,-7560
-0.694201,5.60919,2.07341,7.46405,9.08815,4.59586,11.0654,5.30223,-3.1661,-8.83475,-11.958,-2.4337,-6.55899,-1.62681,2.9721,0.600007,70.272,-871.568,-490.44,-6160,6580,-7000
-2.10707,-6.49982,-6.84707,-5.43145,-9.93412,-2.69557,-4.45619,-2.55022,9.8317,5.18429,4.81781,0.734913,3.17321,-1.53718,2.17636,0.861545,61.488,-867.664,-490.928,-5180,8120,-6720
-11.9527,-21.8162,-14.4032,-21.4348,-23.9116,-6.48431,-21.0154,-5.27393,14.3835,16.9555,18.1833,4.66623,16.4964,5.50864,-4.50078,6.12831,56.608,-871.568,-490.928,-4900,8680,-6300
-17.6354,-27.2444,-14.5481,-25.7354,-25.3867,-7.911,-23.3927,-6.54036,11.3461,19.3909,20.4758,4.72348,20.5067,9.64508,-3.88262,9.82701,57.096,-878.888,-485.072,-7700,9660,-5740
-13.3907,-22.7974,-8.5531,-21.2794,-18.4812,-6.59587,-18.7327,-6.7122,9.12972,16.156,18.4793,6.78831,19.0477,9.95724,-2.92124,8.91985,45.872,-876.936,-496.296,-9660,12460,-5320
1.38288,2.1918,2.59007,6.75945,5.90922,1.16163,8.64013,1.26988,1.17305,-6.23762,-5.91434,-2.84325,-6.62795,-4.20628,6.23375,-0.815421,43.92,-879.376,-484.096,-10080,13440,-5460
8.94194,18.1206,8.59657,24.4614,17.0469,5.19651,19.8782,5.50015,-4.09045,-20.5089,-22.1277,-9.24117,-21.7649,-12.8989,7.96396,-8.41348,39.04,-875.96,-451.4,-12880,15400,-5320
6.45325,12.5316,7.20988,13.5699,8.73718,2.59156,8.03837,-0.00893314,-0.0398887,-10.0135,-11.7529,-0.808001,-10.6343,-5.92077,6.24709,-4.84289,31.72,-871.568,-508.984,-12180,16380,-5460
2.24336,0.82378,2.14844,-0.309206,-0.833836,-0.593293,-0.723367,-1.63303,3.81829,1.73091,1.39159,6.60606,1.17633,0.937253,7.31237,2.14547,24.888,-871.08,-504.592,-3780,15960,-5600
2.20694,-2.79692,4.69397,-7.14439,-2.30544,-0.58482,-9.74103,-5.33507,5.00943,9.23719,8.73092,14.4435,9.79988,8.02243,-1.25231,1.04512,18.544,-872.544,-497.76,-9240,18060,-5600
-3.98952,-5.67557,4.54735,-6.30846,2.16361,1.17816,-4.43761,-4.10939,-4.11581,3.31345,4.41421,8.75424,8.33165,10.5968,-3.62258,3.13696,7.32,-875.472,-494.344,-11620,20300,-5880
-2.96063,-5.88516,0.301175,-3.9895,0.589136,0.158839,-1.52871,-2.52422,-6.17464,-1.00143,0.397271,1.31628,2.37454,6.32072,-4.16057,0.954409,8.784,-873.032,-495.808,-11480,20300,-5880
11.0308,11.2979,2.73789,11.3355,9.46522,-0.0791758,10.0015,-1.56222,-4.88274,-6.97117,-12.9335,-5.71442,-12.5145,-6.94407,-0.450464,-11.0981,6.832,-868.64,-523.624,-9380,19740,-6020
3.19447,5.95253,0.161869,6.94322,6.9042,0.986198,8.67987,-0.141998,-7.23974,-4.73588,-8.96402,-6.66195,-7.17716,-5.79095,2.7528,-7.61645,11.224,-871.568,-502.152,-8680,20160,-6440
-6.07764,-2.95575,-5.55915,-3.25376,-0.312387,-0.00620442,4.36779,1.74829,-5.52454,0.485214,-0.843712,-5.2156,0.227895,-0.619704,7.48824,2.38872,5.856,-862.784,-525.576,-13440,21840,-7140
-2.66038,-0.34418,-5.68099,-4.89611,-2.57792,-2.46144,1.63593,2.07952,0.966713,4.02986,0.570223,-2.56595,0.699771,-1.22805,8.71206,3.12889,4.392,-864.736,-520.208,-12880,22540,-7840
6.371,8.13113,0.645044,5.2411,1.70444,-0.0595549,5.74149,5.43824,2.39409,3.17975,-1.34042,-3.34013,-4.57451,-6.40749,4.71674,-2.11079,0.488,-863.76,-517.28,-16520,23800,-8960
4.27065,6.09996,3.86451,3.90746,2.44482,2.96093,0.141139,4.7326,-1.02397,4.76206,4.51425,-0.818345,-0.0817195,-1.67981,-2.63416,-1.92555,0.488,-864.248,-521.184,-18480,24080,-9520
0.0568819,3.86524,1.62033,4.59851,3.46987,3.23519,3.03421,6.99143,-6.99063,-1.65474,0.537291,-4.34314,-2.01151,-0.874491,-0.987444,1.50417,0.488,-865.712,-520.696,-19600,23800,-10080
5.67134,10.679,7.78559,12.6481,12.6311,5.65661,8.84588,8.45093,-8.06964,-6.22324,-9.39641,-4.78409,-6.46032,-1.26447,-3.17548,-0.507527,2.44,-867.176,-513.376,-20300,23660,-10500
13.6115,19.1777,13.3939,17.4488,16.7693,6.3766,9.31992,4.39995,-1.93506,-6.73469,-12.3204,-1.65421,-8.7539,-3.80615,-5.63761,-4.72926,2.928,-866.2,-508.496,-19460,22960,-10920
7.54033,8.28575,5.8318,8.16322,7.39662,3.61696,6.879,5.06766,0.104839,-5.75822,-4.68239,-2.23607,-4.58106,-1.52222,-1.0676,2.77406,3.904,-861.808,-518.744,-16240,21560,-11340
-4.1252,-11.5884,-3.40564,-11.8149,-12.1437,-3.04008,-13.8686,-4.84358,3.47499,6.18248,12.5271,5.06248,10.1942,7.30115,-5.88266,6.00066,9.76,-859.368,-525.088,-14140,20020,-11620
-6.62829,-13.4007,-6.21345,-12.7955,-16.586,-4.52924,-19.3927,-10.0622,2.93393,4.7412,13.1859,5.48901,10.6307,3.94151,-8.23921,1.49709,25.864,-858.88,-520.696,-13860,18760,-11760
-2.38914,-5.19816,-1.75142,-6.21904,-9.83547,-3.58614,-14.3398,-9.5368,3.54773,-0.339022,7.45209,4.4031,4.57682,0.163867,-8.9574,-5.47776,11.712,-856.928,-524.6,-13860,18620,-11760
-2.15487,-3.56206,-4.49631,-5.97497,-10.4376,-5.69501,-6.58208,-6.23312,6.20616,0.723962,6.50874,0.165206,1.28294,-2.68399,0.260473,-1.31603,19.52,-859.856,-523.624,-13580,18060,-12040
-1.88028,-3.31001,-5.73612,-4.07105,-6.64598,-3.21344,1.24692,0.376148,4.87078,-0.0917456,2.80156,-1.44733,-1.62899,-3.10981,6.95657,4.36238,19.52,-857.416,-521.672,-13020,16800,-12180
1.18258,5.05917,-1.29932,4.25195,4.67119,-0.176099,8.79295,2.48505,1.5196,-6.70451,-5.46328,-0.897383,-7.49939,-4.7598,7.67909,-0.450681,19.032,-859.856,-519.72,-13580,17920,-12600
-6.25853,-2.53166,-2.71349,-2.05633,3.21397,1.95501,4.73042,3.18943,-2.41974,-5.65522,0.504846,0.888244,0.885904,2.15994,6.73061,2.74157,25.376,-861.32,-513.864,-15820,18480,-13020
-7.9481,-4.9242,-2.75497,-2.75095,1.59623,3.19327,0.606052,2.62754,-4.96085,-2.96469,1.27896,0.883187,1.77349,3.76341,3.33089,0.472011,25.864,-863.76,-513.864,-16940,17080,-12740
2.95024,4.14749,3.5244,3.9871,6.43993,4.02676,0.317724,-1.45901,-1.33683,0.0506332,-3.40417,1.37059,-3.63261,0.0552495,-0.547056,-6.74201,27.816,-862.296,-508.008,-16240,15960,-12740
3.49174,3.76813,3.92466,8.98912,9.11701,3.38399,6.52554,0.341118,-7.42154,-6.24556,-10.7747,-2.87715,-7.26347,-3.40543,-0.815485,-7.2063,31.232,-859.368,-511.424,-15540,13300,-12460
-3.70345,-6.16064,-1.84943,-0.336429,-0.809704,-1.18224,-2.74995,-2.94529,-7.60321,-1.30855,-3.49306,-1.07363,0.47948,-1.73283,-3.72745,-4.34957,37.576,-860.832,-510.448,-14700,11060,-12320
-4.99066,-6.61799,-5.4233,-1.5071,-4.45643,-2.79873,-2.41982,-1.28424,-4.41838,-1.13717,-3.50985,-2.4489,-0.12994,-2.67623,0.543173,-0.89777,39.528,-860.832,-508.008,-15260,9380,-12320
-1.70674,-1.18594,-1.78889,1.59446,0.593278,-0.97099,3.16269,2.04383,-1.80626,-3.51196,-6.46186,-1.56549,-1.11047,-1.13075,3.20034,0.325728,40.504,-860.832,-507.032,-16100,7840,-12320
-0.14183,-6.99993,-2.06146,-10.2967,-6.58046,-4.91095,-6.025,-2.11186,8.89989,11.139,7.8901,5.90836,11.1805,6.25259,1.91992,4.74939,45.872,-859.368,-506.056,-16380,6720,-12180
-2.98116,-11.7224,-5.57332,-15.3123,-11.9842,-6.01197,-9.17085,-2.48749,8.89858,14.6814,13.0205,5.00376,15.1725,8.71686,0.88727,8.75259,49.288,-857.416,-505.568,-17220,6020,-12040
-4.09746,-9.18855,-5.148,-12.8689,-9.71499,-4.8083,-7.17787,-0.504495,6.75904,12.2468,9.825,1.85208,11.7076,8.38366,1.34627,8.51441,50.752,-856.44,-505.568,-18340,5740,-11900
-3.86259,-5.62935,-2.34754,-9.85551,-9.19364,-4.70137,-7.62576,-0.278954,7.32535,10.4405,6.48272,0.101661,8.62402,5.27004,-0.898991,5.49916,54.656,-859.368,-500.688,-20300,5180,-11480
-1.85355,0.926854,1.5185,-1.65386,-2.5329,-0.288945,-3.7373,-0.453362,3.18145,1.71176,-0.42221,-1.51833,1.82424,1.30272,-4.39231,-0.9418,56.608,-857.904,-500.2,-21560,4480,-11060
4.09806,9.97969,4.80963,10.9199,9.11277,3.932,9.03771,3.26165,-0.951638,-7.19829,-9.37703,-6.8026,-9.88247,-5.71428,0.883064,-5.59203,58.56,-857.416,-500.2,-22680,3500,-10500
5.35662,6.24986,6.81418,8.30128,7.03363,4.30766,6.04818,0.148529,1.08214,-1.49157,-3.31671,-2.88871,-7.23272,-2.69697,-2.18269,-5.09925,60.024,-856.44,-497.76,-24500,2100,-9660
-0.820218,-1.27229,0.729632,2.39132,0.966754,0.952542,1.97134,-2.37327,-1.09539,-1.18387,-0.0355459,-2.496,-5.04066,-1.73837,-0.581921,-1.55541,62.464,-855.952,-493.856,-25620,1260,-9100
-0.712888,-1.37957,-1.00731,3.03638,-0.0449208,0.862191,0.119117,-3.16014,-2.41385,-2.97096,-1.76656,-2.87308,-4.37231,-3.73016,-3.03697,-0.934205,60.024,-854,-491.416,-27020,-280,-8400
1.19609,2.35858,0.442833,7.22695,3.30595,2.7727,5.19172,0.549119,-2.15723,-6.19678,-6.48628,-2.73684,-6.2109,-4.8695,-1.96052,0.270438,63.44,-851.56,-487.512,-27580,-1820,-7840
3.02286,6.25324,3.51066,9.49438,7.42203,4.38036,9.48298,2.24386,-2.66246,-8.09971,-7.96056,-1.13248,-7.31352,-4.47,1.42019,0.0232634,60.024,-851.072,-492.88,-27860,-3360,-7560
5.80923,9.87547,4.22143,10.7286,7.4524,3.37382,6.49413,1.06517,-1.96848,-9.35366,-7.70849,0.500218,-7.30337,-5.37224,-0.831073,-3.47649,59.048,-849.12,-500.688,-27720,-5040,-7000
3.60435,7.81479,3.53849,5.33595,4.05802,2.10953,2.21885,2.54347,-2.01208,-5.49338,-3.14536,3.26663,-3.09672,-2.51376,0.85163,-1.07002,57.096,-851.56,-503.616,-28420,-5880,-6860
-1.60471,-1.29129,0.173335,-5.63084,-1.30271,-0.0258506,-2.11709,1.77953,-0.512662,3.71732,6.37522,6.45801,4.32224,4.13408,2.82891,4.89275,58.072,-854.488,-508.496,-31640,-5880,-6440
-6.40546,-8.91689,-3.4984,-13.634,-5.33346,-1.72682,-7.09176,0.71947,-0.115795,8.32427,12.4272,7.47703,11.7816,9.98516,1.49003,8.50104,58.072,-853.512,-501.664,-35840,-6300,-6020
1.47638,-0.972509,2.41842,-12.5367,-3.06913,-1.30927,-11.3034,-3.3944,8.26875,14.2872,16.4963,12.93,15.6207,12.7499,-4.64693,4.11979,54.656,-858.88,-502.152,-39480,-6160,-6020
4.48918,6.89068,3.54884,-3.04996,1.84117,-0.161884,-3.43738,-2.62883,6.02739,7.29702,7.74204,7.56565,6.17756,5.7035,-2.78059,0.677968,56.608,-858.88,-501.176,-42560,-6860,-5880
-0.296953,6.65782,1.93505,7.05332,8.18366,1.41644,8.99186,3.94296,-8.04855,-5.87892,-6.5287,-3.57771,-6.88776,-1.91607,3.16918,0.288697,57.096,-859.856,-508.984,-43400,-7980,-5600
6.72953,10.6511,3.5412,12.3374,7.74426,-0.705645,5.69202,0.98957,-5.67056,-7.16539,-10.7343,-6.57613,-13.2821,-9.80463,-2.2004,-9.60983,55.632,-862.784,-512.888,-44380,-9240,-5180
12.6152,13.5721,5.0426,13.3336,6.55228,-0.37123,4.665,-0.963397,-0.184683,-3.72808,-7.21182,-5.73097,-11.6531,-10.1033,-5.10531,-12.0653,58.072,-861.32,-513.864,-45780,-9940,-4760
6.69377,7.76463,1.56395,7.63601,4.214,0.763207,6.35668,2.2694,-0.138423,-2.50503,-3.21496,-5.86582,-6.03369,-4.4243,-1.40714,-3.08204,58.072,-862.296,-514.84,-46900,-10640,-4620
2.12276,1.4199,-1.46706,0.455688,-0.686337,-0.0856431,1.4027,1.33827,1.88755,1.76851,1.2363,-2.55365,0.010357,-0.539749,-1.57557,1.89128,52.704,-859.856,-514.84,-47880,-11340,-4200
-3.43048,-6.02835,-4.93589,-5.15593,-6.21551,-1.67787,-1.89721,1.29864,2.45634,3.93877,4.97004,-1.05575,4.19598,1.15285,2.07551,5.47575,52.704,-856.928,-511.912,-48300,-11900,-3920
-7.09218,-11.7954,-7.6944,-6.88379,-8.96872,-2.57251,-2.80841,1.7624,1.17771,0.314355,2.79372,-2.48916,3.90327,-0.260567,3.44661,4.50636,50.752,-845.216,-506.056,-48580,-13300,-3360
-5.06302,-9.93625,-3.96905,-5.40251,-5.69416,-2.15435,-5.15011,1.4511,1.42175,-0.891416,-0.385546,0.692728,3.04823,2.2743,-0.777115,0.470057,44.408,-824.72,-497.272,-49420,-14420,-3080
-2.17675,-6.35896,0.241196,-1.70642,-2.01668,0.219487,-3.73396,2.79239,-0.448995,-2.34234,-3.02761,1.86511,0.964969,1.42328,-1.90174,-3.22512,27.328,-837.408,-450.424,-51100,-15260,-3220
2.01113,2.74707,1.22288,5.65873,4.23151,2.67726,4.89756,5.97269,-2.04245,-5.97362,-7.96308,-1.92282,-4.84676,-3.78499,2.38275,-3.50468,70.272,-901.824,-528.016,-55300,-16240,-4060
2.97399,6.46018,2.49251,8.18081,6.20804,5.01747,11.5824,7.86795,-6.19451,-6.4127,-8.41383,-4.51238,-6.70362,-5.08281,7.35514,0.608659,59.048,-864.736,-551.928,-60760,-20440,-4060
0.978077,0.914337,1.38926,2.47736,2.14087,4.49824,9.50468,3.58467,-7.73122,-0.964688,-0.137368,-1.5412,-0.900966,-1.23287,9.2422,2.2984,50.264,-868.152,-528.016,-55720,-21140,-2520
-5.42561,-5.97943,-2.24492,-2.81476,1.17578,3.40121,7.90539,1.84535,-7.57275,-1.2542,0.790265,-1.61264,1.77309,3.21064,9.47954,6.93863,49.288,-875.472,-526.552,-54040,-25620,-700
-6.81917,-9.51476,-2.73465,-8.01741,-2.79506,1.36652,-0.522464,-1.31006,-0.00272528,2.96063,5.61717,-0.156762,6.52962,4.92896,4.44925,7.39225,54.168,-868.152,-539.728,-52360,-28420,700
-4.90877,-7.45447,-3.97479,-6.12966,-6.80779,-1.7069,-5.9665,-3.77555,2.33914,2.39085,3.84782,-3.4092,3.67818,-0.0735597,2.69202,1.51372,53.192,-854.488,-541.192,-49000,-30660,1960
-4.52652,-6.50728,-6.50912,-4.0085,-10.1702,-3.79277,-5.80055,-4.24513,1.95093,0.520895,1.13415,-7.15775,0.473997,-4.91137,4.14881,-1.06477,51.24,-850.584,-542.168,-47600,-31920,2660
-6.03939,-9.2607,-7.13387,-8.26892,-14.1604,-5.94325,-13.1928,-9.0698,3.78485,4.7415,6.60413,-2.73239,5.50915,-2.35197,-1.29925,-2.08736,50.752,-842.776,-538.264,-45500,-33740,3500
0.546882,-1.96252,0.78606,-6.5055,-9.15237,-5.64477,-18.9857,-17.6239,7.2181,7.17257,7.50119,7.32139,7.69433,1.52916,-12.7352,-9.85594,51.24,-835.456,-535.336,-45080,-35560,4620
-4.99537,-3.36759,6.85447,-8.15705,0.0549992,-1.06152,-20.4361,-19.19,1.95436,3.74831,2.7643,16.6387,11.2892,14.3756,-18.3349,-8.03857,51.728,-835.944,-540.216,-45920,-36260,4900
-10.7806,-4.97755,6.0409,-2.49053,8.99451,2.15394,-9.40233,-9.2744,-11.5821,-7.06911,-8.82155,11.4073,3.78069,15.5727,-12.4298,-1.67969,57.096,-838.872,-559.248,-46760,-37520,5460
1.37999,0.0636394,1.80078,-3.12078,-0.460738,-5.02874,-12.7708,-10.3446,2.64085,4.2889,1.81729,8.15142,3.47769,4.19428,-6.04028,-6.84452,56.608,-836.432,-558.76,-46340,-38500,6160
-5.01054,-6.70252,-8.6334,-7.23733,-10.034,-7.92088,-7.86782,-5.49321,2.856,3.33486,3.64582,0.344013,2.89736,-0.50874,3.8402,-0.0118238,56.12,-829.112,-552.416,-43680,-38220,6860
-13.539,-13.4971,-15.2414,-11.1323,-11.8253,-6.74459,-1.23095,1.956,-2.13681,-1.94513,1.75982,-4.00096,3.13201,1.64562,10.2393,12.002,53.192,-831.064,-545.584,-42840,-39340,8120
-7.79418,-10.0823,-12.228,-9.7009,-9.34567,-6.42102,-1.76463,2.99338,3.07029,2.90056,6.07393,-3.11533,2.90703,-0.922642,8.67697,10.9072,58.072,-836.92,-556.808,-42420,-40880,8820
1.08192,0.314586,-4.20214,-2.80487,-2.6076,-2.93247,1.39485,5.00178,5.16549,4.11899,5.50668,-1.22011,-0.958974,-2.68911,4.31595,5.42898,55.144,-833.016,-564.128,-42560,-42840,9520
8.69143,11.4229,4.4803,3.7356,6.40275,2.77744,7.29893,8.16682,6.63174,2.68975,3.00242,1.434,-4.10394,-0.361868,0.667405,2.84504,53.192,-828.624,-563.152,-41860,-42840,9940
11.5174,13.3015,7.54282,10.6095,11.2304,5.68672,15.4915,12.4259,3.68792,-0.847366,-0.489386,-2.69081,-8.12529,-2.67123,0.776736,2.24368,47.824,-823.744,-552.904,-39900,-42420,10220
15.2735,19.4284,9.37672,21.8654,16.9426,6.31858,22.921,15.9341,0.58709,-8.07836,-12.1904,-9.70533,-17.6025,-11.5053,-0.269053,-4.66069,32.696,-815.448,-495.808,-38640,-42420,10500
15.9467,18.3396,11.117,22.5049,15.4044,7.14902,22.1082,16.2963,-0.767724,-8.64981,-12.4912,-8.63224,-16.6568,-12.2133,-2.44555,-5.46042,36.112,-796.416,-466.528,-38640,-43120,10500
16.7452,14.9052,13.7418,14.9215,12.2355,8.31163,16.62,14.3464,4.31845,1.04863,-2.11096,0.430233,-5.23902,-3.77697,-2.69953,-1.04322,40.016,-825.696,-496.784,-44100,-45640,8960
16.3433,21.4488,15.2553,16.4208,15.7522,8.86595,15.6895,10.9847,5.83977,-1.57178,-5.44536,1.49153,-5.99004,-3.94996,-5.47659,-3.20221,46.848,-862.784,-559.736,-50960,-50260,8400
7.24963,11.5017,9.4819,12.6086,13.1866,6.59915,12.9769,8.14377,-2.67734,-5.30164,-7.23621,-1.24172,-5.89247,-3.90916,-5.86851,-0.88293,50.752,-850.584,-599.264,-55160,-57260,9100
4.9007,3.71182,4.62511,6.90917,7.4412,4.12853,7.76237,5.19911,-3.26826,-0.169312,-1.99861,-1.88013,-1.70048,-4.06637,-4.75402,-0.0850088,44.408,-823.744,-615.856,-50120,-54740,10500
4.80176,5.7105,2.90918,3.7172,3.95133,1.88832,-0.72051,-1.22737,1.15362,2.08629,-0.0496088,0.023083,0.296576,-3.59628,-7.1135,-3.81496,40.504,-823.744,-604.632,-42700,-50820,10500
7.31336,15.6092,6.39531,11.1534,11.5868,2.31031,2.04186,-3.74961,-2.70106,-3.36146,-8.9826,-1.41355,-6.31707,-5.46927,-8.26821,-9.36216,40.504,-829.112,-595.36,-37240,-43960,10920
2.67503,7.00482,2.0126,3.16755,4.13978,0.871848,-2.56644,-9.18241,-4.66984,-1.72877,-4.34207,-0.876696,-2.68506,-1.33242,-4.84841,-4.88666,49.776,-828.136,-595.848,-33320,-38360,11340
-3.91641,-5.60322,-6.21776,-11.3073,-9.29227,-2.31275,-11.1021,-13.226,2.5964,6.09855,6.4951,3.2631,6.73875,4.7535,1.74361,1.60248,56.608,-821.304,-596.824,-29400,-33320,12040
-9.68301,-12.887,-8.02272,-17.3388,-13.9713,-2.09093,-15.6442,-11.3587,1.85851,8.8059,11.0431,6.07422,11.8393,9.32116,6.44585,4.23472,58.072,-814.96,-604.144,-26740,-31360,12460
-18.6267,-22.3493,-11.4762,-18.3128,-15.0828,-3.75378,-17.5839,-10.1326,-7.97424,2.9955,8.74885,3.51254,9.90523,9.93292,9.35044,5.08674,58.56,-805.2,-607.56,-22960,-27720,12880
-20.6459,-22.6411,-8.40865,-15.8708,-13.1197,-3.45102,-16.5229,-9.41116,-12.6506,-0.0287367,7.41012,2.3926,9.01563,10.4304,6.79809,3.1835,60.512,-808.128,-603.656,-19600,-24360,13160
-20.1619,-21.1092,-5.33859,-12.579,-8.49742,-2.06788,-11.0355,-6.5573,-15.6071,-3.45089,3.88522,2.77185,8.85209,12.461,4.02668,2.73248,61,-809.592,-610,-16800,-22540,13300
-15.0283,-18.8001,-6.85523,-12.9445,-11.6735,-3.34031,-8.08311,-4.38919,-6.75053,0.0826034,6.43836,2.00229,10.2823,9.73462,7.93321,3.72743,53.192,-814.96,-607.56,-13300,-21000,13160
-9.36237,-14.8582,-10.2446,-14.2454,-16.0202,-4.94269,-5.89886,-0.714605,3.99175,4.00647,8.44161,1.03631,9.83743,4.42203,10.7756,6.57549,50.264,-815.448,-597.312,-10640,-19740,12880
-5.30344,-8.02725,-9.44491,-5.14395,-11.3282,-6.51526,-0.251038,2.20183,1.54527,-2.50506,0.966498,-4.05874,0.606257,-5.25079,10.7631,-0.024232,45.384,-817.888,-587.552,-7280,-19180,12460
-6.45097,-5.69246,-7.70221,3.54694,-3.89991,-5.64729,4.22796,2.27378,-8.111,-10.9985,-8.23242,-9.36583,-7.62638,-9.30777,8.42995,-6.11708,44.896,-819.352,-574.376,-5040,-18900,11620
-7.68819,-7.55196,-7.7717,2.72939,-0.667082,-3.27607,4.734,3.06098,-7.84949,-10.3543,-10.6507,-8.46171,-6.39287,-4.85624,4.40501,-1.49573,44.408,-825.696,-573.888,-4200,-19320,10780
-0.601027,-9.23226,-5.02937,-4.12832,-5.34462,-2.77449,-1.26461,0.0443966,8.38305,2.34933,0.414827,-2.56987,1.86396,0.0899098,3.51652,2.5747,38.552,-834.48,-571.448,-3220,-19600,9520
17.3475,8.07792,3.38907,-0.5248,-4.10172,-3.76584,-5.51036,-6.47008,26.4851,10.6479,2.39572,4.95931,2.24877,-2.69037,-3.88914,-5.06514,34.16,-840.336,-564.616,-2520,-19880,8120
26.1485,24.7535,12.9382,10.7426,9.03388,0.319735,1.03251,-4.81247,21.8813,5.89592,-4.46117,8.33483,-5.03984,-4.41746,-9.48795,-10.7726,30.256,-845.216,-562.176,-1400,-19740,7140
17.9342,19.4526,9.22299,10.0925,9.41605,1.29319,4.52473,1.94117,10.9003,0.0392455,-5.02388,5.88917,-6.78185,-2.03569,-6.57718,-4.4396,23.912,-850.096,-561.2,560,-20020,5460
9.78134,9.33866,4.62714,5.32633,4.91444,1.07855,5.41236,6.28225,4.96549,-0.463688,-0.357385,2.19598,-4.33672,-1.31849,-0.358562,2.73267,23.424,-854.488,-559.248,2240,-20020,4620
10.3791,8.17473,4.98098,4.35742,6.04409,2.17081,4.02734,5.61624,5.70223,1.73521,1.83234,2.22119,-2.36661,-0.938351,-2.54931,3.24512,20.984,-855.464,-561.688,4760,-20300,3220
8.93015,11.0013,7.47308,5.86912,9.60765,4.43555,2.82626,3.75145,4.99627,2.21487,0.388772,2.19368,-0.256326,-1.48506,-6.65476,2.80246,20.984,-856.44,-561.688,7000,-20440,2240
-1.56752,7.97974,5.48075,8.46851,12.2068,6.3644,7.33498,5.77011,-6.90839,-4.36872,-4.0462,-2.4703,-3.54945,-3.52611,-5.03142,4.14741,19.52,-850.584,-561.688,9660,-20440,1400
-8.55952,4.87092,1.26227,7.19986,7.87691,4.79417,5.45926,7.88255,-15.3388,-8.01628,-6.08771,-5.3882,-5.54358,-4.66242,-8.18808,2.57938,18.056,-844.728,-563.64,12600,-20580,700
-14.762,-6.38712,-2.19396,1.19483,4.56364,2.62833,3.26371,9.29587,-22.6339,-5.55734,-0.448164,-5.73102,-2.0361,-1.46446,-7.3688,4.78181,19.52,-840.336,-565.104,14700,-20580,140
-12.6042,-12.4644,-5.2802,-8.90124,-4.2766,-0.119181,-5.50037,4.77975,-7.93881,4.18383,8.47245,0.416859,5.3776,4.71822,-6.5493,7.46712,21.472,-836.92,-563.64,16800,-20720,-560
-2.54628,-2.6531,-2.03753,-6.07091,-3.43257,0.198049,-4.07183,-1.64728,6.9068,6.0523,4.17938,2.11331,3.11241,4.18698,-7.715,3.83543,24.4,-830.088,-570.96,18480,-20020,-700
2.52894,3.2269,4.07443,-0.336899,3.04658,2.43831,2.05311,-3.81314,2.08354,4.21825,-0.585599,3.32987,1.5437,3.76267,-5.78564,-0.222485,24.888,-824.72,-569.496,20160,-19460,-980
-0.914281,-0.407509,2.9984,2.73341,2.0058,2.12789,3.22674,-2.62756,-6.8472,-0.0404449,-3.71283,-2.26413,-0.798888,-0.381426,-0.84097,-2.80489,26.352,-822.28,-569.984,21560,-17920,-980
-5.87067,-5.27224,-0.329734,3.17198,0.288569,0.128546,4.81785,-2.81496,-10.2654,-4.03092,-6.08785,-7.08508,-2.86268,-1.93762,2.72753,-2.57746,25.376,-816.424,-569.008,22260,-16800,-700
-3.59693,-5.86828,0.248802,-1.46307,0.38256,-0.282485,3.08777,-3.81231,-4.84743,0.320982,1.13074,-0.353201,2.07298,3.87672,3.06079,0.542342,26.352,-814.472,-566.568,23240,-14980,-420
4.54228,-1.23743,1.04839,-1.55884,-1.5787,-2.4616,-1.54747,-6.41991,2.56638,3.85338,5.37288,2.35096,1.72377,1.87607,1.17049,-2.52891,26.84,-813.984,-568.52,23240,-13020,140
5.72194,0.123113,-1.0911,-4.98248,-6.77713,-2.83683,-6.20246,-6.75022,8.98506,7.6907,9.63062,3.8451,4.13891,1.62006,2.2936,-2.27844,27.328,-810.08,-560.712,23380,-11200,700
3.24391,1.92105,-2.02337,-4.21502,-5.46798,-0.535423,-5.40747,-2.6819,10.5614,5.00885,6.46272,3.11641,3.60886,1.75523,4.23222,-2.23193,28.304,-811.056,-558.76,22260,-8680,1400
2.94886,6.16262,-0.110476,2.32027,1.61232,0.10905,1.92515,1.07265,4.03162,-2.18193,-0.340367,-2.02789,-1.65254,-2.19723,8.11994,-4.43106,31.232,-810.568,-557.296,21980,-7280,1680
1.38107,5.73606,1.2412,4.87391,5.1572,2.58862,6.90799,5.05707,-1.86927,-4.73258,-3.66611,-3.13999,-3.64891,-1.54961,9.45379,-1.25096,32.696,-811.056,-550.952,20860,-6160,2520
1.07829,4.3584,1.84684,3.51674,3.64741,2.48611,3.56805,1.31353,-1.58861,-1.97985,-3.35467,-0.135729,-1.59811,-1.29617,6.42201,-2.60211,34.16,-810.568,-550.464,20020,-4480,2940
-5.02375,-6.57524,-3.39195,-5.33586,-4.89612,-0.40762,-2.09188,-1.16614,-2.1991,2.48404,3.75442,1.3553,5.99473,1.54297,6.41635,1.89525,33.184,-814.96,-545.584,19180,-3920,3360
-1.6972,-6.18431,-2.71774,-6.07149,-8.246,-1.83474,-5.39867,0.326809,2.81276,3.13951,4.50998,2.32612,6.48684,2.05982,2.80092,1.77075,38.064,-815.936,-548.512,18200,-3500,4060
-2.34746,-3.77595,-3.40614,-2.81972,-5.63665,-3.34888,-2.95332,1.8083,1.33041,-1.48977,-1.81257,-0.902878,0.864044,-0.0415241,1.79409,0.631643,39.528,-820.816,-545.096,17360,-3360,4480
2.52261,3.11777,-0.32646,3.18249,-0.583773,-2.97671,-0.056052,1.85289,2.65541,-3.48252,-7.51085,-1.85398,-4.4867,-2.49056,-1.87046,-3.30807,41.968,-826.184,-539.728,16100,-3500,4900
6.72525,6.4672,2.08554,8.34993,1.86272,-2.44796,3.00649,0.688051,2.3933,-6.83823,-9.60516,-3.657,-8.04293,-5.75766,-5.10383,-6.78975,42.944,-827.648,-537.776,15120,-3780,5460
0.158249,-0.901972,-0.932897,2.37544,-1.9189,-0.673306,-2.12669,1.09132,-0.242553,-6.79665,-4.17375,-2.14851,-2.90052,-3.23536,-5.90872,-3.30587,45.872,-832.04,-538.264,14420,-4060,5600
2.93336,0.456674,0.332959,2.55679,-0.49653,-0.126166,-3.87204,-0.514389,2.00236,-3.81548,-1.10358,0.564961,-2.67519,-4.4747,-5.97903,-4.34865,47.336,-833.504,-538.264,13860,-4760,6020
0.366279,-1.42758,0.318919,3.493,1.66929,-0.171028,0.198354,-0.921819,-4.49101,-6.39166,-2.07381,-0.723062,-5.29887,-3.34525,-2.52977,-2.62342,45.872,-835.456,-535.824,13300,-4900,6160
-2.12866,-3.56435,2.7719,1.46043,2.21159,0.808159,-0.83948,-1.99848,-8.58314,-5.078,0.400931,-0.00842547,-2.88995,2.01076,-0.972041,-0.540432,48.312,-840.824,-536.8,13160,-5600,6160
-4.78632,-8.2284,-1.59314,-6.47976,-2.37199,-0.885842,-5.84661,-2.21108,-1.50034,2.4168,4.48878,1.77448,4.30083,6.20868,1.81281,4.92621,45.872,-842.288,-538.752,13300,-6020,6440
-4.67451,-6.25181,-5.16274,-7.31788,-4.57541,-3.06646,-5.56947,-0.729438,4.58524,4.78342,3.56126,-0.738766,3.95159,2.9016,3.05921,5.42616,45.384,-843.752,-536.8,13160,-6580,6440
-4.72998,-4.03752,-3.95522,-3.60493,-2.61693,-2.56554,-3.1742,-0.782028,1.53134,2.5506,0.421669,-1.33601,1.21119,-0.696607,1.50733,3.26393,46.848,-843.752,-535.824,13440,-7700,6580
-3.04536,-0.069633,-1.69403,-0.559851,2.6438,0.727533,1.09971,0.61468,-1.98877,0.899805,-1.50758,0.602878,0.549074,-0.715263,1.1176,2.08548,45.384,-845.704,-535.824,13020,-8260,6580
1.32762,3.30253,2.76626,4.24391,8.10341,3.79963,7.25739,1.70006,-3.51797,-1.21505,-5.98671,0.072776,-1.40577,0.227729,2.00003,2.19257,40.016,-845.704,-531.92,12460,-9100,6720
7.14131,9.25829,5.53955,3.81393,6.30042,4.15983,4.57156,-1.43022,4.97123,2.15592,-2.63163,2.47412,1.29822,0.185363,-0.0321762,0.596158,42.456,-847.168,-535.336,11760,-10220,6580
10.0268,14.1768,7.31442,4.63273,8.43524,6.56553,8.52288,2.52409,6.90019,4.61906,-0.604547,4.45116,1.70137,2.36206,1.39078,2.96174,41.48,-846.68,-537.776,11200,-10920,6720
2.69219,4.69797,1.04058,-4.80705,1.36208,4.09044,2.02527,3.10766,6.58663,9.56155,7.01711,7.18606,8.76533,7.38723,3.21437,8.60528,39.04,-843.264,-536.8,10920,-11480,6580
-1.74082,-0.7711,-3.58076,-7.07627,-2.96611,0.624228,0.22804,3.03355,2.96732,6.45986,6.44517,4.62097,6.70044,4.35107,4.10374,9.26505,35.624,-847.168,-543.144,10360,-12040,6720
-2.26249,-2.90897,-2.8879,-2.84569,-0.538967,-0.639199,3.84236,3.16795,-4.90868,1.19525,0.835746,-0.380204,0.0473424,0.145672,5.03255,6.8279,35.624,-845.216,-546.56,9240,-12740,6440
-3.59731,-5.21817,-3.4871,-1.1493,-0.785656,-1.78531,3.88504,1.29357,-8.7607,-2.94044,-1.44914,-3.22159,-4.01629,-1.75095,2.14743,2.75191,35.624,-843.752,-542.656,8260,-13160,6720
-0.0685364,-3.14729,-1.19356,-0.61732,-0.979273,-2.0414,-0.37999,-1.78351,-5.33203,-2.24185,1.17233,-1.22402,-2.93951,-1.99074,-3.75364,-2.12564,35.136,-841.312,-544.608,7000,-13300,6860
2.99128,-0.379961,-0.0656496,-2.17916,-4.98886,-3.67583,-8.90479,-8.61624,2.76897,3.76824,9.0072,1.28003,1.72147,-1.93421,-9.38533,-8.74421,30.256,-835.456,-547.536,6860,-12880,6720
1.30139,-0.239422,1.23472,-2.49524,-4.03655,-2.25312,-7.41193,-8.38972,2.27129,3.44274,5.93064,3.16503,2.21614,2.0369,-9.14403,-7.35836,28.792,-834.968,-548.512,7420,-12600,6860
-2.37052,-5.08431,0.709271,-5.63506,-4.61032,-1.78348,-7.01959,-4.51145,0.545819,5.00657,6.07894,4.17792,4.32689,5.3795,-7.29737,-1.4999,26.84,-831.064,-545.096,7420,-12600,7000
-0.950083,-3.19625,1.34386,-0.414714,-2.61526,-1.26574,-3.40828,-2.65797,0.949202,1.61014,0.995858,0.834987,-0.493845,1.25162,-5.92365,-1.81334,27.816,-829.112,-546.56,6860,-12460,7140
0.620812,3.70342,3.67125,5.66723,2.79051,0.0275036,2.43614,-0.398808,-1.16581,-2.65137,-2.93896,-1.63921,-6.00434,-2.32907,-2.70398,-4.57401,26.352,-826.184,-544.12,6860,-12600,7420
-2.90957,3.75386,2.72724,7.84082,4.25472,1.0925,2.54786,4.22007,-4.98758,-7.03531,-6.76116,-3.79813,-9.15508,-4.19469,-2.24827,-6.51865,25.376,-826.672,-550.952,6160,-12600,7700
-7.50985,-1.68163,-0.341256,5.77499,0.349637,0.778679,0.238712,5.37897,-8.24182,-7.945,-5.30908,-5.83297,-6.81495,-5.3375,0.17412,-4.25807,25.376,-823.256,-549,7000,-12740,7980
-9.64223,-1.6973,-0.604229,7.91701,2.21891,1.72342,5.0933,7.56797,-11.9008,-10.8791,-7.57304,-7.44955,-7.53199,-7.11631,3.55511,-2.90854,21.96,-820.328,-556.32,7980,-12880,8260
-5.46129,-1.85751,0.77736,5.70908,2.92049,1.65711,4.73654,3.85414,-7.0817,-5.76126,-6.19689,-3.78401,-4.51729,-3.01214,4.90911,-0.880795,22.448,-817.4,-552.416,8400,-12460,8960
-2.23953,-3.54057,-0.650589,-1.40013,-2.03239,1.41838,3.02546,3.63868,2.00419,1.88313,0.932478,-0.518171,2.07607,1.67419,7.32268,3.92634,20.496,-815.936,-553.88,7840,-12320,9520
1.88693,1.10404,-1.80938,-1.61659,-4.77058,-1.75637,-0.815597,0.637192,10.744,3.44178,1.50996,-0.612343,3.39194,-0.394448,4.20953,-1.33571,19.032,-819.352,-555.832,7000,-12180,10080
3.08831,1.7609,-2.56228,-1.28415,-2.21756,-2.51103,0.484693,0.869767,10.5565,1.73675,0.979181,-2.02729,2.9615,0.342263,3.78738,-1.54912,14.64,-818.376,-561.2,6160,-11620,10360
7.78341,4.80809,-0.338353,2.27988,2.51695,0.274047,3.86045,5.48909,8.75543,1.21073,-0.76132,-2.61926,1.4014,-1.33621,3.45742,-0.170582,10.736,-819.352,-554.856,5460,-11200,10920
9.60221,4.79713,-0.373208,2.16171,0.893491,0.010177,1.55098,2.7374,9.21856,3.5326,0.0449008,-1.63273,1.27915,-2.85017,0.667549,0.523845,11.712,-821.304,-552.904,5180,-10360,11200
5.14749,0.674966,-2.67128,-1.57157,-2.57335,-2.51999,-1.74948,-1.34699,6.6891,1.21066,-1.85471,-1.74736,2.1035,-2.25809,-3.26857,1.25294,11.712,-821.304,-556.808,4620,-9800,11900
3.79478,-0.477064,0.286848,-4.51644,0.0517005,-1.23784,-4.56341,-5.56485,4.78213,3.37463,0.476376,1.41941,6.87159,3.52759,-4.33338,2.03656,10.736,-822.28,-555.832,3640,-9380,11900
3.74059,0.547476,2.83493,-4.46533,1.87376,1.1857,-3.40868,-5.89634,3.86508,3.25795,2.16289,1.29742,7.8208,5.70467,-1.61899,2.94023,12.2,-825.208,-551.928,2800,-8680,11900
2.66868,2.1382,2.61038,-1.67581,2.0556,1.15868,-0.569725,-6.7662,1.47434,0.744764,0.0521089,0.232992,3.81129,2.93438,-0.218822,2.35067,9.76,-825.696,-551.44,1680,-8400,11760
-0.868578,-1.03973,1.24495,-2.65086,2.51866,1.38719,-1.72845,-7.18218,-1.53783,-1.25318,0.169618,2.91174,2.88867,3.10458,0.113252,3.97463,8.784,-824.72,-552.416,1680,-8260,11480
-2.30727,-2.35551,-1.02679,-1.23334,0.989559,0.5451,-2.92713,-6.28435,-6.28064,-5.16058,-0.30067,1.22206,-0.100678,-0.248193,-0.521556,2.16383,12.2,-825.208,-549.488,1260,-8540,11340
-3.54883,-1.59165,-2.28227,-0.560931,0.785049,0.668345,-2.28796,-3.69817,-9.08523,-6.1379,-1.58629,1.1403,-2.49314,-0.0196947,-1.73268,0.690989,14.152,-833.016,-553.88,840,-8680,10780
-2.98395,-3.27266,-3.19359,-3.06046,-2.17627,-1.14537,-3.26994,-1.97777,-5.28923,-1.57757,2.55225,3.1973,-1.70031,0.37855,-1.62758,0.245961,14.152,-833.016,-554.368,560,-8680,10360
1.53857,-1.30234,0.63185,-1.28731,-1.33875,0.653853,-0.489125,1.91934,-1.4403,1.86044,5.00829,5.01423,-0.584156,0.252443,-0.591067,0.0597791,16.104,-831.552,-550.952,1120,-8960,9520
-0.47424,-3.8699,-0.157757,-4.16331,-3.07135,1.10853,-0.82227,4.6576,-2.44569,2.92211,4.95942,5.64213,2.02046,4.40004,0.689769,3.94443,19.52,-834.968,-551.44,1260,-9240,9100
-4.39069,-4.38365,-3.45969,-4.77143,-4.3952,0.0282208,0.806687,6.26171,-4.16305,1.38132,0.685724,2.84168,1.8847,3.70044,2.05199,5.32548,19.52,-835.944,-547.048,840,-9660,8540
1.66072,5.44112,2.73926,2.98491,1.15866,0.40408,2.37176,5.46238,-2.18772,0.0672928,-4.59446,1.217,-2.97486,-1.6749,0.184556,-2.85988,26.352,-833.016,-544.12,560,-10640,7560
2.73581,7.86188,5.4117,7.73735,6.81608,1.61884,6.34956,6.03127,-5.79191,-1.88726,-7.15906,-1.46008,-7.34909,-2.79749,2.95905,-4.83229,23.424,-834.48,-545.096,700,-11340,7000
-2.78246,1.09481,0.996529,4.81948,5.17848,0.997047,6.5733,7.55642,-8.46198,-2.41414,-4.74773,-4.25553,-5.52121,-1.42965,4.69144,-0.452319,23.424,-834.48,-543.144,980,-12320,6440
-5.03777,-3.23054,-2.90892,-0.449918,-0.945628,-0.492782,2.1729,5.9993,-2.54909,2.04163,1.61194,-3.10738,-2.09947,-0.639964,2.55659,1.52005,25.864,-834.968,-545.584,980,-12740,5880
-3.44743,-2.99378,-3.10439,-2.65141,-3.85326,-0.693042,-0.165147,3.47375,3.8203,4.50072,3.65908,-0.493308,-0.38387,-0.372435,1.19202,1.82941,27.328,-835.456,-545.096,700,-13720,4900
-4.03267,-2.40988,-2.70248,-1.80729,-3.96905,-1.9456,-2.55895,-1.9439,1.1324,3.25167,2.23037,-0.162358,-0.997934,-2.25705,-0.800353,-1.43802,27.816,-830.576,-542.656,1260,-14700,4200
-1.54114,0.382124,-1.0007,1.04566,-1.91379,-2.20282,-2.02375,-6.13237,1.96971,2.74197,0.759627,0.626752,-0.347434,-3.17936,-0.517054,-5.87536,31.232,-831.064,-544.608,980,-15260,3640
2.86765,4.47276,2.66895,4.35775,1.33475,0.0552281,0.885109,-5.23887,3.81798,-0.685458,-1.65609,0.72797,-2.88543,-1.25127,-0.0913349,-5.78977,35.136,-831.064,-548.024,1120,-15400,2940
2.61078,4.35644,3.86193,4.81596,1.66029,1.05048,1.90749,-3.24207,0.786175,-4.71021,-2.76931,-0.186248,-3.49603,-0.349247,-0.605302,-3.75424,33.184,-833.992,-550.464,700,-15960,2660
4.5525,4.88004,4.3285,6.36919,4.10316,1.30598,4.18732,-1.42166,0.452755,-5.01855,-2.54611,-0.847133,-3.37132,-1.38183,0.179129,-1.94386,33.672,-833.016,-550.464,140,-15540,2240
1.66099,2.1768,1.88206,5.82187,4.17747,0.972534,3.91468,-2.83157,-4.03631,-5.58157,-3.96014,-3.79032,-3.38462,-3.98304,-0.77944,-2.73944,36.6,-829.6,-550.464,280,-15120,1960
-1.95704,-1.97562,0.260175,-0.0766291,0.201058,-0.470693,-1.80688,-5.91466,-1.55591,-0.949398,0.640027,-0.404657,2.38839,-0.0555617,-1.78473,-1.07289,36.6,-830.576,-553.392,1400,-14980,1820
0.312957,-1.40222,1.12028,-2.96102,-1.62323,-0.173505,-5.73506,-5.32359,4.80278,5.00785,6.08398,2.24005,5.43705,3.35679,-3.16379,0.891357,31.232,-829.6,-549.488,2240,-15400,1680
5.15889,0.921425,2.32519,-1.76577,-1.06792,1.27193,-3.44266,-0.274102,7.44392,4.96159,6.05626,1.86275,4.9105,2.16513,-3.48616,2.41344,32.696,-828.136,-549,2940,-15120,1680
6.74504,2.88952,1.48504,-0.811178,1.78602,3.30317,0.246771,3.84495,11.6346,2.60803,3.64034,1.67445,2.78093,1.09891,-3.25816,3.49506,30.256,-826.672,-551.44,3080,-14560,1820
8.43063,4.78535,1.59908,1.73181,4.12577,2.33207,1.85995,1.80263,11.8768,1.40637,1.7101,0.96221,0.928961,-1.51027,-2.57037,-0.233031,29.768,-825.208,-550.952,3220,-14280,1820
1.67208,-4.05611,-1.08878,-5.74953,-2.02125,-0.937755,-3.38203,-1.55348,7.7299,6.88638,6.25055,3.10812,5.61215,3.14379,-1.32937,1.69132,24.888,-823.256,-549.976,3360,-13860,1820
-9.9154,-17.2475,-8.17135,-15.7022,-11.4218,-3.98907,-10.1342,-2.57041,0.761619,9.63883,9.57728,2.40067,11.5753,6.78061,-0.547141,5.75792,27.816,-824.72,-546.56,3640,-13160,2100
-11.4497,-13.1536,-7.39346,-9.74399,-7.33105,-4.16489,-2.94148,3.18223,-6.47389,2.4645,1.3894,-0.968542,5.79802,4.78614,2.91926,5.16067,28.792,-823.744,-549,3780,-12460,1960
-12.2043,-8.33509,-5.63781,-3.53508,-2.9495,-3.77257,2.19821,4.17256,-11.8815,-4.56749,-6.6425,-4.90193,-1.42684,2.41619,3.4512,2.67655,28.304,-822.28,-544.608,2800,-12040,2240
-8.99415,-3.35736,-2.55442,1.81139,0.758343,-2.13253,1.69378,2.66215,-12.6923,-9.29155,-10.9226,-6.45757,-4.50179,-2.39914,-0.25647,-0.959077,24.888,-825.208,-544.608,2100,-11340,2380
-4.80628,-0.130919,-1.61676,4.30563,1.51136,-1.93214,2.22678,2.30285,-9.98564,-9.7288,-10.4304,-6.8739,-5.64065,-4.80271,-1.44703,-1.42472,28.304,-823.744,-546.072,2380,-11060,2660
3.84708,5.83477,0.261913,6.95602,1.37267,-1.36595,1.72423,-1.80348,-0.418642,-7.67395,-7.24477,-4.97582,-6.46644,-6.58213,-0.97916,-2.65403,24.4,-826.672,-547.536,2240,-10640,2800
8.82288,9.85711,3.40584,6.10789,1.45442,-0.529201,0.0872667,-2.89181,6.35133,-3.3594,-3.55088,0.0828358,-4.51135,-5.07656,-1.49845,-3.51664,24.888,-827.16,-546.072,1960,-10360,3080
