10492.579400,14784.337853,978.715834,3255.911560,6605.298114,5332.813303,10292.464232,-10834.650497,11299.164450,6951.839560,10159.583111,-4054.695851,-2050.929016,3341.384630,15940.392427,2988.763510,-287.920013,-857.903992,-427.976013,2660.000000,2100.000000,-280.000000
-108340.715866,-93746.189028,16126.001313,4420.325687,134786.450539,-8748.875111,-96722.033229,-183471.701559,-123019.754651,-29257.204146,-180191.650115,147941.212111,-159654.956717,-18980.721412,-80554.748244,122680.678687,-288.407990,-854.976013,-429.440002,2800.000000,2380.000000,280.000000
9537.131731,14583.663891,1056.812830,2558.358319,6992.005645,4875.608370,10399.551439,-11428.893975,11453.816170,6800.942934,10083.497773,-4346.833151,-1623.608365,2932.682983,15369.327708,2824.858168,-262.056000,-846.192017,-466.528015,12880.000000,-3220.000000,0.000000
9610.847784,14815.004446,1232.654003,2709.187890,7208.348180,4923.463455,10502.213002,-11294.425880,11552.253253,6960.936720,10111.102177,-4188.918077,-1539.007013,2996.005475,15488.373099,2987.221239,-264.984009,-840.824036,-465.552002,13440.000000,-3220.000000,140.000000
9660.491009,15083.091269,1397.989857,2890.929924,7409.670342,4980.929790,10644.191282,-11141.025858,11636.385219,7064.939387,10138.751285,-4020.162406,-1451.656395,3040.485447,15646.310526,3177.099309,-263.032013,-845.216003,-466.528015,13440.000000,-3360.000000,280.000000
9627.633944,15118.921115,1384.087072,2921.171835,7386.201010,4994.497299,10679.305873,-11128.575936,11623.622373,7003.203869,10141.344087,-3996.782481,-1442.670994,3023.945156,15689.292930,3216.572489,-262.544006,-845.703979,-465.063995,13580.000000,-3500.000000,280.000000
9578.370700,14990.353881,1281.894896,2831.966022,7252.559930,4963.070746,10613.569392,-11209.623362,11558.332927,6909.907688,10124.848500,-4081.026206,-1489.833175,2984.382568,15619.399025,3131.412343,-264.007996,-841.799988,-462.136017,13440.000000,-3640.000000,420.000000
9557.360060,14883.780764,1209.050561,2756.506533,7161.923607,4936.785094,10555.186636,-11270.442458,11513.920011,6851.614338,10109.872831,-4161.738355,-1536.034231,2955.012376,15543.403094,3041.535979,-264.984009,-841.799988,-463.600006,13440.000000,-3640.000000,280.000000
9540.819769,14770.949158,1137.904958,2683.125756,7077.970454,4913.583984,10499.262571,-11331.418017,11476.793763,6796.561992,10097.825241,-4243.143409,-1579.910705,2928.726724,15470.111724,2944.149428,-264.496002,-844.728027,-461.648010,13020.000000,-3780.000000,280.000000
9516.434016,14625.998095,1054.130620,2588.287304,6976.873514,4886.337207,10425.546518,-11407.950390,11434.459559,6743.118971,10081.441412,-4333.980898,-1624.435380,2907.425512,15388.907837,2840.973776,-264.496002,-842.288025,-464.088013,12880.000000,-3920.000000,140.000000
9518.400969,14559.099324,1036.025707,2541.862731,6957.338090,4870.825096,10378.786669,-11447.334164,11427.798739,6763.168486,10077.239284,-4366.457983,-1636.214749,2915.650954,15345.567804,2801.657057,-264.496002,-847.168030,-460.671997,12460.000000,-3780.000000,140.000000
9579.242418,14716.992046,1167.945703,2643.563168,7125.289097,4900.418806,10443.942004,-11354.261500,11502.162993,6901.011694,10097.601723,-4255.906255,-1574.948618,2970.055100,15425.922325,2919.651916,-263.519989,-843.264038,-464.088013,11760.000000,-3500.000000,140.000000
9640.665011,14994.801878,1353.733403,2831.139008,7353.455705,4962.891932,10589.496564,-11189.953827,11597.627294,7036.396210,10127.262488,-4076.980540,-1478.992579,3026.806179,15587.346624,3121.152892,-267.912018,-846.679993,-459.696014,11480.000000,-3220.000000,-140.000000
9639.547424,15130.611078,1408.025790,2925.441018,7416.442921,4996.911287,10673.606178,-11116.215422,11628.852681,7036.530320,10143.109875,-3993.608534,-1435.719602,3030.874196,15679.614625,3225.848463,-265.472015,-843.264038,-458.720001,11060.000000,-2940.000000,-280.000000
9591.379415,15038.432483,1310.907461,2864.465459,7297.375178,4974.090156,10634.132997,-11185.572885,11580.103526,6935.433380,10131.554023,-4056.863970,-1473.784622,2993.144452,15639.113264,3167.398652,-264.007996,-845.216003,-460.671997,10500.000000,-2940.000000,-420.000000
9567.418345,14931.613497,1230.642346,2793.364560,7201.866174,4944.183522,10581.964026,-11251.823455,11534.528319,6872.110888,10114.946677,-4135.206835,-1518.957498,2966.054137,15577.467153,3082.618485,-266.447998,-844.728027,-457.256012,10080.000000,-2940.000000,-560.000000
9551.436848,14823.654571,1162.827154,2720.475521,7117.644801,4919.395437,10527.649287,-11307.836927,11491.992949,6818.354943,10098.965180,-4216.030743,-1563.415118,2940.126114,15504.980446,2988.830565,-263.032013,-846.192017,-456.768005,9660.000000,-2660.000000,-700.000000
9526.559356,14682.458601,1076.370606,2625.011221,7016.257288,4894.093262,10456.458981,-11382.536457,11447.535330,6756.775887,10084.838877,-4308.768130,-1609.191490,2915.203919,15418.769767,2884.134994,-263.032013,-846.679993,-457.256012,9240.000000,-2520.000000,-840.000000
9511.896612,14559.233434,1015.730323,2544.768458,6949.246758,4872.590884,10389.448451,-11448.116475,11419.752111,6740.190892,10077.731023,-4374.996349,-1636.393563,2911.515881,15352.765066,2811.268307,-264.496002,-847.168030,-458.720001,8680.000000,-2380.000000,-1120.000000
9555.728383,14636.793987,1095.324885,2594.165813,7053.249425,4885.510193,10413.454224,-11402.094233,11471.406993,6844.372373,10088.817488,-4314.557232,-1600.809586,2948.731536,15390.070127,2872.914418,-263.032013,-848.632019,-456.768005,8540.000000,-2240.000000,-1120.000000
9630.494968,14911.586334,1290.343856,2777.472470,7290.915524,4944.585853,10549.151665,-11238.099484,11578.114221,7002.756834,10116.488947,-4135.653870,-1506.217004,3013.618650,15542.576080,3071.174392,-264.496002,-846.192017,-459.208008,8260.000000,-2100.000000,-1260.000000
9655.841846,15128.398255,1416.385343,2924.032858,7432.513825,4994.810223,10670.499286,-11110.292209,11638.463931,7063.620635,10138.393657,-4000.872851,-1433.909110,3041.826551,15672.395011,3232.643394,-264.007996,-847.168030,-458.231995,7980.000000,-2380.000000,-1120.000000
9607.763244,15078.576217,1348.011356,2888.024198,7334.255556,4984.260200,10654.696602,-11152.313489,11600.130689,6969.139811,10133.409218,-4034.914557,-1453.936273,3003.470958,15655.139465,3211.453940,-263.032013,-848.632019,-458.231995,8260.000000,-2380.000000,-1400.000000
9574.101516,14954.054648,1252.234131,2800.427711,7214.003171,4950.889045,10590.211819,-11231.550423,11545.301860,6891.087519,10116.466596,-4122.131064,-1503.534794,2967.037614,15583.055089,3120.169415,-260.592010,-848.143982,-462.623993,8120.000000,-2100.000000,-1400.000000
9559.908159,14855.215234,1185.737692,2735.026507,7136.442618,4928.202024,10540.993278,-11280.992482,11507.773281,6840.818446,10101.915610,-4199.825728,-1543.678527,2944.082373,15517.966809,3032.371763,-261.567993,-845.216003,-459.208008,8120.000000,-2240.000000,-1260.000000
9533.555452,14731.051294,1109.942926,2654.917855,7043.235844,4902.206946,10480.956493,-11343.331497,11461.549874,6777.965340,10084.235380,-4288.629209,-1587.219726,2918.936660,15439.735703,2933.755867,-260.592010,-848.143982,-458.231995,8400.000000,-2240.000000,-1400.000000
9512.745978,14594.191562,1034.148161,2565.846153,6951.683098,4875.384852,10410.123814,-11421.964934,11425.854138,6733.530072,10071.226665,-4370.168372,-1626.022354,2904.676247,15364.678546,2838.470380,-262.544006,-845.703979,-461.648010,8540.000000,-2240.000000,-1260.000000
9540.439789,14593.319844,1066.759356,2563.588627,6990.552782,4873.999044,10393.695282,-11427.485815,11448.988193,6798.797166,10080.055604,-4355.192704,-1615.829958,2929.799608,15358.420057,2842.314880,-261.567993,-846.679993,-458.720001,8680.000000,-2100.000000,-980.000000
9607.897354,14811.428167,1240.141838,2704.918707,7201.106215,4918.769588,10489.673673,-11296.951627,11535.914127,6954.544122,10105.402482,-4208.587612,-1536.816542,2989.545821,15471.251663,3000.922859,-258.640015,-850.096008,-458.720001,8540.000000,-1960.000000,-1120.000000
9662.815590,15081.973682,1411.825587,2891.667532,7407.658685,4978.716967,10636.904614,-11135.393218,11625.097588,7063.844152,10134.415047,-4036.322717,-1449.153000,3036.573891,15636.207537,3201.172137,-260.592010,-847.656006,-458.720001,8820.000000,-1960.000000,-840.000000
9646.409410,15136.601345,1407.981087,2936.974518,7399.388540,4994.430243,10685.318492,-11115.544869,11630.104378,7018.648925,10145.635622,-3999.218821,-1433.149151,3023.386362,15698.367739,3253.497571,-259.127991,-847.168030,-457.744019,8680.000000,-1680.000000,-840.000000
9601.549459,15015.097262,1302.793777,2852.082592,7267.580303,4963.987167,10627.449826,-11200.503850,11572.079250,6923.296383,10131.218747,-4081.249724,-1482.300637,2984.919010,15636.140482,3168.940922,-257.664001,-846.192017,-455.791992,8680.000000,-1680.000000,-840.000000
9582.036386,14912.770976,1231.335250,2779.282961,7179.559133,4939.310841,10575.303206,-11257.992537,11530.348543,6868.735775,10116.757168,-4159.302015,-1525.461856,2960.667367,15567.252406,3082.663188,-259.127991,-846.679993,-457.744019,8540.000000,-1540.000000,-700.000000
9569.318243,14812.501051,1167.521020,2712.920632,7104.300809,4919.976583,10526.531699,-11307.792223,11499.637246,6820.724228,10103.748453,-4235.901443,-1563.415118,2941.511922,15499.660730,2995.044350,-257.664001,-850.096008,-454.816010,8260.000000,-1820.000000,-700.000000
9553.649670,14679.754040,1086.138318,2627.089933,7011.429311,4895.769643,10458.068306,-11383.095250,11470.758792,6772.198590,10096.148860,-4320.748665,-1601.837766,2924.122265,15424.402407,2894.416796,-259.127991,-848.632019,-456.279999,8120.000000,-1680.000000,-560.000000
9561.025746,14613.369359,1067.206391,2584.420453,6993.838488,4883.878515,10414.974143,-11422.166100,11471.429345,6795.399701,10097.959351,-4347.235483,-1611.381961,2934.180550,15388.036119,2855.636520,-258.152008,-847.168030,-457.256012,7980.000000,-1820.000000,-560.000000
9617.977991,14764.064820,1197.852337,2682.522259,7157.721479,4915.103902,10478.698966,-11330.970982,11540.362124,6931.097142,10115.840747,-4238.896577,-1552.820391,2984.471975,15464.792009,2970.926818,-255.712006,-848.632019,-457.256012,7700.000000,-1960.000000,-560.000000
9683.178029,15049.273080,1386.456357,2872.132107,7388.883220,4977.532324,10622.532442,-11165.344556,11643.202501,7069.923826,10143.713372,-4054.561741,-1457.825477,3040.396040,15622.528270,3172.472498,-255.712006,-848.632019,-452.376007,7420.000000,-1820.000000,-560.000000
9685.524963,15192.905389,1452.662224,2975.039539,7460.140581,5015.016200,10713.727559,-11082.486639,11675.478420,7076.517591,10156.252701,-3963.008995,-1412.183215,3049.314386,15721.345332,3284.588848,-257.664001,-847.656006,-456.279999,7140.000000,-1960.000000,-560.000000
9627.477482,15089.997958,1357.488496,2912.834634,7334.121446,4992.910325,10678.300044,-11146.971422,11613.385274,6968.469258,10142.104047,-4030.891243,-1452.282244,3008.634211,15685.291968,3227.010754,-255.712006,-849.608032,-454.328003,6580.000000,-2240.000000,-560.000000
9597.526145,14973.835942,1272.350701,2833.016554,7230.252889,4962.623711,10620.051398,-11212.842013,11558.332927,6898.485946,10126.189605,-4113.480939,-1503.333629,2977.878210,15613.542868,3137.380259,-255.712006,-847.656006,-456.279999,6300.000000,-2240.000000,-560.000000
9581.790517,14867.061659,1202.255631,2760.999234,7147.953766,4938.707344,10562.696822,-11265.078040,11516.311647,6844.126504,10111.906840,-4192.986094,-1549.065298,2953.492457,15536.161129,3042.944138,-258.640015,-848.632019,-456.279999,6020.000000,-2380.000000,-420.000000
9559.058792,14728.994933,1118.257775,2670.273503,7044.420486,4911.080588,10489.539562,-11338.190596,11474.245664,6784.424995,10098.004055,-4283.801232,-1596.808624,2928.883186,15447.268241,2935.566358,-254.736008,-848.143982,-458.720001,6020.000000,-2800.000000,-420.000000
9543.010240,14608.340217,1056.589312,2591.997694,6974.995968,4885.733710,10421.992591,-11409.269143,11446.484798,6765.426012,10087.856363,-4351.750535,-1626.916424,2921.440056,15381.129429,2855.502409,-253.272003,-847.656006,-457.256012,6020.000000,-2800.000000,-420.000000
9585.992645,14678.658805,1133.747534,2639.875131,7077.121088,4899.770606,10448.010021,-11363.850399,11494.965731,6865.472420,10097.467613,-4295.893526,-1594.104063,2961.270864,15419.797947,2916.053285,-253.272003,-849.608032,-457.256012,5740.000000,-3080.000000,-140.000000
9654.344279,14939.078979,1322.955051,2808.563746,7308.729864,4953.750068,10572.956273,-11206.270600,11592.821669,7020.817044,10124.647334,-4127.808407,-1501.612544,3021.486464,15557.618804,3102.802110,-258.640015,-848.632019,-458.720001,5880.000000,-3220.000000,0.000000
9680.115840,15154.505092,1446.448439,2952.464277,7448.495322,4999.772310,10688.514792,-11084.095965,11653.439600,7079.870353,10146.216768,-3996.134281,-1432.143322,3044.821685,15684.152029,3257.453830,-256.200012,-849.608032,-456.768005,6020.000000,-3360.000000,0.000000
9630.450264,15110.695673,1378.499136,2929.933718,7357.948405,4992.887973,10681.205771,-11120.015218,11615.933372,6985.322474,10141.701715,-4024.409237,-1450.561160,3011.294068,15683.190904,3240.287690,-254.248001,-851.559998,-458.231995,6300.000000,-3780.000000,0.000000
9589.188944,14981.547294,1277.379844,2842.851322,7233.940927,4960.544999,10615.804567,-11197.374606,11554.108447,6900.721121,10121.115759,-4109.099997,-1502.640724,2976.291236,15609.430147,3147.304433,-259.127991,-850.583984,-460.183990,6020.000000,-3780.000000,140.000000
9568.960615,14870.190903,1205.518985,2766.833039,7147.104400,4933.879368,10556.348927,-11253.656298,11507.817985,6843.075972,10102.899087,-4188.962780,-1548.864132,2948.731536,15531.668428,3053.427107,-258.640015,-852.048035,-457.256012,6440.000000,-4060.000000,140.000000
9547.033554,14742.808311,1133.680479,2683.528088,7056.199855,4908.219565,10491.595923,-11321.292677,11463.472124,6787.867163,10093.556058,-4275.866363,-1591.466557,2923.675230,15448.207015,2950.810248,-258.152008,-849.608032,-459.696014,6580.000000,-3780.000000,280.000000
9523.117187,14596.694958,1056.231684,2590.589534,6962.344880,4877.955303,10415.756454,-11404.485870,11425.876489,6744.482427,10082.916627,-4361.540599,-1632.705525,2907.671381,15366.086705,2850.853247,-256.687988,-849.119995,-454.328003,6580.000000,-3780.000000,280.000000
9547.413534,14585.653196,1078.829298,2586.789738,6997.951209,4877.016530,10397.830355,-11409.470309,11449.658745,6803.759253,10084.503601,-4353.203398,-1625.552967,2932.124189,15359.872920,2853.535456,-257.664001,-850.096008,-458.231995,6860.000000,-3780.000000,280.000000
9617.687418,14801.906324,1246.825009,2727.806893,7208.862270,4922.949365,10494.456946,-11279.181991,11540.384476,6962.344880,10109.694017,-4205.771292,-1546.561902,2992.451548,15474.224445,3009.952964,-261.080017,-849.119995,-458.231995,7140.000000,-3920.000000,140.000000
9666.190704,15068.003841,1415.111293,2905.302096,7410.005618,4982.606170,10634.378866,-11120.238736,11624.985829,7070.862600,10137.030201,-4036.434476,-1458.160753,3037.177388,15629.010275,3201.663876,-260.104004,-850.096008,-457.744019,6860.000000,-3780.000000,140.000000
9643.213110,15122.765615,1407.288183,2948.776239,7398.159194,4997.268915,10681.205771,-11096.836459,11628.226832,7020.414712,10145.054477,-4002.169252,-1442.670994,3022.984031,15685.806058,3252.804667,-261.567993,-851.072021,-458.231995,7140.000000,-3640.000000,0.000000
9596.609723,15005.575419,1301.944411,2869.092270,7267.915579,4965.507086,10622.644201,-11179.672024,11570.514628,6925.889185,10132.068113,-4080.176840,-1489.877878,2982.616780,15625.322238,3171.399614,-263.519989,-849.608032,-457.744019,7280.000000,-3920.000000,-140.000000
9573.430964,14898.823488,1226.350811,2791.822289,7176.988682,4937.232129,10567.033060,-11237.764208,11522.771302,6867.640539,10113.136186,-4160.754879,-1537.889426,2954.922969,15549.974507,3080.383310,-259.615997,-846.679993,-456.768005,7280.000000,-4060.000000,-280.000000
9558.231778,14795.491373,1160.636683,2724.700001,7100.769234,4915.349771,10519.356790,-11287.452136,11485.421537,6817.147948,10098.272276,-4238.606005,-1580.849478,2934.135846,15481.600521,2989.746987,-263.032013,-849.119995,-457.744019,7280.000000,-4200.000000,-280.000000
9534.673039,14656.910557,1079.991589,2637.327032,7003.762663,4891.187536,10452.234501,-11362.352832,11445.389562,6761.626215,10085.956465,-4325.129607,-1625.843540,2914.533367,15404.352892,2890.617000,-263.032013,-850.583984,-457.256012,7000.000000,-3780.000000,-560.000000
9534.471874,14584.245036,1058.712728,2590.924810,6978.639302,4877.284751,10407.218088,-11405.022312,11437.253527,6775.663111,10082.514296,-4359.171314,-1639.835732,2922.222367,15364.387973,2848.662776,-262.056000,-849.608032,-456.768005,7280.000000,-4060.000000,-560.000000
9589.099537,14732.437102,1186.251782,2688.333713,7137.157874,4904.196251,10467.344280,-11317.202308,11504.062891,6906.487871,10097.489965,-4258.208484,-1581.475327,2971.507963,15441.479140,2955.012376,-263.032013,-848.632019,-460.671997,7140.000000,-3920.000000,-560.000000
9654.031355,15012.616219,1375.056967,2876.356587,7364.653929,4964.277740,10608.964933,-11153.431076,11603.550506,7046.141570,10129.832939,-4077.449927,-1483.418224,3028.728429,15601.472926,3153.227646,-263.519989,-847.168030,-458.720001,7560.000000,-3780.000000,-700.000000
9655.461866,15157.187302,1440.994613,2973.206696,7437.677078,4999.928772,10695.957922,-11072.249540,11636.742847,7053.584701,10144.518035,-3986.880658,-1433.462075,3035.478656,15699.105346,3266.014548,-261.567993,-848.632019,-457.744019,7140.000000,-3500.000000,-700.000000
9610.333694,15067.065068,1344.748002,2914.287497,7315.636553,4979.566333,10662.296195,-11139.572995,11595.705044,6950.900787,10134.459750,-4047.051555,-1469.537791,2994.105577,15664.728363,3208.503510,-264.007996,-846.679993,-457.256012,7280.000000,-3220.000000,-560.000000
9585.612665,14953.428799,1260.817201,2836.011688,7213.980819,4950.442010,10605.388654,-11210.673894,11548.296994,6885.544286,10120.109930,-4125.394419,-1514.956536,2964.578922,15594.476830,3117.353096,-264.007996,-846.679993,-456.768005,7280.000000,-2940.000000,-700.000000
9569.787630,14848.017972,1190.520965,2763.949664,7134.095685,4926.771513,10550.693935,-11266.597958,11508.376778,6832.436542,10103.569639,-4201.435054,-1558.385975,2940.349631,15521.185460,3023.431065,-264.007996,-845.216003,-454.816010,7140.000000,-2800.000000,-560.000000
9547.480589,14711.381759,1104.734970,2674.699148,7037.424390,4901.558745,10483.839868,-11339.375238,11464.947339,6772.936198,10087.610494,-4290.193831,-1607.984496,2915.360381,15440.316849,2919.137826,-265.472015,-846.192017,-456.768005,7140.000000,-2100.000000,-420.000000
9535.567109,14595.107984,1046.374565,2595.149290,6969.519790,4877.597675,10415.443530,-11412.331332,11439.779274,6755.546541,10080.122659,-4356.377346,-1641.065078,2909.660686,15370.489999,2840.638499,-265.472015,-844.239990,-454.328003,7140.000000,-1680.000000,-700.000000
9576.291987,14664.152523,1121.811702,2634.354250,7064.626463,4887.566553,10429.547480,-11377.462611,11484.773336,6854.989452,10091.343235,-4304.141319,-1609.146787,2949.446791,15395.948636,2891.823994,-264.496002,-845.703979,-455.791992,7140.000000,-980.000000,-700.000000
9645.180064,14927.858404,1314.930775,2808.139063,7299.722111,4944.831722,10555.857188,-11220.687475,11584.685634,7013.172747,10121.316924,-4132.524625,-1513.503672,3012.970449,15538.306896,3082.462023,-265.959991,-845.703979,-455.791992,7000.000000,-560.000000,-980.000000
9669.007023,15145.050305,1440.927558,2954.654748,7447.444790,4995.816051,10677.294216,-11091.784965,11645.974117,7072.963664,10143.199282,-3996.380150,-1443.162733,3039.323156,15672.864398,3247.909635,-264.984009,-846.192017,-453.352020,6860.000000,-420.000000,-980.000000
9616.994514,15102.336121,1374.274656,2930.738381,7358.775420,4987.925886,10673.583826,-11125.513747,11606.500936,6975.375947,10135.957317,-4024.208072,-1463.301654,3004.052103,15677.759430,3234.722106,-264.496002,-845.703979,-451.399994,6720.000000,140.000000,-1260.000000
9582.997511,14979.826210,1283.146594,2850.070935,7239.193587,4955.292339,10613.122358,-11205.153013,11551.225072,6897.770691,10121.518090,-4106.395436,-1511.670829,2970.189210,15613.453461,3144.532817,-263.032013,-849.119995,-455.791992,7000.000000,420.000000,-1400.000000
9565.227874,14871.688470,1216.806616,2781.071100,7152.088839,4930.526606,10560.975738,-11258.551330,11506.432176,6844.305318,10103.770805,-4190.125071,-1556.843705,2943.523579,15544.028943,3054.097659,-265.472015,-845.216003,-458.231995,6580.000000,700.000000,-1820.000000
9547.681755,14751.279622,1140.788334,2703.577602,7060.558446,4906.409074,10500.246048,-11322.991410,11468.344804,6789.543544,10090.225648,-4276.536915,-1599.915516,2919.651916,15466.870721,2953.201884,-264.007996,-845.216003,-452.376007,6580.000000,840.000000,-2100.000000
9529.353324,14614.218725,1062.914856,2615.288212,6972.984311,4880.011663,10428.653411,-11400.551963,11437.074713,6749.802142,10080.569694,-4356.623215,-1637.533502,2909.884204,15390.763031,2862.274988,-263.519989,-847.656006,-459.696014,6300.000000,1260.000000,-2240.000000
9550.431019,14603.489888,1085.356007,2607.509805,7004.433215,4877.843544,10409.095634,-11408.486832,11458.241815,6806.597925,10084.905933,-4348.084849,-1629.598633,2936.683945,15380.928264,2864.510162,-260.592010,-845.216003,-457.256012,6440.000000,1120.000000,-2660.000000
9618.246212,14816.256144,1249.909550,2747.878760,7212.952639,4923.463455,10504.247010,-11278.779659,11547.939366,6958.723898,10109.090520,-4204.318429,-1548.953539,2997.748911,15495.905637,3019.295993,-261.080017,-845.703979,-458.231995,6440.000000,1120.000000,-2800.000000
9667.442401,15083.426545,1415.960659,2926.893881,7417.739322,4984.170793,10642.537253,-11120.752826,11635.222928,7068.917998,10135.018544,-4036.926214,-1457.981939,3041.915958,15652.390200,3209.732856,-260.104004,-844.728027,-457.744019,6720.000000,980.000000,-3080.000000
9646.565872,15144.558566,1415.066590,2972.357329,7411.771406,5004.756749,10692.292236,-11092.924904,11639.246242,7024.795654,10143.534558,-3999.598801,-1438.580625,3029.398981,15712.181117,3265.232237,-258.640015,-845.703979,-459.208008,6860.000000,700.000000,-3220.000000
9597.257924,15024.015608,1311.376847,2895.042645,7283.382986,4977.934656,10639.944451,-11170.753678,11576.102564,6925.598612,10127.262488,-4078.299293,-1486.189841,2990.886926,15654.625375,3186.263524,-254.736008,-844.239990,-460.671997,7000.000000,420.000000,-3780.000000
9572.738060,14915.184965,1239.627747,2820.410171,7193.305456,4951.045507,10584.959159,-11232.489196,11523.397150,6867.282911,10113.918497,-4157.759745,-1531.072143,2961.583789,15581.579874,3096.230697,-255.712006,-843.752014,-460.183990,7280.000000,-280.000000,-3920.000000
9549.782819,14798.128879,1171.276113,2737.395792,7103.183222,4925.855091,10520.541432,-11296.102261,11476.570246,6810.509480,10100.328636,-4243.433981,-1576.245019,2933.398239,15496.039748,2996.228992,-253.272003,-842.288025,-458.720001,7140.000000,-560.000000,-4200.000000
9520.636144,14647.746342,1083.098481,2635.047154,6995.626628,4895.166146,10438.085847,-11380.211875,11431.911460,6749.198645,10082.022557,-4338.831227,-1626.000002,2911.068846,15400.888372,2888.582991,-251.807999,-842.776001,-454.328003,7280.000000,-1400.000000,-4480.000000
9525.553528,14572.599777,1058.019824,2579.793642,6968.245741,4875.988349,10383.257018,-11428.536347,11428.134016,6768.443497,10081.731985,-4372.314140,-1640.171008,2916.925003,15349.389952,2843.320709,-250.832001,-843.752014,-453.352020,7420.000000,-2100.000000,-4760.000000
9579.644749,14711.918200,1180.887363,2668.977102,7125.713781,4904.397417,10441.975050,-11338.570576,11490.137755,6899.603534,10096.350026,-4273.072394,-1583.039949,2968.065794,15421.474328,2952.978367,-248.880005,-846.679993,-458.231995,7000.000000,-2800.000000,-4760.000000
9641.961413,14982.530771,1363.121136,2846.695822,7348.180693,4963.294263,10578.611264,-11174.933454,11587.569009,7037.804370,10124.580279,-4102.528584,-1487.933277,3020.458283,15574.315557,3147.907930,-248.880005,-848.632019,-454.328003,7280.000000,-3360.000000,-4620.000000
9655.595977,15146.883148,1436.077230,2962.835486,7432.089142,5001.873374,10681.205771,-11088.163982,11638.061600,7055.529303,10142.908709,-4001.588106,-1436.636023,3029.980127,15694.076204,3269.412013,-247.416000,-849.119995,-455.304016,7140.000000,-3920.000000,-4620.000000
9611.719502,15063.153513,1345.329147,2912.879337,7313.446082,4984.081386,10652.796704,-11155.129809,11595.414471,6955.102915,10134.727971,-4052.728898,-1470.633026,2992.384492,15668.170532,3215.544309,-246.440002,-848.632019,-455.304016,7560.000000,-4480.000000,-4340.000000
9588.630150,14953.607613,1266.539248,2840.906720,7214.159633,4956.231112,10599.174869,-11220.374551,11552.141494,6891.691016,10120.422854,-4126.601413,-1514.822425,2965.383585,15603.573990,3129.601852,-246.440002,-851.559998,-453.839996,7420.000000,-4760.000000,-4200.000000
9570.078202,14844.866377,1199.349904,2767.347129,7132.396952,4931.420676,10544.100171,-11274.935159,11511.103691,6836.772780,10105.357779,-4206.799472,-1557.894237,2940.036707,15526.169899,3032.215301,-247.416000,-852.536011,-453.839996,7420.000000,-4900.000000,-3780.000000
9546.675926,14709.191288,1115.486159,2677.403710,7036.016230,4906.789053,10476.195571,-11345.611375,11466.310795,6775.774869,10092.125546,-4297.636962,-1602.351857,2917.528500,15442.127340,2925.686887,-245.951996,-854.000000,-452.864014,7140.000000,-4480.000000,-3360.000000
9538.092856,14594.415080,1058.042176,2603.911174,6971.151468,4884.973751,10411.733140,-11409.939696,11444.942527,6758.362860,10087.141107,-4360.132439,-1631.565587,2914.242794,15379.006014,2850.853247,-247.904007,-855.952026,-449.936005,7140.000000,-4200.000000,-2940.000000
9575.800249,14651.903767,1129.724220,2639.517503,7059.530265,4896.216678,10423.646620,-11374.623939,11486.226199,6849.714440,10096.707654,-4310.086883,-1602.754188,2950.631434,15403.101194,2898.775387,-249.856003,-856.928040,-450.424011,7000.000000,-3780.000000,-2380.000000
9649.516302,14917.889526,1323.267975,2812.609412,7293.977713,4952.833647,10547.095304,-11217.871155,11587.993692,7010.915221,10124.759093,-4136.346774,-1510.463835,3011.986972,15543.693667,3085.837136,-251.320007,-861.320007,-448.959991,7000.000000,-3220.000000,-1820.000000
9681.814573,15148.224252,1452.885741,2967.976387,7451.311642,5007.416607,10674.276730,-11084.274779,11656.166513,7081.077347,10149.323660,-3990.881621,-1434.400849,3043.927615,15682.766221,3253.586978,-254.248001,-863.760010,-446.520020,7000.000000,-2940.000000,-1120.000000
9630.226747,15111.433281,1385.718749,2949.737364,7366.710289,5005.293191,10675.036690,-11110.091044,11617.296829,6987.892924,10143.109875,-4016.161444,-1450.181180,3014.937403,15687.393032,3246.300309,-256.687988,-866.687988,-443.592010,7000.000000,-2520.000000,-420.000000
9585.433851,14981.547294,1285.158251,2861.000939,7240.221767,4972.570237,10609.479023,-11189.685606,11552.297956,6903.559792,10124.066189,-4106.596602,-1499.913812,2978.325245,15611.262990,3152.557093,-261.567993,-866.200012,-445.056000,7280.000000,-2520.000000,280.000000
9566.188999,14875.175342,1216.784265,2788.357769,7156.246264,4945.032888,10553.979642,-11247.286051,11507.974447,6847.300452,10108.308209,-4186.168812,-1543.142085,2950.184399,15536.071722,3057.316310,-263.519989,-864.247986,-447.984009,7280.000000,-2380.000000,980.000000
9544.351345,14749.267965,1137.122647,2706.930364,7064.939387,4917.294373,10491.260647,-11316.665866,11466.020222,6788.716529,10093.846630,-4276.559267,-1589.566659,2923.228195,15458.265300,2953.872437,-263.519989,-863.760010,-446.520020,7420.000000,-2520.000000,1260.000000
9524.055961,14615.828051,1062.289007,2622.664287,6978.125212,4891.880440,10422.797253,-11389.957236,11429.653934,6749.533921,10083.229552,-4358.858390,-1628.481046,2911.828805,15382.425831,2861.984415,-264.496002,-861.320007,-449.936005,7700.000000,-2940.000000,1680.000000
9550.073391,14613.861098,1088.708769,2622.239604,7013.150396,4890.472280,10409.788538,-11393.466460,11454.598481,6808.430768,10089.555095,-4346.989613,-1619.182720,2937.153332,15377.597854,2864.957197,-264.984009,-857.903992,-451.399994,7840.000000,-3360.000000,2240.000000
9626.046971,14830.851833,1259.498448,2765.424879,7220.418122,4936.472170,10508.091510,-11265.100392,11552.633232,6965.049441,10116.354837,-4198.305809,-1540.392821,2999.626458,15494.385719,3019.564214,-263.032013,-856.440002,-453.352020,7980.000000,-3500.000000,2660.000000
9676.271340,15090.109717,1428.120008,2939.343803,7418.767502,4995.011389,10641.777294,-11111.923887,11635.312335,7075.198838,10143.355744,-4031.874720,-1454.360956,3041.625385,15644.656497,3205.776597,-264.007996,-853.512024,-454.328003,8540.000000,-3920.000000,2660.000000
9653.025526,15146.413761,1432.500950,2981.700359,7410.787929,5013.675095,10687.732480,-11087.091099,11632.361905,7030.472997,10153.637547,-3994.413196,-1435.384325,3029.220167,15699.373567,3260.359557,-263.519989,-851.559998,-456.279999,8820.000000,-3920.000000,2940.000000
9599.157822,15025.043789,1330.554644,2899.691808,7277.616236,4985.042511,10630.802587,-11169.926664,11564.747878,6928.571395,10136.918442,-4074.298331,-1482.054768,2992.250382,15637.258069,3178.820393,-263.032013,-847.656006,-456.768005,8960.000000,-4200.000000,3080.000000
9570.860514,14918.135395,1257.509143,2831.071953,7191.450261,4961.103792,10583.461593,-11227.035371,11512.221278,6866.768821,10117.606535,-4153.132934,-1525.104228,2970.569190,15574.092039,3093.950819,-264.496002,-845.216003,-460.183990,9240.000000,-4200.000000,2800.000000
9544.351345,14795.983111,1182.407282,2751.566798,7106.915964,4936.516873,10527.515176,-11283.026491,11462.734516,6810.732998,10100.485098,-4240.774124,-1569.740661,2944.887035,15498.565495,2997.570097,-263.032013,-843.752014,-458.720001,9380.000000,-3920.000000,2660.000000
9519.004466,14643.588918,1089.356970,2645.820695,6997.392416,4905.291486,10446.311289,-11364.543303,11422.702542,6753.981919,10087.543438,-4339.971166,-1620.434418,2915.650954,15403.235305,2885.118471,-262.056000,-838.384033,-457.744019,9660.000000,-3500.000000,2520.000000
9531.879071,14572.018632,1059.807963,2590.745996,6963.708337,4887.588905,10390.074300,-11415.326466,11431.129149,6774.210247,10091.633808,-4376.963303,-1633.599595,2919.428399,15351.133388,2832.681278,-264.007996,-836.919983,-458.231995,9520.000000,-3080.000000,2100.000000
9601.214183,14724.032846,1184.485994,2689.808928,7121.668115,4916.221489,10452.033335,-11327.953497,11516.222240,6913.662781,10113.605572,-4272.290083,-1573.004016,2973.765489,15430.035046,2939.790838,-264.007996,-836.432007,-459.208008,9520.000000,-2380.000000,1820.000000
9669.230541,15011.096300,1377.180383,2880.424604,7358.462496,4977.442918,10596.179735,-11161.254187,11621.096625,7061.340757,10142.841654,-4087.888192,-1476.667997,3034.070496,15592.152249,3143.392878,-264.007996,-834.968018,-461.648010,9520.000000,-1680.000000,1680.000000
9671.063384,15162.954052,1450.471753,2985.388396,7439.532273,5013.161005,10687.553667,-11077.837476,11652.970213,7072.382518,10159.337242,-3992.289781,-1426.220110,3042.430048,15693.338596,3261.633606,-266.936005,-833.015991,-459.696014,8960.000000,-840.000000,1260.000000
9618.581488,15066.170998,1357.108516,2923.496416,7312.328495,4991.055130,10649.153370,-11147.239643,11598.744881,6964.133020,10148.116666,-4054.427630,-1462.474640,3001.548708,15655.742962,3202.803815,-264.496002,-832.040039,-459.208008,8120.000000,140.000000,1260.000000
9588.093709,14950.992459,1273.960027,2846.584063,7208.638753,4962.511952,10593.408119,-11215.054836,11546.218282,6893.747377,10128.849462,-4133.195178,-1509.167434,2973.609027,15587.816010,3113.910927,-267.424011,-832.040039,-458.720001,7420.000000,980.000000,1260.000000
9574.123868,14849.269670,1209.698762,2781.294618,7133.648650,4941.702478,10542.647307,-11269.011947,11506.186307,6840.885501,10112.711503,-4207.492376,-1551.568693,2950.296158,15516.871574,3021.240595,-268.888000,-832.528015,-461.648010,6580.000000,1820.000000,1120.000000
9551.749772,14714.846279,1128.897205,2695.128643,7038.117294,4917.495539,10478.251931,-11343.398552,11464.366193,6784.134422,10099.076939,-4293.412482,-1597.278011,2926.983288,15436.494700,2918.780198,-271.816010,-833.992004,-459.696014,5880.000000,2800.000000,840.000000
9532.504920,14593.409251,1069.039234,2619.602098,6973.744270,4894.875574,10418.729236,-11407.011617,11432.313792,6760.933311,10087.297569,-4360.087736,-1629.039839,2918.646087,15377.687261,2845.645290,-272.791992,-840.335999,-458.720001,4900.000000,3220.000000,840.000000
9567.530104,14650.249738,1135.915653,2656.951863,7061.676033,4904.397417,10436.118893,-11373.126372,11472.099897,6847.747487,10092.393767,-4313.216128,-1602.418912,2952.687794,15408.689130,2894.036817,-275.231995,-838.872009,-459.208008,4200.000000,3920.000000,700.000000
9647.571701,14915.475537,1326.397219,2828.076819,7294.290637,4960.969682,10559.388764,-11219.033446,11583.545695,7010.803462,10122.836843,-4138.447838,-1508.876861,3015.764417,15548.253423,3081.210325,-276.696014,-843.752014,-456.279999,3780.000000,4060.000000,560.000000
9680.249951,15141.764598,1456.797297,2979.755757,7448.584729,5013.138653,10680.199943,-11087.560485,11652.657289,7080.607960,10143.087523,-3995.799005,-1435.384325,3044.575816,15681.648634,3245.249777,-275.720001,-847.168030,-457.256012,3500.000000,3640.000000,280.000000
9635.635869,15111.098005,1397.743988,2962.299044,7365.927978,5006.746054,10679.529390,-11118.048265,11622.773006,6992.698549,10140.025334,-4018.530729,-1451.254064,3010.645868,15685.493134,3234.766809,-274.743988,-848.143982,-453.839996,3220.000000,3640.000000,-140.000000
9591.826450,14987.939893,1302.078521,2877.407119,7242.009907,4973.285493,10619.157329,-11194.871210,11558.936424,6908.767749,10122.367456,-4105.590773,-1502.797187,2975.441870,15615.576877,3147.326785,-272.791992,-852.048035,-453.839996,2940.000000,3080.000000,-560.000000
9572.179266,14882.171438,1231.312899,2807.893194,7160.493095,4948.206836,10568.195351,-11246.861368,11512.422444,6852.351946,10104.374302,-4185.207687,-1547.344213,2951.123172,15546.554690,3059.305615,-271.816010,-852.048035,-453.839996,2800.000000,2660.000000,-840.000000
9558.477647,14764.780076,1154.154677,2729.080943,7071.153172,4923.351696,10507.577420,-11305.489994,11479.386566,6798.461890,10093.511354,-4269.272598,-1590.371321,2928.033820,15467.541274,2961.248512,-267.424011,-854.976013,-453.839996,3220.000000,2100.000000,-1260.000000
9541.356211,14627.070979,1075.521240,2643.563168,6978.348729,4896.551954,10435.761265,-11383.676396,11446.395391,6756.150038,10086.917590,-4348.062497,-1627.408162,2916.701486,15391.567694,2865.292473,-267.424011,-856.928040,-450.912018,3360.000000,1260.000000,-1820.000000
9553.783781,14604.942752,1092.955600,2633.773104,7007.271887,4892.707454,10417.835166,-11392.103004,11453.838522,6803.245163,10085.576485,-4346.363765,-1624.167159,2941.958957,15383.901046,2863.660796,-263.032013,-855.463989,-454.816010,3780.000000,560.000000,-2380.000000
9616.212203,14810.422338,1257.375033,2768.040033,7211.946811,4936.494522,10509.119691,-11263.736935,11538.663392,6957.449848,10106.676532,-4207.626487,-1546.226626,3003.046275,15491.502344,3015.496196,-264.496002,-860.832031,-453.839996,4200.000000,-140.000000,-2800.000000
9665.095468,15070.283719,1422.263851,2936.326317,7409.357418,4990.608095,10639.698582,-11112.862660,11625.030532,7069.119164,10134.035067,-4043.050592,-1458.250160,3041.647737,15638.912098,3203.206146,-261.080017,-860.832031,-455.791992,4760.000000,-980.000000,-3220.000000
9646.655279,15136.578993,1424.901357,2983.019112,7403.970647,5008.645953,10686.927818,-11087.694596,11635.133521,7028.997782,10144.093352,-3999.688208,-1438.513570,3024.839225,15700.737023,3259.241969,-257.664001,-857.903992,-458.231995,5460.000000,-1400.000000,-3780.000000
9606.153918,15026.653114,1324.251452,2909.683038,7274.352881,4981.622694,10635.988192,-11169.591387,11588.172506,6935.835711,10133.029238,-4073.694834,-1481.495974,2988.316475,15650.356191,3181.346140,-255.223999,-857.416016,-458.720001,6300.000000,-2520.000000,-3920.000000
9587.333749,14923.656276,1251.205951,2840.593796,7187.941037,4954.264159,10583.528648,-11230.790464,11548.341697,6878.257618,10117.271259,-4149.467248,-1526.467684,2964.042480,15584.105621,3093.101453,-252.783997,-858.392029,-459.208008,7000.000000,-2800.000000,-4200.000000
9568.938264,14814.535059,1181.870840,2766.117783,7107.206536,4930.347792,10530.309144,-11285.351072,11510.008456,6822.735885,10101.893258,-4232.213406,-1570.053586,2942.741268,15511.909486,3000.185251,-251.807999,-857.416016,-460.183990,7700.000000,-3360.000000,-4200.000000
9544.306641,14672.936758,1098.230612,2673.805079,7006.847204,4900.955248,10459.901149,-11363.582178,11468.411859,6768.130573,10089.331578,-4325.174311,-1613.438322,2921.685925,15432.337276,2897.546041,-250.344009,-856.440002,-463.112000,8120.000000,-3640.000000,-4340.000000
9545.938318,14598.438394,1070.603856,2626.531139,6979.779241,4886.448966,10414.258887,-11410.967876,11461.102839,6781.005178,10087.297569,-4360.177143,-1627.899900,2928.234986,15392.037081,2853.669566,-249.856003,-854.000000,-466.528015,8540.000000,-4200.000000,-4200.000000
9602.845860,14732.235936,1190.923296,2711.467768,7128.150121,4914.388646,10466.874894,-11332.826177,11526.928726,6911.137034,10106.855346,-4260.689528,-1572.579333,2979.465184,15457.460637,2954.297120,-249.367996,-852.536011,-464.088013,9240.000000,-4060.000000,-3920.000000
9668.112954,15007.140041,1380.421386,2891.801642,7358.730717,4974.291322,10602.862907,-11163.064678,11622.884765,7056.199855,10135.331468,-4081.473241,-1476.042149,3037.020926,15606.211496,3156.066317,-249.856003,-852.536011,-463.112000,9100.000000,-4340.000000,-3640.000000
9673.589131,15164.339860,1450.896436,2999.134719,7440.761619,5011.886956,10696.673178,-11073.456535,11663.207312,7071.264931,10152.162332,-3982.611475,-1426.153055,3046.319252,15710.325922,3276.318702,-246.440002,-852.048035,-460.183990,8960.000000,-4340.000000,-3500.000000
9622.828319,15073.927054,1353.711051,2941.713088,7317.111768,4990.943371,10662.206788,-11138.880091,11612.424149,6965.429421,10142.081695,-4041.798895,-1461.714680,3005.281449,15677.446506,3221.042838,-250.344009,-850.096008,-461.648010,8960.000000,-4200.000000,-3080.000000
9596.922648,14963.598843,1271.188411,2866.454764,7214.941944,4962.355490,10604.874564,-11205.667103,11563.742049,6899.268258,10126.636639,-4120.946422,-1508.318068,2977.498231,15609.385444,3132.082895,-246.440002,-854.000000,-465.552002,8680.000000,-4620.000000,-2520.000000
9576.783726,14855.394048,1201.138044,2793.409263,7132.531063,4936.673336,10550.336307,-11260.808857,11517.138662,6842.852455,10111.415101,-4202.507937,-1552.172190,2950.787896,15535.535280,3037.333851,-249.367996,-852.536011,-459.208008,8540.000000,-4480.000000,-2100.000000
9547.838217,14717.148509,1118.749513,2706.617440,7036.127989,4910.454739,10484.376309,-11332.110921,11469.171818,6779.865239,10097.489965,-4294.127738,-1596.875679,2926.178625,15457.013602,2933.957032,-246.928009,-853.023987,-463.600006,8120.000000,-4760.000000,-1400.000000
9531.096760,14590.525876,1055.024690,2626.061753,6963.373061,4886.493669,10416.270544,-11403.792966,11439.376943,6754.540712,10088.951598,-4366.033300,-1629.084543,2919.316640,15392.372357,2856.798811,-251.807999,-852.536011,-460.183990,7980.000000,-4900.000000,-700.000000
9572.715708,14646.919328,1119.956508,2660.103459,7049.941367,4896.909582,10430.285088,-11370.824143,11484.192191,6848.596853,10098.696959,-4319.854596,-1600.854290,2957.381661,15419.976761,2905.279744,-249.367996,-848.632019,-457.744019,7560.000000,-4900.000000,-280.000000
9648.555177,14911.541630,1309.454597,2829.887310,7281.594846,4951.313728,10551.386839,-11216.798272,11588.284265,7008.545936,10124.267355,-4148.908454,-1510.575594,3019.541862,15556.791789,3089.838098,-248.391998,-850.583984,-458.720001,7420.000000,-5040.000000,140.000000
9680.920503,15144.737380,1446.739012,2986.729501,7441.521578,5005.472005,10674.500248,-11084.587703,11655.607719,7081.546734,10147.781390,-4002.772749,-1432.098619,3051.035470,15691.997491,3257.945568,-252.296005,-848.143982,-456.768005,6580.000000,-5320.000000,700.000000
9630.986706,15119.658723,1393.117177,2978.369949,7368.319615,5004.801453,10682.658635,-11108.079387,11618.593230,6994.084358,10147.066134,-4017.167272,-1440.704041,3023.475769,15703.463936,3259.197266,-251.807999,-850.096008,-454.328003,6580.000000,-5460.000000,1260.000000
9580.985854,14988.297521,1291.774367,2891.488718,7247.463733,4974.000749,10623.739436,-11182.935379,11546.240633,6904.409159,10125.474349,-4105.590773,-1492.873012,2988.338827,15634.307639,3170.997282,-252.296005,-851.072021,-455.304016,6160.000000,-5320.000000,1400.000000
9566.546627,14878.639862,1219.757047,2814.285793,7159.375508,4948.095077,10565.647252,-11239.328830,11505.068720,6850.206178,10110.565735,-4186.504088,-1537.978832,2960.287387,15557.797618,3075.465927,-253.272003,-850.583984,-457.256012,5880.000000,-5460.000000,1960.000000
9565.652557,14770.882102,1149.058479,2741.955548,7071.175524,4923.888138,10508.851470,-11299.745595,11488.528429,6803.960419,10102.943790,-4261.494191,-1581.944714,2935.164027,15487.099050,2977.252361,-252.296005,-848.632019,-459.696014,5740.000000,-5320.000000,2240.000000
9558.589406,14644.617098,1075.253019,2661.153991,6984.160183,4897.088396,10438.175254,-11376.501486,11470.825847,6768.287035,10098.182869,-4336.618404,-1619.652107,2920.166006,15414.969971,2883.062110,-256.200012,-850.583984,-454.816010,5880.000000,-5040.000000,2520.000000
9577.655444,14620.097234,1090.653371,2646.267730,7006.958962,4892.998027,10414.482405,-11388.996111,11483.678101,6817.125597,10101.826203,-4336.037259,-1613.818301,2941.333108,15399.480212,2877.764747,-256.200012,-851.072021,-454.816010,5880.000000,-4760.000000,2800.000000
9646.990555,14826.828519,1257.620902,2781.987522,7211.544479,4935.756914,10509.544374,-11266.374441,11571.386346,6973.967788,10127.106026,-4194.729530,-1536.145989,3002.286315,15513.094129,3027.409676,-259.127991,-853.023987,-450.912018,6160.000000,-4480.000000,3080.000000
9701.506460,15099.720967,1430.533997,2966.009434,7423.751941,4995.927810,10651.500303,-11107.162965,11661.575635,7093.303751,10154.799837,-4019.961240,-1443.632119,3050.364918,15672.551474,3220.305231,-258.640015,-851.559998,-453.352020,6160.000000,-4340.000000,3220.000000
9676.830134,15166.798552,1438.468866,3014.870347,7428.669325,5015.776159,10702.864611,-11078.440974,11660.078068,7048.577910,10160.499532,-3976.308283,-1423.806122,3037.467961,15732.074169,3280.207906,-259.615997,-853.023987,-450.912018,6720.000000,-4060.000000,3360.000000
9622.604802,15044.914489,1335.941414,2936.616890,7298.805690,4986.405967,10649.980384,-11160.650690,11598.320198,6946.989232,10145.143884,-4053.958244,-1470.275399,2999.201775,15679.636977,3203.541422,-259.615997,-854.000000,-450.912018,7140.000000,-3360.000000,3220.000000
9596.341502,14930.697075,1259.163172,2858.944578,7203.140223,4958.913321,10593.229305,-11221.201565,11549.213415,6886.259542,10127.150730,-4136.726753,-1516.498806,2970.971521,15607.597304,3113.866224,-262.544006,-851.559998,-448.959991,7420.000000,-3080.000000,3080.000000
9577.677796,14814.378597,1187.235258,2781.339321,7114.314391,4932.672373,10533.773665,-11279.539618,11505.158127,6831.408361,10110.453976,-4219.830539,-1559.905894,2944.752925,15526.102844,3014.490368,-265.472015,-852.536011,-445.056000,7840.000000,-2660.000000,3080.000000
9552.397973,14661.872645,1096.151900,2678.163669,7003.337980,4902.408111,10451.876873,-11367.337271,11459.828789,6772.422108,10097.579372,-4314.780750,-1605.570508,2918.601384,15430.459729,2901.189375,-265.472015,-851.559998,-444.567993,8120.000000,-2240.000000,2660.000000
9549.983984,14577.383051,1066.424080,2621.189072,6969.050404,4886.560725,10401.071358,-11416.667571,11449.479932,6781.318102,10090.985607,-4357.047898,-1621.417895,2924.971631,15384.683357,2851.903779,-265.472015,-853.512024,-449.447998,8400.000000,-1960.000000,2380.000000
9606.668008,14713.505174,1190.990352,2707.623268,7120.997563,4913.829853,10456.235463,-11334.904889,11517.317476,6911.896993,10105.626000,-4260.980101,-1565.896161,2977.252361,15456.678326,2956.599350,-269.376007,-854.000000,-443.592010,8820.000000,-1680.000000,1960.000000
9674.617311,14997.059404,1386.568116,2896.070826,7357.948405,4975.677130,10598.839593,-11164.517541,11620.806053,7058.010347,10136.136131,-4077.852258,-1467.079099,3037.445609,15617.454424,3161.855419,-266.936005,-851.559998,-441.640015,9240.000000,-980.000000,1540.000000
9683.669768,15161.389430,1469.470736,3009.215356,7448.763543,5016.737284,10697.030806,-11071.869561,11662.536760,7079.043338,10156.655032,-3973.938998,-1411.512662,3050.208455,15726.709750,3285.661731,-269.376007,-851.559998,-444.080017,9380.000000,-840.000000,1120.000000
9632.976011,15076.206932,1379.572020,2953.961844,7327.639440,4998.520613,10664.419611,-11136.935489,11615.218117,6972.649035,10145.635622,-4029.818360,-1446.090811,3011.718751,15696.713709,3232.241062,-270.351990,-851.559998,-444.567993,9100.000000,-840.000000,420.000000
9605.393959,14966.169294,1297.116434,2878.077671,7228.688267,4969.306883,10609.970762,-11205.577696,11567.318328,6908.164252,10131.554023,-4106.529547,-1492.224812,2983.309684,15631.267802,3145.739811,-269.864014,-849.608032,-444.080017,9100.000000,-420.000000,-140.000000
9582.997511,14857.629223,1228.116599,2806.350923,7148.892540,4946.664565,10562.048621,-11258.193702,11519.060912,6853.469533,10114.387883,-4187.062882,-1536.190693,2959.348614,15560.211606,3055.952854,-267.912018,-848.632019,-439.688019,8960.000000,-560.000000,-840.000000
9558.924682,14719.718959,1144.364613,2715.021695,7045.560425,4918.344905,10495.015740,-11334.211985,11476.682005,6795.109128,10100.440395,-4282.817755,-1584.381054,2931.096009,15477.040765,2947.859817,-270.351990,-846.679993,-443.592010,8680.000000,-280.000000,-1680.000000
9550.587481,14605.434490,1085.780690,2637.684660,6974.817154,4893.892097,10426.485291,-11402.183640,11456.833655,6777.697119,10094.025444,-4347.682517,-1615.762903,2920.210710,15408.979703,2870.098099,-265.959991,-845.703979,-442.127991,8400.000000,0.000000,-1960.000000
9587.892543,14655.144770,1151.025432,2668.753584,7054.523475,4903.257478,10434.397809,-11374.780402,11495.412766,6865.830048,10104.486061,-4302.956677,-1586.504470,2954.610044,15428.537479,2912.968744,-264.984009,-848.143982,-446.032013,7980.000000,-140.000000,-2520.000000
9661.250968,14912.949790,1340.277653,2840.862017,7288.903867,4960.366185,10560.282834,-11217.357065,11596.934390,7024.952117,10134.526805,-4133.508102,-1494.258820,3020.234766,15572.348603,3101.438654,-268.399994,-848.632019,-443.104004,7700.000000,140.000000,-2940.000000
9695.471489,15150.146502,1479.327855,3001.906336,7454.262072,5016.267898,10691.375815,-11081.011424,11667.722364,7099.048149,10158.823151,-3984.846650,-1418.218186,3054.790563,15716.651465,3273.547086,-266.447998,-846.679993,-445.056000,7140.000000,280.000000,-3220.000000
9649.963337,15128.733531,1426.868311,2991.289257,7381.238923,5014.725627,10696.047329,-11109.062863,11638.620393,7011.474015,10154.173989,-3998.972952,-1430.265776,3024.012211,15724.586335,3269.032034,-264.007996,-846.192017,-442.615997,6720.000000,140.000000,-3500.000000
9614.111139,15011.789204,1333.929757,2911.784102,7261.411221,4983.924923,10639.363305,-11189.305626,11586.183201,6932.348839,10139.086561,-4079.841564,-1478.947875,2990.752815,15660.235662,3183.067224,-264.007996,-847.168030,-446.520020,6440.000000,0.000000,-3640.000000
9592.072319,14903.807927,1263.767632,2839.699726,7174.485287,4958.980377,10588.200162,-11245.252042,11539.177482,6872.937903,10121.383979,-4159.681995,-1523.539606,2963.707204,15587.748955,3094.464909,-263.032013,-847.168030,-447.007996,5740.000000,140.000000,-3640.000000
9570.391127,14777.989957,1188.531660,2754.249007,7080.898533,4933.342926,10525.458816,-11308.440424,11496.597409,6812.096454,10105.178965,-4246.138542,-1569.897124,2937.041573,15505.740405,2995.156109,-263.519989,-845.703979,-445.056000,5460.000000,-280.000000,-3780.000000
9549.425191,14637.352781,1111.462845,2661.153991,6985.434232,4904.285658,10450.602824,-11391.343044,11459.873493,6766.387137,10091.723215,-4329.845825,-1613.751246,2920.613041,15423.865965,2896.160233,-263.032013,-847.656006,-448.959991,4900.000000,-280.000000,-3640.000000
9562.590368,14611.625923,1125.589147,2645.731288,7006.109596,4898.630667,10427.044085,-11404.731739,11466.131981,6811.694123,10093.220781,-4332.706849,-1611.694886,2939.835541,15409.583200,2890.438186,-261.080017,-845.703979,-447.007996,4340.000000,-420.000000,-3640.000000
9627.097503,14810.779966,1283.884202,2774.767908,7206.515337,4942.037754,10517.434539,-11280.903075,11548.118180,6964.602407,10115.237250,-4196.070635,-1536.414210,2998.374760,15515.776338,3040.239577,-261.567993,-846.679993,-446.520020,3640.000000,-280.000000,-3640.000000
9685.614370,15079.582045,1456.909055,2949.290329,7413.268973,5001.381636,10652.461428,-11122.876242,11641.481416,7086.419414,10145.635622,-4023.001078,-1444.637948,3045.827513,15663.275500,3230.721144,-260.104004,-847.168030,-447.007996,3080.000000,-560.000000,-3360.000000
9676.226637,15160.584767,1467.704948,3007.404865,7422.902575,5022.392276,10709.033693,-11084.543000,11658.915777,7055.149323,10157.437343,-3971.994397,-1420.453360,3037.423258,15729.257849,3295.138871,-259.127991,-848.632019,-446.032013,2660.000000,-700.000000,-3500.000000
9631.187872,15045.115655,1365.803345,2932.079486,7292.211925,4994.899630,10656.350631,-11162.058850,11603.215230,6958.165104,10144.942718,-4046.537464,-1464.083965,2999.917030,15676.150105,3217.712428,-262.544006,-849.608032,-449.936005,1960.000000,-840.000000,-3080.000000
9606.556249,14938.922517,1290.925001,2856.307072,7198.558116,4969.709214,10598.772538,-11226.208356,11557.058878,6900.072920,10130.503491,-4126.288489,-1509.793283,2973.027882,15605.384482,3126.137331,-260.104004,-850.583984,-445.056000,1820.000000,-840.000000,-2940.000000
9585.992645,14829.600135,1220.584061,2781.629894,7114.470853,4946.910435,10543.183749,-11284.859334,11516.691627,6844.998222,10115.237250,-4206.799472,-1554.452068,2948.440963,15533.076588,3031.120066,-260.104004,-848.143982,-447.984009,1400.000000,-1260.000000,-2660.000000
9559.483476,14684.403203,1134.216921,2684.913896,7013.686837,4917.741408,10467.411335,-11366.845532,11472.546932,6784.514401,10100.172174,-4299.335694,-1601.189566,2924.144617,15446.798855,2926.156274,-261.080017,-851.072021,-447.496002,980.000000,-1400.000000,-2380.000000
9554.297871,14594.862115,1099.504662,2625.994697,6977.499363,4900.396454,10413.387169,-11419.796815,11456.788952,6787.688349,10092.214953,-4343.659203,-1620.568528,2929.553739,15396.820354,2873.652026,-261.567993,-850.583984,-446.032013,700.000000,-1540.000000,-2100.000000
9602.376473,14720.210698,1211.643363,2709.880794,7124.953821,4927.151492,10466.584321,-11339.285831,11512.847127,6909.013618,10100.887430,-4253.447563,-1570.366510,2980.180440,15464.747305,2974.391338,-257.175995,-851.072021,-448.959991,840.000000,-1680.000000,-1820.000000
9665.520151,14997.417032,1401.856709,2894.193279,7358.887179,4987.948237,10605.969799,-11171.804210,11610.837175,7055.104620,10128.223613,-4074.723014,-1475.595114,3035.724525,15620.047226,3174.327692,-259.127991,-854.000000,-447.007996,420.000000,-1680.000000,-1540.000000
9679.713509,15166.418572,1489.520251,3009.617687,7453.926796,5029.231909,10701.970542,-11079.066822,11658.781667,7084.743033,10153.861064,-3967.546400,-1418.240537,3049.180275,15726.441530,3296.256458,-260.104004,-849.608032,-448.959991,420.000000,-1680.000000,-1260.000000
9628.371552,15080.721984,1395.844089,2954.766507,7332.020382,5007.371903,10667.459448,-11146.837312,11610.054864,6982.036767,10145.993250,-4025.035086,-1452.438706,3006.488443,15695.663177,3239.527731,-261.080017,-852.048035,-447.007996,280.000000,-1960.000000,-840.000000
9600.588334,14969.052669,1308.426417,2879.731700,7227.302459,4976.861772,10613.927020,-11218.027618,11562.088020,6914.333333,10127.374247,-4103.266192,-1498.952687,2977.319417,15632.944183,3150.053698,-258.152008,-854.976013,-447.984009,140.000000,-1960.000000,-700.000000
9584.271560,14863.083048,1240.521817,2810.374237,7145.048040,4951.313728,10563.568540,-11271.694156,11520.804348,6859.795077,10110.453976,-4181.944332,-1541.733926,2953.648919,15561.262138,3058.746822,-257.175995,-854.488037,-450.912018,0.000000,-1960.000000,-420.000000
9558.634109,14730.403093,1162.313063,2722.286012,7049.762553,4925.676277,10496.289789,-11341.543358,11475.787935,6799.825346,10095.746529,-4272.267732,-1584.313999,2931.565396,15477.308986,2956.666405,-257.664001,-854.000000,-450.912018,0.000000,-2380.000000,-140.000000
9543.546682,14606.596781,1098.431778,2638.377564,6976.560590,4900.374103,10423.870137,-11414.387693,11447.200054,6775.663111,10089.890372,-4343.189817,-1616.053476,2925.820997,15407.303322,2874.009654,-261.080017,-853.023987,-453.352020,-140.000000,-2520.000000,-140.000000
9577.007243,14652.976650,1155.451078,2664.730270,7054.568178,4908.487786,10432.319097,-11385.620998,11482.515810,6860.108001,10096.640598,-4303.068436,-1589.857231,2962.030823,15427.933982,2917.304983,-260.592010,-854.976013,-452.376007,140.000000,-2520.000000,0.000000
9645.448285,14907.071281,1341.574054,2834.447066,7286.154602,4962.199028,10557.332403,-11230.231670,11577.823648,7017.866614,10119.975820,-4135.452704,-1498.639762,3026.828531,15568.057068,3104.389084,-260.592010,-854.488037,-451.888000,140.000000,-2800.000000,140.000000
9683.870934,15147.039610,1482.345341,2998.330056,7455.022032,5016.513767,10689.990007,-11090.354453,11653.551358,7096.164774,10145.389753,-3982.343254,-1420.006325,3057.808048,15714.371588,3276.452813,-258.640015,-856.440002,-453.839996,140.000000,-2940.000000,140.000000
9637.893395,15128.621772,1431.092790,2991.579830,7384.994016,5015.709104,10696.874344,-11111.722721,11623.845890,7010.825814,10144.406276,-3993.988513,-1428.477636,3025.398019,15725.301591,3273.077699,-259.127991,-854.976013,-454.816010,280.000000,-2800.000000,0.000000
9598.241401,15013.510288,1337.796609,2911.694695,7263.959320,4986.115394,10640.458541,-11187.472783,11569.352337,6928.258470,10128.894166,-4072.756061,-1475.036320,2993.680894,15659.989793,3185.682378,-260.592010,-854.976013,-454.328003,420.000000,-3080.000000,0.000000
9579.935322,14907.205392,1266.181620,2839.409153,7177.525124,4961.081441,10585.920285,-11245.296746,11525.095883,6871.596798,10113.918497,-4151.545960,-1519.181015,2966.657635,15587.637196,3092.185031,-258.640015,-851.072021,-452.864014,700.000000,-3080.000000,-280.000000
9554.879016,14779.621634,1190.252744,2755.433649,7087.425242,4936.896853,10522.329572,-11308.730997,11479.252455,6811.068274,10098.987532,-4239.768295,-1563.102193,2940.461390,15503.907562,2991.691588,-258.152008,-851.559998,-450.912018,980.000000,-3220.000000,-420.000000
9534.538929,14633.664743,1109.495891,2654.604930,6988.898753,4907.124329,10437.929384,-11391.253637,11445.434266,6768.376442,10087.655197,-4328.616479,-1603.201223,2919.093122,15411.080767,2887.018369,-260.104004,-850.583984,-454.328003,1260.000000,-3220.000000,-560.000000
9553.806133,14603.288722,1117.184891,2631.448523,7000.588715,4899.368274,10407.151032,-11409.760882,11461.281653,6815.851547,10088.057529,-4333.623270,-1603.223575,2934.337012,15387.745546,2874.277875,-256.687988,-854.488037,-448.959991,1400.000000,-3220.000000,-840.000000
9623.565927,14801.727510,1274.787042,2760.574551,7195.518279,4940.584891,10494.881629,-11293.487107,11548.364049,6967.955168,10110.968067,-4198.395216,-1530.490998,2995.044350,15490.787088,3018.424275,-259.615997,-852.536011,-452.864014,1540.000000,-3220.000000,-1260.000000
9680.764041,15074.441144,1449.354166,2943.121248,7405.892897,5000.286400,10636.167006,-11133.873300,11640.654402,7087.559353,10140.897052,-4026.197377,-1436.747782,3045.246368,15648.165720,3214.538481,-259.127991,-854.000000,-447.984009,1820.000000,-3080.000000,-1400.000000
9666.436573,15157.857854,1465.112146,3006.309629,7419.974496,5022.526386,10697.969579,-11093.774270,11652.925510,7053.472943,10149.278957,-3974.274275,-1409.322191,3036.171560,15721.345332,3285.997008,-253.760010,-853.023987,-450.912018,2240.000000,-2800.000000,-1820.000000
9612.747683,15035.638515,1358.002586,2925.686887,7283.360634,4992.239772,10644.861835,-11178.845010,11589.357148,6946.497494,10131.665782,-4056.483991,-1457.154925,2994.150280,15667.611738,3207.676495,-255.712006,-853.023987,-450.912018,2100.000000,-2520.000000,-2100.000000
9590.552400,14925.600877,1284.130071,2850.361508,7191.405558,4963.964816,10589.831840,-11243.396848,11543.379610,6887.421833,10117.606535,-4138.246672,-1501.590193,2966.523524,15596.242618,3117.487206,-255.712006,-853.512024,-452.376007,2240.000000,-1960.000000,-2380.000000
9575.576732,14821.687618,1219.108846,2781.249914,7110.559298,4939.780228,10540.613298,-11298.739767,11507.549764,6834.224681,10104.016674,-4215.471949,-1544.505542,2945.490533,15525.767568,3024.034563,-260.592010,-853.512024,-451.888000,2240.000000,-1680.000000,-2800.000000
9551.414496,14678.234122,1133.591072,2690.837108,7008.076550,4910.924126,10472.887513,-11376.166210,11465.103801,6773.986730,10090.560924,-4303.984857,-1588.225554,2924.099913,15444.697791,2919.271936,-257.175995,-852.536011,-450.424011,2380.000000,-1120.000000,-2660.000000
9549.760467,14589.274179,1098.029446,2633.482532,6973.699567,4894.562649,10420.919707,-11425.809434,11452.206844,6781.698082,10087.722252,-4345.536750,-1603.715313,2928.391448,15393.288778,2869.047567,-259.127991,-855.463989,-453.352020,2660.000000,-700.000000,-2660.000000
9604.030502,14715.695645,1209.743465,2716.586318,7119.187071,4921.496501,10472.060498,-11347.600680,11515.506985,6905.526746,10104.620171,-4254.363984,-1553.423888,2977.364120,15456.432457,2968.199905,-259.127991,-854.488037,-447.984009,2800.000000,-280.000000,-2660.000000
9670.482239,14991.315006,1398.168671,2899.535346,7351.287586,4978.649912,10608.361436,-11184.052966,11614.256992,7048.376745,10130.548195,-4075.281808,-1457.914884,3033.601109,15606.993807,3164.783497,-260.592010,-854.488037,-446.032013,2940.000000,140.000000,-2520.000000
9682.641588,15167.022069,1484.200535,3019.184234,7451.490456,5018.994810,10710.084225,-11086.509953,11660.972138,7075.914094,10150.083619,-3962.763126,-1399.465072,3048.532075,15717.433777,3292.903697,-262.056000,-853.023987,-447.496002,3220.000000,560.000000,-2660.000000
9628.751532,15082.755993,1394.190060,2966.501172,7332.512120,5001.046360,10681.541047,-11146.278518,11610.300733,6970.235046,10139.377134,-4016.429665,-1433.506779,3007.606030,15687.415384,3245.562702,-260.104004,-852.536011,-450.424011,3500.000000,980.000000,-2380.000000
9594.531011,14961.900110,1308.806397,2886.392520,7225.424913,4971.586760,10624.432340,-11214.876022,11554.264910,6896.273124,10120.266392,-4098.684084,-1481.831250,2977.498231,15620.024874,3158.323843,-260.104004,-854.000000,-453.839996,4060.000000,980.000000,-2240.000000
9575.174400,14855.505807,1238.063125,2820.141950,7148.333746,4947.625690,10576.845476,-11266.687365,11507.058025,6841.220777,10105.067206,-4179.575047,-1525.975946,2953.805382,15555.897719,3069.900342,-263.519989,-852.048035,-451.888000,4480.000000,1260.000000,-2100.000000
9545.848912,14712.655808,1149.013775,2725.102332,7042.878216,4919.127216,10504.157603,-11341.476302,11456.967766,6775.104317,10089.197467,-4277.945075,-1576.088557,2926.759771,15467.541274,2960.823829,-260.104004,-851.559998,-452.376007,4480.000000,1260.000000,-1960.000000
9540.104513,14595.487964,1089.491080,2644.323128,6968.737479,4895.277905,10431.581489,-11415.460576,11440.762751,6757.848770,10083.073089,-4344.217997,-1606.710447,2917.506149,15395.233380,2876.803622,-262.056000,-851.559998,-454.328003,4900.000000,1260.000000,-1680.000000
9574.816772,14635.028200,1145.549255,2668.261846,7041.760628,4900.932896,10432.274393,-11394.159364,11475.586769,6841.757219,10092.796098,-4305.549479,-1581.989417,2947.815114,15410.812546,2909.437169,-259.615997,-850.583984,-453.352020,5320.000000,1400.000000,-1400.000000
9644.643622,14887.088822,1329.392353,2836.950462,7272.363576,4953.481847,10548.615223,-11242.972165,11569.262930,6999.873459,10119.774654,-4141.040640,-1491.174280,3009.863557,15547.225243,3087.446462,-266.447998,-850.583984,-448.959991,5460.000000,1680.000000,-1260.000000
9677.701852,15125.514880,1467.526134,2996.810138,7440.761619,5007.729531,10677.160105,-11100.010407,11636.720495,7078.819821,10142.327564,-3991.954504,-1412.563194,3045.492237,15689.494096,3260.001929,-262.544006,-849.119995,-451.399994,5740.000000,1680.000000,-980.000000
9637.066381,15111.925019,1420.296898,2987.400053,7367.894932,5007.930697,10683.776222,-11119.255259,11615.106358,7000.879288,10144.763904,-4001.453996,-1418.531110,3015.943231,15699.999416,3259.018452,-261.080017,-853.512024,-449.447998,5740.000000,1680.000000,-980.000000
9595.849764,14984.408317,1319.110551,2897.523689,7234.320907,4973.665473,10616.966858,-11201.733196,11560.523398,6912.880470,10126.591936,-4090.793918,-1469.984826,2978.034673,15626.305714,3164.068242,-262.544006,-852.048035,-451.888000,5880.000000,1680.000000,-840.000000
9582.170496,14884.607778,1254.424602,2832.837741,7153.809923,4951.693708,10569.089421,-11251.912862,11523.240688,6861.985548,10112.376226,-4165.046414,-1513.771893,2955.995852,15563.072629,3078.304598,-262.056000,-850.583984,-448.472015,5880.000000,1680.000000,-840.000000
9564.333804,14769.250425,1181.937895,2758.227618,7067.979225,4927.844397,10513.880612,-11313.558973,11484.952150,6805.413283,10095.970046,-4245.445638,-1558.989472,2931.721858,15491.569399,2981.566248,-260.104004,-851.559998,-447.007996,5600.000000,1820.000000,-700.000000
9542.585557,14630.736665,1104.310287,2668.463012,6975.979445,4899.435329,10440.745704,-11398.920286,11448.071772,6761.425049,10084.861229,-4328.325907,-1599.066150,2915.226271,15411.080767,2881.698654,-262.544006,-853.023987,-450.912018,5600.000000,1680.000000,-700.000000
9551.168627,14591.621112,1107.595993,2641.506808,6984.227238,4890.852259,10408.156861,-11423.484853,11451.223368,6801.077044,10083.810697,-4342.139285,-1598.909688,2930.738381,15385.242150,2864.554866,-263.032013,-853.512024,-448.959991,5320.000000,1400.000000,-840.000000
9620.302572,14784.494315,1264.684053,2766.006025,7177.815697,4931.934766,10493.317007,-11303.813613,11535.936479,6952.867741,10107.749415,-4211.873318,-1524.254861,2990.574001,15487.434326,3008.947135,-261.567993,-854.000000,-451.399994,5460.000000,840.000000,-840.000000
9681.792221,15065.478094,1446.113163,2954.341823,7396.281647,4994.989037,10640.235024,-11139.237718,11635.625259,7076.919922,10138.684230,-4034.266357,-1430.310479,3041.848903,15651.026744,3208.950544,-261.080017,-854.488037,-449.936005,5320.000000,420.000000,-980.000000
9667.241236,15160.271843,1471.437689,3023.855749,7421.360305,5022.124055,10709.927763,-11092.813145,11652.433771,7047.616785,10147.759038,-3976.531801,-1402.326095,3036.238615,15729.459015,3283.583019,-260.592010,-853.512024,-451.888000,5320.000000,-140.000000,-1120.000000
9612.568869,15038.387780,1366.496249,2943.881207,7286.467527,4994.765519,10656.372983,-11172.877094,11588.463079,6942.809456,10130.682305,-4056.796915,-1449.376517,2995.781958,15673.400840,3202.245021,-260.592010,-852.536011,-448.959991,5180.000000,-1120.000000,-1260.000000
9583.511601,14920.705845,1288.980399,2862.833782,7187.851630,4965.551789,10597.722006,-11238.390057,11533.924822,6877.676472,10113.739683,-4140.683012,-1496.382236,2963.930722,15600.131822,3109.440578,-260.104004,-851.559998,-455.304016,4900.000000,-1540.000000,-1260.000000
9567.954787,14810.332931,1220.382896,2788.625990,7104.412568,4940.473132,10541.507368,-11295.722281,11496.642112,6824.233451,10100.775671,-4220.054057,-1541.845684,2935.164027,15524.962905,3013.261022,-260.104004,-854.000000,-448.959991,4620.000000,-1540.000000,-1400.000000
9546.161836,14666.901787,1130.931214,2696.380341,7002.086282,4913.405170,10472.038147,-11372.165247,11457.012469,6766.923579,10087.766956,-4310.131587,-1589.924287,2912.298192,15442.350858,2908.364285,-260.592010,-856.928040,-446.520020,4340.000000,-1400.000000,-1400.000000
9550.587481,14584.960292,1096.621286,2644.747811,6968.804535,4897.624838,10425.948849,-11418.500414,11452.497417,6778.680596,10086.112927,-4348.733049,-1605.905784,2920.836558,15401.581276,2859.950407,-259.615997,-858.392029,-443.104004,3920.000000,-1400.000000,-1400.000000
9602.063549,14700.205886,1203.619087,2720.252004,7103.563202,4919.753065,10468.640681,-11349.411172,11512.713017,6897.681284,10099.658084,-4264.534028,-1558.162458,2967.171725,15456.991250,2945.937567,-259.127991,-861.320007,-443.592010,3920.000000,-980.000000,-1400.000000
9668.694099,14972.986576,1394.771206,2903.111625,7338.569443,4977.979359,10604.651046,-11182.890675,11611.328913,7043.012326,10127.374247,-4089.341055,-1463.771041,3026.672068,15609.519554,3143.638747,-260.592010,-861.807983,-441.640015,3780.000000,-1260.000000,-1400.000000
9682.239256,15146.860796,1483.507631,3021.955850,7442.326241,5018.257203,10704.161013,-11087.560485,11657.373507,7073.120126,10148.027259,-3983.662007,-1405.768264,3041.714792,15720.451262,3272.183630,-257.175995,-860.832031,-443.104004,3360.000000,-2100.000000,-1540.000000
9632.126645,15068.137952,1394.570040,2971.932646,7327.125350,5001.761615,10676.623663,-11148.916024,11610.568954,6971.844372,10139.801817,-4036.076848,-1435.563139,3003.292144,15692.444526,3224.082675,-258.152008,-858.880005,-446.520020,3360.000000,-3360.000000,-1820.000000
9602.622342,14957.094485,1309.208728,2895.154404,7220.976915,4974.559542,10622.063055,-11220.821586,11560.657508,6904.185641,10124.110892,-4115.224375,-1480.847774,2976.157126,15624.897555,3136.888520,-254.736008,-860.832031,-447.496002,2800.000000,-4340.000000,-1960.000000
9580.650578,14857.718630,1241.706460,2831.720153,7145.718592,4954.822952,10576.689014,-11270.017775,11516.043427,6848.172170,10105.581296,-4190.236830,-1526.043001,2955.459411,15560.993917,3052.086002,-257.175995,-859.367981,-450.912018,2800.000000,-5880.000000,-2240.000000
9555.862493,14725.798634,1159.899075,2746.850580,7049.159056,4929.766647,10511.734845,-11339.062314,11468.545970,6788.872992,10092.796098,-4277.363929,-1570.768842,2933.062963,15481.198189,2949.670309,-252.783997,-859.367981,-452.376007,2800.000000,-7000.000000,-2100.000000
9539.903347,14592.291664,1092.396807,2653.956730,6964.244779,4903.436292,10434.286050,-11417.002847,11437.387638,6759.748669,10085.129450,-4353.628082,-1605.168176,2921.283593,15399.189639,2857.648177,-254.248001,-860.343994,-447.496002,2800.000000,-8120.000000,-1960.000000
9574.012110,14626.489833,1148.633796,2669.424137,7030.160073,4908.688952,10431.425027,-11397.176850,11475.072679,6840.997260,10093.623113,-4321.687439,-1584.559868,2951.301986,15404.844630,2884.313808,-253.272003,-858.392029,-448.959991,2800.000000,-8960.000000,-1820.000000
9650.835055,14879.936264,1336.299042,2833.508293,7257.231445,4961.707289,10549.553996,-11245.341449,11578.918884,7004.500270,10121.965125,-4156.239826,-1496.426940,3012.903394,15540.050333,3063.150115,-249.856003,-856.928040,-449.447998,3080.000000,-9100.000000,-1960.000000
9682.596884,15119.144633,1476.533887,2993.703245,7426.970592,5015.262069,10680.088184,-11103.027892,11646.175283,7085.525344,10145.032125,-4009.098292,-1417.972317,3042.854731,15685.314320,3238.834827,-249.856003,-857.416016,-447.007996,3360.000000,-9240.000000,-1820.000000
9639.122741,15107.946409,1427.136532,2985.813080,7358.171923,5014.189185,10688.291274,-11124.664381,11620.247259,7002.980352,10145.546215,-4016.183795,-1423.828474,3011.808158,15700.289989,3242.031126,-249.856003,-852.048035,-446.520020,3640.000000,-9100.000000,-1680.000000
9596.006226,14983.827172,1327.380696,2900.451767,7229.023543,4981.287418,10627.941564,-11209.422196,11560.791619,6917.730798,10131.330506,-4097.745311,-1472.577628,2976.201829,15633.726494,3154.680509,-251.807999,-851.559998,-447.007996,3780.000000,-8260.000000,-1540.000000
9578.817735,14880.517409,1259.610207,2831.384877,7144.042211,4958.108659,10577.270159,-11265.547426,11519.083264,6861.180885,10113.225593,-4173.540076,-1517.370524,2952.620739,15563.273795,3066.860505,-249.367996,-851.559998,-446.520020,3920.000000,-7420.000000,-980.000000
9564.445563,14767.417582,1191.884421,2759.747536,7058.882065,4937.477998,10524.587098,-11323.639610,11483.029900,6806.285001,10099.255752,-4253.469915,-1562.252827,2931.677155,15491.859972,2971.083280,-251.320007,-848.632019,-443.592010,3640.000000,-6440.000000,-560.000000
9548.955804,14633.597688,1119.844749,2677.046082,6969.966825,4912.354638,10456.436629,-11399.412024,11453.145618,6764.666052,10093.287837,-4332.081000,-1602.597726,2918.221404,15418.501546,2873.696729,-252.783997,-850.583984,-445.544006,3360.000000,-5180.000000,140.000000
9562.545665,14597.812545,1126.103237,2658.561189,6982.841430,4903.190422,10430.150977,-11421.070864,11465.014394,6803.580440,10092.840802,-4338.630061,-1605.123473,2934.605233,15401.156593,2858.676357,-250.832001,-847.656006,-444.567993,2800.000000,-4340.000000,560.000000
9634.361820,14793.323254,1284.465347,2789.028321,7178.575656,4943.065935,10517.143967,-11305.937029,11554.331965,6957.114572,10116.623058,-4202.574992,-1531.250957,2994.977295,15504.756928,3000.922859,-258.640015,-849.119995,-446.032013,1960.000000,-2940.000000,1400.000000
9688.698910,15063.980527,1459.770079,2968.937513,7391.453670,5002.007485,10656.060059,-11145.630317,11644.208329,7077.590475,10143.422800,-4030.421857,-1438.692384,3046.453362,15657.195825,3194.131338,-264.984009,-847.656006,-444.080017,1260.000000,-1680.000000,2240.000000
9668.068250,15148.291307,1479.037282,3026.068571,7407.971610,5023.286345,10713.951077,-11101.887954,11650.578576,7047.572082,10149.636584,-3979.638693,-1410.819758,3036.037449,15724.251059,3263.220580,-270.351990,-848.143982,-447.496002,840.000000,-1120.000000,2940.000000
9617.195680,15034.990315,1375.816926,2950.497323,7276.789221,4995.681941,10662.922044,-11178.129754,11592.955779,6946.899825,10135.353820,-4054.584092,-1454.696233,2996.541917,15672.551474,3188.945733,-271.328003,-849.608032,-447.496002,280.000000,0.000000,3780.000000
9600.208354,14932.127587,1301.229155,2881.318674,7186.666988,4970.379766,10611.915363,-11238.188891,11552.521473,6891.109871,10122.993305,-4128.858939,-1497.589230,2971.910295,15608.379615,3103.874994,-275.720001,-853.023987,-449.936005,0.000000,280.000000,4200.000000
9580.382357,14821.195879,1229.033021,2808.809615,7102.132690,4947.603339,10556.527741,-11293.040072,11506.119252,6835.632841,10105.916572,-4209.146405,-1540.750449,2947.301024,15533.881251,3009.081246,-279.623993,-851.559998,-448.959991,-420.000000,1120.000000,4620.000000
9556.354231,14678.703508,1142.576473,2719.268527,7002.153337,4921.094170,10487.662016,-11367.739602,11463.852103,6776.400718,10092.259656,-4300.721502,-1588.382016,2925.575128,15454.353744,2906.106759,-278.160004,-850.583984,-449.447998,-420.000000,1400.000000,4760.000000
9550.900406,14587.508391,1105.986667,2660.215218,6961.875494,4902.050483,10433.660201,-11418.634524,11450.977498,6776.691291,10086.716424,-4349.001270,-1609.459711,2927.765599,15402.609456,2851.412040,-279.623993,-854.488037,-444.080017,-280.000000,1820.000000,4760.000000
9603.382302,14700.362349,1214.526738,2734.601824,7097.371769,4925.050429,10476.284978,-11350.461704,11512.802424,6898.105967,10102.832032,-4264.623435,-1561.246998,2976.179478,15455.828959,2938.472085,-281.088013,-853.023987,-448.959991,-140.000000,1960.000000,4480.000000
9675.533733,14980.697928,1412.652601,2920.948317,7336.088399,4984.774290,10615.648105,-11183.784745,11617.810919,7050.500161,10132.224576,-4085.429500,-1465.559180,3035.948042,15610.525383,3138.877826,-280.600006,-853.023987,-446.032013,0.000000,1820.000000,4060.000000
9687.335454,15157.120247,1504.562975,3038.697307,7440.627508,5022.816959,10716.141548,-11083.313654,11662.872036,7078.193972,10150.865930,-3976.800022,-1409.031619,3048.152095,15722.529974,3268.316778,-278.160004,-848.143982,-447.984009,-140.000000,1400.000000,3640.000000
9632.663087,15074.999937,1415.155997,2983.399091,7323.191443,5003.192127,10684.245608,-11143.462198,11613.519384,6971.933779,10141.902881,-4029.393676,-1439.586453,3008.589507,15693.003320,3217.667725,-273.279999,-849.608032,-446.520020,0.000000,980.000000,3080.000000
9602.376473,14960.559006,1327.738324,2905.793834,7216.484215,4975.408909,10629.103855,-11212.260868,11563.809104,6901.682246,10124.781445,-4108.742369,-1484.669922,2980.582771,15626.886860,3130.004183,-272.304016,-848.632019,-447.496002,280.000000,980.000000,2380.000000
9583.422194,14852.823598,1255.698652,2834.022383,7135.079162,4950.039679,10577.136049,-11265.815647,11519.552650,6846.048754,10107.302380,-4188.918077,-1529.619280,2954.364175,15553.863711,3036.037449,-271.816010,-850.096008,-443.104004,280.000000,700.000000,1400.000000
9559.036441,14715.874459,1168.839773,2746.492952,7039.056067,4924.111655,10513.679446,-11332.490901,11471.719917,6784.268532,10093.690168,-4279.017959,-1575.932095,2929.956070,15473.620948,2932.347707,-268.399994,-848.632019,-447.496002,560.000000,420.000000,560.000000
9541.333859,14586.770783,1098.632943,2664.618512,6961.227293,4898.965943,10443.763190,-11407.190431,11440.271013,6757.915826,10084.838877,-4351.214093,-1609.258546,2919.316640,15403.458822,2845.533531,-264.496002,-845.703979,-446.032013,560.000000,280.000000,-560.000000
9568.960615,14616.722121,1149.505514,2683.997474,7028.707210,4903.056312,10441.393905,-11391.164230,11468.255397,6837.331574,10089.532744,-4317.954697,-1590.192508,2948.664480,15411.840726,2873.741433,-264.984009,-846.192017,-449.936005,840.000000,420.000000,-1260.000000
9634.585337,14855.192882,1329.325298,2840.035002,7250.101239,4954.845304,10552.191502,-11243.396848,11559.785790,6992.609142,10113.404407,-4158.407945,-1503.803015,3010.377647,15537.926917,3050.811952,-265.959991,-843.752014,-447.496002,1120.000000,840.000000,-2660.000000
9676.070175,15099.296284,1474.633989,3003.538013,7424.757770,5008.824767,10683.776222,-11099.786890,11637.614565,7077.389309,10138.907747,-4005.790234,-1422.934404,3046.609824,15683.213256,3229.581205,-264.496002,-844.728027,-446.520020,1120.000000,700.000000,-3640.000000
9642.497855,15102.626694,1434.892587,3008.187176,7365.145667,5011.216403,10697.656655,-11110.582782,11622.773006,7001.147509,10139.824169,-4008.405388,-1426.622442,3019.027772,15705.788518,3241.561740,-263.519989,-849.119995,-447.007996,1260.000000,980.000000,-4200.000000
9600.342464,14979.826210,1333.415667,2921.998849,7235.505549,4978.314636,10633.507148,-11191.831373,11566.156038,6913.036932,10122.836843,-4092.716168,-1475.148079,2982.639132,15636.922793,3152.825314,-260.592010,-848.143982,-449.447998,1120.000000,1120.000000,-5040.000000
9581.455240,14874.773011,1263.924094,2850.808543,7149.406630,4953.213627,10582.723985,-11246.816665,11521.184328,6856.084687,10106.363607,-4171.886047,-1521.170321,2958.499248,15569.398173,3065.295883,-262.544006,-850.583984,-448.959991,980.000000,1400.000000,-5320.000000
9560.936339,14756.554634,1191.325628,2771.191629,7060.759611,4926.771513,10524.542394,-11308.663941,11479.811249,6798.663056,10093.176078,-4257.448525,-1563.169248,2931.386582,15492.776393,2964.914199,-259.615997,-852.536011,-449.447998,1120.000000,1260.000000,-5740.000000
9538.361077,14611.760034,1109.115912,2676.084957,6962.411936,4898.004818,10448.702925,-11391.052472,11442.349725,6751.098544,10082.894276,-4343.279224,-1604.207051,2911.381771,15406.364549,2863.884314,-258.152008,-851.559998,-449.447998,700.000000,1120.000000,-5740.000000
9552.017993,14570.275196,1112.468673,2648.592311,6969.117459,4890.516983,10416.382303,-11415.371169,11449.882263,6790.504669,10084.525953,-4352.510494,-1605.995191,2928.614966,15380.257711,2846.539360,-260.104004,-854.488037,-448.472015,560.000000,980.000000,-5740.000000
9615.251078,14756.152303,1265.846344,2767.034205,7159.800191,4930.280737,10497.563839,-11302.539563,11528.001610,6938.920252,10105.022503,-4222.512749,-1536.816542,2988.651751,15474.805590,2983.734367,-258.152008,-852.536011,-448.472015,700.000000,980.000000,-5320.000000
9674.729070,15033.224527,1446.582549,2946.719879,7376.030967,4991.859793,10636.859910,-11139.304774,11623.264745,7066.660472,10134.057419,-4044.659918,-1445.062631,3037.602071,15625.277534,3178.038082,-254.736008,-855.463989,-453.839996,560.000000,700.000000,-5180.000000
9665.855427,15133.561508,1477.182088,3017.731371,7405.714083,5018.279555,10706.217373,-11087.068747,11643.560129,7044.576948,10146.663802,-3982.097385,-1414.619555,3032.841150,15702.771032,3259.957225,-256.687988,-855.952026,-451.888000,560.000000,420.000000,-4760.000000
9617.285087,15019.835832,1376.889810,2944.596463,7273.727032,4993.335008,10659.345765,-11163.355251,11590.519439,6944.329374,10135.398523,-4055.478162,-1458.808954,2993.367969,15656.458218,3186.621152,-254.248001,-856.928040,-450.912018,700.000000,0.000000,-4060.000000
9592.273485,14908.010055,1297.719931,2872.869715,7179.514430,4966.222342,10606.193317,-11227.594164,11542.731409,6881.744490,10117.450072,-4136.279718,-1507.491053,2966.769393,15592.308711,3098.465872,-253.760010,-858.880005,-453.839996,560.000000,-280.000000,-3500.000000
9575.822601,14800.542867,1226.417867,2804.786301,7099.249315,4942.887121,10553.957290,-11283.875857,11501.917124,6829.486111,10103.301418,-4214.376714,-1550.607568,2945.803457,15523.130062,3004.588545,-252.296005,-858.392029,-451.888000,560.000000,-280.000000,-2940.000000
9555.236644,14664.688964,1141.928272,2715.245213,7002.019227,4914.500405,10482.364652,-11359.983547,11463.785048,6773.226771,10089.152764,-4301.056779,-1595.065188,2923.943451,15441.009753,2899.267125,-250.832001,-859.856018,-450.912018,420.000000,-560.000000,-2240.000000
9554.968423,14577.293644,1104.310287,2657.823581,6961.003776,4896.887231,10426.172367,-11409.470309,11454.017336,6775.081965,10083.877752,-4344.642680,-1615.338220,2926.804474,15391.031252,2844.684165,-251.320007,-854.976013,-449.447998,420.000000,-420.000000,-1680.000000
9605.863345,14687.979482,1209.922279,2728.432742,7093.236696,4917.495539,10463.678594,-11341.990392,11510.813118,6891.847478,10097.869944,-4263.505848,-1568.578371,2971.418556,15445.569509,2929.732553,-251.807999,-855.952026,-450.424011,420.000000,-700.000000,-1120.000000
9673.253855,14962.905939,1400.359142,2909.414817,7326.767722,4975.811240,10598.392558,-11178.241513,11609.429015,7039.748971,10125.183776,-4088.268171,-1472.912904,3031.567100,15598.008406,3126.986698,-251.807999,-857.416016,-449.936005,560.000000,-840.000000,-560.000000
9685.614370,15145.385581,1493.744730,3035.948042,7437.453561,5020.827654,10704.004550,-11075.982282,11654.668946,7072.829553,10143.355744,-3976.263580,-1411.825587,3048.688537,15718.126681,3262.728842,-252.296005,-855.952026,-452.376007,140.000000,-1120.000000,280.000000
9629.019753,15069.859036,1404.650677,2986.193059,7325.136045,5006.924868,10674.612006,-11133.761541,11603.215230,6968.133982,10133.811549,-4028.030220,-1440.145247,3007.449568,15692.846858,3221.691039,-252.296005,-856.440002,-447.984009,140.000000,-1120.000000,700.000000
9593.793403,14951.931232,1317.322411,2903.804529,7216.975953,4979.186354,10614.374055,-11201.330865,11546.531206,6896.608400,10116.421892,-4111.066951,-1486.748634,2976.648864,15621.410682,3136.687355,-252.783997,-859.367981,-451.399994,-140.000000,-1400.000000,1400.000000
9579.577694,14847.392124,1254.446954,2831.027249,7136.599080,4956.454629,10559.768743,-11255.869121,11507.527412,6845.512312,10103.323770,-4189.923905,-1529.172245,2952.017242,15547.828740,3044.620519,-254.248001,-857.416016,-449.447998,-140.000000,-1540.000000,2240.000000
9553.135580,14713.661637,1171.365520,2743.184894,7038.541977,4928.582004,10493.093490,-11326.657096,11460.879321,6782.770965,10089.219819,-4283.108328,-1578.457842,2925.373963,15465.574320,2936.438076,-255.223999,-853.023987,-451.399994,-280.000000,-1820.000000,2800.000000
9533.421342,14582.211027,1103.215051,2658.695299,6957.181627,4902.698684,10423.981896,-11397.579181,11428.737513,6753.870160,10082.827220,-4359.283073,-1614.377095,2915.069808,15394.540476,2848.573369,-257.664001,-854.000000,-447.496002,-700.000000,-2100.000000,3360.000000
9567.194827,14612.765862,1151.897151,2676.375529,7022.381666,4907.124329,10426.351181,-11376.233265,11466.131981,6834.269385,10087.632845,-4326.202491,-1593.142938,2947.524541,15407.258619,2878.345892,-255.223999,-852.536011,-450.912018,-700.000000,-2380.000000,3920.000000
9636.351125,14854.477627,1329.660574,2834.670584,7243.574529,4957.080478,10541.663830,-11231.840996,11563.250311,6991.513907,10112.242116,-4167.728623,-1505.658210,3007.963658,15538.485710,3054.567046,-258.152008,-853.023987,-450.424011,-840.000000,-2520.000000,4200.000000
9683.759175,15107.745243,1482.166527,3002.778054,7422.455540,5013.026895,10675.394318,-11091.404985,11649.796265,7083.804260,10141.500549,-4009.835900,-1419.760456,3044.285243,15686.834238,3234.051553,-260.592010,-850.583984,-448.959991,-840.000000,-2520.000000,4620.000000
9653.830189,15117.177679,1449.108297,3009.952964,7369.973644,5016.580822,10693.543934,-11100.792718,11639.737980,7013.843300,10147.557872,-4003.733874,-1418.821683,3018.312516,15711.085881,3248.557836,-262.544006,-853.023987,-450.912018,-980.000000,-2660.000000,4480.000000
9608.970238,14991.694986,1350.023013,2924.569300,7243.753343,4984.215496,10635.317640,-11179.537914,11579.187105,6924.056342,10130.525843,-4084.088395,-1467.749651,2982.035635,15646.422284,3162.727137,-263.519989,-853.512024,-448.959991,-1400.000000,-2520.000000,4620.000000
9586.752604,14885.077165,1278.564486,2855.167133,7159.263749,4959.293301,10586.143802,-11236.445455,11531.600241,6865.740641,10112.465633,-4161.023100,-1514.420094,2956.822867,15580.082307,3076.002368,-264.496002,-851.559998,-449.447998,-1400.000000,-2660.000000,4480.000000
9565.853723,14766.545864,1205.518985,2779.752347,7073.522457,4936.069839,10531.203214,-11297.666883,11488.371967,6809.973038,10097.937000,-4242.830484,-1557.626016,2935.186378,15504.801632,2980.672178,-264.984009,-849.119995,-445.056000,-1680.000000,-2380.000000,4200.000000
9542.786723,14619.516089,1119.397714,2684.779785,6973.207828,4906.297315,10456.548388,-11378.848419,11449.144655,6760.776849,10085.688244,-4333.489160,-1600.206089,2915.092160,15421.071997,2879.374072,-264.984009,-851.559998,-447.007996,-1820.000000,-2240.000000,3920.000000
9551.481551,14571.839818,1112.178101,2651.118058,6969.720956,4894.830870,10419.489195,-11406.206954,11454.777295,6793.052768,10082.558999,-4352.622253,-1605.503452,2929.576091,15392.729985,2856.329424,-265.959991,-849.119995,-448.959991,-1400.000000,-1960.000000,3640.000000
9617.642715,14760.063858,1266.405137,2771.906885,7157.319147,4932.560615,10496.736824,-11295.834040,11539.579813,6942.809456,10103.167308,-4223.317411,-1535.989527,2989.188193,15485.959111,2992.116272,-266.936005,-850.096008,-446.520020,-1400.000000,-1680.000000,3080.000000
9676.986596,15039.125388,1449.309462,2959.952111,7382.065938,4996.240735,10642.939585,-11127.301887,11631.914870,7069.499143,10131.106988,-4045.509284,-1441.843980,3042.027717,15646.399933,3194.824242,-268.399994,-851.559998,-448.959991,-1400.000000,-1540.000000,2520.000000
9665.654262,15139.440017,1479.171393,3032.461170,7415.705313,5024.292174,10711.425330,-11076.496372,11646.398800,7046.007460,10143.892186,-3982.834993,-1408.137549,3038.674955,15727.983800,3275.335226,-267.912018,-852.536011,-447.007996,-1260.000000,-1120.000000,2100.000000
9616.145148,15026.943687,1373.402938,2958.454544,7285.238181,4995.570182,10661.960919,-11154.682774,11589.357148,6940.373116,10130.279974,-4054.852313,-1452.505762,2999.022961,15677.357099,3199.965143,-268.399994,-852.048035,-445.544006,-840.000000,-840.000000,1540.000000
9589.859496,14915.497889,1292.780196,2879.999921,7188.253962,4966.088231,10604.963971,-11218.988743,11539.222186,6877.318844,10111.728026,-4132.994012,-1499.377370,2969.496306,15601.629389,3107.205404,-267.424011,-855.463989,-446.520020,-980.000000,-700.000000,1120.000000
9570.547589,14803.694463,1224.406210,2802.439368,7106.021894,4943.401211,10548.101133,-11271.224769,11495.770394,6823.518196,10093.734872,-4213.415589,-1541.018670,2943.702393,15524.381760,3013.886871,-267.424011,-853.512024,-445.056000,-840.000000,-140.000000,700.000000
9552.912063,14666.544159,1140.765982,2708.897318,7005.148471,4915.997972,10474.765059,-11346.214872,11457.191283,6768.443497,10083.676587,-4301.861441,-1585.006903,2920.702448,15438.975744,2908.341933,-265.472015,-853.512024,-447.984009,-700.000000,140.000000,280.000000
9553.649670,14579.908798,1103.036237,2651.609796,6961.271997,4897.915411,10421.813777,-11396.305131,11447.244757,6771.684500,10080.547342,-4345.760267,-1606.911612,2922.848215,15390.472459,2853.043718,-265.472015,-851.072021,-446.520020,-280.000000,560.000000,-140.000000
9599.604857,14684.582017,1204.066122,2721.146073,7086.039434,4918.747237,10460.303481,-11332.826177,11499.614894,6883.242057,10092.594933,-4267.819735,-1563.392766,2966.858800,15445.413047,2933.733515,-265.472015,-850.096008,-445.056000,-140.000000,980.000000,-700.000000
9667.107125,14956.021602,1395.285296,2902.508128,7317.491748,4976.906476,10594.928038,-11171.804210,11599.683654,7031.702343,10120.512261,-4091.285657,-1466.430898,3024.325135,15597.650778,3128.104285,-264.496002,-854.976013,-447.496002,280.000000,1260.000000,-840.000000
9688.967131,15144.066828,1497.321009,3028.951946,7430.569223,5022.124055,10702.976370,-11067.600378,11658.401687,7074.640045,10143.154579,-3972.955522,-1403.018999,3041.781848,15714.572753,3265.276940,-264.984009,-853.023987,-446.520020,280.000000,1680.000000,-1120.000000
9646.543520,15079.582045,1417.905261,2986.505984,7322.744408,5008.131863,10678.836486,-11121.937468,11625.231698,6979.823945,10138.483064,-4014.172138,-1428.321174,3006.063760,15694.500887,3223.859158,-264.984009,-853.512024,-447.007996,560.000000,1960.000000,-1120.000000
9608.858479,14959.463770,1326.665440,2906.576145,7214.271392,4977.375862,10621.928945,-11193.127774,11567.385384,6904.833842,10118.545308,-4096.627724,-1477.271495,2976.045367,15627.468005,3135.078029,-262.544006,-852.536011,-448.472015,280.000000,2520.000000,-1400.000000
9586.327921,14852.085990,1258.604379,2837.375145,7134.967403,4952.900702,10572.196313,-11245.922595,11518.993857,6845.042925,10100.775671,-4177.853963,-1523.584309,2950.854951,15558.155246,3044.106429,-263.519989,-851.559998,-449.936005,560.000000,2800.000000,-1400.000000
9556.957729,14715.069796,1174.673578,2749.801010,7034.742181,4925.184539,10504.492879,-11316.174128,11468.076583,6781.139288,10084.861229,-4270.568999,-1571.037063,2923.474064,15473.978576,2937.555663,-258.640015,-853.023987,-450.912018,560.000000,2800.000000,-1400.000000
9538.316374,14578.254769,1100.510490,2662.495096,6947.078639,4896.507251,10429.055742,-11395.522820,11433.006696,6748.237520,10076.747546,-4350.610596,-1605.436397,2912.186433,15397.088575,2846.271139,-261.080017,-852.048035,-447.984009,840.000000,3220.000000,-980.000000
9570.100554,14603.221667,1149.930197,2677.917800,7011.898698,4899.681199,10427.401713,-11382.357643,11463.405068,6828.457931,10085.174153,-4321.396866,-1584.425757,2944.395297,15406.073976,2873.741433,-260.592010,-854.000000,-452.864014,700.000000,3360.000000,-700.000000
9644.464808,14847.459179,1333.102743,2837.330441,7239.081828,4952.654833,10544.122522,-11233.830301,11565.753706,6992.832660,10113.404407,-4157.290358,-1494.191765,3006.510795,15538.105731,3052.041298,-256.687988,-855.463989,-452.864014,840.000000,3640.000000,-560.000000
9686.061404,15096.591723,1481.987713,3001.705170,7420.287421,5010.478796,10676.511905,-11087.806354,11646.175283,7082.284341,10140.315907,-3999.196470,-1412.116159,3042.988842,15681.536875,3229.067114,-259.615997,-854.976013,-450.424011,980.000000,3920.000000,-280.000000
9648.443419,15104.459537,1445.464962,3013.193967,7373.013481,5016.379656,10699.981236,-11090.846192,11625.522271,7008.456529,10140.673535,-3992.870926,-1413.211395,3018.714847,15712.426986,3248.356670,-259.127991,-851.072021,-451.399994,980.000000,4060.000000,0.000000
9605.796290,14983.335433,1345.932644,2934.202902,7250.816494,4988.372921,10647.722858,-11165.076335,11564.457305,6919.697752,10122.434511,-4073.270151,-1461.088832,2984.807251,15656.815846,3165.789326,-258.640015,-854.000000,-450.424011,840.000000,4480.000000,0.000000
9583.779822,14875.935301,1271.993073,2861.157401,7164.650519,4962.444897,10595.755052,-11221.223917,11515.551688,6860.733850,10106.967104,-4153.535265,-1506.373466,2958.074565,15586.296092,3076.225886,-257.175995,-852.048035,-447.984009,980.000000,4760.000000,140.000000
9564.110287,14758.342774,1199.819291,2784.334455,7078.439841,4937.321536,10538.087551,-11280.947778,11475.966749,6806.128538,10091.633808,-4237.689583,-1550.942844,2934.515826,15512.065948,2979.219315,-257.664001,-854.000000,-453.352020,700.000000,4480.000000,140.000000
9536.572938,14614.710464,1118.727162,2689.205431,6980.248628,4909.560670,10462.404545,-11359.782381,11432.224385,6756.060631,10076.680491,-4328.080038,-1594.998133,2916.276803,15429.588011,2877.854154,-256.687988,-853.512024,-450.424011,280.000000,4760.000000,140.000000
9543.166702,14561.870940,1113.005115,2652.325052,6976.180610,4897.915411,10423.043123,-11389.778422,11431.822053,6786.347245,10077.418098,-4346.609634,-1600.250793,2929.330221,15397.759127,2851.993186,-260.592010,-853.512024,-455.304016,280.000000,4620.000000,140.000000
9612.211241,14742.003649,1263.924094,2770.252856,7159.733136,4934.214644,10502.056539,-11280.433688,11519.150319,6935.858063,10101.937962,-4221.171644,-1532.457952,2986.997722,15494.229256,2984.427271,-256.687988,-854.488037,-451.888000,280.000000,4620.000000,280.000000
9682.619236,15026.898983,1449.398869,2958.007509,7381.529496,4996.218383,10643.766599,-11116.327180,11630.685524,7073.924789,10133.699791,-4040.010755,-1437.820666,3038.563196,15651.451427,3178.999207,-259.127991,-855.952026,-452.376007,140.000000,4620.000000,0.000000
9677.813611,15135.461406,1482.501803,3031.969432,7417.068770,5024.158063,10711.671199,-11062.750049,11658.111114,7057.742126,10143.288689,-3971.949693,-1403.600145,3034.383420,15728.229669,3259.107859,-257.664001,-854.488037,-450.912018,-280.000000,4200.000000,140.000000
9625.599936,15020.618143,1377.381549,2954.990024,7283.494745,4998.855889,10661.938567,-11140.377657,11599.974227,6952.532465,10129.184738,-4045.688098,-1447.186047,2993.859708,15676.083049,3184.229515,-257.175995,-856.440002,-454.816010,-140.000000,4200.000000,140.000000
9595.559191,14902.288008,1295.395350,2875.909552,7183.716557,4969.440993,10603.064072,-11207.857574,11543.759590,6884.314940,10109.783424,-4129.082457,-1495.935201,2963.304873,15599.237752,3088.876973,-255.712006,-855.952026,-450.424011,-560.000000,4060.000000,0.000000
9578.482458,14796.608960,1228.809503,2804.875708,7103.965533,4944.831722,10548.592871,-11261.859389,11503.682912,6832.615356,10093.243133,-4207.827652,-1539.565806,2937.510960,15522.504213,2995.938420,-256.687988,-854.488037,-451.888000,-560.000000,3920.000000,0.000000
9553.292042,14653.401333,1145.124572,2711.668934,7000.633419,4918.188443,10474.653301,-11342.683297,11458.644147,6771.684500,10081.776688,-4300.229764,-1585.275124,2913.169910,15437.522881,2889.074730,-256.687988,-855.952026,-451.399994,-700.000000,3640.000000,0.000000
9547.078257,14557.154722,1106.254888,2654.962558,6958.120401,4901.424635,10421.344390,-11398.406195,11441.880338,6770.008119,10076.076993,-4348.218959,-1607.135130,2916.589727,15391.411232,2831.720153,-253.272003,-857.903992,-451.888000,-700.000000,3500.000000,0.000000
9591.982912,14660.688002,1203.529680,2724.476483,7084.698330,4919.350734,10459.811742,-11335.441331,11494.295179,6880.649254,10084.995340,-4271.999511,-1564.912685,2961.315568,15443.468445,2912.387599,-255.712006,-857.416016,-450.912018,-840.000000,3640.000000,0.000000
9662.145038,14936.061494,1393.832432,2905.838538,7319.257536,4975.028929,10593.721043,-11172.027728,11599.393082,7034.786884,10116.399540,-4095.443081,-1470.945951,3021.441760,15593.605112,3106.467796,-256.200012,-854.000000,-455.304016,-1120.000000,3500.000000,0.000000
9684.407375,15133.069770,1495.085835,3039.278452,7438.861720,5018.212499,10702.194059,-11063.800581,11658.021707,7079.602132,10139.801817,-3973.871943,-1409.948040,3042.161827,15717.970218,3249.138981,-257.664001,-855.952026,-451.888000,-1120.000000,3220.000000,280.000000
9632.819549,15064.338155,1409.255136,2996.251344,7329.114655,5001.649857,10681.965730,-11116.014256,11609.786643,6974.504229,10128.782407,-4019.715371,-1439.497046,3004.499138,15703.530991,3213.376190,-255.712006,-854.000000,-454.328003,-1260.000000,3360.000000,280.000000
9602.823508,14948.422009,1320.116379,2916.679134,7219.144072,4972.033795,10626.041666,-11185.125850,11558.645851,6901.503432,10111.325694,-4100.226355,-1485.742806,2972.647902,15636.676924,3125.869110,-259.127991,-858.880005,-451.888000,-840.000000,3360.000000,420.000000
9585.545610,14844.665211,1249.864846,2843.097191,7136.576728,4949.056202,10572.017499,-11238.568871,11517.608049,6847.166341,10095.277142,-4178.099832,-1527.249995,2944.551759,15559.161074,3035.769228,-258.152008,-856.928040,-456.279999,-980.000000,3080.000000,420.000000
9558.656461,14707.291389,1166.157563,2752.594978,7037.893777,4924.268117,10502.660036,-11309.759177,11468.411859,6784.782622,10083.497773,-4270.121964,-1571.819374,2918.131997,15474.269149,2928.391448,-257.175995,-857.903992,-454.328003,-840.000000,3080.000000,560.000000
9547.212368,14584.423850,1101.918650,2674.050948,6966.547008,4901.491690,10435.761265,-11377.350852,11442.260318,6759.033413,10078.870962,-4337.154846,-1600.630772,2911.873509,15405.783404,2845.667642,-256.200012,-855.952026,-452.864014,-840.000000,3220.000000,840.000000
9576.694319,14608.899010,1145.258682,2688.981913,7028.036657,4905.515004,10434.308402,-11360.318823,11474.916217,6831.654231,10083.274255,-4308.254040,-1580.134223,2943.300062,15416.802814,2872.422680,-257.664001,-855.952026,-451.888000,-700.000000,3080.000000,700.000000
9643.973070,14846.051019,1323.692658,2842.605453,7247.776657,4953.884179,10540.568595,-11216.194775,11567.072459,6989.949285,10108.263505,-4153.445858,-1493.409454,3004.365027,15543.179577,3043.055897,-258.152008,-854.976013,-452.376007,-420.000000,2940.000000,980.000000
9680.339358,15093.931865,1477.740881,3008.231879,7426.568261,5010.836424,10672.130963,-11068.360337,11638.486283,7078.864524,10134.638564,-3998.995304,-1409.992744,3043.502932,15690.634035,3222.987440,-256.200012,-849.608032,-449.447998,-280.000000,2940.000000,1120.000000
9645.761209,15108.281685,1446.582549,3024.615708,7379.786060,5018.570127,10695.265018,-11069.097944,11621.409550,7007.428349,10137.298422,-3989.384054,-1409.299840,3020.123007,15725.033370,3244.154542,-258.640015,-853.023987,-452.864014,140.000000,2940.000000,1120.000000
9604.701055,14985.704718,1345.597368,2942.137771,7252.381116,4985.958932,10634.043590,-11151.330012,11563.406773,6919.384828,10120.378151,-4071.079680,-1459.010119,2981.745062,15660.839160,3156.066317,-262.056000,-852.536011,-452.376007,-140.000000,3360.000000,1120.000000
9582.237551,14876.225874,1274.272951,2864.800735,7159.442563,4957.706327,10575.482020,-11210.495080,11516.289296,6859.839780,10100.730968,-4155.390460,-1504.540623,2952.061945,15585.089098,3064.401813,-258.640015,-852.536011,-453.839996,0.000000,3500.000000,1400.000000
9566.904255,14761.561425,1205.049599,2785.586153,7069.745012,4933.968775,10512.114824,-11272.118839,11479.341862,6803.871012,10089.063357,-4238.851874,-1548.506504,2927.653841,15504.935742,2964.690681,-263.032013,-851.072021,-450.912018,0.000000,3640.000000,1680.000000
9549.693412,14617.996170,1122.839883,2689.540707,6968.670424,4904.889155,10430.732123,-11357.167227,11445.948356,6754.384250,10081.173191,-4328.415314,-1594.349932,2907.626677,15419.149747,2857.312901,-261.080017,-848.143982,-452.376007,420.000000,3500.000000,1820.000000
9561.942168,14569.112905,1117.721333,2657.823581,6967.396375,4894.048559,10393.024730,-11384.592817,11452.095086,6789.543544,10080.793212,-4348.062497,-1603.357685,2921.283593,15392.126488,2833.977679,-258.640015,-849.119995,-452.376007,280.000000,3640.000000,1680.000000
9624.951735,14743.300050,1264.237018,2770.342263,7147.573787,4929.431370,10470.071193,-11276.142153,11530.952040,6935.254566,10099.255752,-4226.804283,-1538.045888,2974.927780,15483.768640,2966.635283,-259.127991,-849.608032,-451.399994,140.000000,3640.000000,2240.000000
9682.686291,15018.539431,1444.973224,2952.017242,7367.492600,4990.429281,10612.787081,-11109.509898,11625.924602,7062.190123,10123.865023,-4052.639491,-1445.196741,3025.822702,15641.817825,3166.370471,-260.104004,-850.096008,-452.376007,-140.000000,3920.000000,1960.000000
9676.874838,15137.294249,1485.362826,3038.049106,7413.291325,5020.693543,10691.979312,-11049.763685,11653.350193,7049.382573,10139.175968,-3978.543458,-1407.064665,3029.533092,15734.242288,3260.895999,-263.519989,-851.072021,-454.328003,-700.000000,4060.000000,2100.000000
9626.873985,15031.972829,1385.227011,2969.630417,7283.852373,4995.547831,10648.169893,-11129.201785,11599.236619,6944.709354,10128.335372,-4048.057383,-1448.929483,2990.976333,15688.376509,3189.325713,-265.959991,-850.096008,-451.399994,-700.000000,4340.000000,1960.000000
9598.576677,14918.425968,1306.392408,2893.165099,7189.617418,4968.993958,10595.218610,-11193.351292,11541.703229,6881.029234,10109.336389,-4131.988183,-1494.527041,2961.695547,15619.935467,3100.879860,-262.544006,-850.096008,-447.984009,-980.000000,4340.000000,2240.000000
9580.672929,14813.193955,1235.403268,2826.132217,7110.961629,4947.513932,10545.620089,-11246.101409,11498.474955,6827.295640,10091.432642,-4214.242603,-1539.051716,2937.086277,15551.807350,3010.109426,-262.056000,-852.048035,-451.399994,-1260.000000,4060.000000,2380.000000
9561.584540,14677.049479,1147.963243,2739.318042,7010.915221,4921.764722,10478.184876,-11319.616296,11460.186417,6770.298692,10079.183886,-4304.521299,-1586.571525,2915.360381,15470.335242,2905.570317,-261.080017,-849.119995,-450.424011,-1540.000000,4200.000000,2240.000000
9554.499037,14578.277120,1103.706789,2671.324035,6957.785125,4900.798786,10417.678704,-11378.691957,11445.680135,6766.074212,10074.042985,-4357.204361,-1612.656011,2915.561547,15409.314979,2839.140932,-262.544006,-850.096008,-449.936005,-1820.000000,4340.000000,2240.000000
9596.743834,14672.780296,1199.193442,2729.505626,7076.808164,4917.182614,10448.702925,-11323.438445,11496.016263,6876.424775,10085.732947,-4285.701130,-1572.802850,2956.778164,15453.370268,2912.141730,-260.104004,-853.512024,-451.888000,-2100.000000,4200.000000,2100.000000
9666.660090,14942.521148,1390.189098,2907.201994,7310.450949,4971.363243,10578.857133,-11165.232797,11595.392119,7028.975431,10115.036084,-4109.725846,-1478.702006,3015.116217,15599.371862,3104.366732,-262.544006,-852.048035,-450.424011,-1960.000000,3920.000000,2100.000000
9688.385986,15139.149444,1495.510518,3040.708964,7432.670287,5017.318430,10687.196039,-11054.390497,11652.478475,7073.254236,10138.214843,-3982.075033,-1413.412561,3034.897510,15719.400730,3248.066097,-260.104004,-852.536011,-451.888000,-2240.000000,3920.000000,1960.000000
9637.736933,15072.965929,1415.670087,3003.582716,7323.213795,5003.505052,10668.621739,-11109.219326,11611.306561,6973.811325,10131.174044,-4020.251813,-1440.212302,2998.330056,15702.614570,3212.616231,-261.080017,-855.463989,-453.839996,-2660.000000,3920.000000,1820.000000
9601.884735,14952.825302,1324.564376,2924.971631,7208.951677,4973.553714,10609.724892,-11182.711861,11557.058878,6900.072920,10112.130357,-4104.607297,-1488.089739,2965.383585,15633.100645,3123.812750,-256.687988,-852.048035,-454.328003,-3080.000000,4900.000000,1260.000000
9582.773993,14842.899423,1255.586893,2849.601549,7124.685600,4947.759801,10552.347964,-11239.619403,11512.869479,6843.768876,10097.489965,-4189.432167,-1532.927338,2936.751000,15555.785961,3027.767304,-258.640015,-854.488037,-451.888000,-3500.000000,5180.000000,840.000000
9563.238569,14717.036750,1181.937895,2766.207190,7033.982221,4923.552862,10491.372405,-11305.668808,11473.061022,6787.308370,10086.381148,-4278.727386,-1577.519068,2915.203919,15479.141829,2927.743247,-259.615997,-853.512024,-451.888000,-3500.000000,5040.000000,560.000000
9545.893615,14586.726080,1113.116874,2682.946942,6952.979499,4898.809481,10424.987724,-11376.702652,11441.500359,6753.780753,10076.456973,-4354.365689,-1612.074865,2905.056227,15411.058415,2840.660851,-260.104004,-854.000000,-452.864014,-3500.000000,4900.000000,560.000000
9573.296854,14603.534592,1158.915598,2695.307457,7011.585773,4901.692856,10421.970239,-11361.637576,11465.528484,6825.485149,10079.809735,-4328.571776,-1593.321752,2935.544006,15419.306209,2864.688976,-258.152008,-847.168030,-451.399994,-3500.000000,4760.000000,560.000000
9645.202416,14842.407685,1343.295138,2849.690956,7232.644526,4950.687879,10529.795054,-11218.385246,11562.445648,6984.786032,10103.189659,-4169.069728,-1505.971134,3000.051141,15541.503196,3035.992746,-257.664001,-852.048035,-449.936005,-3080.000000,4200.000000,980.000000
9692.521059,15101.933789,1500.941992,3024.436894,7422.142616,5008.601249,10667.325338,-11064.314671,11650.153893,7081.546734,10130.101160,-4006.080807,-1417.145302,3041.088944,15691.237532,3222.003963,-257.664001,-847.656006,-451.399994,-2660.000000,4060.000000,840.000000
9656.802971,15116.618886,1471.370634,3037.400906,7378.333196,5014.815034,10689.162992,-11067.443915,11633.814768,7012.859823,10132.671610,-3996.760130,-1411.624421,3017.016115,15718.976047,3242.120533,-260.104004,-847.656006,-448.472015,-2660.000000,4200.000000,700.000000
9607.673837,14993.460774,1369.871362,2954.520637,7253.275186,4983.679054,10632.300154,-11151.888806,11566.491314,6921.172967,10115.460767,-4077.494631,-1460.485334,2981.610952,15657.262880,3157.966215,-257.664001,-847.168030,-446.032013,-2520.000000,4480.000000,700.000000
9583.332787,14887.804078,1295.104777,2884.358511,7169.187924,4957.885141,10581.338177,-11209.712769,11516.445758,6863.617225,10097.467613,-4156.262178,-1508.206309,2956.442887,15591.191124,3069.743880,-257.664001,-846.192017,-449.936005,-2100.000000,4480.000000,560.000000
9563.171513,14763.506027,1215.778436,2799.891269,7075.712928,4932.515911,10519.379141,-11271.180066,11475.363252,6807.179070,10084.615360,-4244.238644,-1555.055565,2928.167931,15508.288504,2969.295140,-256.200012,-847.656006,-447.496002,-1680.000000,4900.000000,280.000000
9545.737153,14618.666723,1130.551235,2696.559155,6972.537276,4901.804614,10436.834149,-11354.395611,11443.310850,6759.838076,10075.115868,-4334.293823,-1599.446130,2907.403160,15413.293590,2862.654968,-255.712006,-847.656006,-449.936005,-1400.000000,4760.000000,280.000000
9561.651595,14573.851475,1124.382153,2665.646692,6970.302101,4891.679274,10399.618494,-11382.268236,11454.330260,6794.349169,10075.942883,-4349.805933,-1604.899955,2922.244718,15384.482191,2839.297395,-256.687988,-848.632019,-449.447998,-1260.000000,5040.000000,0.000000
9620.704904,14745.959907,1264.684053,2781.361673,7149.227816,4928.649059,10474.787411,-11271.627101,11526.213470,6933.645241,10090.583276,-4231.788722,-1540.236359,2979.912219,15475.766715,2971.418556,-254.248001,-846.192017,-451.399994,-1820.000000,5460.000000,-140.000000
9676.472506,15021.020475,1445.777887,2967.954036,7371.538266,4988.350569,10618.509128,-11104.368997,11616.112186,7059.194989,10114.164366,-4057.311005,-1448.258930,3030.002478,15635.916965,3171.869000,-256.687988,-846.192017,-447.496002,-2240.000000,5320.000000,140.000000
9674.036166,15137.920098,1489.475547,3050.633138,7415.772368,5018.547776,10695.332074,-11043.616956,11644.342440,7050.388402,10131.844596,-3980.868039,-1407.511700,3028.594318,15722.194698,3263.511153,-254.736008,-844.728027,-451.399994,-2800.000000,4760.000000,280.000000
9624.080017,15029.491786,1383.885906,2980.582771,7283.606503,4994.027912,10647.387582,-11123.926774,11592.598151,6948.084467,10120.020523,-4051.320738,-1448.236578,2987.400053,15674.496075,3190.286838,-256.200012,-844.239990,-448.472015,-3640.000000,4340.000000,560.000000
9602.465880,14923.321000,1302.190280,2910.532404,7190.623247,4968.681034,10595.308017,-11186.623417,11548.766380,6888.897048,10105.693055,-4128.188387,-1490.548431,2961.919065,15610.570086,3107.294811,-256.687988,-843.264038,-447.984009,-4200.000000,4060.000000,1120.000000
9581.969331,14815.250315,1230.262367,2839.297395,7109.218193,4944.049411,10541.395610,-11239.462941,11502.766490,6830.313126,10085.867058,-4211.716856,-1535.587196,2935.119323,15537.368123,3017.217281,-256.687988,-844.239990,-449.936005,-4760.000000,3920.000000,1260.000000
9557.360060,14673.920235,1144.364613,2743.810742,7006.444872,4913.382818,10464.349146,-11321.203270,11459.225292,6771.081003,10073.774764,-4306.756473,-1580.715368,2908.185471,15448.810512,2909.727741,-255.712006,-846.192017,-448.959991,-5180.000000,3780.000000,1400.000000
9549.045211,14568.867036,1097.493005,2673.961541,6953.158313,4889.399396,10400.892544,-11385.531591,11442.103856,6764.666052,10067.695089,-4362.188800,-1607.403351,2903.871584,15388.080822,2844.170075,-256.200012,-843.264038,-448.472015,-5180.000000,3780.000000,1540.000000
9591.222953,14659.793932,1187.347017,2732.523111,7071.600207,4906.967867,10432.944945,-11324.936011,11492.842316,6872.222647,10076.501677,-4292.786633,-1571.662911,2945.959919,15435.265355,2921.462407,-255.712006,-845.703979,-451.399994,-5740.000000,3640.000000,1680.000000
9665.296634,14933.379285,1380.399034,2912.409951,7309.467472,4964.925941,10564.172037,-11161.947091,11597.984922,7030.607108,10108.107043,-4113.324477,-1475.237486,3007.896603,15584.105621,3116.459026,-256.200012,-847.168030,-449.936005,-6160.000000,4200.000000,1680.000000
9687.246047,15132.063941,1492.202460,3044.888740,7433.787874,5011.216403,10673.606178,-11050.568348,11653.037268,7077.724585,10130.905823,-3985.584257,-1405.164767,3029.175464,15703.978026,3258.012624,-254.736008,-845.703979,-449.936005,-6720.000000,4340.000000,1680.000000
9636.954622,15072.518894,1418.866386,3011.115254,7335.037867,5002.499223,10659.904559,-11095.227134,11610.568954,6978.952227,10124.155596,-4021.838787,-1426.533035,2997.257173,15692.578637,3226.384905,-254.248001,-843.752014,-451.888000,-7420.000000,4900.000000,1540.000000
9602.085901,14960.044916,1333.750943,2938.092105,7226.631907,4974.045452,10607.936753,-11164.919873,11556.589491,6905.079711,10106.117738,-4100.852203,-1473.628160,2964.936550,15631.021932,3138.497846,-256.200012,-845.216003,-454.328003,-7980.000000,5320.000000,1540.000000
9576.940188,14848.241490,1258.470268,2863.727851,7137.202577,4950.196141,10553.979642,-11220.441606,11506.476880,6844.260614,10085.420023,-4186.638199,-1521.416190,2936.371021,15554.802484,3042.295938,-257.664001,-845.216003,-451.399994,-8540.000000,5600.000000,1540.000000
9556.242473,14716.880288,1174.047729,2778.612408,7039.503102,4924.312821,10489.360748,-11288.882648,11466.579016,6787.867163,10073.998281,-4275.754604,-1566.499658,2913.974573,15471.452829,2937.935643,-256.687988,-845.703979,-452.376007,-8820.000000,5460.000000,1540.000000
9543.881958,14590.950559,1105.427874,2694.748663,6959.282691,4899.278867,10421.746721,-11361.302300,11438.974612,6758.161695,10067.248054,-4349.761230,-1600.541365,2904.922116,15397.245037,2850.383860,-256.687988,-843.264038,-451.888000,-8540.000000,5740.000000,1680.000000
9571.039328,14602.037025,1145.146924,2699.889565,7010.244669,4901.581097,10411.397864,-11354.619128,11465.081449,6826.602736,10072.456011,-4327.767113,-1583.241115,2932.012431,15395.635712,2867.371186,-256.200012,-842.776001,-454.816010,-8400.000000,5740.000000,1680.000000
9642.766075,14835.880975,1322.396257,2854.250712,7229.917613,4950.687879,10518.820348,-11212.462033,11561.372764,6981.075642,10095.187735,-4169.919094,-1498.773873,2993.189155,15521.297219,3036.640946,-255.712006,-843.264038,-450.424011,-8120.000000,5740.000000,1400.000000
9684.474431,15089.617978,1477.629122,3026.381496,7418.722799,5008.042456,10654.651899,-11062.191255,11637.323992,7072.673091,10118.768825,-4009.791197,-1414.798369,3035.009269,15673.222026,3220.662859,-257.664001,-842.288025,-451.888000,-7140.000000,5460.000000,1680.000000
9644.218939,15099.296284,1443.654471,3035.925691,7372.767612,5011.886956,10672.712108,-11068.494447,11614.815785,7003.561497,10119.618192,-4004.672647,-1413.770189,3008.075417,15698.188925,3240.980594,-254.736008,-838.384033,-452.376007,-6440.000000,5040.000000,1820.000000
9603.069377,14971.712526,1337.371926,2947.770411,7238.880663,4978.605208,10608.652009,-11155.107457,11559.361107,6913.349857,10108.598782,-4091.039788,-1464.307483,2966.679986,15629.077331,3151.953596,-258.152008,-842.776001,-453.839996,-5180.000000,4340.000000,2100.000000
9585.791479,14864.535912,1263.745280,2874.009654,7151.887673,4952.543074,10556.147761,-11209.288086,11518.882098,6857.492847,10092.572581,-4172.087213,-1509.502710,2939.634376,15559.228129,3066.346415,-259.615997,-845.216003,-449.447998,-4060.000000,3640.000000,2520.000000
9567.083069,14752.508968,1193.225526,2803.154624,7069.521495,4929.632536,10506.638647,-11262.038203,11480.034766,6804.832137,10079.608569,-4252.195865,-1553.490943,2918.288460,15492.731690,2976.805327,-258.152008,-842.288025,-450.912018,-2380.000000,2100.000000,3080.000000
9545.111304,14614.419891,1111.015810,2716.586318,6970.480915,4902.721036,10438.175254,-11337.385933,11442.148559,6753.378421,10067.493924,-4337.199549,-1596.853327,2901.614058,15416.735758,2875.842497,-257.664001,-843.752014,-448.959991,-1680.000000,1960.000000,3500.000000
9560.869284,14570.744583,1108.981801,2687.037311,6968.625721,4892.886268,10403.083015,-11368.454858,11451.893920,6786.168431,10069.013842,-4354.097468,-1601.882470,2916.455617,15389.757203,2845.175903,-257.175995,-844.239990,-452.376007,-1260.000000,2240.000000,3500.000000
9628.058628,14747.591585,1256.078631,2802.640534,7150.412458,4929.543129,10477.134344,-11265.525075,11534.483616,6934.181682,10092.058491,-4232.258109,-1534.894292,2974.570152,15475.766715,2969.518658,-256.687988,-847.168030,-456.279999,-840.000000,3500.000000,3220.000000
9679.065308,15017.488899,1436.501913,2979.375777,7367.649063,4988.752900,10612.116529,-11100.859773,11618.526175,7059.329100,10114.544346,-4060.797877,-1443.319195,3025.107446,15622.058883,3161.766012,-253.760010,-847.656006,-456.768005,-1540.000000,4620.000000,2660.000000
9669.185837,15133.136825,1481.943009,3058.970339,7412.307848,5018.726590,10684.267960,-11038.900738,11635.737018,7048.332041,10129.430607,-3990.948676,-1403.957773,3023.095789,15704.290951,3249.921292,-255.712006,-846.679993,-460.671997,-2660.000000,5040.000000,2380.000000
9619.810834,15029.245917,1383.282409,2991.557478,7286.020492,4994.251429,10640.235024,-11111.521555,11583.590398,6943.502360,10117.606535,-4061.267264,-1444.995576,2983.868478,15661.710878,3182.955466,-256.687988,-844.728027,-456.279999,-3920.000000,4900.000000,2520.000000
9596.877944,14923.432758,1305.118359,2919.428399,7192.880773,4968.591627,10588.177811,-11171.960672,11538.551633,6882.504449,10101.066244,-4137.911396,-1489.050864,2958.029861,15598.008406,3099.315238,-259.127991,-844.728027,-459.696014,-5740.000000,4480.000000,2940.000000
9580.896447,14818.960705,1231.826989,2847.254616,7110.849871,4944.965833,10537.662868,-11224.911955,11498.877287,6827.183882,10084.838877,-4217.640068,-1533.284966,2931.923024,15526.594582,3006.734312,-258.152008,-841.799988,-456.768005,-7000.000000,3780.000000,3640.000000
9558.522351,14678.837619,1145.035165,2751.835019,7007.473052,4915.617992,10466.561969,-11303.120709,11458.465333,6768.756422,10072.433659,-4311.137415,-1579.463670,2907.201994,15441.389733,2900.183547,-257.175995,-840.824036,-453.839996,-7280.000000,3080.000000,4200.000000
9551.369792,14574.007937,1097.649467,2682.119928,6954.432363,4893.690931,10405.944038,-11364.967986,11438.840501,6761.581512,10067.806848,-4368.469640,-1604.274107,2905.637372,15382.895217,2835.899930,-260.104004,-841.799988,-454.816010,-7840.000000,2380.000000,4760.000000
9594.463956,14662.856121,1188.084625,2740.390925,7070.482620,4911.728789,10438.398771,-11310.630895,11486.472069,6867.953464,10077.887485,-4301.749683,-1566.209086,2951.726669,15426.704636,2909.370114,-260.592010,-844.728027,-456.768005,-7700.000000,1820.000000,5320.000000
9665.855427,14933.669857,1380.063758,2918.176701,7304.281867,4970.268008,10568.530627,-11150.301832,11588.328968,7022.314611,10106.095386,-4125.930861,-1469.493087,3013.953926,15572.370955,3103.629125,-257.175995,-842.776001,-455.304016,-8120.000000,1260.000000,5880.000000
9691.448175,15139.909403,1491.263687,3053.829438,7433.944337,5015.418531,10679.238818,-11036.754970,11650.735039,7071.711966,10128.983573,-3996.804833,-1400.023866,3037.244444,15696.154916,3250.636548,-259.127991,-840.824036,-457.744019,-8680.000000,1260.000000,6580.000000
9642.050820,15081.146667,1413.278450,3018.401923,7331.908623,5002.767444,10665.447791,-11084.900628,11611.932410,6971.464392,10123.842671,-4032.455865,-1424.074343,3002.353370,15687.258922,3220.640507,-256.200012,-838.872009,-453.352020,-9240.000000,1400.000000,6720.000000
9600.230706,14951.215977,1316.473045,2933.308832,7212.393846,4969.776269,10606.863869,-11160.293062,11548.721677,6888.539420,10103.010846,-4119.314744,-1477.360902,2968.602236,15619.086101,3128.998355,-254.736008,-842.776001,-453.839996,-9940.000000,1540.000000,7280.000000
9580.136488,14843.011182,1246.735602,2859.771593,7130.921737,4944.228225,10551.498598,-11211.836184,11500.844240,6834.671716,10086.627017,-4200.473929,-1521.125617,2941.467219,15545.839434,3036.618595,-254.736008,-840.824036,-450.424011,-10640.000000,2100.000000,7420.000000
9559.975214,14716.008570,1168.236276,2775.796089,7035.524492,4918.523719,10484.175144,-11280.299578,11460.052307,6777.965340,10070.757278,-4286.394034,-1563.660987,2914.242794,15462.310965,2932.526521,-255.712006,-838.872009,-455.304016,-10920.000000,2380.000000,7560.000000
9541.579728,14584.602664,1098.990571,2694.078111,6951.906616,4894.540297,10416.002323,-11358.396573,11428.804568,6744.393020,10060.386069,-4359.797163,-1598.082673,2903.469253,15390.226589,2842.448991,-256.200012,-841.312012,-452.864014,-11060.000000,2800.000000,7700.000000
9562.657423,14588.648330,1134.842769,2697.028541,6999.426424,4892.640399,10405.027617,-11353.054506,11448.250586,6810.755349,10062.934168,-4344.441515,-1586.817394,2929.799608,15387.566732,2858.296377,-253.272003,-841.799988,-453.352020,-10920.000000,3220.000000,7840.000000
9637.133436,14821.911135,1312.226213,2849.802715,7216.528918,4938.729696,10510.281981,-11212.506737,11547.894662,6972.984311,10090.538572,-4190.147423,-1504.697085,2991.177498,15509.562553,3026.515606,-254.736008,-845.216003,-454.816010,-9940.000000,3640.000000,7560.000000
9683.982692,15080.096135,1470.633026,3018.558385,7406.138767,4996.754825,10644.124227,-11059.710212,11631.065503,7072.740146,10117.584183,-4026.264432,-1418.799331,3029.264871,15656.301755,3208.838786,-257.664001,-844.728027,-455.304016,-9380.000000,4200.000000,7420.000000
9656.311233,15111.075653,1448.370689,3042.810028,7374.064013,5008.087159,10678.858838,-11050.881273,11625.589326,7012.323381,10122.769788,-4007.511319,-1409.970392,3009.014190,15699.105346,3239.617138,-258.640015,-841.799988,-454.816010,-8960.000000,4480.000000,7700.000000
9612.680627,14991.449117,1346.312624,2962.634321,7246.457904,4978.091118,10624.231174,-11132.196919,11569.844075,6918.490758,10106.296552,-4088.469337,-1457.557256,2971.753832,15642.600136,3154.121715,-256.687988,-843.752014,-456.279999,-8820.000000,4480.000000,7700.000000
9590.150069,14882.774935,1273.133012,2887.778328,7158.012051,4952.476019,10571.548113,-11191.496097,11522.234860,6856.174094,10090.471517,-4168.466230,-1502.908945,2944.887035,15574.628481,3061.809011,-258.152008,-841.799988,-454.328003,-8960.000000,4480.000000,7840.000000
9568.737098,14766.054126,1199.528718,2811.760045,7073.343643,4928.626708,10516.138138,-11250.459999,11478.134868,6800.451195,10077.127525,-4252.374679,-1544.729059,2921.529463,15502.275884,2966.992911,-261.080017,-841.312012,-456.279999,-9100.000000,4620.000000,8120.000000
9539.366906,14618.644371,1111.149920,2713.680591,6973.431346,4899.412978,10439.046972,-11331.619183,11433.185510,6745.868235,10061.257787,-4346.743744,-1589.253734,2900.630581,15416.735758,2864.174886,-261.567993,-840.335999,-452.864014,-9240.000000,4620.000000,7980.000000
9546.564167,14560.619242,1097.649467,2668.463012,6959.640319,4886.717187,10393.136489,-11365.906759,11434.727780,6773.003253,10058.508522,-4374.057576,-1599.691999,2912.320544,15377.575502,2830.736677,-259.615997,-839.359985,-459.696014,-9520.000000,4760.000000,8260.000000
9610.311343,14732.280640,1239.918320,2777.226600,7131.636993,4920.580080,10464.840885,-11264.474543,11517.295124,6917.708447,10079.072127,-4256.062717,-1537.241225,2967.283483,15464.434381,2953.268940,-260.592010,-837.895996,-455.791992,-9380.000000,4900.000000,8260.000000
9673.924407,15017.175975,1425.214282,2967.417594,7359.177751,4983.679054,10610.462500,-11096.814108,11617.386236,7053.182370,10110.655142,-4074.857125,-1439.586453,3021.575871,15625.948086,3155.887503,-263.519989,-839.848022,-459.696014,-9520.000000,4760.000000,8260.000000
9669.096430,15135.282592,1468.911942,3051.102525,7408.776272,5013.518633,10683.753870,-11036.754970,11641.213195,7044.599300,10127.463654,-4000.381112,-1399.912107,3020.659449,15710.012997,3245.674461,-262.056000,-838.872009,-459.696014,-9800.000000,4340.000000,8400.000000
9616.346314,15029.156510,1370.743080,2979.554591,7281.103108,4988.618790,10635.697619,-11111.543907,11582.092831,6940.954261,10114.432587,-4067.816325,-1443.498009,2977.677045,15661.621471,3177.233419,-261.080017,-837.408020,-459.696014,-10500.000000,4760.000000,8540.000000
9594.218087,14922.516337,1294.769501,2907.581974,7187.985741,4962.936635,10588.423680,-11170.038422,11535.534148,6878.324673,10097.199392,-4142.962890,-1488.872050,2955.146486,15598.567200,3095.358979,-265.959991,-839.359985,-456.768005,-11200.000000,5040.000000,8680.000000
9578.013072,14817.954876,1229.636518,2839.923244,7110.849871,4939.959042,10541.976755,-11218.497004,11496.798575,6825.753370,10081.374357,-4222.825673,-1531.407420,2934.158198,15529.924992,3004.834414,-263.519989,-837.895996,-458.231995,-11480.000000,5040.000000,8680.000000
9561.919816,14684.783183,1147.560912,2755.031318,7012.971582,4916.892042,10475.972054,-11289.262627,11466.534313,6769.583436,10072.456011,-4309.684552,-1575.842688,2913.684000,15449.436361,2899.356532,-265.959991,-840.335999,-463.112000,-12180.000000,5320.000000,8680.000000
9562.947996,14586.480211,1103.863252,2691.060625,6961.920197,4898.653018,10420.226803,-11348.561805,11458.197112,6766.342433,10071.830162,-4359.864218,-1596.272182,2914.689829,15391.545342,2832.502464,-265.472015,-839.848022,-461.160004,-12180.000000,5460.000000,8540.000000
9615.586354,14681.072793,1199.416959,2753.690213,7081.457327,4916.780283,10457.397754,-11293.554162,11517.831566,6881.476269,10086.224685,-4287.042235,-1555.457897,2957.828696,15440.585070,2904.966820,-269.864014,-841.312012,-465.552002,-12740.000000,5880.000000,8260.000000
9691.135250,14954.904014,1397.900450,2934.135846,7320.822158,4975.185391,10592.290532,-11129.671172,11622.616544,7041.313594,10117.762997,-4107.244802,-1459.971244,3019.810083,15592.666339,3099.762273,-273.279999,-838.872009,-463.600006,-12880.000000,6580.000000,8120.000000
