-15747.519225,-1502.461911,-3265.120478,-20203.428889,-3806.926764,-7941.217177,-9313.904859,-6268.367919,5581.856439,15623.824671,14210.255648,15223.840204,20921.366921,18079.789648,8499.787271,12048.394924,6.344000,-818.864014,-569.984009,2800.000000,-1120.000000,700.000000
-15752.861292,-1510.843815,-3268.026205,-20243.326753,-3813.118197,-7943.988793,-9321.683266,-6270.938369,5595.468652,15659.520407,14252.053410,15256.294937,20960.147197,18116.155936,8527.972821,12071.931311,5.856000,-820.815979,-569.496033,2380.000000,-980.000000,420.000000
-15840.547185,-1630.805627,-3316.104807,-20224.640694,-4069.760927,-7918.865433,-9445.824855,-6244.429200,5440.459304,15476.750192,14234.529642,14839.054923,20826.260248,18039.914136,8577.236066,12043.142264,16.592001,-825.208008,-562.664001,2660.000000,-2240.000000,420.000000
-15840.033095,-1632.951395,-3310.181595,-20258.369477,-4070.185610,-7915.043284,-9448.238843,-6247.916072,5455.077345,15509.361387,14268.772515,14865.832313,20862.850054,18076.056907,8604.728711,12063.214131,17.080000,-822.768005,-561.687988,2520.000000,-2100.000000,280.000000
-15840.882461,-1635.968880,-3306.135929,-20301.329529,-4071.951398,-7913.456310,-9453.178579,-6248.787790,5477.317331,15552.142626,14314.146556,14901.349235,20908.045281,18119.061663,8639.060991,12090.125631,14.152000,-825.695984,-562.176025,2240.000000,-1960.000000,280.000000
-15841.709476,-1635.924177,-3307.521738,-20328.241030,-4074.454793,-7914.685656,-9456.866617,-6250.195950,5491.242467,15577.467153,14340.186338,14924.371532,20934.509746,18143.045085,8661.300976,12107.381178,16.104000,-823.255981,-564.127991,2380.000000,-1820.000000,280.000000
-15841.776531,-1635.499494,-3313.064970,-20329.716245,-4079.685101,-7920.430055,-9461.202855,-6253.258139,5495.690464,15577.847132,14343.293231,14927.210203,20933.168642,18139.692323,8658.819933,12108.722282,17.080000,-825.208008,-563.640015,1960.000000,-1820.000000,280.000000
-15844.794016,-1639.031069,-3320.306935,-20307.140983,-4086.927067,-7925.503901,-9464.220341,-6254.867465,5487.956761,15555.540091,14321.053245,14908.233572,20907.106508,18112.266733,8634.680049,12095.087718,16.104000,-825.208008,-565.104004,1260.000000,-1680.000000,280.000000
-15846.738618,-1641.132133,-3323.279717,-20269.590052,-4087.239991,-7927.202633,-9458.587701,-6249.972433,5469.382461,15520.537260,14283.412908,14875.331804,20867.678030,18073.329994,8605.063987,12073.317119,18.056000,-825.695984,-562.664001,1540.000000,-1400.000000,420.000000
-15849.554938,-1643.680232,-3324.397305,-20238.364665,-4085.608314,-7929.080180,-9452.463323,-6248.698383,5449.131781,15489.066003,14251.584023,14846.453350,20835.245649,18042.864566,8582.824002,12051.635927,17.568001,-825.695984,-563.640015,1260.000000,-1400.000000,560.000000
-15848.459703,-1640.998023,-3320.753970,-20229.468671,-4080.176840,-7925.615659,-9448.216492,-6248.184293,5444.348507,15481.891093,14243.336230,14840.306621,20828.495422,18036.851947,8578.219542,12045.265680,19.032000,-826.671997,-562.176025,1400.000000,-1260.000000,840.000000
-15849.353772,-1640.841560,-3315.143682,-20252.893299,-4075.259456,-7921.659401,-9448.797637,-6251.090020,5451.322252,15503.371120,14266.358527,14858.299775,20854.758722,18064.724572,8598.067891,12059.235520,17.080000,-823.744019,-565.591980,1540.000000,-980.000000,840.000000
-15853.131217,-1644.686061,-3313.243784,-20296.769774,-4076.466450,-7919.245412,-9455.726678,-6255.090982,5469.203647,15543.246632,14308.424510,14892.028557,20897.964644,18109.137489,8630.321459,12083.978901,14.640000,-820.815979,-560.712036,1260.000000,-560.000000,840.000000
-15852.348906,-1643.836694,-3312.506177,-20330.610315,-4078.701625,-7917.904308,-9459.705288,-6255.806238,5490.035473,15577.176580,14341.974478,14922.091654,20931.872241,18142.776864,8656.115372,12105.615390,16.592001,-822.768005,-565.104004,1540.000000,-700.000000,1120.000000
-15850.247842,-1640.506284,-3315.054275,-20339.327495,-4078.880439,-7920.273593,-9459.749992,-6254.800410,5498.573839,15586.519609,14350.915176,14930.719427,20940.969401,18150.801140,8664.676090,12113.662018,16.592001,-825.208008,-562.664001,1680.000000,-420.000000,1260.000000
-15847.699743,-1640.595691,-3318.094113,-20317.087509,-4081.137965,-7923.738113,-9458.967681,-6253.392250,5490.549563,15565.888949,14329.725722,14912.927438,20918.796470,18126.303628,8645.900625,12102.776718,15.128000,-823.744019,-563.640015,1540.000000,-280.000000,1260.000000
-15843.743484,-1639.075773,-3320.843377,-20279.849503,-4084.110747,-7927.090875,-9457.783038,-6249.905378,5476.244447,15531.511966,14294.231152,14882.774935,20880.642042,18085.601102,8613.267078,12081.006119,15.128000,-821.304016,-565.591980,1400.000000,-280.000000,1260.000000
-15842.223566,-1636.728839,-3323.078552,-20241.426854,-4083.194325,-7928.655497,-9451.233977,-6246.954947,5456.396098,15495.369195,14256.479055,14850.253147,20841.526489,18046.351438,8584.768603,12057.223863,14.152000,-823.255981,-563.640015,1820.000000,-280.000000,1400.000000
-15841.620069,-1634.873645,-3319.770493,-20223.903087,-4079.707453,-7926.286212,-9445.199006,-6247.916072,5446.114295,15482.248721,14238.441198,14834.204594,20824.628571,18031.778101,8573.145696,12046.204453,14.640000,-822.768005,-565.104004,1820.000000,-140.000000,1260.000000
-15844.078761,-1637.622909,-3315.076627,-20240.242212,-4078.098128,-7922.039380,-9445.266061,-6250.330061,5449.109429,15498.051405,14253.998012,14844.441693,20842.867594,18050.911194,8585.170935,12054.631061,12.200000,-822.280029,-562.176025,1540.000000,-420.000000,1260.000000
-15851.812464,-1644.797819,-3315.635421,-20284.811590,-4083.194325,-7921.033552,-9454.765553,-6255.783886,5464.912112,15536.161129,14295.326387,14875.622377,20887.258159,18093.647730,8615.211679,12079.597959,12.200000,-821.304016,-563.640015,1540.000000,-420.000000,1260.000000
-15853.667659,-1647.703546,-3316.127159,-20327.145794,-4084.624837,-7921.994677,-9460.845227,-6256.946177,5486.101566,15576.729545,14335.358362,14910.826374,20927.781871,18133.724407,8647.353488,12105.257762,14.152000,-823.255981,-565.591980,1680.000000,-280.000000,1260.000000
-15850.560767,-1644.104915,-3316.104807,-20341.026228,-4081.674407,-7923.179319,-9458.721812,-6255.247445,5496.316313,15590.319406,14347.875339,14928.238383,20940.075331,18147.694248,8662.485619,12115.606620,15.616000,-821.791992,-566.080017,1400.000000,-560.000000,1260.000000
-15846.760970,-1637.801723,-3318.250575,-20324.530640,-4078.791032,-7924.453369,-9453.826780,-6252.989918,5492.807089,15574.516723,14333.749036,14920.415273,20923.400929,18132.517413,8655.578930,12108.297599,15.128000,-822.280029,-566.567993,1260.000000,-560.000000,980.000000
-15846.090418,-1637.555854,-3322.989145,-20290.846561,-4083.484898,-7928.521386,-9454.363221,-6251.268834,5479.016063,15544.185405,14301.450765,14892.609703,20888.263987,18095.435869,8626.074627,12088.248085,14.640000,-823.255981,-564.127991,1400.000000,-840.000000,980.000000
-15841.910641,-1632.750229,-3322.229185,-20246.657163,-4081.160317,-7928.543738,-9446.651870,-6250.307709,5462.743993,15504.689873,14258.334250,14858.679755,20845.639210,18051.782912,8593.821060,12063.839980,18.056000,-822.280029,-564.616028,1540.000000,-420.000000,840.000000
-15842.804711,-1632.459656,-3322.340944,-20222.226706,-4081.853221,-7926.956764,-9443.612032,-6251.648814,5449.556464,15480.684099,14233.389703,14833.601097,20821.074643,18028.425339,8573.145696,12047.366744,16.592001,-823.744019,-565.591980,1260.000000,-560.000000,700.000000
-15845.486921,-1636.080639,-3320.999839,-20229.088691,-4082.523773,-7923.246375,-9447.210663,-6252.811104,5445.421391,15487.210809,14238.687067,14833.466987,20827.936629,18036.181395,8574.151525,12049.892491,15.128000,-824.231995,-564.127991,1400.000000,-560.000000,420.000000
-15849.979621,-1640.103953,-3319.032886,-20263.577433,-4084.200154,-7920.944145,-9454.720849,-6256.230921,5457.312519,15518.391492,14269.755992,14859.529121,20862.648888,18070.558378,8596.950304,12067.237445,15.128000,-821.791992,-563.640015,1400.000000,-420.000000,280.000000
-15850.381953,-1641.378002,-3316.194214,-20305.062271,-4085.205982,-7921.502938,-9459.973509,-6260.544808,5481.497107,15556.836493,14311.084367,14894.263732,20903.709043,18111.640884,8628.846243,12089.142154,17.080000,-824.231995,-562.664001,1260.000000,-420.000000,140.000000
-15848.839682,-1636.639433,-3316.149511,-20328.665713,-4084.580134,-7923.402837,-9461.225207,-6260.030718,5500.205517,15581.021080,14335.581879,14917.442491,20926.507822,18134.573774,8650.370973,12103.536678,15.128000,-826.184021,-565.104004,1260.000000,-420.000000,140.000000
-15842.670601,-1629.710392,-3317.423560,-20322.273114,-4081.942628,-7923.849872,-9458.587701,-6255.895645,5504.050017,15579.478810,14333.234946,14918.761244,20922.171583,18128.181175,8651.533264,12102.217925,14.152000,-828.135986,-560.712036,1120.000000,-420.000000,0.000000
-15840.949516,-1626.536444,-3321.335116,-20292.902922,-4081.629703,-7924.565127,-9454.698498,-6251.760572,5490.013121,15551.673240,14305.541135,14897.750604,20893.404888,18097.268712,8631.707267,12088.248085,13.664001,-828.135986,-559.736023,980.000000,-280.000000,0.000000
-15842.022400,-1627.117589,-3323.950270,-20251.999229,-4082.344959,-7925.727418,-9449.401134,-6251.358241,5466.454383,15509.383739,14261.888178,14863.530083,20850.757760,18055.761523,8599.945438,12064.443477,16.104000,-830.088013,-559.736023,1260.000000,-700.000000,140.000000
-15839.809577,-1628.682211,-3323.614994,-20220.416215,-4082.121442,-7925.235680,-9444.707268,-6247.960776,5450.539941,15477.979538,14230.886308,14837.132673,20819.890001,18025.921944,8572.922179,12044.192796,12.688000,-828.135986,-558.760010,1260.000000,-700.000000,0.000000
-15839.340191,-1632.660822,-3322.877386,-20215.208258,-4084.803651,-7925.168625,-9444.059067,-6247.603148,5445.846074,15472.525713,14225.790110,14830.494205,20813.296236,18020.065787,8567.893036,12038.448398,12.688000,-826.184021,-560.223999,1680.000000,-1120.000000,0.000000
-15841.888290,-1635.611252,-3320.731618,-20238.007037,-4085.362445,-7921.882918,-9442.650907,-6247.491389,5450.539941,15493.022262,14247.404247,14845.179301,20836.854975,18045.993810,8591.071795,12053.155846,16.104000,-829.112000,-562.664001,1680.000000,-1260.000000,-140.000000
-15839.854281,-1633.063153,-3316.976525,-20272.093448,-4082.143793,-7917.859604,-9441.198044,-6248.765439,5467.594322,15527.198079,14281.289492,14871.911987,20872.438952,18084.148238,8624.062970,12074.904093,14.640000,-827.160034,-559.736023,2100.000000,-1400.000000,140.000000
-15841.776531,-1632.258491,-3318.138816,-20307.766832,-4085.943590,-7918.910136,-9448.574120,-6251.984090,5489.096700,15560.055144,14316.873469,14900.321054,20907.173563,18116.960599,8649.856883,12094.931256,19.032000,-827.160034,-556.320007,2380.000000,-1400.000000,140.000000
-15844.346982,-1631.029145,-3321.826854,-20315.880515,-4086.591791,-7922.508767,-9448.261195,-6249.078363,5495.377540,15567.520626,14323.668399,14908.747662,20913.007368,18123.666122,8658.529360,12102.195573,17.080000,-828.624023,-559.736023,2800.000000,-1680.000000,280.000000
-15843.117636,-1629.665688,-3324.754932,-20295.003986,-4086.971770,-7927.135578,-9446.741277,-6245.882064,5487.733243,15547.493463,14304.624713,14894.151973,20890.253292,18100.196791,8640.804427,12091.578494,19.032000,-827.160034,-555.832031,3080.000000,-1820.000000,420.000000
-15840.346019,-1628.257528,-3328.308860,-20254.010886,-4087.441157,-7932.120017,-9444.528454,-6246.194988,5469.136592,15509.093166,14266.447933,14861.138446,20847.270888,18057.415552,8607.679141,12064.331718,19.032000,-828.135986,-562.176025,3360.000000,-1820.000000,420.000000
-15836.568574,-1625.731781,-3328.264156,-20211.229648,-4084.468375,-7932.902328,-9437.532358,-6248.005479,5446.807199,15469.843503,14226.058331,14827.879051,20805.562533,18014.902534,8576.230237,12036.392037,17.568001,-826.671997,-561.200012,3640.000000,-2100.000000,560.000000
-15840.524833,-1632.526712,-3327.079514,-20199.562037,-4085.585962,-7930.823616,-9435.408942,-6250.598282,5434.312574,15455.806608,14213.854279,14813.752748,20795.504248,18003.190220,8564.607330,12029.172424,20.007999,-827.160034,-558.760010,3640.000000,-1960.000000,560.000000
-15846.738618,-1639.880435,-3324.106732,-20222.874906,-4086.234163,-7926.241508,-9440.303974,-6255.627424,5440.302842,15474.358556,14232.383875,14826.649705,20819.510021,18028.760615,8579.761813,12041.801160,20.007999,-829.112000,-562.176025,3080.000000,-1960.000000,280.000000
-15851.007801,-1646.116572,-3319.457569,-20264.963241,-4085.809479,-7921.145311,-9446.987146,-6260.522456,5457.357223,15513.652922,14272.549960,14857.964499,20863.095923,18073.933491,8610.718979,12067.103334,22.448000,-828.135986,-557.783997,2800.000000,-2380.000000,0.000000
-15852.818293,-1646.697718,-3316.708304,-20307.364500,-4085.250686,-7920.139482,-9451.122219,-6262.824686,5479.552505,15554.578966,14313.408949,14893.771993,20906.011272,18117.765262,8642.257290,12093.344282,22.448000,-832.528015,-559.736023,2520.000000,-2100.000000,0.000000
-15853.377086,-1647.390622,-3318.585851,-20328.777472,-4087.284695,-7922.151139,-9457.671280,-6265.015157,5493.589400,15573.488542,14331.402103,14912.100424,20927.625409,18136.496024,8654.818971,12106.844736,22.448000,-833.504028,-555.343994,2100.000000,-1820.000000,-280.000000
-15847.386819,-1638.159351,-3319.323459,-20313.041844,-4083.171974,-7922.531119,-9453.089172,-6261.304767,5491.890668,15560.904510,14316.828765,14905.551363,20913.052072,18122.392073,8646.571177,12100.966227,23.912001,-835.455994,-553.392029,2240.000000,-1400.000000,-420.000000
-15845.308107,-1634.381906,-3321.893909,-20277.636680,-4083.015511,-7926.174453,-9448.350602,-6255.269796,5477.272627,15528.449777,14286.206876,14879.891560,20877.155170,18087.299834,8619.905546,12081.877837,20.496000,-833.504028,-550.463989,2380.000000,-1260.000000,-560.000000
-15848.549110,-1639.723973,-3326.386610,-20243.639677,-4087.307046,-7930.376581,-9450.138742,-6255.828590,5458.944197,15493.938684,14251.896948,14847.794455,20840.967696,18049.145406,8586.824964,12059.280224,20.007999,-831.064026,-553.392029,2520.000000,-1540.000000,-420.000000
-15849.644345,-1641.802685,-3326.855996,-20222.427872,-4088.782261,-7930.465988,-9449.110562,-6257.057936,5446.136647,15473.218617,14230.886308,14825.800338,20818.437137,18025.609019,8568.854161,12044.818645,21.472000,-833.015991,-551.927979,2660.000000,-1820.000000,-560.000000
-15848.996144,-1639.209883,-3323.190310,-20225.735930,-4085.027168,-7927.560261,-9450.071687,-6258.466096,5444.527321,15475.990233,14234.730808,14827.566126,20823.086300,18030.884031,8574.039766,12042.985802,23.912001,-832.040039,-554.367981,2660.000000,-2520.000000,-140.000000
-15847.185653,-1636.058287,-3318.719961,-20255.866081,-4080.556820,-7925.727418,-9452.820951,-6262.623520,5459.570045,15506.455661,14264.391573,14852.711839,20855.496330,18063.003488,8599.788976,12056.933291,23.424000,-827.648010,-550.463989,2800.000000,-2800.000000,0.000000
-15848.906737,-1638.986366,-3316.641249,-20296.389794,-4079.819212,-7924.587479,-9456.397230,-6264.903398,5480.826554,15544.319516,14302.031911,14886.217104,20897.785830,18104.421270,8632.489578,12081.363747,21.472000,-827.648010,-552.416016,3080.000000,-2940.000000,280.000000
-15849.845511,-1638.673441,-3317.244746,-20323.569515,-4081.406186,-7924.542776,-9459.146495,-6262.779982,5498.059749,15568.839379,14328.697542,14910.468746,20925.837270,18131.265716,8653.790790,12100.854468,20.496000,-830.575989,-553.392029,3080.000000,-3220.000000,420.000000
-15845.531624,-1632.146732,-3317.021229,-20318.786242,-4078.969846,-7925.123921,-9454.474980,-6257.281453,5501.323104,15566.626557,14324.696580,14910.625209,20920.137575,18127.376512,8654.841322,12103.022588,17.080000,-825.695984,-555.343994,3360.000000,-2800.000000,840.000000
-15841.374200,-1629.106895,-3321.804502,-20289.326643,-4081.070910,-7929.326049,-9450.719887,-6252.364070,5489.208459,15539.692705,14296.622789,14890.352176,20887.794600,18094.407689,8631.081418,12086.459945,14.640000,-824.720032,-554.367981,3360.000000,-1960.000000,840.000000
-15841.910641,-1630.537406,-3327.146569,-20250.903994,-4084.378968,-7931.337706,-9447.970623,-6248.474866,5467.281397,15501.381815,14258.244843,14859.193845,20846.779149,18053.861624,8600.034845,12063.325890,14.152000,-824.720032,-557.296021,3360.000000,-1400.000000,1120.000000
-15841.687124,-1632.280842,-3327.884177,-20220.527973,-4082.054386,-7929.929546,-9442.583852,-6246.709078,5448.237711,15472.168085,14227.622953,14829.957763,20815.598466,18023.105624,8578.018377,12044.639831,9.272000,-823.255981,-560.223999,3360.000000,-700.000000,1540.000000
-15839.094322,-1633.197264,-3324.978450,-20217.219915,-4079.886267,-7927.403799,-9440.862768,-6249.994785,5445.510798,15471.676346,14225.633648,14824.682751,20814.413823,18020.915153,8575.537333,12040.057724,9.272000,-823.255981,-557.296021,2660.000000,0.000000,1820.000000
-15846.112769,-1644.417840,-3324.151435,-20249.764055,-4084.267209,-7926.219157,-9449.691707,-6259.293110,5453.915054,15497.693777,14253.506273,14844.218176,20845.572155,18050.710028,8593.888115,12055.703945,7.808000,-826.671997,-557.296021,2520.000000,560.000000,1960.000000
-15849.979621,-1649.245816,-3323.235014,-20290.578340,-4086.234163,-7926.509729,-9454.966719,-6261.349471,5469.784793,15533.188347,14291.459536,14875.600025,20886.878179,18092.485439,8626.342848,12080.424974,5.368000,-822.768005,-555.343994,2380.000000,1120.000000,2380.000000
-15848.750275,-1645.468372,-3320.709267,-20320.976713,-4084.244857,-7926.241508,-9454.542035,-6256.387384,5483.978150,15562.849112,14322.349646,14904.232610,20917.947104,18124.761358,8655.869503,12101.972056,4.880000,-827.160034,-559.736023,2100.000000,1820.000000,2520.000000
-15850.605470,-1644.216674,-3321.849206,-20329.291562,-4085.205982,-7928.074351,-9453.647966,-6253.392250,5488.672017,15570.851036,14329.904536,14913.508584,20925.412586,18131.422178,8665.547808,12109.057559,0.000000,-827.160034,-558.272034,2240.000000,1820.000000,2800.000000
-15851.387781,-1642.629700,-3325.738409,-20308.169163,-4086.614142,-7931.203596,-9451.144570,-6254.778058,5479.530153,15549.415713,14309.787966,14896.521258,20901.809144,18108.310474,8650.080401,12097.479355,1.952000,-828.135986,-556.320007,2660.000000,1820.000000,2800.000000
-15850.493711,-1641.847389,-3330.655793,-20270.215901,-4087.083529,-7936.143331,-9450.205797,-6256.521494,5461.827572,15512.021245,14273.131105,14864.357098,20863.319440,18067.049154,8615.099921,12073.138305,3.904000,-827.648010,-557.296021,2940.000000,1540.000000,2800.000000
-15846.313935,-1641.065078,-3331.683973,-20232.664970,-4085.898886,-7936.545662,-9447.277718,-6255.783886,5447.433048,15479.722974,14237.703590,14833.198766,20826.304951,18027.933601,8580.745289,12047.925538,5.368000,-825.208008,-556.320007,3360.000000,1400.000000,2520.000000
-15841.508310,-1639.858084,-3329.359392,-20216.459956,-4085.317741,-7934.221081,-9444.371992,-6256.029756,5443.521493,15466.624852,14224.381950,14818.513670,20811.239876,18013.136746,8567.557760,12035.363857,4.392000,-825.208008,-556.320007,3640.000000,840.000000,2240.000000
-15840.122502,-1640.394526,-3325.537244,-20230.474500,-4082.769642,-7929.013125,-9444.483750,-6260.008366,5451.836342,15479.991195,14238.910584,14828.236679,20827.154318,18030.839328,8579.873571,12042.583471,9.272000,-826.184021,-556.320007,3920.000000,140.000000,1820.000000
-15839.206080,-1638.986366,-3319.546976,-20264.136227,-4077.204058,-7924.453369,-9445.020192,-6263.070555,5469.449516,15512.557687,14272.259387,14859.015031,20862.179501,18069.709011,8610.204889,12062.923558,11.224000,-825.695984,-559.736023,4200.000000,-700.000000,1120.000000
-15839.988391,-1634.448962,-3317.132988,-20297.976768,-4071.750232,-7923.156968,-9444.751971,-6263.674052,5484.671054,15543.805426,14303.976512,14888.921665,20896.377670,18107.461108,8642.503159,12085.007082,12.200000,-823.255981,-558.272034,4340.000000,-1540.000000,560.000000
-15843.855243,-1636.684136,-3321.245709,-20317.311027,-4073.963055,-7925.056866,-9445.623689,-6262.668224,5489.990770,15559.004612,14320.516803,14903.204430,20914.124955,18124.940172,8659.356375,12099.960399,14.640000,-823.744019,-558.272034,4480.000000,-2100.000000,280.000000
-15846.202176,-1640.506284,-3326.341906,-20310.963131,-4078.947494,-7928.364924,-9445.757800,-6259.315462,5486.682711,15552.097923,14312.894858,14898.823488,20904.826630,18113.317265,8653.209645,12100.183916,15.616000,-826.671997,-558.760010,4200.000000,-2520.000000,-140.000000
-15845.196348,-1640.774505,-3331.683973,-20281.078849,-4083.753119,-7932.432941,-9447.031849,-6256.186218,5480.670092,15526.616934,14285.245751,14875.845894,20872.371897,18079.074392,8625.113502,12082.548390,17.080000,-823.744019,-557.783997,4200.000000,-3500.000000,-840.000000
-15843.564671,-1639.969842,-3332.466284,-20240.912764,-4084.356616,-7932.879976,-9443.075591,-6255.538017,5465.448554,15492.619931,14246.778398,14840.865414,20831.803481,18038.595383,8594.849240,12058.274395,20.496000,-826.671997,-560.712036,4060.000000,-3640.000000,-1260.000000
-15845.285755,-1640.930967,-3331.102828,-20217.689302,-4082.412014,-7930.555395,-9438.627593,-6255.828590,5450.159961,15470.648166,14223.040846,14817.329027,20810.614027,18017.718854,8575.447926,12045.198625,22.448000,-826.671997,-556.807983,4480.000000,-4060.000000,-1540.000000
-15843.162339,-1641.489761,-3326.721886,-20222.539630,-4078.165183,-7927.292040,-9438.158207,-6257.080288,5451.322252,15476.370213,14227.131215,14820.927658,20817.297198,18025.318447,8578.018377,12047.031468,20.496000,-829.112000,-558.272034,4760.000000,-4340.000000,-1960.000000
-15843.519967,-1643.613177,-3320.888081,-20256.201357,-4077.069947,-7924.833348,-9444.081419,-6260.991843,5467.236694,15508.132041,14259.228320,14849.783760,20851.808292,18061.975308,8601.197136,12065.114029,21.472000,-830.088013,-556.320007,4900.000000,-4200.000000,-2100.000000
-15846.760970,-1647.144752,-3319.099941,-20298.669672,-4077.896962,-7923.000505,-9451.591605,-6261.885913,5487.174450,15546.554690,14301.450765,14883.669005,20893.449592,18105.650616,8633.271889,12089.611541,21.472000,-833.015991,-558.272034,5040.000000,-4060.000000,-2520.000000
-15846.671563,-1646.585959,-3321.178653,-20326.497594,-4079.595694,-7924.721590,-9456.374878,-6262.042375,5500.227869,15572.326252,14328.809301,14906.780709,20919.981112,18132.025675,8654.327232,12106.084777,22.936001,-831.064026,-553.392029,5320.000000,-3920.000000,-2800.000000
-15843.609374,-1641.646223,-3324.196139,-20324.284771,-4079.640398,-7929.191939,-9455.838437,-6260.097773,5501.457215,15571.253368,14325.814167,14907.495964,20916.315426,18128.181175,8653.880197,12104.766024,22.936001,-833.015991,-557.783997,5880.000000,-3780.000000,-2940.000000
-15842.447083,-1636.192398,-3326.408962,-20293.349957,-4077.829907,-7931.091837,-9450.116390,-6256.454439,5489.655493,15542.978411,14295.773422,14886.261807,20884.911225,18096.262884,8633.405999,12087.175201,22.936001,-832.528015,-554.367981,6720.000000,-3220.000000,-3080.000000
-15842.827063,-1635.521845,-3329.515854,-20253.943831,-4078.813383,-7933.103494,-9448.261195,-6254.822761,5470.790621,15505.919219,14254.757971,14852.354211,20843.873423,18054.085142,8599.364293,12061.761267,27.328001,-830.575989,-554.367981,6860.000000,-2940.000000,-3220.000000
-15842.558842,-1637.868778,-3329.158226,-20223.590162,-4081.406186,-7932.611755,-9447.680050,-6252.095849,5453.959758,15479.231236,14224.270192,14823.319295,20813.407995,18023.060921,8570.999929,12041.443532,25.864000,-830.575989,-556.807983,7280.000000,-2520.000000,-3220.000000
-15844.548147,-1643.255549,-3327.213624,-20219.991531,-4081.495593,-7929.437808,-9445.981317,-6250.419468,5445.287281,15475.967881,14221.029189,14817.597248,20811.441041,18021.630409,8567.580112,12039.431875,26.352001,-830.575989,-555.832031,7560.000000,-2380.000000,-3360.000000
-15846.649211,-1646.965938,-3324.039677,-20242.633849,-4079.215715,-7925.705066,-9445.511931,-6253.213436,5450.606996,15498.386681,14245.794922,14833.645801,20836.273829,18048.519558,8586.847316,12051.568872,25.864000,-830.575989,-554.856018,7840.000000,-1960.000000,-3080.000000
-15850.516063,-1648.910540,-3321.290412,-20281.794105,-4076.824078,-7923.626354,-9449.043506,-6260.209532,5463.503952,15534.618859,14283.971701,14864.737077,20876.059935,18089.065622,8619.682028,12073.719451,26.352001,-828.624023,-554.367981,7700.000000,-1680.000000,-2940.000000
-15856.998069,-1654.789049,-3324.084380,-20323.033073,-4081.227372,-7924.945107,-9457.157190,-6262.422355,5481.385348,15569.532283,14322.237888,14896.610665,20914.393176,18126.281276,8648.515779,12099.602771,24.888000,-828.135986,-555.343994,7980.000000,-1400.000000,-2800.000000
-15855.567557,-1654.073793,-3326.073685,-20333.717207,-4079.685101,-7927.470854,-9458.632405,-6259.315462,5489.610790,15579.121182,14331.670324,14907.451261,20921.657493,18134.707884,8657.992918,12107.180012,26.840000,-827.160034,-556.320007,7980.000000,-1260.000000,-2380.000000
-15849.107903,-1647.457677,-3329.135874,-20311.812498,-4078.455756,-7932.298831,-9456.419582,-6259.002538,5489.968418,15560.725696,14311.196126,14892.654406,20899.082231,18110.031558,8643.933671,12093.813669,27.328001,-825.208008,-557.296021,7840.000000,-980.000000,-2100.000000
-15844.168168,-1640.618043,-3331.974546,-20272.741648,-4079.618046,-7936.076276,-9454.787905,-6259.471924,5479.597208,15527.332190,14274.405155,14862.144275,20857.552690,18067.473837,8612.015380,12068.846770,23.912001,-825.695984,-556.320007,7700.000000,-980.000000,-1820.000000
-15845.866900,-1643.546122,-3335.953156,-20240.711598,-4083.484898,-7936.925642,-9455.950195,-6258.533151,5464.867409,15496.620893,14242.173939,14831.678847,20824.025074,18033.007447,8581.594656,12048.394924,25.864000,-825.695984,-555.832031,7560.000000,-700.000000,-1400.000000
-15847.208005,-1643.814342,-3332.466284,-20223.768976,-4079.171011,-7933.461122,-9451.010460,-6256.052107,5453.691537,15480.572341,14225.253668,14816.434958,20809.317626,18021.786871,8572.408089,12038.895433,24.888000,-826.671997,-554.367981,7140.000000,-980.000000,-1120.000000
-15850.381953,-1647.010642,-3327.258328,-20237.470596,-4075.885305,-7929.437808,-9451.658660,-6253.951043,5454.384441,15490.340053,14237.658887,14824.995676,20824.941495,18040.271764,8584.075699,12045.355087,22.448000,-822.768005,-558.272034,6860.000000,-840.000000,-980.000000
-15850.270194,-1649.335223,-3323.279717,-20275.625023,-4075.170049,-7925.481549,-9457.626576,-6256.029756,5472.668168,15527.600411,14277.087364,14856.042249,20864.817007,18080.236683,8610.026075,12067.438610,23.912001,-827.648010,-558.272034,6860.000000,-1120.000000,-560.000000
-15850.270194,-1654.163200,-3322.653869,-20317.892172,-4075.415918,-7924.520424,-9462.767477,-6260.298939,5491.644799,15568.347641,14318.929829,14891.268598,20907.575894,18122.414425,8642.123180,12093.411338,22.448000,-826.671997,-555.832031,6440.000000,-1400.000000,-420.000000
-15853.444142,-1655.280787,-3326.990107,-20337.427597,-4077.315817,-7927.649668,-9463.192161,-6258.846075,5497.679770,15584.776173,14336.610059,14907.048930,20925.949028,18138.977067,8663.223226,12105.146003,23.424000,-827.648010,-557.783997,6440.000000,-1540.000000,-140.000000
-15850.761932,-1645.915406,-3328.331212,-20320.909658,-4075.080642,-7931.360058,-9459.481771,-6254.778058,5497.322142,15570.806333,14318.371036,14897.951770,20907.710005,18122.034445,8656.137723,12094.707739,21.960001,-828.135986,-555.832031,6020.000000,-1680.000000,-140.000000
-15846.380990,-1640.953319,-3330.611090,-20285.750364,-4075.974712,-7932.924680,-9457.268948,-6251.984090,5490.728377,15539.737408,14284.061108,14872.671947,20871.902510,18085.489343,8625.985220,12072.668919,20.984001,-827.648010,-556.807983,6160.000000,-1820.000000,140.000000
-15843.542319,-1637.444095,-3330.611090,-20243.170290,-4072.532543,-7932.120017,-9449.267024,-6249.815971,5473.070499,15501.448870,14243.693858,14839.747827,20829.568306,18045.032685,8595.072758,12047.523206,23.912001,-824.231995,-558.760010,6160.000000,-1820.000000,140.000000
-15847.297412,-1642.763810,-3331.058124,-20221.578505,-4073.851296,-7930.711857,-9448.752934,-6250.195950,5452.953929,15477.152524,14219.017532,14819.072463,20807.864762,18022.859755,8576.163182,12031.742875,20.496000,-829.600037,-553.880005,6020.000000,-2100.000000,140.000000
-15850.538415,-1646.541255,-3328.264156,-20228.082863,-4075.035939,-7928.476683,-9450.809294,-6254.286320,5449.981147,15482.807515,14223.398474,14821.285286,20815.732576,18031.554583,8577.660749,12032.949869,17.080000,-824.720032,-557.296021,6020.000000,-2380.000000,0.000000
-15850.896043,-1644.574302,-3322.542110,-20259.509416,-4072.353729,-7924.051037,-9452.485675,-6258.331985,5461.939330,15513.652922,14254.221529,14846.520406,20849.953097,18065.998622,8603.164089,12051.233596,19.520000,-825.208008,-556.320007,5740.000000,-2520.000000,0.000000
-15850.583118,-1639.925139,-3318.205871,-20294.378137,-4068.352767,-7922.262898,-9451.859826,-6261.640043,5474.188086,15546.241766,14290.006672,14877.455220,20886.386441,18103.884829,8637.541072,12072.423050,17.568001,-827.160034,-558.760010,5460.000000,-2660.000000,-280.000000
-15850.225490,-1640.483933,-3317.803540,-20319.009759,-4067.682215,-7923.291078,-9452.195102,-6260.768325,5485.185145,15570.381650,14316.605248,14900.633979,20912.560333,18130.125777,8661.725660,12091.042053,15.616000,-830.088013,-557.296021,5600.000000,-2940.000000,-280.000000
-15848.705572,-1645.110744,-3323.033848,-20324.061254,-4072.800764,-7927.761427,-9456.397230,-6256.968529,5495.668113,15576.126048,14323.534289,14905.506659,20916.404833,18130.081073,8661.546846,12095.735919,17.080000,-828.135986,-557.296021,5460.000000,-2800.000000,-420.000000
-15841.441255,-1638.718145,-3327.437142,-20296.993291,-4077.718148,-7932.611755,-9456.173713,-6253.392250,5499.065578,15553.640193,14301.853097,14886.328862,20888.018118,18098.431003,8637.675183,12078.547427,13.664001,-829.600037,-552.416016,5180.000000,-2940.000000,-700.000000
-15835.965077,-1629.643336,-3326.431313,-20251.909822,-4077.315817,-7933.550529,-9449.892873,-6249.860674,5485.006331,15515.172841,14263.564558,14852.600080,20844.745141,18054.353363,8603.745234,12050.451285,14.640000,-830.575989,-556.320007,5040.000000,-3080.000000,-700.000000
-15844.414037,-1638.025241,-3329.538206,-20222.696092,-4080.333302,-7933.438770,-9446.674221,-6248.363107,5461.224075,15482.271073,14233.277945,14823.140481,20813.586809,18023.060921,8580.924103,12032.413427,12.688000,-826.671997,-558.272034,5040.000000,-3220.000000,-840.000000
-15848.370296,-1643.233197,-3329.225281,-20219.812717,-4081.964979,-7931.762389,-9447.702402,-6249.592453,5457.714851,15477.867779,14229.388741,14817.798414,20810.234047,18018.881144,8575.425574,12027.004305,14.152000,-832.040039,-557.783997,5040.000000,-3220.000000,-980.000000
-15847.520929,-1640.863912,-3323.279717,-20239.817529,-4079.528639,-7929.303697,-9451.792771,-6250.195950,5466.119107,15496.576190,14245.996087,14832.505862,20830.440024,18039.958839,8586.132060,12035.207395,10.736000,-826.671997,-557.783997,4760.000000,-3220.000000,-1260.000000
-15852.170092,-1644.171970,-3319.636383,-20278.128419,-4077.606389,-7927.940241,-9457.291300,-6252.699346,5476.065633,15529.053274,14281.647120,14863.753601,20870.382592,18081.086049,8614.652886,12058.229692,13.176001,-831.552002,-554.856018,5180.000000,-3080.000000,-1260.000000
-15858.406229,-1651.145715,-3322.273889,-20313.622989,-4079.886267,-7927.984944,-9459.280605,-6253.705174,5486.705063,15559.116371,14315.331199,14890.866267,20905.318368,18115.351273,8643.821912,12084.180067,14.152000,-831.064026,-559.247986,5040.000000,-3220.000000,-1260.000000
-15854.002935,-1647.256511,-3323.592642,-20320.619085,-4080.467413,-7928.811959,-9455.637271,-6253.191084,5498.864412,15570.605167,14323.646048,14899.069357,20913.387348,18121.095672,8654.371936,12092.405509,14.152000,-829.600037,-557.783997,4900.000000,-3220.000000,-1400.000000
-15851.276022,-1643.233197,-3328.308860,-20298.580265,-4083.283732,-7931.516520,-9452.373916,-6251.872331,5494.997560,15552.187330,14302.300132,14883.423136,20889.493333,18095.525276,8637.742238,12082.481335,13.176001,-825.208008,-557.296021,5180.000000,-3360.000000,-1260.000000
-15849.152607,-1639.098124,-3332.063953,-20257.900090,-4085.809479,-7934.243433,-9449.177617,-6251.380593,5476.780889,15513.652922,14262.134047,14852.600080,20845.750969,18053.369886,8605.108691,12059.302576,13.664001,-826.671997,-558.272034,5320.000000,-3080.000000,-1400.000000
-15848.213833,-1636.684136,-3332.779209,-20217.242267,-4085.787128,-7936.791532,-9444.774323,-6252.520532,5456.954891,15475.766715,14220.917430,14820.279458,20801.047480,18012.667359,8573.480972,12033.642773,14.152000,-828.624023,-558.272034,5460.000000,-3220.000000,-1260.000000
-15849.242014,-1640.796857,-3331.102828,-20202.601874,-4087.687026,-7934.802226,-9446.093076,-6255.716831,5446.360164,15462.512131,14206.947590,14805.147327,20786.585902,17997.892856,8558.550007,12022.623363,14.640000,-829.112000,-557.296021,5460.000000,-2940.000000,-1260.000000
-15852.170092,-1647.234159,-3329.806427,-20218.784537,-4089.139889,-7932.052962,-9450.116390,-6259.427221,5448.438877,15474.805590,14223.107901,14814.758577,20803.841448,18015.036644,8566.663690,12028.233651,11.712000,-830.575989,-554.367981,5740.000000,-2800.000000,-1120.000000
-15856.215758,-1648.374098,-3325.425485,-20254.502625,-4085.004817,-7928.700200,-9453.536207,-6261.327119,5461.849923,15506.500364,14256.255538,14842.273574,20840.140681,18053.012258,8594.223391,12049.445456,15.128000,-828.624023,-558.760010,5600.000000,-2800.000000,-1120.000000
-15856.171054,-1647.591787,-3323.235014,-20292.120611,-4082.009683,-7928.096703,-9456.643099,-6264.165791,5477.920828,15542.665487,14291.839515,14873.811886,20878.160999,18093.513619,8626.611069,12072.490105,12.688000,-826.671997,-556.807983,5880.000000,-2660.000000,-980.000000
-15857.914490,-1651.436287,-3326.900700,-20313.958265,-4085.273038,-7928.744904,-9458.587701,-6261.170657,5486.123918,15563.385554,14312.671341,14890.441583,20900.222170,18113.384320,8646.258252,12090.505611,11.712000,-829.112000,-557.296021,6020.000000,-2520.000000,-840.000000
-15854.874653,-1647.457677,-3330.164055,-20305.039919,-4088.804613,-7931.270651,-9458.095963,-6257.907302,5487.040339,15557.663507,14305.541135,14885.054813,20889.985071,18100.800288,8639.239805,12088.136326,12.200000,-831.064026,-555.343994,5740.000000,-2800.000000,-700.000000
-15851.253671,-1641.109781,-3333.248595,-20270.707640,-4089.810442,-7935.271613,-9456.285471,-6256.342680,5476.155040,15527.511004,14273.399326,14859.260900,20854.334039,18063.875206,8612.596525,12068.958529,12.688000,-827.648010,-558.760010,5600.000000,-2380.000000,-700.000000
-15848.035019,-1638.494627,-3333.963851,-20231.033293,-4091.173898,-7937.618546,-9454.989070,-6256.186218,5459.927673,15492.798745,14237.345962,14827.521423,20814.637341,18023.284438,8578.510115,12041.667049,15.128000,-822.768005,-556.320007,5880.000000,-2520.000000,-560.000000
-15842.514139,-1633.443133,-3327.884177,-20200.813735,-4083.373139,-7933.371715,-9446.830684,-6253.615767,5446.382516,15467.653032,14208.512212,14804.119146,20787.636434,18000.485659,8557.097144,12024.143281,16.104000,-828.135986,-556.807983,5600.000000,-2520.000000,-560.000000
-15845.643383,-1635.790066,-3323.637345,-20203.115964,-4079.796860,-7928.655497,-9445.981317,-6254.733354,5439.118199,15467.608329,14210.479165,14802.979207,20792.777335,18007.101775,8558.594711,12025.730255,14.152000,-826.184021,-557.296021,5600.000000,-2800.000000,-420.000000
-15853.399438,-1645.468372,-3323.011496,-20239.214032,-4084.088395,-7925.794473,-9452.463323,-6261.148305,5447.880083,15496.598541,14245.280831,14824.146309,20828.495422,18041.791682,8583.360444,12047.724372,17.568001,-828.624023,-555.832031,5320.000000,-2520.000000,-420.000000
-15857.310993,-1649.715203,-3323.190310,-20282.621119,-4084.714244,-7925.079218,-9458.185370,-6265.395137,5466.052051,15536.563460,14286.899780,14856.154007,20871.857807,18084.997604,8617.178633,12074.434707,19.520000,-826.184021,-556.320007,5320.000000,-2520.000000,-420.000000
-15857.422752,-1647.167104,-3324.643174,-20310.583152,-4085.988293,-7927.515558,-9461.001690,-6267.786773,5482.011197,15564.592548,14312.269010,14880.629168,20898.791659,18113.384320,8640.491502,12093.254875,20.984001,-825.695984,-558.272034,5320.000000,-2380.000000,-140.000000
-15858.272118,-1649.134058,-3329.761723,-20313.734748,-4090.972732,-7931.695334,-9464.443858,-6267.853828,5482.905267,15566.604205,14312.581934,14883.780764,20898.948121,18112.378491,8639.418619,12095.512402,22.448000,-824.720032,-552.416016,4900.000000,-2240.000000,-280.000000
-15855.366392,-1647.480029,-3333.382706,-20285.996233,-4093.923163,-7935.897462,-9464.108582,-6264.232846,5473.897514,15542.732542,14286.430393,14865.988775,20870.561405,18081.890712,8614.205851,12078.636834,20.007999,-826.671997,-560.712036,4760.000000,-2240.000000,-140.000000
-15851.253671,-1646.943587,-3334.187369,-20246.031314,-4094.861936,-7938.311450,-9460.956986,-6261.528285,5460.262949,15509.339036,14250.511140,14836.819748,20831.110577,18041.568165,8584.187458,12054.318136,22.448000,-826.184021,-558.272034,4760.000000,-2240.000000,-140.000000
-15846.917432,-1647.837656,-3333.181540,-20213.688339,-4092.894982,-7937.551491,-9457.067783,-6260.187180,5445.667260,15481.064079,14220.157471,14809.550620,20799.169934,18010.566295,8561.723955,12034.939174,21.960001,-828.624023,-555.832031,4480.000000,-2100.000000,-280.000000
-15847.208005,-1651.033956,-3330.767552,-20207.809831,-4091.531526,-7935.115151,-9457.984204,-6261.304767,5439.788752,15473.710355,14213.407244,14801.526344,20794.006681,18005.850077,8553.230292,12028.993610,22.936001,-829.600037,-556.807983,4620.000000,-1820.000000,-280.000000
-15851.678354,-1653.403241,-3327.370087,-20234.900145,-4090.972732,-7931.382409,-9461.180504,-6267.585607,5447.455400,15497.671425,14237.524776,14821.911135,20823.421576,18035.242621,8572.452792,12043.589299,23.912001,-829.112000,-553.880005,4480.000000,-2240.000000,-140.000000
-15858.741505,-1660.779317,-3326.699534,-20279.424820,-4092.403244,-7929.326049,-9465.092059,-6268.569084,5458.832438,15534.641210,14276.193294,14854.388220,20869.063839,18079.744945,8608.327342,12071.573683,21.960001,-827.160034,-555.343994,4340.000000,-2100.000000,-140.000000
-15862.295432,-1664.690872,-3327.459494,-20315.925219,-4093.140852,-7927.113226,-9467.841323,-6264.210494,5473.159906,15565.330156,14309.631504,14883.065508,20904.401947,18118.234648,8638.636308,12098.015797,25.375999,-826.184021,-553.880005,4340.000000,-1820.000000,-140.000000
-15860.820217,-1661.047537,-3329.001764,-20327.078739,-4094.169032,-7927.649668,-9468.176600,-6261.908264,5483.017025,15578.361223,14320.829728,14895.224857,20913.521458,18129.164652,8647.778171,12109.035207,25.864000,-830.088013,-560.712036,3640.000000,-1680.000000,-140.000000
-15861.915453,-1659.974654,-3331.482808,-20307.386852,-4094.616067,-7930.756561,-9465.226169,-6259.404869,5474.255142,15560.211606,14302.277780,14882.663176,20893.270778,18108.355177,8632.400171,12099.714529,24.400000,-828.135986,-558.760010,3640.000000,-1820.000000,-140.000000
-15859.434409,-1657.113630,-3332.801560,-20268.517169,-4094.772529,-7932.499997,-9461.918111,-6256.275625,5457.536037,15523.800614,14266.537340,14854.611737,20854.870481,18067.965575,8600.213659,12077.608654,22.448000,-828.135986,-554.367981,3500.000000,-1680.000000,140.000000
-15856.640441,-1652.866799,-3333.762686,-20230.832127,-4094.191384,-7934.802226,-9459.347660,-6257.482619,5441.398077,15488.775431,14230.327514,14824.928620,20817.006626,18028.782967,8568.205961,12051.859445,20.496000,-827.160034,-557.783997,3220.000000,-1680.000000,140.000000
-15858.138008,-1651.279825,-3333.203892,-20214.493002,-4091.464471,-7933.617584,-9457.604224,-6259.986014,5431.652717,15473.196265,14213.921334,14810.087062,20800.108707,18014.343740,8554.861969,12038.336639,23.424000,-828.624023,-556.320007,3360.000000,-1540.000000,280.000000
-15860.775514,-1655.772526,-3330.499331,-20234.251944,-4092.447948,-7930.868319,-9462.543960,-6261.751802,5439.766400,15491.927027,14232.093302,14821.441748,20819.778242,18035.086159,8566.484876,12046.606785,20.007999,-828.624023,-555.343994,3640.000000,-1540.000000,280.000000
-15855.433447,-1652.039784,-3326.587776,-20270.953509,-4091.419767,-7927.314392,-9466.187294,-6264.612825,5465.135630,15529.947344,14269.599529,14850.499016,20858.402057,18073.821732,8596.436214,12067.103334,20.984001,-830.088013,-555.832031,3500.000000,-1400.000000,420.000000
-15851.186615,-1647.524732,-3324.352601,-20308.325625,-4089.117538,-7925.481549,-9468.377765,-6264.568122,5490.303694,15567.565330,14307.463385,14882.953749,20897.137630,18112.154974,8628.823892,12090.974997,21.472000,-830.088013,-556.320007,3500.000000,-1260.000000,700.000000
-15850.180787,-1643.613177,-3325.000802,-20325.000027,-4087.150584,-7926.845005,-9467.841323,-6266.065689,5502.418340,15585.849057,14324.651876,14898.577618,20912.716796,18129.030541,8646.079438,12101.972056,19.520000,-832.528015,-557.783997,3500.000000,-980.000000,980.000000
-15848.593813,-1641.825037,-3328.062991,-20314.897038,-4088.469337,-7929.057828,-9467.506047,-6264.724584,5502.820671,15579.747031,14317.007579,14893.481421,20901.205647,18115.932419,8638.569252,12095.802974,19.032000,-830.575989,-556.807983,3360.000000,-840.000000,1120.000000
-15847.923261,-1640.662747,-3332.958023,-20283.515189,-4091.553878,-7933.572880,-9469.182428,-6265.976282,5488.828479,15548.409885,14285.916303,14868.156894,20866.783961,18079.566131,8608.908487,12075.328776,18.544001,-832.040039,-553.880005,3220.000000,-700.000000,1260.000000
-15846.716266,-1639.187531,-3333.941499,-20242.522090,-4091.084491,-7934.690468,-9464.890893,-6265.775116,5468.086060,15510.411919,14246.644288,14835.791568,20824.807385,18038.148348,8576.252589,12049.668974,17.568001,-831.552002,-552.903992,3220.000000,-700.000000,1400.000000
-15851.208967,-1647.524732,-3334.254424,-20219.320979,-4090.995084,-7932.790569,-9459.057088,-6264.948102,5447.097772,15484.439192,14223.465529,14811.159946,20799.661672,18013.941409,8561.031051,12034.246270,16.104000,-831.064026,-554.856018,3360.000000,-700.000000,1820.000000
-15853.488845,-1650.765735,-3330.700497,-20221.533802,-4089.229296,-7929.393104,-9454.944367,-6260.634215,5440.615766,15484.238027,14225.588945,14806.041396,20803.237951,18020.021083,8568.943568,12036.235575,17.568001,-833.015991,-553.880005,3500.000000,-560.000000,2100.000000
-15853.801769,-1651.905674,-3325.313726,-20252.558023,-4087.329398,-7926.397970,-9457.939501,-6260.969491,5452.573949,15513.898792,14255.674393,14829.577783,20837.994914,18055.828578,8593.932819,12055.458075,13.664001,-831.064026,-557.783997,3500.000000,-420.000000,1960.000000
-15856.975717,-1656.219561,-3324.576119,-20296.166276,-4087.508212,-7925.861529,-9462.879236,-6264.277549,5469.605979,15553.215510,14295.661663,14862.658365,20881.603167,18099.794459,8627.751008,12081.073175,13.664001,-834.479980,-552.416016,3500.000000,-280.000000,2240.000000
-15861.267252,-1661.405165,-3329.314688,-20329.537431,-4093.297314,-7927.180282,-9469.361242,-6266.043337,5484.581647,15581.982205,14326.372960,14887.267636,20912.493278,18129.008189,8652.293223,12100.586248,15.128000,-828.135986,-552.903992,3780.000000,-140.000000,2380.000000
-15863.994165,-1663.997968,-3334.142665,-20337.315838,-4097.342980,-7930.667154,-9475.686786,-6268.524381,5491.018950,15588.620673,14335.179548,14893.213200,20918.371787,18132.606820,8654.528398,12106.643570,14.152000,-831.552002,-552.903992,4060.000000,-280.000000,2660.000000
-15859.434409,-1660.935779,-3337.808351,-20309.934951,-4096.493613,-7933.014087,-9471.752879,-6267.004462,5482.257066,15563.497312,14309.922076,14872.582540,20890.186237,18103.303683,8634.903566,12093.053710,14.152000,-827.648010,-553.392029,4200.000000,-280.000000,2800.000000
-15851.454836,-1650.475162,-3337.160151,-20265.276166,-4092.805575,-7934.444598,-9463.862713,-6264.366956,5467.236694,15525.678161,14269.197198,14841.603022,20846.019190,18060.164816,8602.828813,12066.544541,13.664001,-827.648010,-552.416016,4340.000000,-140.000000,2800.000000
-15843.564671,-1642.674404,-3333.449761,-20228.708712,-4087.843488,-7934.757523,-9458.051259,-6264.456363,5453.378612,15494.788050,14236.250727,14815.384426,20810.725786,18027.307752,8575.269112,12042.874043,13.176001,-828.135986,-549.976013,4620.000000,-140.000000,2800.000000
-15844.279926,-1644.507247,-3331.862787,-20221.109119,-4085.630665,-7934.221081,-9457.380707,-6268.189105,5444.259100,15485.310910,14227.779416,14806.108452,20801.874495,18020.736339,8567.915388,12034.715657,13.664001,-828.135986,-553.880005,4620.000000,-140.000000,2800.000000
-15843.788188,-1646.787124,-3327.213624,-20250.054628,-4085.362445,-7931.203596,-9464.801486,-6272.324177,5463.101621,15514.926972,14255.339116,14829.622487,20833.099882,18050.620622,8584.835659,12050.563043,15.128000,-827.160034,-554.367981,4900.000000,-420.000000,2800.000000
-15846.135121,-1651.838619,-3324.352601,-20295.361614,-4085.004817,-7927.157930,-9469.405945,-6270.871314,5484.872220,15558.490522,14297.829783,14866.972252,20880.172656,18097.514581,8620.687857,12079.977939,14.640000,-828.135986,-553.880005,5180.000000,-140.000000,2660.000000
-15852.617127,-1659.348805,-3328.331212,-20333.851318,-4088.268171,-7928.208462,-9472.892818,-6269.709023,5495.131671,15589.984130,14331.424455,14895.269560,20915.287246,18133.322076,8653.746087,12105.280114,15.616000,-824.231995,-555.343994,4900.000000,-140.000000,2380.000000
-15856.506331,-1661.762793,-3334.343831,-20348.804635,-4093.386721,-7934.064619,-9476.960835,-6269.485506,5501.948953,15602.121127,14343.360286,14906.467784,20925.747863,18143.089788,8663.938482,12114.712550,15.616000,-825.695984,-556.320007,4900.000000,-280.000000,2660.000000
-15859.769685,-1664.780279,-3340.803485,-20334.454815,-4096.560669,-7938.937299,-9476.379690,-6268.367919,5496.718645,15588.643025,14327.937582,14893.816697,20908.738185,18125.051931,8651.488561,12109.571649,18.056000,-826.671997,-555.343994,4900.000000,-280.000000,2380.000000
-15858.920319,-1663.461526,-3343.865674,-20297.641492,-4095.979523,-7940.770142,-9474.412736,-6267.675014,5480.781851,15554.377801,14292.554771,14863.910063,20872.595414,18086.875151,8618.922069,12090.080928,15.128000,-828.135986,-556.807983,4620.000000,-420.000000,2100.000000
-15849.353772,-1655.191380,-3342.211645,-20258.280070,-4094.973695,-7941.574805,-9470.925864,-6266.758593,5472.556409,15522.414806,14257.574291,14836.104493,20835.357408,18048.944241,8584.813307,12064.801105,15.616000,-826.184021,-553.392029,4340.000000,-420.000000,1960.000000
-15843.385857,-1651.659805,-3338.948290,-20239.437549,-4093.856107,-7939.764314,-9466.880198,-6267.160924,5467.527266,15505.494536,14239.558785,14821.799376,20817.431309,18032.850985,8572.206923,12049.579567,15.128000,-827.160034,-555.343994,4200.000000,-420.000000,1820.000000
-15847.990316,-1658.633549,-3337.495427,-20253.653259,-4094.101977,-7935.986869,-9467.707213,-6269.418451,5468.041357,15513.988199,14250.377029,14826.515594,20830.998818,18048.720723,8582.891057,12056.441552,13.664001,-823.744019,-553.392029,4340.000000,-560.000000,1820.000000
-15850.627822,-1659.929950,-3332.019249,-20286.823247,-4090.145718,-7931.784741,-9467.818972,-6272.391233,5480.848906,15546.062952,14283.412908,14853.315336,20865.778132,18087.344538,8610.115482,12077.251026,14.152000,-828.135986,-550.952026,4060.000000,-560.000000,1820.000000
-15852.281851,-1657.627721,-3329.940537,-20321.535506,-4087.396453,-7931.449465,-9468.757745,-6274.738166,5496.204555,15580.529342,14315.755882,14885.993586,20901.049185,18123.710826,8641.430276,12099.647474,16.592001,-827.160034,-554.367981,3780.000000,-420.000000,1680.000000
-15849.532586,-1653.447944,-3331.840435,-20338.545184,-4086.323570,-7932.768218,-9469.182428,-6274.112317,5512.074293,15597.673130,14332.206766,14906.244267,20916.740110,18139.692323,8657.031793,12111.918582,17.080000,-830.575989,-551.440002,3780.000000,-420.000000,1540.000000
-15848.660868,-1652.553875,-3334.701459,-20327.659884,-4085.541259,-7934.668116,-9467.014309,-6272.212419,5513.035418,15588.173638,14323.802510,14901.259828,20904.156077,18126.661256,8649.745125,12108.185841,18.056000,-830.088013,-554.856018,3920.000000,-140.000000,1540.000000
-15845.330458,-1651.324529,-3338.054220,-20295.205151,-4088.983427,-7938.870244,-9465.047355,-6271.295997,5504.698217,15559.652812,14295.840477,14877.209351,20871.969565,18089.289139,8621.648982,12090.371500,15.616000,-831.552002,-553.392029,3920.000000,-140.000000,1680.000000
-15844.637554,-1654.274959,-3343.016308,-20254.748494,-4092.827927,-7942.379468,-9462.879236,-6270.692500,5482.458232,15518.972638,14255.249710,14840.574842,20829.098920,18044.160967,8586.288522,12063.795276,17.568001,-831.552002,-551.927979,3920.000000,-140.000000,1680.000000
-15844.078761,-1657.694776,-3344.044488,-20229.222802,-4094.414901,-7942.200654,-9461.739297,-6270.133706,5465.873237,15493.066966,14231.914488,14816.814937,20804.936684,18018.076482,8564.070888,12047.165578,16.592001,-829.600037,-549.000000,3780.000000,-140.000000,1680.000000
-15841.664772,-1655.101973,-3337.987165,-20229.423968,-4091.106843,-7938.065581,-9458.855922,-6269.798430,5465.984996,15495.771527,14234.999029,14819.184222,20808.378852,18023.060921,8565.635510,12045.936232,14.640000,-832.040039,-555.832031,3640.000000,0.000000,1820.000000
-15845.017534,-1656.063098,-3333.829741,-20260.872872,-4091.062139,-7936.344497,-9463.438030,-6273.151192,5479.060767,15524.828795,14265.866788,14843.257051,20839.850109,18056.767351,8586.042653,12061.515398,16.592001,-832.528015,-554.367981,3780.000000,0.000000,1960.000000
-15852.840644,-1661.695738,-3334.097962,-20305.151678,-4093.744349,-7936.366849,-9470.970568,-6276.079270,5495.444595,15563.050278,14307.776309,14875.890598,20883.815990,18100.733233,8617.536261,12088.605712,12.688000,-828.135986,-552.416016,3780.000000,420.000000,1960.000000
-15855.567557,-1663.573285,-3335.573177,-20333.292524,-4094.414901,-7935.428075,-9474.770364,-6275.408718,5507.022799,15590.319406,14335.760693,14899.650502,20913.364996,18128.292933,8640.804427,12108.185841,14.152000,-829.600037,-554.856018,3780.000000,700.000000,1960.000000
-15852.326554,-1654.789049,-3335.617880,-20329.380969,-4090.369235,-7936.188035,-9472.602245,-6270.938369,5508.922697,15587.503086,14330.284516,14901.684511,20908.492316,18125.901297,8639.575081,12109.124614,15.128000,-830.575989,-551.440002,3360.000000,560.000000,1960.000000
-15844.078761,-1640.975671,-3332.846264,-20289.416050,-4081.696758,-7935.673944,-9459.749992,-6262.042375,5492.158889,15553.461379,14292.554771,14876.069412,20869.041487,18091.926645,8618.631496,12090.170335,16.592001,-827.160034,-553.880005,3500.000000,560.000000,1960.000000
-15844.235223,-1646.250683,-3335.260252,-20249.920517,-4082.546125,-7936.500959,-9454.564387,-6258.399041,5467.504915,15515.999856,14255.964965,14840.776007,20829.098920,18053.503997,8589.529525,12069.249102,11.224000,-828.624023,-555.832031,3220.000000,840.000000,1960.000000
-15849.197310,-1656.688947,-3339.305918,-20224.059549,-4088.715206,-7937.685601,-9456.464285,-6260.343642,5452.909226,15488.909541,14229.053465,14811.383463,20803.170896,18023.083272,8562.483914,12051.054782,16.592001,-829.112000,-554.367981,3220.000000,980.000000,2100.000000
-15845.241051,-1653.984386,-3335.863749,-20219.477441,-4090.123366,-7936.456255,-9457.872445,-6265.216323,5456.485505,15485.981463,14224.739578,14805.236734,20800.086355,18017.316522,8554.616100,12043.589299,13.664001,-829.600037,-553.880005,2940.000000,840.000000,1820.000000
-15840.234261,-1649.089354,-3329.605261,-20241.784482,-4087.932895,-7935.092799,-9461.247559,-6269.194933,5472.556409,15509.719015,14248.030096,14824.660400,20823.086300,18040.025895,8571.312853,12051.926500,15.128000,-828.624023,-553.880005,2800.000000,700.000000,1960.000000
-15841.038923,-1647.725898,-3326.051334,-20279.760096,-4084.490727,-7932.231776,-9462.231035,-6270.089003,5488.426148,15546.174711,14286.475097,14857.070429,20864.124103,18082.471857,8605.734540,12073.987672,14.640000,-824.231995,-556.807983,2660.000000,700.000000,1820.000000
-15844.726961,-1648.530561,-3326.855996,-20314.539410,-4082.926104,-7932.209424,-9464.063879,-6270.267817,5496.696293,15576.461324,14320.382693,14885.233627,20898.389327,18116.737082,8637.518720,12097.814631,14.640000,-827.160034,-552.416016,2520.000000,840.000000,1680.000000
-15843.117636,-1648.016470,-3329.314688,-20326.430538,-4083.596657,-7933.796398,-9465.717908,-6270.446631,5501.457215,15586.787830,14331.737379,14896.476554,20909.140516,18126.773015,8646.772343,12108.789338,14.152000,-825.695984,-555.832031,2520.000000,560.000000,1540.000000
-15836.881499,-1641.690927,-3331.929842,-20306.470431,-4082.635532,-7936.791532,-9462.387498,-6266.780945,5498.596191,15567.565330,14311.307885,14884.898351,20887.079345,18106.343520,8632.668392,12100.742710,15.616000,-825.695984,-553.392029,2380.000000,560.000000,1680.000000
-15838.557880,-1643.456715,-3336.646061,-20271.154674,-4086.211811,-7938.691430,-9459.705288,-6263.159962,5481.854735,15531.847242,14275.232169,14855.706973,20849.327248,18068.613776,8602.314723,12080.357919,15.128000,-823.744019,-555.343994,2520.000000,420.000000,1260.000000
-15838.043790,-1642.808514,-3338.791828,-20230.854479,-4086.211811,-7938.713782,-9454.653794,-6258.734317,5462.632234,15493.961035,14236.183671,14821.687618,20809.474088,18026.883069,8568.563589,12054.787523,16.104000,-825.695984,-554.856018,2380.000000,420.000000,1400.000000
-15835.182766,-1639.947491,-3335.081438,-20212.369587,-4081.808517,-7936.322145,-9450.943405,-6258.466096,5453.356260,15479.432402,14219.129290,14808.008350,20791.100954,18011.795641,8552.738554,12041.622346,16.592001,-826.671997,-560.223999,2380.000000,-140.000000,1120.000000
-15842.514139,-1647.457677,-3333.561520,-20233.447282,-4083.708415,-7934.444598,-9459.593530,-6264.590474,5456.016118,15496.263265,14237.904756,14819.810071,20811.843373,18033.700351,8559.578187,12050.674802,13.664001,-826.671997,-554.856018,2380.000000,-140.000000,1120.000000
-15849.487883,-1654.990215,-3331.616918,-20274.418029,-4085.988293,-7932.030610,-9468.333062,-6267.652663,5466.744955,15531.668428,14276.416812,14848.509711,20854.155225,18075.296947,8585.349749,12072.355994,15.616000,-827.648010,-558.760010,2240.000000,-140.000000,980.000000
-15856.327517,-1664.266189,-3331.281642,-20316.349902,-4087.619971,-7929.616622,-9472.714004,-6265.842171,5478.479621,15570.024022,14317.968704,14880.875037,20897.852885,18117.899372,8620.352581,12097.814631,17.080000,-826.671997,-555.832031,2100.000000,-280.000000,980.000000
-15859.367354,-1669.675311,-3336.176674,-20339.640419,-4090.615105,-7932.723514,-9473.764536,-6264.590474,5489.208459,15590.677034,14340.186338,14898.756432,20920.294037,18136.540727,8645.341831,12114.086701,14.152000,-827.160034,-555.832031,2520.000000,-420.000000,840.000000
-15850.650174,-1661.651035,-3338.769476,-20326.207021,-4088.692854,-7936.478607,-9471.439954,-6265.886875,5493.902325,15581.378708,14328.786949,14894.263732,20905.854810,18121.967390,8640.759723,12108.051730,14.640000,-828.135986,-554.856018,2520.000000,-560.000000,840.000000
-15839.921336,-1648.821133,-3337.093095,-20285.348032,-4083.529602,-7938.110285,-9465.427335,-6264.836343,5482.659397,15547.158187,14292.577123,14869.945034,20864.861711,18083.142410,8610.920144,12082.324872,16.104000,-827.160034,-558.760010,2520.000000,-560.000000,700.000000
-15834.311048,-1643.613177,-3336.556654,-20242.902069,-4083.820174,-7939.071410,-9460.845227,-6264.925750,5465.157982,15512.110652,14255.920262,14837.847929,20821.834603,18040.562337,8575.045595,12054.698116,16.104000,-828.135986,-555.832031,2380.000000,-560.000000,700.000000
-15834.467511,-1641.333299,-3334.433238,-20214.291837,-4081.227372,-7937.819712,-9454.206759,-6262.310596,5447.701269,15486.026166,14227.399436,14813.193955,20793.671405,18013.583781,8555.599577,12035.006229,16.592001,-828.135986,-555.832031,2660.000000,-420.000000,560.000000
-15835.003952,-1641.288595,-3331.348697,-20213.375415,-4078.925142,-7935.405724,-9449.803466,-6257.281453,5444.706135,15482.963977,14224.560764,14808.835364,20793.358480,18015.595438,8559.578187,12034.469787,16.592001,-827.160034,-555.832031,2660.000000,-420.000000,560.000000
-15837.976734,-1644.775467,-3327.012459,-20244.913726,-4077.718148,-7932.499997,-9452.262157,-6259.360166,5455.077345,15511.618914,14255.719096,14833.019952,20826.304951,18049.681848,8583.829830,12053.580529,16.592001,-827.648010,-558.760010,2380.000000,-420.000000,420.000000
-15845.419865,-1650.162238,-3325.872520,-20288.991367,-4076.466450,-7929.862491,-9457.492466,-6261.952968,5470.701214,15549.885100,14295.326387,14866.324051,20869.332060,18094.653558,8618.720903,12081.766079,17.080000,-830.088013,-554.367981,2520.000000,-560.000000,420.000000
-15847.587985,-1654.520828,-3327.548901,-20317.378082,-4077.338168,-7930.421284,-9459.794695,-6260.723622,5485.855697,15576.461324,14320.807376,14888.184057,20895.774173,18122.079149,8642.883139,12101.435614,15.616000,-829.112000,-556.320007,2940.000000,-280.000000,700.000000
-15839.496653,-1650.184590,-3328.152398,-20319.166222,-4079.148660,-7932.388238,-9461.135800,-6259.047241,5498.350322,15583.815048,14324.964800,14895.068395,20898.255217,18122.704997,8643.106656,12105.011893,17.080000,-828.135986,-561.200012,2660.000000,-560.000000,700.000000
-15833.618144,-1644.127267,-3331.058124,-20293.349957,-4080.623875,-7937.149160,-9460.532303,-6258.399041,5494.706988,15560.904510,14301.003730,14879.198656,20872.506007,18095.502924,8622.028961,12092.919599,16.592001,-828.624023,-555.832031,2800.000000,-700.000000,700.000000
-15829.706589,-1638.427572,-3331.281642,-20252.513320,-4079.908619,-7937.707953,-9456.687803,-6256.119163,5480.178354,15523.308876,14264.391573,14848.196786,20832.116405,18055.001563,8588.411938,12069.562026,14.640000,-830.575989,-555.343994,3080.000000,-560.000000,700.000000
-15827.873746,-1639.142828,-3330.700497,-20220.080938,-4079.886267,-7937.909119,-9456.330175,-6258.041413,5467.147287,15493.581056,14234.283773,14818.893649,20800.555742,18022.032740,8558.192379,12046.785599,13.664001,-830.088013,-556.320007,2940.000000,-700.000000,700.000000
-15836.389761,-1644.730764,-3332.287470,-20215.118851,-4079.908619,-7937.350325,-9456.553692,-6261.952968,5456.597263,15483.634530,14222.482052,14806.443728,20794.565474,18015.371921,8552.693850,12040.504758,18.056000,-828.624023,-555.832031,3220.000000,-840.000000,700.000000
-15841.329496,-1646.317738,-3329.068819,-20238.208203,-4078.679273,-7933.394066,-9458.721812,-6264.724584,5462.162848,15503.237009,14242.598622,14820.659437,20819.353559,18041.814034,8570.508190,12052.619404,15.616000,-828.135986,-558.760010,3080.000000,-840.000000,700.000000
-15844.950479,-1646.563607,-3325.269023,-20275.468561,-4074.097165,-7929.594270,-9459.012384,-6264.165791,5476.445612,15535.669391,14276.685032,14849.873167,20857.664449,18084.349404,8603.231144,12075.619349,14.640000,-828.624023,-557.783997,3360.000000,-560.000000,840.000000
-15851.052505,-1651.302177,-3325.067857,-20313.175954,-4073.650130,-7927.515558,-9459.481771,-6262.131782,5490.929543,15567.542978,14313.408949,14878.773973,20894.880103,18123.196736,8635.775284,12101.033282,13.176001,-829.600037,-556.320007,3360.000000,-700.000000,980.000000
-15851.521892,-1651.659805,-3327.772418,-20326.542297,-4074.834773,-7928.856662,-9460.889931,-6262.712927,5501.770139,15581.021080,14328.898707,14891.514467,20907.151211,18134.819643,8646.504122,12111.046864,15.128000,-831.552002,-559.247986,3500.000000,-700.000000,840.000000
-15841.284793,-1642.987328,-3327.638308,-20308.839716,-4076.377043,-7933.192901,-9465.382631,-6269.239637,5507.223965,15572.885045,14315.889992,14885.323034,20891.370880,18113.116099,8627.192214,12097.211134,15.128000,-829.600037,-559.247986,3780.000000,-700.000000,980.000000
-15839.206080,-1640.126305,-3329.225281,-20275.177988,-4078.276942,-7936.500959,-9464.242692,-6271.117183,5494.148194,15544.095998,14283.234094,14861.674888,20858.178539,18076.392183,8597.866726,12078.390965,16.104000,-830.088013,-556.807983,3640.000000,-840.000000,980.000000
-15844.861072,-1645.960110,-3334.656755,-20238.230555,-4078.768680,-7936.210386,-9456.531341,-6269.753727,5470.432993,15504.131079,14243.917375,14826.672057,20820.381739,18036.762540,8574.084470,12057.916767,13.664001,-829.600037,-558.760010,3920.000000,-700.000000,980.000000
-15844.816368,-1645.446020,-3333.472113,-20217.465784,-4077.047596,-7933.796398,-9450.809294,-6270.513686,5460.285301,15482.472239,14222.504404,14808.008350,20799.169934,18017.718854,8564.942606,12045.042163,12.688000,-827.648010,-556.807983,4340.000000,-700.000000,840.000000
-15846.559804,-1647.010642,-3331.013421,-20230.630962,-4077.829907,-7930.533043,-9451.636309,-6272.860619,5463.123973,15492.977559,14235.557823,14817.329027,20811.865725,18033.253316,8576.610217,12051.702982,12.688000,-828.624023,-555.832031,3920.000000,-840.000000,840.000000
-15852.438313,-1652.375061,-3330.208758,-20269.835922,-4079.819212,-7928.811959,-9457.425410,-6277.062747,5475.417432,15526.751045,14271.141800,14846.185129,20850.333077,18072.570035,8606.114519,12074.278244,14.152000,-828.135986,-559.736023,4340.000000,-700.000000,840.000000
-15857.512159,-1652.710337,-3330.633441,-20309.130288,-4080.243895,-7928.543738,-9459.794695,-6278.023872,5489.029645,15560.144551,14305.742300,14877.857551,20887.459324,18112.222029,8639.239805,12098.462832,13.176001,-830.575989,-557.783997,4200.000000,-840.000000,840.000000
-15857.154531,-1650.005776,-3331.102828,-20330.185632,-4081.137965,-7929.236642,-9462.365146,-6276.682767,5497.858584,15579.612920,14325.143614,14896.454203,20906.994749,18133.098559,8652.829665,12112.387969,15.128000,-829.112000,-554.367981,4200.000000,-840.000000,700.000000
-15855.254633,-1650.162238,-3332.734505,-20325.290600,-4083.641360,-7931.382409,-9464.555617,-6275.632235,5498.439729,15576.707193,14321.343818,14894.308435,20900.915074,18127.152995,8643.106656,12111.695065,14.640000,-829.112000,-557.296021,4340.000000,-700.000000,560.000000
-15849.711400,-1645.602482,-3337.562482,-20292.835867,-4087.172936,-7934.668116,-9462.923940,-6272.592398,5492.762386,15547.627574,14291.839515,14870.190903,20867.789789,18091.725480,8616.664543,12093.768965,15.128000,-829.600037,-559.736023,4480.000000,-980.000000,560.000000
-15839.675467,-1635.544197,-3336.847226,-20246.947735,-4084.468375,-7935.852758,-9455.726678,-6272.704157,5480.781851,15509.942533,14249.147683,14836.640935,20823.510983,18045.390313,8584.098051,12067.170390,12.688000,-829.600037,-556.320007,4480.000000,-980.000000,560.000000
-15834.132234,-1632.146732,-3333.136837,-20221.869078,-4082.479070,-7933.796398,-9453.133876,-6271.474811,5472.668168,15491.010605,14227.622953,14817.597248,20800.198114,18022.904458,8563.422687,12051.077134,13.664001,-831.552002,-558.760010,4760.000000,-980.000000,560.000000
-15839.563708,-1638.136999,-3333.449761,-20229.356912,-4084.066043,-7931.538872,-9456.732506,-6270.781907,5470.030662,15494.653940,14234.864919,14817.865469,20807.373024,18030.749921,8564.853199,12053.133494,12.688000,-829.600037,-555.832031,4760.000000,-1400.000000,420.000000
-15850.203139,-1645.982462,-3331.169883,-20261.230500,-4082.322607,-7928.543738,-9458.542998,-6271.273645,5472.221133,15520.850184,14264.637442,14838.898461,20840.185385,18065.953918,8589.842449,12069.070288,12.200000,-829.600037,-555.832031,5040.000000,-1540.000000,420.000000
-15853.712362,-1650.363404,-3327.101866,-20305.911637,-4081.003854,-7923.961630,-9461.247559,-6270.670148,5487.129746,15562.066801,14308.871544,14876.382336,20886.654661,18114.747776,8626.722828,12098.619294,12.688000,-830.575989,-557.296021,5040.000000,-1540.000000,420.000000
-15860.708459,-1660.086412,-3332.689802,-20343.708437,-4088.514041,-7926.465026,-9470.143553,-6270.267817,5504.474700,15592.845153,14343.069713,14904.992569,20922.596267,18148.029524,8652.315575,12122.334495,12.200000,-830.575989,-554.856018,5040.000000,-1540.000000,420.000000
-15860.931976,-1656.308968,-3336.936633,-20344.267231,-4088.894020,-7930.756561,-9468.780097,-6266.468020,5508.028627,15593.471002,14342.645030,14908.635903,20920.830479,18146.241384,8657.724697,12124.793187,17.080000,-828.135986,-554.367981,5180.000000,-1400.000000,420.000000
-15853.846473,-1642.652052,-3338.545959,-20311.521925,-4085.004817,-7934.913985,-9462.655719,-6263.271721,5497.143328,15566.850074,14313.453652,14887.066470,20887.347566,18112.534954,8638.859825,12106.397701,13.664001,-830.088013,-554.367981,5180.000000,-1400.000000,420.000000
-15852.773589,-1640.774505,-3340.043526,-20267.913671,-4084.088395,-7936.947994,-9460.867579,-6260.947139,5474.188086,15523.442986,14272.505256,14850.297850,20843.046408,18068.434962,8602.471185,12076.133439,16.592001,-831.552002,-555.343994,5040.000000,-1540.000000,560.000000
-15852.393610,-1641.735630,-3340.334098,-20236.643581,-4085.541259,-7937.395029,-9459.280605,-6262.824686,5460.866447,15493.961035,14242.240994,14822.313466,20811.418690,18036.226098,8574.643263,12053.267605,16.592001,-829.600037,-552.903992,5320.000000,-1400.000000,420.000000
-15851.074857,-1640.059249,-3338.009517,-20228.775767,-4082.926104,-7935.741000,-9455.391402,-6264.568122,5459.905322,15486.830829,14232.965020,14813.484527,20804.132021,18030.124072,8568.675347,12048.238462,14.640000,-828.624023,-558.272034,5040.000000,-1540.000000,560.000000
-15856.618089,-1649.201113,-3336.847226,-20257.587166,-4087.888192,-7933.550529,-9461.672242,-6270.021948,5470.768269,15511.462451,14260.345907,14831.187109,20833.524565,18058.331973,8585.595618,12063.527055,15.128000,-829.112000,-551.440002,5320.000000,-1540.000000,560.000000
-15860.373182,-1653.738517,-3335.059087,-20300.949550,-4091.419767,-7930.778912,-9467.282530,-6272.950026,5488.336741,15550.466245,14302.948332,14864.044173,20877.579853,18102.923704,8619.078531,12089.790355,14.152000,-830.575989,-555.832031,5040.000000,-1540.000000,420.000000
-15858.428581,-1647.234159,-3330.342869,-20328.241030,-4085.094224,-7927.314392,-9463.885065,-6269.373747,5500.697255,15579.389403,14329.211632,14891.469764,20907.598246,18135.758416,8651.153284,12109.929277,16.104000,-830.088013,-556.807983,5460.000000,-1260.000000,560.000000
-15857.020421,-1644.060212,-3329.582909,-20332.621972,-4081.763814,-7928.811959,-9459.749992,-6267.585607,5504.273534,15586.206685,14334.799568,14899.203467,20913.320293,18142.106312,8665.234883,12117.171242,15.616000,-828.135986,-555.832031,5040.000000,-1260.000000,560.000000
-15851.208967,-1640.103953,-3330.432276,-20312.080719,-4081.428538,-7931.561223,-9456.196064,-6263.718756,5502.060712,15571.789810,14316.359379,14886.775897,20894.298958,18119.732215,8652.606148,12107.627047,16.104000,-829.112000,-554.367981,5460.000000,-1400.000000,560.000000
-15848.549110,-1642.137962,-3335.461418,-20279.380116,-4086.614142,-7934.288136,-9455.927844,-6260.209532,5492.695331,15542.263155,14284.552846,14861.429019,20860.391362,18083.790610,8621.313706,12086.571704,16.104000,-830.088013,-555.343994,5600.000000,-1120.000000,700.000000
-15843.631726,-1638.986366,-3336.579005,-20241.538613,-4084.960113,-7935.405724,-9450.965756,-6258.354337,5479.932485,15508.087338,14248.410076,14832.885841,20821.141698,18047.089046,8590.267133,12063.951738,15.616000,-828.624023,-556.320007,5320.000000,-1260.000000,700.000000
-15846.850377,-1640.148656,-3335.819046,-20224.685398,-4084.200154,-7933.572880,-9448.574120,-6258.175523,5467.035528,15490.071832,14231.065122,14814.557411,20804.467297,18031.666342,8575.671443,12052.217073,15.616000,-829.600037,-556.320007,5320.000000,-980.000000,840.000000
-15850.717229,-1645.244854,-3332.846264,-20241.717427,-4085.809479,-7930.018953,-9454.340870,-6261.304767,5471.282360,15503.974617,14247.426599,14824.168661,20823.399225,18049.324220,8579.784164,12060.934253,17.080000,-828.135986,-555.343994,5180.000000,-840.000000,700.000000
-15855.344040,-1652.844447,-3330.454627,-20286.264454,-4089.072834,-7927.135578,-9463.236864,-6265.283378,5491.086005,15545.951193,14289.649044,14859.462066,20867.834493,18092.530142,8605.622781,12087.443422,15.128000,-830.575989,-556.807983,5180.000000,-700.000000,840.000000
-15856.103999,-1653.716165,-3329.158226,-20329.224507,-4090.235125,-7925.995639,-9468.869504,-6267.496201,5512.566032,15587.950121,14330.530385,14896.230685,20909.185220,18134.484367,8637.295203,12114.064349,17.568001,-828.624023,-554.367981,5180.000000,-840.000000,700.000000
-15856.953365,-1650.676328,-3329.784075,-20346.010667,-4088.134061,-7926.532081,-9466.299053,-6265.462192,5518.422189,15605.652703,14347.495359,14912.592162,20926.597229,18151.717562,8656.696517,12126.201347,17.080000,-828.135986,-554.856018,4760.000000,-700.000000,700.000000
-15862.071915,-1651.883322,-3335.193197,-20336.131196,-4088.312875,-7930.175415,-9461.471076,-6264.098735,5509.168566,15593.314540,14337.727647,14905.573714,20914.616694,18139.289992,8656.025965,12121.373370,16.592001,-828.624023,-553.880005,4480.000000,-560.000000,840.000000
-15861.535473,-1651.168066,-3337.808351,-20302.469468,-4088.961075,-7932.455293,-9457.112486,-6262.847038,5495.131671,15562.446780,14307.418681,14881.187961,20880.463228,18104.555381,8631.774322,12102.374387,15.616000,-829.112000,-554.367981,4620.000000,-280.000000,700.000000
-15857.601566,-1645.066040,-3338.344793,-20257.408352,-4086.278866,-7932.567052,-9449.736410,-6261.215360,5477.496144,15522.481861,14262.603433,14848.062676,20834.329228,18061.014183,8598.917258,12074.837038,14.152000,-830.088013,-553.880005,4340.000000,-420.000000,700.000000
-15855.344040,-1638.449924,-3335.126142,-20224.372473,-4080.802689,-7929.437808,-9438.940518,-6257.639081,5461.626406,15492.150544,14230.260459,14821.508804,20802.075660,18032.158081,8579.448888,12053.446418,16.104000,-828.624023,-553.880005,3920.000000,-420.000000,700.000000
-15861.401363,-1648.351747,-3334.992031,-20233.782558,-4086.189459,-7927.940241,-9445.623689,-6259.851904,5459.592397,15497.157335,14239.402323,14821.285286,20812.245704,18040.964668,8576.476106,12056.598014,17.080000,-830.088013,-554.856018,3780.000000,-420.000000,700.000000
-15861.446066,-1650.899845,-3332.108656,-20270.662936,-4089.899849,-7926.308564,-9456.821913,-6265.417488,5480.960665,15531.847242,14276.103887,14849.068504,20850.266022,18076.906273,8593.329322,12074.993500,15.128000,-829.112000,-556.320007,3780.000000,-420.000000,560.000000
-15858.003897,-1647.412973,-3328.152398,-20311.499573,-4089.452814,-7924.855700,-9462.745126,-6269.574913,5510.062636,15571.745106,14315.889992,14885.054813,20891.750859,18118.078186,8623.593584,12097.904038,13.664001,-829.112000,-556.320007,3500.000000,-700.000000,280.000000
-15859.769685,-1647.591787,-3329.426447,-20337.807576,-4089.139889,-7925.861529,-9460.845227,-6265.998634,5520.679715,15593.269836,14338.845234,14906.646598,20917.656531,18142.687457,8650.639194,12116.567745,17.080000,-830.575989,-554.367981,3500.000000,-840.000000,420.000000
-15858.160360,-1648.016470,-3332.332174,-20341.540318,-4089.989256,-7929.080180,-9461.538131,-6263.115259,5522.736075,15597.181391,14344.433170,14912.055720,20920.919886,18143.693285,8654.774267,12122.088626,16.104000,-827.648010,-555.832031,3500.000000,-700.000000,420.000000
-15854.137046,-1642.272072,-3334.075610,-20308.169163,-4084.714244,-7930.376581,-9453.938538,-6260.075421,5505.033494,15567.095943,14314.638295,14891.045081,20888.107525,18112.981989,8633.562462,12105.727149,15.128000,-829.600037,-555.343994,3500.000000,-840.000000,560.000000
-15852.572424,-1640.998023,-3337.227206,-20263.242157,-4082.300256,-7932.410590,-9446.115428,-6256.834418,5481.944142,15523.465338,14270.203027,14854.276461,20841.682952,18068.077334,8599.945438,12079.061518,17.568001,-830.575989,-552.416016,3500.000000,-980.000000,420.000000
-15848.035019,-1637.198226,-3334.410886,-20229.021636,-4078.500459,-7930.823616,-9441.466265,-6255.850942,5469.360109,15493.536352,14237.636535,14827.633182,20809.071756,18035.712008,8572.676310,12057.112105,12.200000,-829.600037,-557.783997,3500.000000,-1120.000000,280.000000
-15846.313935,-1640.103953,-3331.236938,-20222.271409,-4079.081604,-7928.387276,-9443.299108,-6258.399041,5465.470906,15488.104878,14232.070951,14819.899478,20804.400242,18031.174604,8561.478086,12048.819607,14.640000,-830.575989,-550.463989,3500.000000,-980.000000,280.000000
-15852.013630,-1650.095183,-3328.867653,-20251.552195,-4084.535430,-7928.275517,-9453.737373,-6263.048203,5473.562237,15513.854088,14260.278852,14838.406722,20834.083359,18059.628375,8573.413917,12062.476523,13.176001,-827.160034,-554.856018,3360.000000,-1120.000000,140.000000
-15861.982508,-1662.433346,-3330.141703,-20301.240122,-4089.788090,-7927.962593,-9463.594492,-6263.271721,5488.537906,15557.060010,14305.071748,14871.956691,20881.625519,18106.544686,8606.785072,12092.539620,16.104000,-829.600037,-553.880005,3500.000000,-840.000000,280.000000
-15864.351793,-1667.015453,-3333.382706,-20340.579193,-4092.358541,-7928.946069,-9467.103716,-6263.741107,5506.754578,15592.778098,14340.611022,14900.924552,20918.058862,18143.670934,8641.497331,12118.132367,15.128000,-829.600037,-554.856018,3220.000000,-980.000000,420.000000
-15861.177845,-1664.623817,-3335.550825,-20351.062161,-4093.051445,-7931.248299,-9467.081364,-6261.215360,5516.902270,15604.311598,14352.457446,14911.362816,20927.446595,18152.075190,8655.288357,12127.207175,13.176001,-828.624023,-553.392029,3220.000000,-980.000000,140.000000
-15857.310993,-1659.035880,-3338.255386,-20335.080664,-4095.130157,-7936.590366,-9467.126068,-6259.136648,5517.617526,15589.537095,14338.711123,14902.332711,20909.922827,18132.919745,8643.173712,12119.585230,12.688000,-826.184021,-555.343994,3360.000000,-980.000000,280.000000
-15860.216720,-1659.147639,-3342.479866,-20299.273169,-4095.778357,-7939.317279,-9463.102754,-6257.907302,5497.813880,15550.980336,14299.953198,14872.046098,20873.355374,18094.117116,8614.027037,12099.200439,13.176001,-827.160034,-555.343994,3360.000000,-980.000000,420.000000
-15862.720116,-1658.611197,-3345.273834,-20257.296593,-4093.498480,-7939.160817,-9456.508989,-6256.253273,5470.880028,15507.439137,14257.239015,14836.506824,20832.496385,18052.587575,8580.678234,12072.914788,11.224000,-829.600037,-555.832031,3080.000000,-1120.000000,280.000000
-15858.607395,-1653.850276,-3340.959947,-20235.861270,-4087.731729,-7936.165683,-9451.233977,-6257.952006,5457.916016,15489.334224,14240.162282,14819.385388,20814.123251,18036.404912,8565.479048,12058.162637,11.712000,-828.624023,-555.832031,3220.000000,-980.000000,280.000000
-15855.724019,-1658.074755,-3336.690764,-20252.602727,-4089.609276,-7933.863453,-9457.246596,-6265.864523,5469.561275,15508.914353,14260.547073,14830.985943,20832.094053,18054.375715,8573.369214,12064.488180,11.224000,-826.671997,-552.903992,3080.000000,-1260.000000,140.000000
-15852.237147,-1655.124325,-3331.639270,-20286.957358,-4087.083529,-7930.063657,-9459.302957,-6268.412622,5490.258991,15545.057123,14295.795774,14859.484417,20868.281528,18091.524314,8601.890040,12084.492992,14.152000,-830.088013,-554.856018,3080.000000,-980.000000,280.000000
-15844.101112,-1643.836694,-3323.905566,-20315.768756,-4076.578209,-7926.129750,-9453.558559,-6264.255198,5507.492186,15576.774249,14325.747112,14889.502810,20901.876199,18127.689436,8636.445837,12104.542506,14.640000,-830.575989,-555.832031,3360.000000,-840.000000,140.000000
-15834.959249,-1632.951395,-3319.211700,-20325.983504,-4069.358596,-7925.123921,-9446.182483,-6260.880084,5519.495072,15591.459345,14338.331144,14905.908991,20914.326121,18141.860442,8655.713040,12114.153756,14.640000,-830.088013,-555.343994,3360.000000,-980.000000,280.000000
-15824.610391,-1623.429552,-3317.445912,-20310.694910,-4065.827020,-7927.202633,-9441.019230,-6262.087078,5523.652497,15584.552656,14330.284516,14903.115023,20899.641025,18127.465919,8649.432200,12106.174184,12.688000,-828.135986,-554.367981,3360.000000,-840.000000,280.000000
-15813.613333,-1610.554947,-3315.009572,-20270.148846,-4060.127325,-7927.761427,-9432.011477,-6258.466096,5516.097607,15555.450684,14297.382748,14879.958615,20862.179501,18089.356195,8622.610107,12081.229637,15.128000,-829.600037,-555.832031,3500.000000,-1120.000000,280.000000
-15808.628894,-1606.732798,-3314.763703,-20228.105215,-4059.389718,-7929.773084,-9427.786997,-6256.566197,5498.775005,15521.096053,14260.904701,14847.414475,20819.375911,18046.396142,8587.406109,12053.401715,16.104000,-830.088013,-554.367981,3500.000000,-1120.000000,140.000000
-15801.655150,-1599.915516,-3311.410941,-20197.192752,-4054.159409,-7926.867357,-9418.801596,-6253.481657,5488.448499,15496.084451,14233.702628,14823.006370,20789.648091,18019.775214,8567.624815,12035.073285,15.616000,-829.112000,-553.880005,3640.000000,-1120.000000,140.000000
-15795.955455,-1591.108929,-3304.213679,-20192.990624,-4045.375174,-7921.301773,-9411.537279,-6251.134724,5488.649665,15494.586884,14228.204099,14821.419397,20786.474143,18022.859755,8571.066984,12034.201566,15.128000,-831.064026,-553.880005,3920.000000,-1400.000000,140.000000
-15799.509382,-1592.897069,-3298.379874,-20220.773842,-4041.530674,-7916.138520,-9410.844375,-6251.268834,5497.255087,15518.883231,14251.539320,14841.580670,20816.470184,18055.090970,8595.944476,12052.485293,15.616000,-831.064026,-554.367981,3920.000000,-1540.000000,140.000000
-15804.605580,-1598.417949,-3296.390569,-20262.862177,-4042.737668,-7913.299848,-9413.370122,-6251.760572,5513.013066,15555.853016,14290.699576,14871.979043,20859.117312,18098.229837,8630.589680,12080.983768,17.080000,-831.064026,-551.927979,3920.000000,-1540.000000,140.000000
-15810.618199,-1603.312982,-3300.212717,-20296.546256,-4050.158447,-7915.870299,-9421.796730,-6256.052107,5525.664154,15585.558484,14323.243716,14895.448374,20889.918016,18127.488271,8654.796619,12102.463794,18.544001,-830.088013,-555.832031,4340.000000,-1540.000000,0.000000
-15812.205173,-1603.134168,-3305.130101,-20302.961207,-4055.478162,-7920.318296,-9426.535300,-6260.254235,5533.576671,15591.481697,14328.541080,14901.639807,20894.276606,18130.036370,8656.048316,12108.364655,15.128000,-832.040039,-552.416016,4200.000000,-1540.000000,0.000000
-15820.117691,-1609.079732,-3313.400246,-20281.280015,-4062.071927,-7923.380485,-9428.435198,-6258.220227,5518.668058,15566.112467,14303.730643,14880.115078,20870.337888,18103.594256,8634.322421,12096.339416,15.128000,-831.064026,-554.856018,4620.000000,-1680.000000,0.000000
-15825.772682,-1613.326563,-3317.490616,-20241.203337,-4061.781354,-7924.341610,-9424.188366,-6255.605072,5490.348398,15524.493518,14262.871654,14844.732266,20829.054216,18062.645860,8603.745234,12074.211189,16.104000,-831.552002,-552.903992,4620.000000,-1260.000000,-140.000000
-15825.035074,-1610.577298,-3316.529491,-20205.351139,-4057.556874,-7922.821691,-9417.371084,-6254.979224,5469.650682,15489.602445,14228.405264,14813.372769,20793.224370,18028.648857,8577.772507,12052.529997,13.176001,-828.624023,-553.392029,4760.000000,-1540.000000,0.000000
-15829.661885,-1618.199243,-3319.368162,-20203.942979,-4064.038880,-7922.486415,-9422.579041,-6257.907302,5465.426202,15485.221503,14224.270192,14805.437899,20788.865780,18022.792700,8567.155429,12045.980936,13.176001,-830.088013,-551.440002,4480.000000,-1260.000000,-140.000000
-15836.903851,-1630.425648,-3323.391476,-20238.565831,-4074.924180,-7925.325087,-9438.851111,-6267.719718,5482.391177,15512.691797,14254.020364,14827.499071,20819.666483,18049.905366,8576.498458,12058.319099,14.640000,-832.528015,-553.880005,4480.000000,-980.000000,0.000000
-15849.823159,-1644.842523,-3326.744238,-20288.589035,-4082.076738,-7924.810997,-9448.887044,-6270.893666,5498.640895,15551.136798,14298.790908,14861.965461,20868.281528,18096.866381,8610.160185,12089.142154,15.128000,-833.992004,-554.856018,4200.000000,-1260.000000,0.000000
-15857.981546,-1650.810438,-3329.717020,-20330.006818,-4086.815308,-7924.922755,-9456.710155,-6272.771212,5516.946973,15584.195028,14333.994905,14894.666063,20906.704176,18134.841995,8641.653793,12115.964248,13.664001,-831.064026,-551.440002,4200.000000,-1260.000000,0.000000
-15860.015554,-1652.397412,-3334.567348,-20346.927088,-4092.202078,-7929.080180,-9462.968643,-6272.972378,5526.826444,15596.756708,14349.574071,14909.641732,20920.182278,18147.068399,8652.695555,12127.743617,17.080000,-832.528015,-552.416016,4200.000000,-1120.000000,0.000000
-15858.517988,-1650.832790,-3339.954119,-20333.985428,-4096.180689,-7933.729343,-9465.002652,-6271.921846,5522.043171,15584.172676,14337.705295,14901.349235,20906.614769,18129.365817,8639.038639,12121.082797,16.104000,-832.040039,-555.832031,4480.000000,-1120.000000,0.000000
-15853.555900,-1647.681194,-3343.977433,-20296.076869,-4098.549974,-7937.082104,-9461.560483,-6271.050128,5506.262840,15549.795693,14301.406062,14873.431906,20867.052182,18087.679814,8610.741330,12098.284018,14.152000,-833.015991,-551.440002,4200.000000,-1120.000000,0.000000
-15847.431522,-1641.243892,-3341.451686,-20251.261622,-4095.711302,-7937.842064,-9454.877312,-6270.536038,5488.672017,15512.602390,14260.748239,14841.066580,20824.360350,18043.624526,8578.063080,12070.769020,15.128000,-830.575989,-547.536011,4340.000000,-1260.000000,-140.000000
-15847.319764,-1636.997060,-3334.902624,-20228.954581,-4087.463509,-7933.304660,-9446.562463,-6266.825648,5474.903342,15493.201076,14238.508253,14824.414530,20806.188381,18027.777139,8564.272054,12058.453209,14.640000,-833.504028,-550.463989,4340.000000,-1400.000000,0.000000
-15852.617127,-1640.238063,-3330.767552,-20240.421026,-4081.964979,-7928.029648,-9442.852073,-6264.724584,5469.941255,15500.599504,14248.097151,14831.455330,20818.392434,18044.920927,8577.169010,12068.511494,14.152000,-832.528015,-551.440002,4620.000000,-1400.000000,0.000000
-15857.690973,-1647.234159,-3330.432276,-20280.989442,-4085.027168,-7927.694372,-9451.412791,-6270.021948,5486.079214,15533.724789,14285.625730,14858.925624,20857.373876,18084.014128,8605.108691,12090.907942,14.640000,-832.040039,-549.000000,4760.000000,-1400.000000,0.000000
-15855.075819,-1646.876531,-3328.331212,-20322.407224,-4085.384796,-7926.085046,-9457.984204,-6274.246427,5512.878956,15573.399135,14328.116396,14894.844877,20899.797487,18126.325980,8636.669354,12116.143062,15.128000,-833.992004,-551.440002,4900.000000,-1680.000000,140.000000
-15852.974755,-1646.608311,-3328.331212,-20343.596678,-4085.541259,-7927.403799,-9461.918111,-6276.615712,5526.200596,15594.320368,14349.954051,14915.542592,20919.958761,18147.113102,8654.483694,12129.129425,15.616000,-834.968018,-548.512024,5180.000000,-1680.000000,140.000000
-15853.980583,-1647.077697,-3331.929842,-20337.494652,-4087.061177,-7931.203596,-9463.281567,-6275.699291,5521.529081,15587.771307,14343.427341,14913.240363,20912.180354,18139.178233,8646.749991,12124.480262,17.568001,-835.455994,-548.023987,5460.000000,-1820.000000,280.000000
-15853.555900,-1641.020374,-3335.237901,-20299.139058,-4086.480032,-7934.399895,-9457.291300,-6270.021948,5503.155947,15550.689763,14303.842402,14885.211275,20871.254310,18099.012148,8617.558613,12102.821422,14.640000,-831.064026,-550.952026,5600.000000,-2100.000000,280.000000
-15850.449008,-1634.851293,-3333.740334,-20246.500700,-4078.612218,-7932.097665,-9442.539149,-6262.109430,5472.958740,15504.242838,14256.099076,14845.827502,20820.851126,18051.335877,8585.215638,12073.473581,16.592001,-833.992004,-549.976013,5880.000000,-1960.000000,280.000000
-15851.946575,-1640.930967,-3332.220415,-20223.433700,-4079.394529,-7930.935375,-9443.746143,-6264.657529,5460.888798,15482.718108,14237.122445,14824.101606,20800.064003,18029.677037,8562.349804,12057.380325,17.568001,-831.552002,-552.903992,6020.000000,-1820.000000,280.000000
-15849.309069,-1645.803648,-3329.605261,-20229.893354,-4082.970808,-7928.834311,-9449.714059,-6269.463154,5471.461173,15488.283692,14244.319706,14825.152138,20807.373024,18035.712008,8559.511132,12056.821532,15.616000,-831.064026,-548.512024,6020.000000,-1540.000000,140.000000
-15847.655040,-1647.882360,-3326.319555,-20260.492892,-4082.613180,-7927.090875,-9455.190236,-6272.815916,5488.627313,15517.050388,14275.165114,14845.782798,20839.559536,18066.803285,8581.304083,12071.439573,15.616000,-833.015991,-550.952026,6020.000000,-1260.000000,140.000000
-15850.426656,-1650.139886,-3326.811293,-20304.302311,-4083.574305,-7926.330915,-9460.979338,-6276.928637,5508.095683,15556.232996,14316.426434,14875.488266,20881.536112,18110.970332,8615.949287,12096.361768,15.616000,-830.088013,-551.927979,6160.000000,-980.000000,140.000000
-15851.499540,-1649.581093,-3327.325383,-20333.761911,-4082.747290,-7925.302735,-9462.096925,-6276.995692,5520.746770,15584.843228,14344.835501,14899.695206,20911.152173,18140.519338,8645.230072,12117.864146,16.104000,-829.112000,-552.903992,6160.000000,-560.000000,140.000000
-15850.985450,-1647.189456,-3329.046467,-20331.951419,-4080.109785,-7926.241508,-9456.732506,-6272.435936,5518.533947,15584.440897,14343.092065,14902.466822,20910.548676,18138.842957,8651.555616,12120.099320,15.128000,-829.600037,-550.952026,6440.000000,0.000000,0.000000
-15851.186615,-1645.915406,-3333.650927,-20304.749346,-4080.512116,-7929.594270,-9452.955062,-6268.457326,5504.362941,15556.545920,14314.124204,14883.557246,20880.195007,18109.964503,8629.047409,12104.497803,12.688000,-831.552002,-553.392029,6160.000000,560.000000,-140.000000
-15846.649211,-1640.998023,-3334.030906,-20266.997250,-4080.400357,-7931.605927,-9450.608128,-6264.948102,5493.589400,15523.241821,14278.115544,14855.394048,20842.733484,18072.614738,8595.206868,12082.816611,12.200000,-827.160034,-552.416016,6160.000000,700.000000,-140.000000
-15843.765836,-1638.472276,-3331.505159,-20234.341351,-4077.986369,-7929.527215,-9446.607166,-6264.232846,5478.546676,15495.637416,14246.912509,14829.041341,20811.239876,18040.607040,8566.618987,12061.627157,13.176001,-830.088013,-552.416016,6160.000000,840.000000,-140.000000
-15852.706534,-1648.798781,-3333.919148,-20233.112005,-4083.395491,-7928.230814,-9451.613957,-6269.664320,5469.762441,15489.088355,14240.050523,14819.743016,20808.155335,18036.539023,8558.795876,12058.743782,13.176001,-832.040039,-552.416016,6160.000000,1400.000000,-280.000000
-15858.763857,-1655.481953,-3331.080476,-20254.100293,-4083.015511,-7926.509729,-9453.424448,-6274.268779,5471.081194,15506.142736,14259.205968,14831.790606,20830.909411,18059.158988,8577.548990,12071.417221,14.640000,-831.552002,-549.976013,5740.000000,1120.000000,-140.000000
-15852.058333,-1652.397412,-3326.297203,-20292.053555,-4082.568477,-7925.816825,-9460.420544,-6279.588494,5499.065578,15547.985202,14299.617922,14865.631147,20870.315536,18097.358119,8608.126176,12092.584323,13.664001,-831.064026,-549.976013,5740.000000,1120.000000,-140.000000
-15849.040848,-1645.401316,-3326.230148,-20326.944629,-4080.512116,-7925.392142,-9463.482733,-6281.264875,5523.920718,15584.060917,14333.257298,14896.945941,20904.290188,18133.098559,8637.228148,12116.053655,16.104000,-830.575989,-549.487976,5600.000000,840.000000,0.000000
-15854.360563,-1647.055345,-3330.499331,-20341.741483,-4081.249724,-7926.643840,-9464.130934,-6278.940294,5532.056753,15595.348548,14343.181472,14907.563020,20917.947104,18145.839053,8648.426372,12128.235355,15.128000,-830.575989,-553.880005,5460.000000,560.000000,-140.000000
-15855.142874,-1647.524732,-3334.366183,-20325.044730,-4081.473241,-7930.376581,-9462.052222,-6276.503954,5525.708857,15578.897664,14324.718931,14893.324958,20899.953949,18127.309457,8637.183444,12120.926335,14.152000,-824.231995,-552.903992,5320.000000,0.000000,-140.000000
-15853.645307,-1642.808514,-3336.154322,-20284.722183,-4078.500459,-7932.142369,-9457.715983,-6273.285302,5505.815805,15540.810292,14287.503277,14862.546606,20859.005554,18087.098668,8607.299162,12097.300541,18.544001,-827.648010,-550.952026,5180.000000,-560.000000,-140.000000
-15851.410133,-1638.271110,-3335.148494,-20244.332581,-4075.952360,-7932.276479,-9453.871483,-6269.016119,5487.442671,15505.092204,14251.002878,14832.572917,20819.688835,18048.631316,8576.543161,12073.026547,16.104000,-829.112000,-550.952026,4900.000000,-980.000000,-140.000000
-15850.314897,-1635.521845,-3331.259290,-20224.238363,-4072.554895,-7931.851796,-9449.848169,-6270.312520,5475.260970,15487.031995,14233.926145,14818.111338,20801.449812,18030.906383,8564.361461,12058.564968,20.007999,-828.135986,-554.367981,4760.000000,-1540.000000,-280.000000
-15856.595738,-1641.623872,-3328.845302,-20236.755340,-4073.180744,-7928.767255,-9449.177617,-6272.212419,5471.416470,15495.927989,14244.677334,14823.431054,20813.899733,18045.032685,8573.548028,12065.136381,20.007999,-828.624023,-552.416016,4480.000000,-1540.000000,-560.000000
-15865.782304,-1653.827924,-3330.432276,-20280.654166,-4079.573343,-7927.403799,-9457.157190,-6274.715814,5486.660360,15532.048408,14284.128163,14848.979097,20856.569213,18087.433945,8603.432310,12093.187820,19.032000,-830.575989,-550.463989,4060.000000,-1820.000000,-700.000000
-15863.502427,-1654.520828,-3329.784075,-20324.463585,-4083.931933,-7928.476683,-9466.768440,-6278.515611,5514.242412,15571.879217,14325.277725,14883.512543,20899.082231,18129.030541,8633.003668,12118.132367,18.056000,-829.600037,-549.487976,3780.000000,-2240.000000,-700.000000
-15859.836740,-1650.542218,-3329.851130,-20345.541280,-4083.797822,-7929.907194,-9469.271835,-6279.141459,5530.447427,15593.627464,14345.818978,14906.199563,20919.556429,18149.929422,8649.633366,12130.403475,20.496000,-834.968018,-551.440002,3500.000000,-2240.000000,-840.000000
-15859.479113,-1650.251645,-3334.299127,-20340.802710,-4086.614142,-7933.572880,-9469.249483,-6277.666244,5532.682602,15588.754784,14340.231042,14904.657293,20913.253237,18141.413407,8647.442895,12129.017666,19.032000,-835.944031,-550.463989,3360.000000,-2240.000000,-980.000000
-15856.953365,-1647.904712,-3338.389497,-20306.850410,-4088.067006,-7937.149160,-9466.589626,-6277.733299,5519.338610,15558.021135,14308.245696,14878.997490,20878.563330,18103.840125,8620.419636,12108.856393,17.568001,-838.384033,-548.023987,3500.000000,-2520.000000,-1120.000000
-15856.126351,-1645.602482,-3338.769476,-20265.186759,-4085.921238,-7938.356154,-9461.515780,-6278.113279,5499.758482,15519.196155,14268.928977,14844.598156,20837.994914,18063.808151,8588.568400,12083.755384,19.520000,-837.408020,-543.143982,3500.000000,-2660.000000,-980.000000
-15854.159397,-1638.204055,-3335.975508,-20232.150880,-4080.735633,-7937.953822,-9454.229111,-6280.683730,5482.011197,15487.099050,14236.027209,14817.820766,20804.199076,18034.683828,8566.618987,12060.934253,18.544001,-842.288025,-547.048035,4060.000000,-2520.000000,-980.000000
-15859.434409,-1640.305119,-3333.226244,-20233.424930,-4080.892096,-7936.433904,-9454.318518,-6284.304712,5475.082156,15486.964939,14238.016515,14816.099681,20805.696643,18038.729493,8566.596635,12059.615500,17.080000,-842.776001,-543.143982,4480.000000,-2660.000000,-840.000000
-15862.362488,-1647.144752,-3329.404095,-20266.729029,-4080.512116,-7933.662287,-9459.727640,-6287.545715,5489.901363,15518.972638,14271.119448,14842.027705,20840.051274,18073.128828,8589.507173,12077.765116,17.080000,-844.239990,-541.679993,5180.000000,-2660.000000,-560.000000
-15857.422752,-1641.936796,-3324.754932,-20306.068099,-4076.779375,-7930.667154,-9463.259216,-6289.602076,5516.611697,15559.853978,14310.838498,14879.243359,20881.334946,18114.546611,8621.693685,12102.463794,14.152000,-844.239990,-547.048035,6020.000000,-2520.000000,-560.000000
-15860.239072,-1644.127267,-3326.855996,-20340.735655,-4078.902790,-7930.845968,-9466.723736,-6291.166698,5534.046058,15589.939426,14342.712086,14907.183040,20913.722624,18147.314268,8648.068744,12126.894251,14.640000,-842.776001,-542.656006,6580.000000,-2380.000000,-140.000000
-15861.557825,-1644.730764,-3330.231110,-20346.614164,-4080.534468,-7932.030610,-9468.266007,-6288.506840,5536.392991,15593.985092,14346.668344,14911.653389,20918.148269,18150.801140,8650.661546,12132.392780,14.640000,-842.776001,-545.583984,7560.000000,-2240.000000,140.000000
-15859.322650,-1639.813380,-3330.611090,-20314.606466,-4076.533506,-7932.388238,-9459.437067,-6284.170602,5517.438712,15565.039583,14316.448786,14889.681624,20887.504028,18120.581582,8632.199005,12116.165413,12.200000,-842.776001,-545.583984,7980.000000,-1960.000000,280.000000
-15859.166188,-1638.136999,-3331.974546,-20272.071096,-4075.147697,-7934.869282,-9453.044469,-6282.002483,5494.036435,15526.326361,14276.439163,14858.411534,20843.515795,18079.744945,8600.683045,12092.383157,14.152000,-841.799988,-545.583984,8960.000000,-1820.000000,840.000000
-15855.366392,-1636.997060,-3331.996898,-20240.219860,-4076.086471,-7935.852758,-9450.161093,-6280.415509,5483.195839,15499.213695,14247.068971,14833.064655,20810.435213,18046.932584,8574.151525,12072.221884,9.760000,-841.312012,-547.048035,8960.000000,-1680.000000,700.000000
-15855.232281,-1636.281805,-3331.438104,-20230.854479,-4076.287636,-7935.003392,-9451.055163,-6281.600151,5477.607903,15488.931893,14235.624878,14822.894612,20801.069832,18036.136691,8566.216656,12062.767096,12.688000,-837.408020,-544.119995,9240.000000,-1820.000000,980.000000
-15865.625842,-1646.787124,-3332.958023,-20257.028372,-4081.115613,-7933.550529,-9460.465248,-6287.456308,5478.457269,15506.053329,14256.523759,14837.780874,20825.589696,18061.237700,8577.861914,12074.278244,12.200000,-836.432007,-546.559998,9520.000000,-1540.000000,1260.000000
-15872.398421,-1651.548046,-3329.806427,-20297.552085,-4081.003854,-7928.633145,-9463.415678,-6286.539887,5489.141403,15540.027981,14295.795774,14870.101496,20867.096885,18105.762375,8609.154357,12100.027454,16.104000,-834.968018,-550.463989,9100.000000,-1680.000000,1260.000000
-15875.751183,-1656.666596,-3330.320517,-20335.192422,-4081.808517,-7927.806130,-9465.762611,-6283.410643,5501.591325,15573.712060,14332.407931,14899.985778,20905.296016,18141.994553,8639.865653,12124.681428,11.712000,-834.479980,-552.416016,8820.000000,-1960.000000,1400.000000
-15874.454781,-1657.895941,-3335.640232,-20350.860995,-4088.290523,-7932.656459,-9470.344719,-6283.857677,5511.783720,15589.559447,14347.674173,14911.340465,20918.058862,18150.510567,8651.086229,12133.867995,15.616000,-832.528015,-550.952026,8120.000000,-1960.000000,1680.000000
-15868.464514,-1650.385755,-3338.858883,-20330.029169,-4089.318703,-7937.484436,-9467.930730,-6285.042320,5509.257973,15572.661528,14326.730588,14898.108232,20895.595359,18126.437739,8638.345735,12121.172204,18.056000,-830.575989,-553.392029,8120.000000,-2940.000000,1680.000000
-15868.352755,-1651.145715,-3341.719907,-20291.271244,-4089.296352,-7939.272575,-9462.208684,-6280.683730,5489.074348,15535.155301,14287.749146,14868.067487,20855.496330,18087.121020,8608.640266,12098.686349,14.152000,-828.624023,-554.856018,8120.000000,-3360.000000,1680.000000
-15855.791075,-1638.807552,-3336.690764,-20243.326753,-4084.133099,-7940.054886,-9453.312689,-6279.119108,5476.266799,15498.721957,14245.012611,14836.596231,20811.128117,18043.289249,8575.246760,12066.991576,15.128000,-824.720032,-552.903992,7840.000000,-3220.000000,1820.000000
-15852.550072,-1634.247796,-3333.136837,-20223.478404,-4081.853221,-7939.004354,-9454.720849,-6280.728433,5470.902380,15482.002852,14227.399436,14822.112301,20792.799687,18025.988999,8553.699679,12049.333697,15.128000,-822.768005,-552.416016,7140.000000,-3640.000000,2240.000000
-15860.484941,-1641.221540,-3330.745200,-20237.560003,-4082.568477,-7933.550529,-9456.978376,-6280.437861,5465.359147,15489.602445,14238.530605,14827.521423,20807.238913,18042.059903,8559.533484,12056.039221,12.688000,-821.791992,-556.320007,6720.000000,-3220.000000,2240.000000
-15867.369278,-1643.724935,-3327.995935,-20270.595881,-4079.953322,-7928.923718,-9456.620748,-6282.158945,5467.996653,15516.826870,14268.750163,14850.230795,20841.504138,18078.269729,8590.691816,12075.954625,12.200000,-819.840027,-557.783997,6020.000000,-3220.000000,2520.000000
-15870.342060,-1645.803648,-3325.358430,-20310.650207,-4079.215715,-7926.397970,-9459.101791,-6283.231829,5481.184182,15554.020173,14309.564449,14882.685528,20883.860693,18120.760396,8623.504177,12101.189745,12.200000,-819.840027,-559.247986,5320.000000,-2800.000000,2800.000000
-15868.866845,-1648.463505,-3327.258328,-20336.108844,-4082.814346,-7928.834311,-9463.438030,-6281.778965,5498.663246,15579.590568,14337.861757,14905.372549,20910.123993,18145.503777,8641.184406,12118.199422,8.296000,-819.351990,-557.783997,4340.000000,-2100.000000,3080.000000
-15864.016517,-1643.054383,-3331.572215,-20333.694855,-4085.809479,-7934.086971,-9468.020137,-6282.315407,5513.348343,15580.305824,14336.565356,14908.077110,20907.128859,18137.904184,8634.881214,12115.271344,5.368000,-818.376038,-560.712036,3780.000000,-1540.000000,3220.000000
-15862.049563,-1637.645261,-3334.455590,-20301.553047,-4085.407148,-7937.685601,-9464.197989,-6280.147288,5505.189956,15551.047391,14303.216553,14884.563075,20872.528359,18103.571904,8608.930839,12098.574591,2.928000,-819.351990,-558.272034,3220.000000,-840.000000,3360.000000
-15858.763857,-1632.839636,-3334.924976,-20254.502625,-4080.802689,-7936.255090,-9454.385573,-6272.100660,5481.497107,15508.936704,14257.417829,14848.442656,20824.494460,18058.600194,8576.967845,12073.205361,1.464000,-823.255981,-559.736023,2520.000000,0.000000,3500.000000
-15859.926147,-1635.588901,-3335.170845,-20227.121738,-4080.579171,-7935.048096,-9454.206759,-6270.871314,5462.229903,15480.326471,14230.215756,14821.017065,20796.800649,18030.481700,8551.777429,12054.340488,-2.440000,-823.255981,-557.783997,2100.000000,560.000000,3780.000000
-15861.848397,-1642.942624,-3333.896796,-20231.547383,-4080.668578,-7931.874148,-9456.933672,-6272.301826,5460.039432,15482.360480,14233.836738,14817.530193,20802.165067,18035.220270,8552.023298,12056.374497,-1.464000,-826.184021,-555.343994,2100.000000,840.000000,3640.000000
-15856.416924,-1642.003851,-3328.577081,-20258.995325,-4076.421747,-7929.035476,-9457.403059,-6275.118145,5477.652607,15511.507155,14263.273986,14839.658420,20832.809309,18064.903386,8577.236066,12071.394869,-2.440000,-826.671997,-557.783997,1960.000000,1260.000000,3640.000000
-15854.159397,-1635.678307,-3322.609165,-20295.406317,-4072.309026,-7926.062694,-9458.833570,-6276.749823,5497.210383,15549.326307,14302.121318,14873.387202,20872.908339,18106.052948,8609.735502,12095.087718,-2.440000,-830.088013,-556.320007,1820.000000,1400.000000,3640.000000
-15856.103999,-1635.119514,-3321.826854,-20329.850355,-4074.365386,-7926.777950,-9464.756783,-6278.716776,5514.689447,15581.825743,14335.604231,14903.271485,20908.514668,18140.474634,8634.098903,12119.339361,-1.464000,-833.015991,-555.343994,2100.000000,1400.000000,3220.000000
-15860.261424,-1637.555854,-3326.386610,-20334.186594,-4075.706491,-7929.683677,-9464.890893,-6276.794526,5513.862433,15582.898627,14338.800530,14906.110156,20911.263932,18141.256945,8639.820950,12126.514271,-0.488000,-833.015991,-556.807983,2100.000000,980.000000,2800.000000
-15860.842569,-1637.041764,-3331.393401,-20308.951474,-4076.935837,-7933.841101,-9459.861751,-6275.185201,5502.172470,15558.222301,14315.018274,14886.731194,20882.385478,18112.266733,8623.995915,12116.388931,4.392000,-836.432007,-551.927979,2520.000000,700.000000,2380.000000
-15859.769685,-1636.281805,-3336.176674,-20271.042916,-4081.137965,-7936.031572,-9457.559521,-6276.101622,5485.587476,15520.581963,14278.048489,14853.404743,20842.264097,18071.430096,8593.239915,12093.254875,6.344000,-836.919983,-553.880005,2800.000000,0.000000,1960.000000
-15856.618089,-1633.040802,-3336.243729,-20236.353008,-4079.662750,-7935.204558,-9454.631442,-6274.805221,5473.629293,15489.066003,14246.577233,14826.046208,20808.043576,18036.650781,8564.473219,12070.746669,9.272000,-838.384033,-550.952026,3220.000000,-280.000000,1400.000000
-15856.215758,-1635.208921,-3332.622747,-20227.166441,-4076.287636,-7933.081142,-9453.491503,-6274.626407,5469.315406,15481.689928,14237.792997,14818.603077,20800.488687,18029.989961,8555.063135,12064.644642,12.688000,-840.335999,-550.952026,3640.000000,-1120.000000,840.000000
-15856.796903,-1636.080639,-3327.928880,-20246.120721,-4070.945569,-7930.041305,-9453.916187,-6275.185201,5477.071461,15498.878419,14253.238053,14833.310525,20819.487669,18052.900499,8570.374080,12075.552294,14.152000,-839.359985,-552.416016,3920.000000,-1960.000000,0.000000
-15854.829950,-1630.291537,-3321.156302,-20279.156599,-4065.424689,-7925.325087,-9453.536207,-6275.408718,5491.510688,15532.562498,14285.066937,14865.117057,20854.736370,18092.440735,8599.185479,12096.384120,19.032000,-839.359985,-551.440002,4480.000000,-2660.000000,-420.000000
-15862.943633,-1641.087430,-3323.324421,-20324.530640,-4072.241971,-7924.520424,-9460.487599,-6275.051090,5508.565069,15572.169789,14327.535251,14899.583447,20899.953949,18136.920707,8631.975488,12127.564803,19.032000,-842.776001,-547.048035,4760.000000,-3220.000000,-980.000000
-15866.676374,-1647.457677,-3331.169883,-20347.932917,-4083.127270,-7930.711857,-9469.003614,-6277.129802,5527.340535,15592.934560,14350.177568,14915.341427,20919.176450,18152.499873,8644.537168,12142.674582,23.912001,-839.848022,-549.000000,5320.000000,-3920.000000,-1260.000000
-15862.720116,-1643.076735,-3336.623709,-20330.632666,-4086.144756,-7935.629241,-9468.891855,-6277.576837,5524.993601,15576.953063,14332.854966,14904.232610,20897.674072,18131.846861,8630.589680,12132.281021,24.888000,-837.895996,-552.416016,5460.000000,-4340.000000,-1680.000000
-15856.461627,-1637.131171,-3336.266081,-20289.192532,-4083.686064,-7938.043229,-9463.929768,-6275.364015,5507.156909,15541.570251,14294.633483,14874.325976,20857.373876,18090.406727,8599.900734,12107.135309,26.840000,-837.895996,-553.392029,5740.000000,-4480.000000,-1960.000000
-15850.337249,-1631.163255,-3334.187369,-20245.763093,-4082.032035,-7939.138465,-9460.733469,-6275.453422,5490.214287,15505.874515,14254.243881,14839.725475,20815.665521,18046.731418,8564.920254,12076.491067,24.400000,-836.432007,-551.440002,6300.000000,-4480.000000,-2100.000000
-15848.102075,-1630.313889,-3330.834607,-20224.908915,-4079.752157,-7936.322145,-9455.123181,-6275.073442,5480.178354,15488.775431,14235.423712,14821.955838,20796.018338,18028.872374,8550.749248,12064.152904,24.888000,-835.944031,-554.856018,6580.000000,-4480.000000,-2240.000000
-15849.845511,-1630.716220,-3326.543072,-20233.044950,-4076.086471,-7931.583575,-9450.339907,-6274.604055,5479.820726,15495.838582,14241.056352,14825.174490,20805.741347,18041.568165,8562.640376,12070.456096,22.936001,-833.992004,-551.927979,6580.000000,-4200.000000,-2380.000000
-15854.382915,-1631.587938,-3322.810331,-20266.080828,-4072.353729,-7927.694372,-9450.943405,-6275.609884,5488.962589,15521.900716,14269.197198,14848.085028,20840.163033,18077.308604,8593.865763,12090.460907,25.864000,-833.015991,-551.440002,6580.000000,-3640.000000,-2380.000000
-15865.022345,-1642.205017,-3326.632479,-20313.555934,-4077.494631,-7928.364924,-9460.800524,-6274.849924,5506.776930,15561.195083,14313.386597,14880.919740,20885.380612,18122.146204,8628.600374,12119.339361,26.352001,-833.015991,-552.903992,6860.000000,-3220.000000,-2240.000000
-15866.274043,-1639.209883,-3327.325383,-20334.745387,-4077.896962,-7929.907194,-9462.163980,-6271.184238,5519.182148,15580.797563,14332.542042,14900.946903,20904.334891,18142.933326,8647.018212,12132.571594,22.448000,-830.575989,-554.367981,6580.000000,-2520.000000,-2240.000000
-15859.657927,-1630.135075,-3326.565424,-20324.508288,-4074.566552,-7931.427113,-9459.526474,-6271.944198,5521.350267,15575.164923,14324.473062,14898.734081,20894.567179,18133.925573,8637.675183,12126.000181,20.984001,-832.040039,-553.880005,6160.000000,-2100.000000,-1960.000000
-15854.628784,-1622.580185,-3327.437142,-20286.487971,-4069.671520,-7933.595232,-9452.306861,-6270.960721,5502.619505,15542.039638,14290.721928,14871.196731,20856.725676,18096.866381,8612.887098,12104.050768,23.912001,-831.552002,-555.832031,6160.000000,-1400.000000,-1680.000000
-15854.181749,-1623.876586,-3329.694668,-20245.852500,-4072.197267,-7936.143331,-9448.462361,-6271.251294,5478.434918,15502.119422,14254.020364,14837.445597,20814.927914,18055.739171,8581.460545,12078.323910,21.472000,-829.600037,-552.903992,5880.000000,-700.000000,-1260.000000
-15863.658889,-1638.092296,-3335.997860,-20227.993456,-4081.473241,-7938.266747,-9451.792771,-6272.324177,5460.777040,15478.672442,14233.568517,14813.640989,20793.224370,18032.225136,8558.773525,12064.890512,20.007999,-834.479980,-553.880005,5600.000000,-560.000000,-840.000000
-15858.450932,-1635.387735,-3333.181540,-20230.228630,-4082.926104,-7935.562186,-9453.357393,-6274.201724,5469.181296,15486.272035,14236.876576,14816.233792,20797.270035,18033.700351,8559.309966,12064.041145,19.032000,-830.088013,-554.367981,5460.000000,0.000000,-560.000000
-15850.136083,-1626.938775,-3322.072723,-20252.826244,-4074.566552,-7927.135578,-9450.272852,-6273.911151,5485.073386,15515.821042,14262.961061,14840.507786,20825.455585,18065.193959,8581.259380,12079.106221,18.544001,-830.088013,-550.463989,5320.000000,280.000000,140.000000
-15851.991278,-1630.224482,-3317.982354,-20296.278035,-4073.337206,-7924.095741,-9455.033774,-6274.648759,5501.904249,15555.540091,14305.407024,14874.773011,20870.337888,18110.947980,8612.954153,12107.582344,19.032000,-830.088013,-552.903992,5040.000000,140.000000,280.000000
-15852.661831,-1628.637508,-3318.183520,-20327.436367,-4075.371215,-7925.772122,-9458.677108,-6275.408718,5520.165625,15584.798525,14335.693638,14902.153898,20901.160944,18141.771035,8639.038639,12129.375294,18.544001,-834.968018,-550.463989,5040.000000,280.000000,840.000000
-15849.867862,-1623.116627,-3320.262232,-20326.587001,-4074.767718,-7928.990773,-9455.525512,-6272.011253,5523.540738,15584.887932,14334.710161,14905.908991,20899.283397,18140.742855,8645.185369,12131.789283,16.104000,-830.575989,-554.367981,4760.000000,280.000000,980.000000
-15848.862034,-1618.735685,-3325.380781,-20298.692024,-4076.108822,-7934.779875,-9452.753896,-6270.178410,5510.934354,15555.607147,14304.356492,14883.713708,20870.539054,18110.210372,8623.906508,12115.271344,16.592001,-832.528015,-552.903992,4620.000000,280.000000,1260.000000
-15851.678354,-1618.802740,-3327.705363,-20257.989497,-4076.444099,-7936.366849,-9449.915224,-6268.412622,5486.772118,15515.150489,14264.235111,14850.946051,20830.998818,18068.479665,8590.155374,12089.790355,15.616000,-831.552002,-549.976013,4760.000000,140.000000,1540.000000
-15856.238110,-1622.937813,-3330.320517,-20225.713578,-4077.092299,-7936.255090,-9445.310765,-6268.166753,5464.286264,15481.309948,14230.640439,14823.632219,20798.477030,18036.382560,8566.082545,12070.769020,16.104000,-831.064026,-552.416016,4760.000000,0.000000,1680.000000
-15861.244900,-1630.000964,-3330.834607,-20217.756357,-4078.478107,-7934.511654,-9444.863730,-6270.379576,5450.785810,15469.776448,14221.386817,14811.361112,20789.581035,18029.207650,8559.242911,12064.935215,13.664001,-830.088013,-553.392029,4620.000000,-280.000000,1960.000000
-15857.646270,-1630.202130,-3324.687877,-20237.828223,-4074.857125,-7928.722552,-9443.544977,-6269.798430,5461.805220,15491.301178,14244.051486,14826.269725,20811.597504,18052.989906,8576.632568,12077.161619,8.784000,-831.064026,-547.536011,4620.000000,-700.000000,1960.000000
-15854.874653,-1632.772581,-3318.094113,-20278.351936,-4072.085508,-7924.296907,-9447.277718,-6271.318349,5483.173488,15533.277754,14285.893951,14860.713763,20853.574080,18097.291064,8607.679141,12101.368559,13.664001,-829.600037,-549.000000,4620.000000,-980.000000,2240.000000
-15854.695839,-1635.901825,-3319.502273,-20319.434442,-4073.694834,-7926.062694,-9455.592567,-6272.927674,5506.464005,15572.862693,14324.182489,14894.844877,20891.572045,18136.071341,8635.618822,12125.284925,10.248000,-835.455994,-548.512024,4900.000000,-1260.000000,2240.000000
-15855.187578,-1637.488799,-3325.514892,-20334.655980,-4078.612218,-7931.717686,-9460.465248,-6273.888799,5516.388180,15585.379670,14335.783045,14907.361854,20902.323234,18145.347315,8646.392363,12133.040980,8.296000,-833.015991,-546.072021,4900.000000,-1400.000000,2380.000000
-15853.332383,-1635.790066,-3331.058124,-20318.987408,-4081.741462,-7937.283270,-9461.985166,-6273.955855,5515.203537,15572.326252,14320.293286,14896.275389,20884.866522,18124.649599,8632.601337,12122.580364,5.856000,-833.504028,-544.608032,5040.000000,-1680.000000,2240.000000
-15847.140950,-1628.793970,-3331.482808,-20278.039012,-4077.315817,-7939.272575,-9455.883140,-6272.190067,5501.412511,15537.502234,14283.390556,14866.167589,20845.460396,18083.410631,8603.588772,12099.692178,4.392000,-832.528015,-552.416016,4900.000000,-1680.000000,2240.000000
-15845.062237,-1625.083581,-3331.773380,-20233.447282,-4072.309026,-7938.982003,-9448.819989,-6272.994730,5479.463098,15496.307969,14241.034000,14830.851833,20800.175762,18041.076427,8572.497496,12070.992538,5.368000,-832.528015,-546.559998,5040.000000,-1960.000000,1960.000000
-15848.191482,-1630.313889,-3332.421581,-20214.828278,-4072.353729,-7936.568014,-9448.417657,-6272.972378,5465.649720,15476.996061,14221.252706,14811.517574,20780.282710,18022.949162,8555.264301,12057.268567,3.416000,-830.575989,-546.559998,4760.000000,-1960.000000,1680.000000
-15851.767761,-1637.019412,-3331.013421,-20231.145052,-4077.360520,-7935.428075,-9455.547864,-6275.967512,5471.483525,15487.680195,14233.724980,14817.127862,20796.152448,18037.790720,8560.025222,12062.141247,6.344000,-831.552002,-548.512024,4760.000000,-2100.000000,1540.000000
-15848.772627,-1634.560720,-3324.889043,-20267.846616,-4074.901828,-7931.963555,-9460.197027,-6277.979169,5491.331874,15522.392454,14270.203027,14846.453350,20836.184423,18079.141447,8584.656845,12083.218942,5.368000,-833.015991,-549.000000,4620.000000,-1960.000000,1260.000000
-15852.460665,-1637.734668,-3323.369124,-20310.449041,-4072.443136,-7929.191939,-9462.409849,-6278.627369,5505.212308,15560.301013,14312.134899,14879.980967,20879.949138,18125.118986,8622.207775,12113.282038,4.880000,-833.504028,-549.487976,4340.000000,-2240.000000,980.000000
-15857.422752,-1645.758944,-3329.851130,-20337.069969,-4078.187535,-7933.706991,-9465.807315,-6279.655549,5515.382351,15580.685804,14337.615888,14895.604836,20903.843153,18146.643716,8647.152322,12132.482187,5.856000,-832.528015,-549.976013,4200.000000,-1960.000000,420.000000
-15852.192444,-1642.495590,-3332.287470,-20328.553954,-4079.171011,-7938.266747,-9463.259216,-6280.482564,5518.377485,15574.226150,14330.955068,14890.374528,20892.019080,18134.730236,8642.816084,12129.643515,6.344000,-834.968018,-547.536011,4060.000000,-1960.000000,140.000000
-15843.788188,-1633.241967,-3332.287470,-20289.818381,-4075.415918,-7939.473741,-9455.592567,-6277.353320,5507.603944,15543.246632,14295.125222,14863.887711,20851.964754,18096.531105,8615.859880,12108.856393,7.808000,-833.015991,-550.952026,3780.000000,-1960.000000,-140.000000
-15836.143891,-1621.552005,-3330.275813,-20239.258735,-4068.933912,-7939.160817,-9445.511931,-6273.709985,5488.359092,15501.292408,14247.270137,14828.326086,20802.388585,18049.212462,8579.314778,12078.793297,9.760000,-835.455994,-550.463989,3640.000000,-1960.000000,-420.000000
-15832.500557,-1617.774560,-3327.079514,-20206.692243,-4064.351805,-7937.149160,-9440.058105,-6272.927674,5472.176429,15473.106858,14216.782357,14803.359187,20771.923157,18019.730511,8556.136019,12059.012003,8.296000,-832.528015,-550.463989,3500.000000,-1960.000000,-560.000000
-15831.651191,-1620.970860,-3323.190310,-20211.430813,-4066.385814,-7934.556357,-9444.483750,-6278.269741,5478.881953,15479.097125,14223.957267,14804.655588,20780.506227,18025.810185,8554.079658,12059.839017,9.760000,-834.479980,-546.072021,2940.000000,-1820.000000,-840.000000
-15831.830005,-1621.283784,-3317.870595,-20238.029389,-4063.748308,-7930.913023,-9443.857902,-6280.303750,5489.722549,15504.175783,14249.773532,14825.375655,20810.390509,18055.828578,8578.577170,12076.289901,11.712000,-832.528015,-546.559998,2800.000000,-1960.000000,-1120.000000
-15837.350886,-1626.022354,-3317.155339,-20278.575454,-4064.754136,-7929.482511,-9445.914262,-6280.527268,5500.809014,15537.613992,14287.011538,14856.735153,20851.137740,18097.358119,8613.244726,12101.033282,10.736000,-834.479980,-549.976013,2660.000000,-1960.000000,-1260.000000
-15839.764874,-1626.178816,-3317.043581,-20307.632721,-4064.172991,-7928.700200,-9446.428352,-6279.364977,5511.582555,15562.826760,14314.258315,14881.746755,20879.256234,18126.303628,8636.937575,12118.758216,10.736000,-831.552002,-545.583984,2380.000000,-1960.000000,-1540.000000
-15838.043790,-1622.133150,-3317.043581,-20311.588980,-4061.513133,-7927.359095,-9444.014364,-6273.374709,5516.477587,15567.230054,14319.108643,14889.346348,20883.480714,18131.466881,8642.905491,12125.240222,15.128000,-836.432007,-546.559998,2380.000000,-1960.000000,-1540.000000
-15844.771665,-1627.788142,-3326.900700,-20293.796992,-4068.732747,-7932.790569,-9446.562463,-6272.704157,5504.877031,15545.302992,14299.282646,14870.727345,20861.911280,18107.304645,8621.246650,12113.483204,13.664001,-833.015991,-549.000000,2240.000000,-1820.000000,-1540.000000
-15847.386819,-1629.732743,-3331.795732,-20257.833035,-4071.906694,-7934.779875,-9444.260233,-6268.122049,5487.710892,15510.411919,14265.017422,14841.737132,20825.768510,18069.619604,8590.490650,12092.919599,15.128000,-834.479980,-549.487976,2240.000000,-2100.000000,-1540.000000
-15847.275060,-1630.090371,-3330.208758,-20223.634866,-4070.453831,-7933.461122,-9440.907471,-6264.791639,5470.432993,15478.538332,14234.194366,14815.049149,20793.313777,18036.919002,8562.416859,12072.065422,15.128000,-834.479980,-545.096008,2240.000000,-1960.000000,-1540.000000
-15845.956307,-1630.805627,-3325.045505,-20211.319055,-4068.464526,-7929.706029,-9438.337021,-6266.892703,5461.045261,15470.782276,14223.286715,14803.694463,20783.858989,18028.715912,8553.140885,12061.962433,16.104000,-834.479980,-547.536011,1960.000000,-1960.000000,-1260.000000
-15845.889252,-1634.359555,-3320.195177,-20232.776729,-4066.810497,-7927.761427,-9440.616899,-6271.765384,5466.230865,15493.648111,14243.045657,14817.194917,20807.931818,18052.632279,8570.441135,12071.104297,14.640000,-833.992004,-546.559998,1960.000000,-2240.000000,-1260.000000
-15846.380990,-1636.058287,-3318.049409,-20276.586148,-4068.620988,-7926.822654,-9447.635346,-6275.073442,5489.230810,15532.607202,14285.089288,14850.409609,20852.210623,18097.089898,8602.337075,12097.300541,18.056000,-833.015991,-543.632019,1820.000000,-2100.000000,-980.000000
-15851.611299,-1638.896959,-3319.636383,-20317.199268,-4068.933912,-7927.202633,-9453.871483,-6277.442727,5506.978095,15567.386516,14322.617867,14882.976101,20891.192066,18136.361913,8633.428351,12124.122634,15.128000,-832.040039,-547.048035,1820.000000,-1960.000000,-840.000000
-15848.616165,-1634.761886,-3321.625688,-20331.951419,-4067.972787,-7928.789607,-9457.559521,-6277.398023,5518.578651,15582.384537,14338.465254,14899.136412,20904.893685,18148.051876,8643.620747,12134.337382,18.544001,-832.528015,-545.096008,1820.000000,-1680.000000,-420.000000
-15846.626860,-1629.173950,-3326.476017,-20316.484012,-4070.342072,-7933.461122,-9457.984204,-6278.046224,5513.840081,15568.057068,14323.400178,14888.519333,20886.878179,18128.516451,8629.203871,12125.262573,16.592001,-831.552002,-547.536011,1820.000000,-1680.000000,-420.000000
-15847.699743,-1626.201168,-3330.678145,-20276.295576,-4069.515058,-7936.679773,-9449.132913,-6278.068576,5489.186107,15529.746178,14281.937692,14854.611737,20844.745141,18087.612759,8602.873516,12103.313160,14.640000,-831.064026,-548.512024,1960.000000,-1540.000000,-280.000000
-15846.649211,-1627.072886,-3331.661622,-20239.079921,-4070.990273,-7935.897462,-9444.170826,-6276.950988,5472.154078,15495.816230,14246.823102,14823.945144,20807.574190,18050.508863,8575.649092,12083.598922,17.080000,-830.575989,-546.072021,1960.000000,-1400.000000,0.000000
-15843.497615,-1626.201168,-3330.320517,-20219.723310,-4069.939741,-7932.768218,-9440.125160,-6275.609884,5464.800354,15478.203056,14229.858128,14807.047225,20789.491628,18033.432130,8562.685080,12073.764154,16.592001,-832.528015,-548.512024,1680.000000,-1260.000000,140.000000
-15844.101112,-1626.223520,-3326.923052,-20229.736892,-4070.073851,-7930.980078,-9440.929823,-6280.326102,5466.409679,15488.373099,14240.028172,14812.791623,20800.198114,18044.764464,8569.122382,12077.251026,15.128000,-829.600037,-547.048035,2100.000000,-1260.000000,420.000000
-15848.973793,-1627.855197,-3323.950270,-20265.387924,-4070.587941,-7929.840139,-9445.958966,-6285.042320,5477.205572,15521.878364,14272.572311,14841.044228,20836.542050,18081.913064,8595.788013,12095.802974,16.104000,-831.552002,-548.512024,2240.000000,-1120.000000,560.000000
-15847.923261,-1623.675421,-3320.373991,-20303.877628,-4067.548104,-7927.694372,-9447.992974,-6283.857677,5498.707950,15560.926862,14308.849193,14876.404688,20876.126990,18123.040274,8630.008534,12119.473472,13.664001,-831.064026,-546.559998,2100.000000,-980.000000,420.000000
-15850.828987,-1626.067057,-3322.430351,-20328.777472,-4067.391642,-7929.191939,-9449.959928,-6281.890724,5509.436787,15583.971510,14331.402103,14897.638845,20899.171638,18145.995515,8650.952119,12137.511329,11.224000,-830.575989,-545.583984,2240.000000,-1120.000000,700.000000
-15848.996144,-1623.317793,-3324.866691,-20320.686140,-4067.056366,-7931.203596,-9449.423486,-6279.208515,5507.425130,15576.930711,14324.361303,14893.704938,20890.521513,18136.496024,8646.928805,12133.309201,12.200000,-830.575989,-546.559998,2240.000000,-1120.000000,700.000000
-15848.772627,-1622.893110,-3329.717020,-20288.007890,-4067.995139,-7934.288136,-9446.830684,-6275.229904,5492.963552,15545.794731,14291.593646,14867.084010,20856.278641,18100.532067,8619.905546,12113.952591,12.200000,-830.575989,-546.559998,2100.000000,-1260.000000,700.000000
-15849.733752,-1627.721086,-3334.857921,-20252.558023,-4072.532543,-7938.356154,-9448.104733,-6273.933503,5475.864467,15510.456623,14256.322593,14835.053961,20818.370082,18060.388334,8584.880362,12091.377329,12.200000,-827.648010,-547.048035,2380.000000,-1260.000000,700.000000
-15844.592851,-1623.831883,-3331.661622,-20223.344293,-4070.610293,-7937.171511,-9445.735448,-6275.296959,5463.012214,15485.959111,14230.483977,14811.584629,20791.235064,18033.409778,8560.628719,12070.701965,13.176001,-830.088013,-548.512024,2520.000000,-1260.000000,700.000000
-15843.631726,-1622.580185,-3326.297203,-20218.069281,-4065.290578,-7933.550529,-9443.097942,-6278.515611,5454.227978,15479.879436,14226.170090,14806.488431,20787.301157,18032.582764,8560.963996,12066.432782,11.224000,-831.552002,-550.463989,2660.000000,-1540.000000,560.000000
-15844.950479,-1627.184645,-3322.989145,-20248.579413,-4066.765793,-7931.628279,-9447.545939,-6284.617637,5462.855752,15507.394434,14255.070896,14829.577783,20816.805460,18063.741096,8585.953246,12084.269474,13.664001,-833.015991,-548.512024,2940.000000,-1680.000000,420.000000
-15848.660868,-1637.019412,-3323.547938,-20296.613311,-4073.516020,-7930.220119,-9456.061954,-6286.584590,5485.431014,15553.014344,14302.166021,14864.871188,20864.414676,18110.120965,8619.570270,12113.773777,13.176001,-831.552002,-550.952026,3080.000000,-1540.000000,280.000000
-15849.197310,-1640.774505,-3325.403133,-20331.683198,-4077.449927,-7931.829444,-9462.387498,-6285.846983,5507.000447,15585.692595,14337.548833,14892.922627,20898.501086,18143.156844,8642.883139,12135.410265,11.712000,-830.575989,-550.952026,3500.000000,-1680.000000,140.000000
